time,emg1,emg2,emg3
0.01728788300533779,0.2111355311355311,0.18937728937728937,0.24095238095238095
0.03417002200149,1.4247619047619047,0.03868131868131868,0.20065934065934066
0.04577898100251332,0.4456410256410256,0.06124542124542124,0.02095238095238095
0.053606307999871206,0.21677655677655677,0.06043956043956044,0.0693040293040293
0.059162410005228594,0.21677655677655677,0.06043956043956044,0.0693040293040293
0.0601356039987877,0.21677655677655677,0.06043956043956044,0.0693040293040293
0.06114613100362476,0.21677655677655677,0.06043956043956044,0.0693040293040293
0.062177820000215434,0.21677655677655677,0.06043956043956044,0.0693040293040293
0.06313502100238111,0.21677655677655677,0.06043956043956044,0.0693040293040293
0.0641313820015057,0.21677655677655677,0.06043956043956044,0.0693040293040293
0.0651325069993618,0.21677655677655677,0.06043956043956044,0.0693040293040293
0.06613192400254775,0.1104029304029304,0.09106227106227105,0.06849816849816849
0.06708029600122245,0.1104029304029304,0.09106227106227105,0.06849816849816849
0.06808699700195575,0.1104029304029304,0.09106227106227105,0.06849816849816849
0.06908048000332201,0.1104029304029304,0.09106227106227105,0.06849816849816849
0.07010938500025077,0.1104029304029304,0.09106227106227105,0.06849816849816849
0.07110187799844425,0.1104029304029304,0.09106227106227105,0.06849816849816849
0.07203314000071259,0.1104029304029304,0.09106227106227105,0.06849816849816849
0.07303243900241796,0.1104029304029304,0.09106227106227105,0.06849816849816849
0.07405488299991703,1.1789743589743589,0.8654945054945055,0.8316483516483516
0.07508741600031499,1.5077655677655677,0.2989743589743589,0.29413919413919415
0.07539018199895509,1.6044688644688643,0.28446886446886444,0.19743589743589743
0.08051351500034798,1.6044688644688643,0.28446886446886444,0.19743589743589743
0.0845885820017429,1.6044688644688643,0.28446886446886444,0.19743589743589743
0.08794076000049245,1.6044688644688643,0.28446886446886444,0.19743589743589743
0.08885400200233562,1.6044688644688643,0.28446886446886444,0.19743589743589743
0.08994056100345915,1.6044688644688643,0.28446886446886444,0.19743589743589743
0.09026966799865477,1.6044688644688643,0.28446886446886444,0.19743589743589743
0.09645301500131609,1.6044688644688643,0.28446886446886444,0.19743589743589743
0.10055995800212258,1.6044688644688643,0.28446886446886444,0.19743589743589743
0.10309932000382105,1.6044688644688643,0.28446886446886444,0.19743589743589743
0.10327304200473009,1.6044688644688643,0.28446886446886444,0.19743589743589743
0.10795576700184029,1.6044688644688643,0.28446886446886444,0.19743589743589743
0.10829768300027354,0.3497435897435897,0.08542124542124542,0.12329670329670328
0.11286154800473014,0.3497435897435897,0.08542124542124542,0.12329670329670328
0.11320984300255077,0.3497435897435897,0.08542124542124542,0.12329670329670328
0.11834566300240112,0.3497435897435897,0.08542124542124542,0.12329670329670328
0.12203650900482899,0.3497435897435897,0.08542124542124542,0.12329670329670328
0.1222043460002169,0.3497435897435897,0.08542124542124542,0.12329670329670328
0.12733439200383145,0.3497435897435897,0.08542124542124542,0.12329670329670328
0.13107561800279655,0.3497435897435897,0.08542124542124542,0.12329670329670328
0.13120522499957588,0.3497435897435897,0.08542124542124542,0.12329670329670328
0.13634544500382617,0.3497435897435897,0.08542124542124542,0.12329670329670328
0.14022282999940217,0.3497435897435897,0.08542124542124542,0.12329670329670328
0.14562621200457215,0.3497435897435897,0.08542124542124542,0.12329670329670328
0.1464807730008033,0.3497435897435897,0.08542124542124542,0.12329670329670328
0.14806983100424986,0.3497435897435897,0.08542124542124542,0.12329670329670328
0.15250688700325554,0.3497435897435897,0.08542124542124542,0.12329670329670328
0.15405321700382046,0.66,0.5044688644688645,0.4754578754578754
0.1578132650029147,0.66,0.5044688644688645,0.4754578754578754
0.1623024440050358,1.851062271062271,0.23369963369963367,0.12893772893772892
0.1631354810015182,1.851062271062271,0.23369963369963367,0.12893772893772892
0.16487231299834093,1.851062271062271,0.23369963369963367,0.12893772893772892
0.1679814820017782,1.851062271062271,0.23369963369963367,0.12893772893772892
0.16961570300190942,1.851062271062271,0.23369963369963367,0.12893772893772892
0.1733898950042203,1.851062271062271,0.23369963369963367,0.12893772893772892
0.1735771180028678,1.261172161172161,0.9493040293040291,0.9219047619047619
0.17842066400044132,1.261172161172161,0.9493040293040291,0.9219047619047619
0.18389328200282762,1.261172161172161,0.9493040293040291,0.9219047619047619
0.18473130400525406,1.261172161172161,0.9493040293040291,0.9219047619047619
0.1861725250055315,1.261172161172161,0.9493040293040291,0.9219047619047619
0.19123308300186181,1.261172161172161,0.9493040293040291,0.9219047619047619
0.19482712999888463,1.261172161172161,0.9493040293040291,0.9219047619047619
0.19504159899952356,1.261172161172161,0.9493040293040291,0.9219047619047619
0.19908689000294544,1.261172161172161,0.9493040293040291,0.9219047619047619
0.20393218100070953,1.261172161172161,0.9493040293040291,0.9219047619047619
0.20996154499880504,1.261172161172161,0.9493040293040291,0.9219047619047619
0.21508214400091674,1.261172161172161,0.9493040293040291,0.9219047619047619
0.21817745700536761,1.598021978021978,0.307032967032967,0.27802197802197803
0.2185335450049024,1.598021978021978,0.307032967032967,0.27802197802197803
0.22415198600356234,1.598021978021978,0.307032967032967,0.27802197802197803
0.22429051100334618,1.598021978021978,0.307032967032967,0.27802197802197803
0.2308726960036438,1.598021978021978,0.307032967032967,0.27802197802197803
0.23779607100004796,1.598021978021978,0.307032967032967,0.27802197802197803
0.24151244800304994,1.598021978021978,0.307032967032967,0.27802197802197803
0.24722863000351936,1.598021978021978,0.307032967032967,0.27802197802197803
0.24748843400448095,1.598021978021978,0.307032967032967,0.27802197802197803
0.2544258470006753,1.598021978021978,0.307032967032967,0.27802197802197803
0.2589361030040891,0.03062271062271062,0.195018315018315,0.2216117216117216
0.25978234100330155,0.03062271062271062,0.195018315018315,0.2216117216117216
0.26134098900365643,0.03062271062271062,0.195018315018315,0.2216117216117216
0.26675292500294745,0.03062271062271062,0.195018315018315,0.2216117216117216
0.26920472400524886,0.03062271062271062,0.195018315018315,0.2216117216117216
0.2742210799988243,0.03062271062271062,0.195018315018315,0.2216117216117216
0.2789963870018255,0.7252747252747253,0.6519413919413919,0.606007326007326
0.2871008080037427,0.7252747252747253,0.6519413919413919,0.606007326007326
0.2919543739990331,0.7252747252747253,0.6519413919413919,0.606007326007326
0.2965761529994779,0.7252747252747253,0.6519413919413919,0.606007326007326
0.29681507799978135,1.5335531135531135,0.05641025641025641,0.24901098901098898
0.3052086870011408,1.5335531135531135,0.05641025641025641,0.24901098901098898
0.3091644170053769,1.5335531135531135,0.05641025641025641,0.24901098901098898
0.31297871000424493,2.4385347985347985,0.42388278388278383,0.4488644688644688
0.32062124000367476,0.6575824175824176,0.27399267399267396,0.29413919413919415
0.32541112499893643,0.6575824175824176,0.27399267399267396,0.29413919413919415
0.32554771000286564,0.6575824175824176,0.27399267399267396,0.29413919413919415
0.33106377700460143,0.6575824175824176,0.27399267399267396,0.29413919413919415
0.3345952780000516,0.6575824175824176,0.27399267399267396,0.29413919413919415
0.3398084930013283,0.6575824175824176,0.27399267399267396,0.29413919413919415
0.34301126100035617,0.4835164835164835,0.06849816849816849,0.025787545787545788
0.3446171640025568,1.5053479853479852,0.9742857142857142,0.954945054945055
0.3497675840044394,1.5053479853479852,0.9742857142857142,0.954945054945055
0.35416952200466767,1.5053479853479852,0.9742857142857142,0.954945054945055
0.3543400820053648,1.5496703296703296,0.3553846153846154,0.4013186813186813
0.35946956500265514,1.5496703296703296,0.3553846153846154,0.4013186813186813
0.3635722020044341,1.5496703296703296,0.3553846153846154,0.4013186813186813
0.36660624299838673,1.5496703296703296,0.3553846153846154,0.4013186813186813
0.3690630350029096,1.5496703296703296,0.3553846153846154,0.4013186813186813
0.37532301200553775,1.5496703296703296,0.3553846153846154,0.4013186813186813
0.37944528300431557,1.5496703296703296,0.3553846153846154,0.4013186813186813
0.3820878180049476,1.5496703296703296,0.3553846153846154,0.4013186813186813
0.38888518000021577,1.6786080586080585,0.9259340659340659,0.9428571428571427
0.3932820379995974,1.6786080586080585,0.9259340659340659,0.9428571428571427
0.39505524300329853,0.6986813186813187,0.6076190476190476,0.5471794871794872
0.3977262039989,0.6986813186813187,0.6076190476190476,0.5471794871794872
0.40487561800546246,0.6616117216117217,0.12732600732600732,0.13135531135531134
0.4098585120009375,0.6616117216117217,0.12732600732600732,0.13135531135531134
0.41595959100231994,2.713333333333333,0.42710622710622714,0.448058608058608
0.4214722830001847,2.713333333333333,0.42710622710622714,0.448058608058608
0.4217194869997911,0.7373626373626374,0.04351648351648352,0.022564102564102562
0.42674913700466277,0.7373626373626374,0.04351648351648352,0.022564102564102562
0.4307034140001633,0.7373626373626374,0.04351648351648352,0.022564102564102562
0.4371542490043794,1.236996336996337,0.2594871794871795,0.28769230769230764
0.4411678690012195,1.236996336996337,0.2594871794871795,0.28769230769230764
0.44592297400231473,1.236996336996337,0.2594871794871795,0.28769230769230764
0.4553416470007505,1.236996336996337,0.2594871794871795,0.28769230769230764
0.4603710540031898,1.236996336996337,0.2594871794871795,0.28769230769230764
0.4668108379992191,0.5246153846153846,0.048351648351648346,0.10395604395604395
0.4721483910034294,0.5246153846153846,0.048351648351648346,0.10395604395604395
0.4737974470044719,2.013846153846154,0.34813186813186814,0.381978021978022
0.4764145369990729,2.013846153846154,0.34813186813186814,0.381978021978022
0.4831930850050412,1.8131868131868132,0.24901098901098898,0.2747985347985348
0.48775663500418887,1.8131868131868132,0.24901098901098898,0.2747985347985348
0.4879279610031517,1.8131868131868132,0.24901098901098898,0.2747985347985348
0.4928318849997595,1.8131868131868132,0.24901098901098898,0.2747985347985348
0.4992754220002098,1.8131868131868132,0.24901098901098898,0.2747985347985348
0.5034307840032852,1.8131868131868132,0.24901098901098898,0.2747985347985348
0.5059786240017274,1.8131868131868132,0.24901098901098898,0.2747985347985348
0.5104792550046113,0.15956043956043955,0.03868131868131868,0.033846153846153845
0.510755325005448,0.15956043956043955,0.03868131868131868,0.033846153846153845
0.5182796680019237,0.15956043956043955,0.03868131868131868,0.033846153846153845
0.5218049180039088,0.15956043956043955,0.03868131868131868,0.033846153846153845
0.5275340959997266,0.15956043956043955,0.03868131868131868,0.033846153846153845
0.5278418040034012,0.6680586080586081,0.3723076923076923,0.3698901098901099
0.5341811239995877,0.6680586080586081,0.3723076923076923,0.3698901098901099
0.5378270369983511,1.7366300366300367,0.37875457875457874,0.45369963369963373
0.5427948290016502,1.7366300366300367,0.37875457875457874,0.45369963369963373
0.5460329609995824,1.7366300366300367,0.37875457875457874,0.45369963369963373
0.5469681270042202,0.14666666666666667,0.12974358974358974,0.07736263736263736
0.5480339900022955,0.14666666666666667,0.12974358974358974,0.07736263736263736
0.5491479340053047,0.14666666666666667,0.12974358974358974,0.07736263736263736
0.5495846269986941,0.14666666666666667,0.12974358974358974,0.07736263736263736
0.5551459839989548,0.14666666666666667,0.12974358974358974,0.07736263736263736
0.55537726500188,0.5729670329670329,0.5197802197802197,0.4738461538461538
0.5609417330051656,0.5729670329670329,0.5197802197802197,0.4738461538461538
0.5612941889994545,0.5729670329670329,0.5197802197802197,0.4738461538461538
0.5660143260029145,0.5729670329670329,0.5197802197802197,0.4738461538461538
0.5663460360010504,0.5729670329670329,0.5197802197802197,0.4738461538461538
0.5740917750008521,0.5729670329670329,0.5197802197802197,0.4738461538461538
0.5784736510031507,1.6367032967032966,0.3465201465201465,0.38681318681318677
0.5794163480022689,0.24901098901098898,0.10556776556776555,0.0419047619047619
0.5811960990031366,0.24901098901098898,0.10556776556776555,0.0419047619047619
0.5856506210038788,0.24901098901098898,0.10556776556776555,0.0419047619047619
0.5857524259990896,0.24901098901098898,0.10556776556776555,0.0419047619047619
0.5909235590006574,0.24901098901098898,0.10556776556776555,0.0419047619047619
0.5942928529984783,0.24901098901098898,0.10556776556776555,0.0419047619047619
0.5952058539987775,0.24901098901098898,0.10556776556776555,0.0419047619047619
0.5968394750016159,0.24901098901098898,0.10556776556776555,0.0419047619047619
0.6009687550031231,0.24901098901098898,0.10556776556776555,0.0419047619047619
0.6036174410037347,0.24901098901098898,0.10556776556776555,0.0419047619047619
0.6086984670037054,0.24901098901098898,0.10556776556776555,0.0419047619047619
0.612727232000907,0.23853479853479853,0.09106227106227105,0.04996336996336996
0.6165252110004076,0.90014652014652,0.23208791208791207,0.26754578754578756
0.6232068989993422,0.90014652014652,0.23208791208791207,0.26754578754578756
0.6273771810010658,0.90014652014652,0.23208791208791207,0.26754578754578756
0.6298891710030148,0.90014652014652,0.23208791208791207,0.26754578754578756
0.6300465570020606,0.90014652014652,0.23208791208791207,0.26754578754578756
0.6359078720051912,0.90014652014652,0.23208791208791207,0.26754578754578756
0.6418949700018857,0.9517216117216116,0.7067399267399267,0.7083516483516483
0.6477221790046315,0.9517216117216116,0.7067399267399267,0.7083516483516483
0.6478394760051742,0.9517216117216116,0.7067399267399267,0.7083516483516483
0.6540118660050211,0.9517216117216116,0.7067399267399267,0.7083516483516483
0.658430016002967,0.9517216117216116,0.7067399267399267,0.7083516483516483
0.6600776870036498,0.010476190476190476,0.07816849816849816,0.0838095238095238
0.6648224860036862,0.010476190476190476,0.07816849816849816,0.0838095238095238
0.6746516240018536,0.010476190476190476,0.07816849816849816,0.0838095238095238
0.684449776999827,0.010476190476190476,0.07816849816849816,0.0838095238095238
0.6915789769991534,0.010476190476190476,0.07816849816849816,0.0838095238095238
0.6972844379997696,0.010476190476190476,0.07816849816849816,0.0838095238095238
0.7069791340036318,0.010476190476190476,0.07816849816849816,0.0838095238095238
0.7160253149995697,1.6076923076923075,0.9895970695970695,0.9807326007326007
0.7227454480016604,2.103296703296703,0.4005128205128205,0.41340659340659336
0.7266758559999289,2.103296703296703,0.4005128205128205,0.41340659340659336
0.7313282809991506,0.22725274725274724,0.17245421245421244,0.2087179487179487
0.7317230180051411,0.22725274725274724,0.17245421245421244,0.2087179487179487
0.7389646060037194,0.22725274725274724,0.17245421245421244,0.2087179487179487
0.7438988729991252,0.22725274725274724,0.17245421245421244,0.2087179487179487
0.7528293340001255,0.22725274725274724,0.17245421245421244,0.2087179487179487
0.7584182920036255,1.9090842490842492,0.3739194139194139,0.39003663003663
0.75863067300088,1.9090842490842492,0.3739194139194139,0.39003663003663
0.7635474800044904,1.9090842490842492,0.3739194139194139,0.39003663003663
0.771630016999552,1.9090842490842492,0.3739194139194139,0.39003663003663
0.777670986004523,1.9090842490842492,0.3739194139194139,0.39003663003663
0.785203191000619,1.1580219780219778,0.1772893772893773,0.19743589743589743
0.789420033004717,0.0,0.15472527472527473,0.09509157509157509
0.7918416320026154,0.0,0.15472527472527473,0.09509157509157509
0.7973366100050043,0.0,0.21999999999999997,0.1805128205128205
0.8000502060021972,0.0,0.21999999999999997,0.1805128205128205
0.8035544230006053,0.18695970695970696,0.06769230769230769,0.0547985347985348
0.8095732889996725,0.2594871794871795,0.19743589743589743,0.2232234432234432
0.8158911710052053,2.1387545787545785,0.36827838827838827,0.39809523809523806
0.8211009020014899,2.1387545787545785,0.36827838827838827,0.39809523809523806
0.8227810700045666,2.1387545787545785,0.36827838827838827,0.39809523809523806
0.8266699759988114,2.1387545787545785,0.36827838827838827,0.39809523809523806
0.8313363990018843,2.1387545787545785,0.36827838827838827,0.39809523809523806
0.8318097610026598,2.1387545787545785,0.36827838827838827,0.39809523809523806
0.8375996030008537,1.1402930402930402,0.9396336996336996,0.8953113553113552
0.8424662270044792,1.1402930402930402,0.9396336996336996,0.8953113553113552
0.8487698070020997,0.4553113553113553,0.07575091575091575,0.03304029304029304
0.8537057970024762,0.4553113553113553,0.07575091575091575,0.03304029304029304
0.856954326001869,1.6729670329670328,0.38278388278388276,0.469010989010989
0.858637555000314,1.5553113553113551,0.2498168498168498,0.307032967032967
0.8626280250027776,0.08783882783882783,0.10476190476190475,0.083003663003663
0.8682523919997038,0.08783882783882783,0.10476190476190475,0.083003663003663
0.8685767819988541,0.08783882783882783,0.10476190476190475,0.083003663003663
0.8741652850003447,0.08783882783882783,0.10476190476190475,0.083003663003663
0.8750301250038319,0.08783882783882783,0.10476190476190475,0.083003663003663
0.8765690040017944,0.08783882783882783,0.10476190476190475,0.083003663003663
0.8806130770026357,0.08783882783882783,0.10476190476190475,0.083003663003663
0.8851018269997439,0.029816849816849816,0.20468864468864467,0.18776556776556774
0.8905907130028936,0.029816849816849816,0.20468864468864467,0.18776556776556774
0.8915347450019908,0.1104029304029304,0.0419047619047619,0.052380952380952375
0.8924618020027992,0.1104029304029304,0.0419047619047619,0.052380952380952375
0.8940496900031576,0.1104029304029304,0.0419047619047619,0.052380952380952375
0.8970868600008544,0.1104029304029304,0.0419047619047619,0.052380952380952375
0.9023626320049516,0.1104029304029304,0.0419047619047619,0.052380952380952375
0.902668196002196,0.1104029304029304,0.0419047619047619,0.052380952380952375
0.9079599820033764,0.1104029304029304,0.0419047619047619,0.052380952380952375
0.9110484230041038,0.1104029304029304,0.0419047619047619,0.052380952380952375
0.9128443930021604,2.2008058608058607,0.43597069597069593,0.4424175824175824
0.9170379409988527,2.2008058608058607,0.43597069597069593,0.4424175824175824
0.9189941110016662,0.7583150183150182,0.12329670329670328,0.06688644688644689
0.9216608620045008,0.7583150183150182,0.12329670329670328,0.06688644688644689
0.9288283830028377,0.7583150183150182,0.12329670329670328,0.06688644688644689
0.9349326720039244,0.7583150183150182,0.12329670329670328,0.06688644688644689
0.9417603530018823,0.7583150183150182,0.12329670329670328,0.06688644688644689
0.9457846459990833,0.30542124542124544,0.0701098901098901,0.11684981684981684
0.949606122005207,0.30542124542124544,0.0701098901098901,0.11684981684981684
0.9547209189986461,0.30542124542124544,0.0701098901098901,0.11684981684981684
0.957817126000009,0.30542124542124544,0.0701098901098901,0.11684981684981684
0.9603046490010456,0.30542124542124544,0.0701098901098901,0.11684981684981684
0.9604014569995343,0.30542124542124544,0.0701098901098901,0.11684981684981684
0.9673762250022264,0.30542124542124544,0.0701098901098901,0.11684981684981684
0.9715237909986172,0.30542124542124544,0.0701098901098901,0.11684981684981684
0.9731925189989852,0.0975091575091575,0.27238095238095233,0.23208791208791207
0.977184205003141,1.6592673992673992,0.42468864468864465,0.4222710622710622
0.9812097640024149,1.506153846153846,0.24256410256410255,0.24014652014652016
0.9870184910032549,1.506153846153846,0.24256410256410255,0.24014652014652016
0.9935284009989118,1.506153846153846,0.24256410256410255,0.24014652014652016
0.9973614150003414,1.025054945054945,0.4319413919413919,0.46014652014652013
1.0039508629997727,1.025054945054945,0.4319413919413919,0.46014652014652013
1.0079051010034163,1.025054945054945,0.4319413919413919,0.46014652014652013
1.0118023059985717,0.17567765567765567,0.09992673992673992,0.06043956043956044
1.016614758002106,0.17567765567765567,0.09992673992673992,0.06043956043956044
1.0226911330028088,0.17567765567765567,0.09992673992673992,0.06043956043956044
1.0273272940030438,0.27076923076923076,0.05802197802197802,0.09831501831501832
1.0274982230039313,0.21194139194139192,0.0821978021978022,0.03062271062271062
1.0348577390032005,0.21194139194139192,0.0821978021978022,0.03062271062271062
1.0383332839992363,0.21194139194139192,0.0821978021978022,0.03062271062271062
1.0385678180027753,0.21194139194139192,0.0821978021978022,0.03062271062271062
1.0432310739997774,0.21194139194139192,0.0821978021978022,0.03062271062271062
1.0434721580022597,0.21194139194139192,0.0821978021978022,0.03062271062271062
1.050101070999517,0.21194139194139192,0.0821978021978022,0.03062271062271062
1.054302071002894,0.21194139194139192,0.0821978021978022,0.03062271062271062
1.056036485999357,0.21194139194139192,0.0821978021978022,0.03062271062271062
1.0593015120030032,1.1983150183150182,0.2063003663003663,0.14424908424908423
1.0609511400034535,0.19340659340659339,0.10637362637362638,0.13457875457875457
1.0667369660004624,0.4488644688644688,0.07655677655677656,0.03465201465201465
1.0747087730051135,0.4488644688644688,0.07655677655677656,0.03465201465201465
1.0791160709995893,1.1757509157509156,0.8751648351648351,0.9065934065934066
1.0811066570022376,1.1757509157509156,0.8751648351648351,0.9065934065934066
1.083337323005253,1.1757509157509156,0.8751648351648351,0.9065934065934066
1.0835989010010962,1.1757509157509156,0.8751648351648351,0.9065934065934066
1.0892763790034223,1.1757509157509156,0.8751648351648351,0.9065934065934066
1.08965294900554,1.1757509157509156,0.8751648351648351,0.9065934065934066
1.0960500959990895,1.1757509157509156,0.8751648351648351,0.9065934065934066
1.1005387430050177,1.2039560439560437,0.1821245421245421,0.18373626373626373
1.1007186460046796,1.2039560439560437,0.1821245421245421,0.18373626373626373
1.1055102410027757,0.0,0.07333333333333333,0.07413919413919413
1.1108434950001538,1.079047619047619,0.5632967032967032,0.5415384615384615
1.1138386349994107,1.079047619047619,0.5632967032967032,0.5415384615384615
1.1162968749995343,1.079047619047619,0.5632967032967032,0.5415384615384615
1.116509337000025,1.079047619047619,0.5632967032967032,0.5415384615384615
1.121390883999993,1.079047619047619,0.5632967032967032,0.5415384615384615
1.1263505890019587,1.079047619047619,0.5632967032967032,0.5415384615384615
1.130523154999537,1.079047619047619,0.5632967032967032,0.5415384615384615
1.1333409940052661,1.079047619047619,0.5632967032967032,0.5415384615384615
1.136905375002243,1.079047619047619,0.5632967032967032,0.5415384615384615
1.1370879860041896,1.079047619047619,0.5632967032967032,0.5415384615384615
1.1418358820010326,1.079047619047619,0.5632967032967032,0.5415384615384615
1.14198643599957,1.079047619047619,0.5632967032967032,0.5415384615384615
1.1467498550046002,1.079047619047619,0.5632967032967032,0.5415384615384615
1.14707013899897,0.1241025641025641,0.10315018315018315,0.14263736263736262
1.1512794310037862,0.1241025641025641,0.10315018315018315,0.14263736263736262
1.1541097279987298,0.6898168498168498,0.5560439560439561,0.4964102564102564
1.1612464300051215,0.6898168498168498,0.5560439560439561,0.4964102564102564
1.1711962910048896,0.6898168498168498,0.5560439560439561,0.4964102564102564
1.1785217930009821,1.8027106227106224,0.9912087912087911,0.9863736263736262
1.1851215159986168,1.6230036630036628,0.3755311355311355,0.5157509157509157
1.1883554010055377,1.6230036630036628,0.3755311355311355,0.5157509157509157
1.1899271069996757,1.6230036630036628,0.3755311355311355,0.5157509157509157
1.1943689870022354,1.6230036630036628,0.3755311355311355,0.5157509157509157
1.1954051490029087,1.6230036630036628,0.3755311355311355,0.5157509157509157
1.195667872998456,1.6230036630036628,0.3755311355311355,0.5157509157509157
1.201255697000306,1.6230036630036628,0.3755311355311355,0.5157509157509157
1.203765143000055,1.6230036630036628,0.3755311355311355,0.5157509157509157
1.2098470350028947,1.6230036630036628,0.3755311355311355,0.5157509157509157
1.2137715170028969,0.8985347985347985,0.27802197802197803,0.27882783882783885
1.2179004630015697,0.8985347985347985,0.27802197802197803,0.27882783882783885
1.2203523280040827,0.8985347985347985,0.27802197802197803,0.27882783882783885
1.2204800690014963,0.8985347985347985,0.27802197802197803,0.27882783882783885
1.2263196390049416,0.8985347985347985,0.27802197802197803,0.27882783882783885
1.226429433998419,0.8985347985347985,0.27802197802197803,0.27882783882783885
1.231573182005377,0.8985347985347985,0.27802197802197803,0.27882783882783885
1.2347016240019002,0.8985347985347985,0.27802197802197803,0.27882783882783885
1.2369502400033525,0.8985347985347985,0.27802197802197803,0.27882783882783885
1.2371541940010502,0.8985347985347985,0.27802197802197803,0.27882783882783885
1.2429299319992424,0.8985347985347985,0.27802197802197803,0.27882783882783885
1.2432159169984516,0.8985347985347985,0.27802197802197803,0.27882783882783885
1.2490053229994373,0.8985347985347985,0.27802197802197803,0.27882783882783885
1.254947578003339,0.8985347985347985,0.27802197802197803,0.27882783882783885
1.255046393001976,1.5287179487179487,0.39003663003663,0.5262271062271061
1.2599725059990305,1.5416117216117216,0.25787545787545785,0.21597069597069596
1.2657315989999915,0.48432234432234433,0.0709157509157509,0.026593406593406595
1.265863487002207,0.48432234432234433,0.0709157509157509,0.026593406593406595
1.271498326001165,0.48432234432234433,0.0709157509157509,0.026593406593406595
1.2717794140044134,0.48432234432234433,0.0709157509157509,0.026593406593406595
1.277521962998435,0.48432234432234433,0.0709157509157509,0.026593406593406595
1.2826717819989426,0.48432234432234433,0.0709157509157509,0.026593406593406595
1.2863682790048188,0.48432234432234433,0.0709157509157509,0.026593406593406595
1.2864880850029294,0.48432234432234433,0.0709157509157509,0.026593406593406595
1.2947292950047995,0.48432234432234433,0.0709157509157509,0.026593406593406595
1.2991105059991241,0.48432234432234433,0.0709157509157509,0.026593406593406595
1.3005971099992166,0.7873260073260073,0.06849816849816849,0.07413919413919413
1.3049083730002167,0.7873260073260073,0.06849816849816849,0.07413919413919413
1.3064712310006144,1.2079853479853477,0.7123809523809523,0.66
1.31121635800082,1.2079853479853477,0.7123809523809523,0.66
1.3113746259987238,1.2079853479853477,0.7123809523809523,0.66
1.316547148002428,1.2079853479853477,0.7123809523809523,0.66
1.3202608520005015,1.2079853479853477,0.7123809523809523,0.66
1.325468823000847,0.4738461538461538,0.09267399267399268,0.06366300366300366
1.328494966001017,1.735018315018315,1.0218315018315018,1.0315018315018314
1.3307467210033792,1.735018315018315,1.0218315018315018,1.0315018315018314
1.3311470929984353,1.735018315018315,1.0218315018315018,1.0315018315018314
1.335572529998899,1.735018315018315,1.0218315018315018,1.0315018315018314
1.3364367030007998,1.735018315018315,1.0218315018315018,1.0315018315018314
1.3379983790000551,1.735018315018315,1.0218315018315018,1.0315018315018314
1.3424235330021475,1.735018315018315,1.0218315018315018,1.0315018315018314
1.3432801970047876,1.735018315018315,1.0218315018315018,1.0315018315018314
1.3450547220054432,1.735018315018315,1.0218315018315018,1.0315018315018314
1.3477490459990804,1.735018315018315,1.0218315018315018,1.0315018315018314
1.3549366520019248,2.4514285714285715,0.3972893772893773,0.4158241758241758
1.360513801999332,2.4514285714285715,0.3972893772893773,0.4158241758241758
1.36068578800041,2.4514285714285715,0.3972893772893773,0.4158241758241758
1.3675827699989895,2.4514285714285715,0.3972893772893773,0.4158241758241758
1.3707019280045643,2.4514285714285715,0.3972893772893773,0.4158241758241758
1.3729874890050269,2.4514285714285715,0.3972893772893773,0.4158241758241758
1.3732127550028963,2.4514285714285715,0.3972893772893773,0.4158241758241758
1.3784906060027424,2.4514285714285715,0.3972893772893773,0.4158241758241758
1.3815887579985429,2.4514285714285715,0.3972893772893773,0.4158241758241758
1.3831883700040635,2.4514285714285715,0.3972893772893773,0.4158241758241758
1.3878848660024232,1.7527472527472527,0.9339926739926739,0.9436630036630036
1.3881386499997461,1.7527472527472527,0.9339926739926739,0.9436630036630036
1.3928288750030333,1.7527472527472527,0.9339926739926739,0.9436630036630036
1.3929537209987757,1.7527472527472527,0.9339926739926739,0.9436630036630036
1.3977872760005994,1.7527472527472527,0.9339926739926739,0.9436630036630036
1.4035440910010948,1.7527472527472527,0.9339926739926739,0.9436630036630036
1.40374298900133,1.7527472527472527,0.9339926739926739,0.9436630036630036
1.4102624980005203,1.7527472527472527,0.9339926739926739,0.9436630036630036
1.415144580998458,1.7527472527472527,0.9339926739926739,0.9436630036630036
1.420630799002538,1.0919413919413918,0.7832967032967032,0.7704029304029304
1.4275870170022245,0.0,0.07575091575091575,0.048351648351648346
1.4322351939990767,0.0,0.07575091575091575,0.048351648351648346
1.4325362680028775,0.0,0.07575091575091575,0.048351648351648346
1.4376573340050527,0.0,0.07575091575091575,0.048351648351648346
1.4414776970006642,0.0,0.07575091575091575,0.048351648351648346
1.4451162980039953,0.0,0.07575091575091575,0.048351648351648346
1.4452350370047498,0.0,0.07575091575091575,0.048351648351648346
1.4503356480054208,0.0,0.07575091575091575,0.048351648351648346
1.4540568029988208,0.0,0.07575091575091575,0.048351648351648346
1.4596086390010896,1.5931868131868132,0.36747252747252745,0.5093040293040293
1.460487351003394,1.5931868131868132,0.36747252747252745,0.5093040293040293
1.4620743330015102,0.0,0.09267399267399268,0.06124542124542124
1.4666031599990674,0.0,0.09267399267399268,0.06124542124542124
1.4668435230050818,0.0,0.09267399267399268,0.06124542124542124
1.4721137820015429,0.0,0.09267399267399268,0.06124542124542124
1.4746270700052264,0.0,0.09267399267399268,0.06124542124542124
1.4798369190029916,0.0,0.09267399267399268,0.06124542124542124
1.4838279760006117,0.0,0.09267399267399268,0.06124542124542124
1.4867712019986357,0.0,0.09267399267399268,0.06124542124542124
1.4897594490030315,0.0,0.09267399267399268,0.06124542124542124
1.4938162949983962,0.0,0.09267399267399268,0.06124542124542124
1.4982517700045719,0.8630769230769231,0.5818315018315018,0.585054945054945
1.4985828040007618,0.8630769230769231,0.5818315018315018,0.585054945054945
1.506207213999005,0.8630769230769231,0.5818315018315018,0.585054945054945
1.5134197740044328,0.8630769230769231,0.5818315018315018,0.585054945054945
1.5209575289991335,0.8630769230769231,0.5818315018315018,0.585054945054945
1.5258556730041164,0.8630769230769231,0.5818315018315018,0.585054945054945
1.529123473999789,0.8630769230769231,0.5818315018315018,0.585054945054945
1.5305826230032835,0.8630769230769231,0.5818315018315018,0.585054945054945
1.5383083199994871,0.8630769230769231,0.5818315018315018,0.585054945054945
1.5448894670043956,0.8630769230769231,0.5818315018315018,0.585054945054945
1.5489307250027196,0.8630769230769231,0.5818315018315018,0.585054945054945
1.5528043099984643,0.8630769230769231,0.5818315018315018,0.585054945054945
1.5573828350024996,1.021025641025641,0.28285714285714286,0.307032967032967
1.5575652129991795,1.021025641025641,0.28285714285714286,0.307032967032967
1.5648989170003915,1.021025641025641,0.28285714285714286,0.307032967032967
1.5723336029986967,1.021025641025641,0.28285714285714286,0.307032967032967
1.577126276002673,2.303150183150183,0.4520879120879121,0.43032967032967034
1.5848384330020053,2.303150183150183,0.4520879120879121,0.43032967032967034
1.5923254450026434,1.0822710622710623,0.07494505494505493,0.03706959706959707
1.5985711680041277,1.0822710622710623,0.07494505494505493,0.03706959706959707
1.603126248002809,1.0822710622710623,0.07494505494505493,0.03706959706959707
1.6033134989993414,1.0822710622710623,0.07494505494505493,0.03706959706959707
1.6112945130007574,1.0822710622710623,0.07494505494505493,0.03706959706959707
1.6176065620020381,1.0822710622710623,0.07494505494505493,0.03706959706959707
1.6215829310021945,1.0822710622710623,0.07494505494505493,0.03706959706959707
1.6252738190014497,0.9597802197802198,0.07413919413919413,0.03223443223443223
1.6254349900045781,0.05641025641025641,0.1104029304029304,0.06124542124542124
1.6298937989995466,0.05641025641025641,0.1104029304029304,0.06124542124542124
1.6302656449988717,2.4006593406593404,0.40534798534798533,0.4085714285714286
1.635644971000147,2.4006593406593404,0.40534798534798533,0.4085714285714286
1.6373370069995872,1.1378754578754577,0.9146520146520146,0.8364835164835164
1.6405635670016636,1.1378754578754577,0.9146520146520146,0.8364835164835164
1.6415625380031997,1.1378754578754577,0.9146520146520146,0.8364835164835164
1.6424936080002226,1.1378754578754577,0.9146520146520146,0.8364835164835164
1.6440323140050168,1.1378754578754577,0.9146520146520146,0.8364835164835164
1.6487688050037832,1.1378754578754577,0.9146520146520146,0.8364835164835164
1.649004856000829,0.0693040293040293,0.09589743589743589,0.14908424908424908
1.6535654430044815,0.0693040293040293,0.09589743589743589,0.14908424908424908
1.654461600999639,1.5625641025641024,0.33926739926739924,0.3924542124542124
1.6561222579985042,1.5625641025641024,0.33926739926739924,0.3924542124542124
1.6599153530041804,1.5625641025641024,0.33926739926739924,0.3924542124542124
1.6637705489993095,1.5625641025641024,0.33926739926739924,0.3924542124542124
1.668450691999169,1.5625641025641024,0.33926739926739924,0.3924542124542124
1.6686952870004461,1.5625641025641024,0.33926739926739924,0.3924542124542124
1.6733642690014676,1.5625641025641024,0.33926739926739924,0.3924542124542124
1.6736135210012435,1.5625641025641024,0.33926739926739924,0.3924542124542124
1.679025294004532,1.5625641025641024,0.33926739926739924,0.3924542124542124
1.680644921005296,1.5625641025641024,0.33926739926739924,0.3924542124542124
1.6849033030011924,1.5625641025641024,0.33926739926739924,0.3924542124542124
1.6864752200053772,0.09509157509157509,0.1571428571428571,0.25223443223443226
1.6915480120005668,0.09509157509157509,0.1571428571428571,0.25223443223443226
1.695894488999329,0.09509157509157509,0.1571428571428571,0.25223443223443226
1.6982518430013442,0.09509157509157509,0.1571428571428571,0.25223443223443226
1.6984781630017096,0.09509157509157509,0.1571428571428571,0.25223443223443226
1.7036626289991545,0.09509157509157509,0.1571428571428571,0.25223443223443226
1.7081661900010658,0.09509157509157509,0.1571428571428571,0.25223443223443226
1.7089875370002119,0.09509157509157509,0.1571428571428571,0.25223443223443226
1.7105058560046018,2.2604395604395604,0.3852014652014652,0.39567765567765567
1.7150957679987187,2.2604395604395604,0.3852014652014652,0.39567765567765567
1.7159618369987584,2.2604395604395604,0.3852014652014652,0.39567765567765567
1.717490604998602,2.2604395604395604,0.3852014652014652,0.39567765567765567
1.7222345780028263,2.2604395604395604,0.3852014652014652,0.39567765567765567
1.7275340850028442,2.2604395604395604,0.3852014652014652,0.39567765567765567
1.7298299570029485,0.22564102564102564,0.1813186813186813,0.18454212454212454
1.729985983001825,0.22564102564102564,0.1813186813186813,0.18454212454212454
1.7352905770021607,0.22564102564102564,0.1813186813186813,0.18454212454212454
1.7385978650054312,0.6793406593406592,0.6092307692307692,0.5238095238095237
1.7394776889996137,0.6793406593406592,0.6092307692307692,0.5238095238095237
1.7410881090036128,0.6793406593406592,0.6092307692307692,0.5238095238095237
1.7458060670032864,0.6793406593406592,0.6092307692307692,0.5238095238095237
1.7459866010030964,0.6793406593406592,0.6092307692307692,0.5238095238095237
1.751421348999429,0.6793406593406592,0.6092307692307692,0.5238095238095237
1.7530549290022464,0.6793406593406592,0.6092307692307692,0.5238095238095237
1.7569283429984353,1.6367032967032966,0.38358974358974357,0.4254945054945055
1.7606792310034507,1.6367032967032966,0.38358974358974357,0.4254945054945055
1.7652404610053054,1.6367032967032966,0.38358974358974357,0.4254945054945055
1.766814055001305,1.6367032967032966,0.38358974358974357,0.4254945054945055
1.7705448519991478,1.6367032967032966,0.38358974358974357,0.4254945054945055
1.7760146770015126,1.6367032967032966,0.38358974358974357,0.4254945054945055
1.7785603599986644,1.6367032967032966,0.38358974358974357,0.4254945054945055
1.7838161300023785,1.6367032967032966,0.38358974358974357,0.4254945054945055
1.7869796290033264,1.6367032967032966,0.38358974358974357,0.4254945054945055
1.7887375909995171,1.6367032967032966,0.38358974358974357,0.4254945054945055
1.792344828005298,2.287032967032967,0.43274725274725273,0.4528937728937729
1.7925410840034601,2.287032967032967,0.43274725274725273,0.4528937728937729
1.7970110750029562,2.287032967032967,0.43274725274725273,0.4528937728937729
1.7980563290038845,1.622197802197802,0.2957509157509157,0.28769230769230764
1.798934045000351,1.622197802197802,0.2957509157509157,0.28769230769230764
1.8004417859992827,0.5350915750915751,0.06608058608058608,0.07736263736263736
1.8049144360047649,0.5350915750915751,0.06608058608058608,0.07736263736263736
1.8057239330009907,0.5350915750915751,0.06608058608058608,0.07736263736263736
1.8071862580036395,0.5350915750915751,0.06608058608058608,0.07736263736263736
1.811967491004907,0.19340659340659339,0.07413919413919413,0.03304029304029304
1.8120977049984504,0.19340659340659339,0.07413919413919413,0.03304029304029304
1.8168308700041962,0.19340659340659339,0.07413919413919413,0.03304029304029304
1.8169198399991728,1.6004395604395603,0.386007326007326,0.4174358974358974
1.8216499949994613,1.6004395604395603,0.386007326007326,0.4174358974358974
1.8218631240015384,0.4424175824175824,0.06688644688644689,0.026593406593406595
1.826475763002236,0.4424175824175824,0.06688644688644689,0.026593406593406595
1.8271976719988743,0.17648351648351646,0.09267399267399268,0.028205128205128206
1.829320392003865,0.17648351648351646,0.09267399267399268,0.028205128205128206
1.8307698069984326,0.17648351648351646,0.09267399267399268,0.028205128205128206
1.8354352140013361,0.0,0.20065934065934066,0.2087179487179487
1.835644245002186,0.0,0.20065934065934066,0.2087179487179487
1.8403454910003347,0.0,0.20065934065934066,0.2087179487179487
1.8405983330012532,0.3537728937728937,0.08542124542124542,0.06446886446886446
1.8452410230020178,0.3537728937728937,0.08542124542124542,0.06446886446886446
1.8455456390001928,0.3537728937728937,0.08542124542124542,0.06446886446886446
1.850229585004854,0.3537728937728937,0.08542124542124542,0.06446886446886446
1.850493213001755,0.3537728937728937,0.08542124542124542,0.06446886446886446
1.8552270850050263,0.3537728937728937,0.08542124542124542,0.06446886446886446
1.855405005000648,0.9686446886446887,0.7244688644688644,0.6624175824175824
1.860519451998698,0.9686446886446887,0.7244688644688644,0.6624175824175824
1.8647243930026889,0.9686446886446887,0.7244688644688644,0.6624175824175824
1.8670282650055015,0.05641025641025641,0.13699633699633698,0.07816849816849816
1.867335164002725,0.1772893772893773,0.0709157509157509,0.03304029304029304
1.8726142360028462,0.1772893772893773,0.0709157509157509,0.03304029304029304
1.8750060110032791,0.6003663003663003,0.2868864468864469,0.29333333333333333
1.8752576970000518,0.6003663003663003,0.2868864468864469,0.29333333333333333
1.8803401260011015,0.6003663003663003,0.2868864468864469,0.29333333333333333
1.8839923060004367,0.6003663003663003,0.2868864468864469,0.29333333333333333
1.889391811004316,1.3514285714285714,0.6994871794871794,0.6769230769230768
1.8916691390040796,1.3514285714285714,0.6994871794871794,0.6769230769230768
1.892463347998273,1.3514285714285714,0.6994871794871794,0.6769230769230768
1.8946872880042065,1.3514285714285714,0.6994871794871794,0.6769230769230768
1.8954861829988658,1.6197802197802196,0.311062271062271,0.3344322344322344
1.8970823980052955,1.6197802197802196,0.311062271062271,0.3344322344322344
1.9012605180032551,1.6197802197802196,0.311062271062271,0.3344322344322344
1.9039662549985223,1.6197802197802196,0.311062271062271,0.3344322344322344
1.9081545200024266,1.6197802197802196,0.311062271062271,0.3344322344322344
1.9101823630044237,0.166007326007326,0.09589743589743589,0.04351648351648352
1.911647796005127,1.3063003663003663,0.25868131868131866,0.31509157509157504
1.9157848620016011,1.3063003663003663,0.25868131868131866,0.31509157509157504
1.919193991998327,1.464249084249084,0.2216117216117216,0.1958241758241758
1.9194902330054902,0.2756043956043956,0.0838095238095238,0.0709157509157509
1.9242540090053808,0.2756043956043956,0.0838095238095238,0.0709157509157509
1.9244452730054036,0.2756043956043956,0.0838095238095238,0.0709157509157509
1.9291986470052507,0.2756043956043956,0.0838095238095238,0.0709157509157509
1.9293304790044203,0.2756043956043956,0.0838095238095238,0.0709157509157509
1.934073347998492,0.2756043956043956,0.0838095238095238,0.0709157509157509
1.9342717200051993,0.2756043956043956,0.0838095238095238,0.0709157509157509
1.9384219519997714,0.2756043956043956,0.0838095238095238,0.0709157509157509
1.941848337999545,1.3167765567765568,0.2095238095238095,0.17567765567765567
1.9420368150022114,0.1926007326007326,0.26593406593406593,0.30622710622710625
1.9467291300024954,0.1926007326007326,0.26593406593406593,0.30622710622710625
1.9470267069991678,0.1926007326007326,0.26593406593406593,0.30622710622710625
1.951138083000842,0.1926007326007326,0.26593406593406593,0.30622710622710625
1.9545069140003761,0.007252747252747252,0.18373626373626373,0.17326007326007326
1.9558761520020198,0.007252747252747252,0.18373626373626373,0.17326007326007326
1.9606095890048891,1.7898168498168496,0.21032967032967032,0.0846153846153846
1.9608592920048977,1.7898168498168496,0.21032967032967032,0.0846153846153846
1.9655918080025003,1.7898168498168496,0.21032967032967032,0.0846153846153846
1.9657984770019539,0.06527472527472526,0.1265201465201465,0.09509157509157509
1.9704620699994848,0.06527472527472526,0.1265201465201465,0.09509157509157509
1.970713340000657,0.9259340659340659,0.28446886446886444,0.30945054945054945
1.975363882003876,0.9259340659340659,0.28446886446886444,0.30945054945054945
1.9761481060049846,0.9259340659340659,0.28446886446886444,0.30945054945054945
1.9783053170031053,1.012161172161172,0.18373626373626373,0.14263736263736262
1.9791255180025473,0.8058608058608058,0.1095970695970696,0.18776556776556774
1.980593141001009,0.8058608058608058,0.1095970695970696,0.18776556776556774
1.9852926400053548,0.8058608058608058,0.1095970695970696,0.18776556776556774
1.9855023679992883,0.8058608058608058,0.1095970695970696,0.18776556776556774
1.9902517160007847,0.8058608058608058,0.1095970695970696,0.18776556776556774
1.9904845170021872,0.8058608058608058,0.1095970695970696,0.18776556776556774
1.995261649004533,0.8058608058608058,0.1095970695970696,0.18776556776556774
1.9954494789999444,0.8058608058608058,0.1095970695970696,0.18776556776556774
2.0001406139999744,0.8058608058608058,0.1095970695970696,0.18776556776556774
2.0004263980008545,0.5915018315018314,0.09186813186813186,0.028205128205128206
2.005232806004642,0.5915018315018314,0.09186813186813186,0.028205128205128206
2.005356182999094,0.5915018315018314,0.09186813186813186,0.028205128205128206
2.0101214349997463,0.5915018315018314,0.09186813186813186,0.028205128205128206
2.010257494999678,2.4199999999999995,0.4754578754578754,0.5608791208791208
2.0149405720003415,2.4199999999999995,0.4754578754578754,0.5608791208791208
2.0151214959987556,1.6689377289377287,0.32395604395604394,0.3658608058608058
2.0197994870031835,1.6689377289377287,0.32395604395604394,0.3658608058608058
2.020043689000886,1.6689377289377287,0.32395604395604394,0.3658608058608058
2.02481593000266,0.4859340659340659,0.06446886446886446,0.03465201465201465
2.0249466099994606,0.4859340659340659,0.06446886446886446,0.03465201465201465
2.029661856002349,0.4859340659340659,0.06446886446886446,0.03465201465201465
2.0299097759998403,0.47062271062271055,0.08703296703296703,0.10637362637362638
2.034603321000759,0.47062271062271055,0.08703296703296703,0.10637362637362638
2.034781253998517,0.47062271062271055,0.08703296703296703,0.10637362637362638
2.039426134004316,1.5126007326007325,0.2369230769230769,0.190989010989011
2.039685333998932,1.5126007326007325,0.2369230769230769,0.190989010989011
2.044356908001646,1.5126007326007325,0.2369230769230769,0.190989010989011
2.0446143959998153,1.7124542124542126,1.0298901098901099,0.9944322344322343
2.049299616999633,1.7124542124542126,1.0298901098901099,0.9944322344322343
2.0495441220045905,1.7124542124542126,1.0298901098901099,0.9944322344322343
2.054198666999582,1.7124542124542126,1.0298901098901099,0.9944322344322343
2.0544903590052854,1.7124542124542126,1.0298901098901099,0.9944322344322343
2.059157159004826,1.7124542124542126,1.0298901098901099,0.9944322344322343
2.0593512039995403,1.7124542124542126,1.0298901098901099,0.9944322344322343
2.0640261990047293,1.7124542124542126,1.0298901098901099,0.9944322344322343
2.0642714720015647,1.7124542124542126,1.0298901098901099,0.9944322344322343
2.0691497959996923,1.7124542124542126,1.0298901098901099,0.9944322344322343
2.0692659570049727,2.328937728937729,0.4416117216117216,0.45369963369963373
2.0745491339985165,2.328937728937729,0.4416117216117216,0.45369963369963373
2.076871288001712,2.328937728937729,0.4416117216117216,0.45369963369963373
2.077127445001679,2.328937728937729,0.4416117216117216,0.45369963369963373
2.0823472929987474,2.328937728937729,0.4416117216117216,0.45369963369963373
2.086143140004424,2.328937728937729,0.4416117216117216,0.45369963369963373
2.091317477999837,0.3336263736263736,0.09267399267399268,0.083003663003663
2.0942981180050992,0.8517948717948718,0.29816849816849816,0.2925274725274725
2.098032015004719,1.6294505494505493,0.29978021978021974,0.35216117216117215
2.102374537003925,1.6294505494505493,0.29978021978021974,0.35216117216117215
2.103931219004153,1.6294505494505493,0.29978021978021974,0.35216117216117215
2.1083581010025227,1.6294505494505493,0.29978021978021974,0.35216117216117215
2.1099279250047402,0.14586080586080585,0.08058608058608058,0.03868131868131868
2.113613148998411,2.348278388278388,0.4593406593406593,0.43999999999999995
2.1137181209996925,2.348278388278388,0.4593406593406593,0.43999999999999995
2.119045443003415,2.348278388278388,0.4593406593406593,0.43999999999999995
2.1207961149993935,2.348278388278388,0.4593406593406593,0.43999999999999995
2.1239547720033443,2.348278388278388,0.4593406593406593,0.43999999999999995
2.1257207400049083,2.348278388278388,0.4593406593406593,0.43999999999999995
2.1287519949983107,2.348278388278388,0.4593406593406593,0.43999999999999995
2.1310284310020506,2.348278388278388,0.4593406593406593,0.43999999999999995
2.1314022849983303,2.348278388278388,0.4593406593406593,0.43999999999999995
2.1358501959985006,2.348278388278388,0.4593406593406593,0.43999999999999995
2.1366773910049233,2.348278388278388,0.4593406593406593,0.43999999999999995
2.1390451960032806,2.348278388278388,0.4593406593406593,0.43999999999999995
2.1392130899985204,2.348278388278388,0.4593406593406593,0.43999999999999995
2.1444923630042467,2.348278388278388,0.4593406593406593,0.43999999999999995
2.146980662000715,2.348278388278388,0.4593406593406593,0.43999999999999995
2.15251266600535,2.348278388278388,0.4593406593406593,0.43999999999999995
2.153535383004055,2.348278388278388,0.4593406593406593,0.43999999999999995
2.153823941000155,2.348278388278388,0.4593406593406593,0.43999999999999995
2.1592347430050722,2.348278388278388,0.4593406593406593,0.43999999999999995
2.1608818079985213,0.7526739926739926,0.13054945054945052,0.09589743589743589
2.164617938004085,0.7526739926739926,0.13054945054945052,0.09589743589743589
2.164772508003807,0.23047619047619047,0.1805128205128205,0.15633699633699633
2.169303927999863,0.23047619047619047,0.1805128205128205,0.15633699633699633
2.17084919300396,0.23047619047619047,0.1805128205128205,0.15633699633699633
2.1752134400012437,0.23047619047619047,0.1805128205128205,0.15633699633699633
2.1774453800026095,0.23047619047619047,0.1805128205128205,0.15633699633699633
2.1777664920009556,0.23047619047619047,0.1805128205128205,0.15633699633699633
2.1829025890037883,0.23047619047619047,0.1805128205128205,0.15633699633699633
2.1861423599984846,0.23047619047619047,0.1805128205128205,0.15633699633699633
2.1877505890006432,0.23047619047619047,0.1805128205128205,0.15633699633699633
2.191535562000354,0.3473260073260073,0.09347985347985348,0.0975091575091575
2.1916303309990326,0.3473260073260073,0.09347985347985348,0.0975091575091575
2.1971470680000493,0.3473260073260073,0.09347985347985348,0.0975091575091575
2.19875723500445,1.6012454212454212,0.24901098901098898,0.2191941391941392
2.2031224070015014,1.6012454212454212,0.24901098901098898,0.2191941391941392
2.204698134002683,1.6012454212454212,0.24901098901098898,0.2191941391941392
2.209074597005383,1.6012454212454212,0.24901098901098898,0.2191941391941392
2.2105679829983274,1.6012454212454212,0.24901098901098898,0.2191941391941392
2.2160963190035545,1.6012454212454212,0.24901098901098898,0.2191941391941392
2.2171113369986415,1.332087912087912,0.1789010989010989,0.14827838827838827
2.21879529600119,1.332087912087912,0.1789010989010989,0.14827838827838827
2.22190237200266,1.332087912087912,0.1789010989010989,0.14827838827838827
2.224165585001174,1.00007326007326,0.5399267399267399,0.5391208791208791
2.2252010049996898,1.00007326007326,0.5399267399267399,0.5391208791208791
2.2260337070038076,1.00007326007326,0.5399267399267399,0.5391208791208791
2.2276237910045893,1.00007326007326,0.5399267399267399,0.5391208791208791
2.2322826310046366,1.00007326007326,0.5399267399267399,0.5391208791208791
2.232547382998746,2.1548717948717946,0.43113553113553116,0.4456410256410256
2.237271748999774,2.1548717948717946,0.43113553113553116,0.4456410256410256
2.2374550370004727,2.1548717948717946,0.43113553113553116,0.4456410256410256
2.242911293003999,2.1548717948717946,0.43113553113553116,0.4456410256410256
2.2444391239987453,2.1548717948717946,0.43113553113553116,0.4456410256410256
2.248843355002464,2.1548717948717946,0.43113553113553116,0.4456410256410256
2.2503721059983945,0.1958241758241758,0.06124542124542124,0.05963369963369963
2.2549920300007216,0.1958241758241758,0.06124542124542124,0.05963369963369963
2.2551134980021743,0.1958241758241758,0.06124542124542124,0.05963369963369963
2.260665337998944,0.1958241758241758,0.06124542124542124,0.05963369963369963
2.2623141100048088,0.1087912087912088,0.0693040293040293,0.05802197802197802
2.266081594003481,0.1087912087912088,0.0693040293040293,0.05802197802197802
2.2705021610017866,0.1087912087912088,0.0693040293040293,0.05802197802197802
2.271519977002754,0.1087912087912088,0.0693040293040293,0.05802197802197802
2.2723286149994237,0.1087912087912088,0.0693040293040293,0.05802197802197802
2.273894489000668,0.1087912087912088,0.0693040293040293,0.05802197802197802
2.278016092001053,0.1087912087912088,0.0693040293040293,0.05802197802197802
2.2806911970037618,0.2361172161172161,0.07655677655677656,0.06205128205128205
2.284777615001076,0.2361172161172161,0.07655677655677656,0.06205128205128205
2.2875642139988486,0.2328937728937729,0.1418315018315018,0.11765567765567764
2.2919061560023692,0.2328937728937729,0.1418315018315018,0.11765567765567764
2.293541412000195,0.2328937728937729,0.1418315018315018,0.11765567765567764
2.2982018289985717,0.2328937728937729,0.1418315018315018,0.11765567765567764
2.2984240660007345,0.2328937728937729,0.1418315018315018,0.11765567765567764
2.3037828720043763,0.2328937728937729,0.1418315018315018,0.11765567765567764
2.3063790790038183,0.2328937728937729,0.1418315018315018,0.11765567765567764
2.3107912480045343,0.2328937728937729,0.1418315018315018,0.11765567765567764
2.31160378200002,2.4038827838827834,0.46498168498168496,0.44402930402930396
2.31318186900171,2.4038827838827834,0.46498168498168496,0.44402930402930396
2.317826259000867,2.4038827838827834,0.46498168498168496,0.44402930402930396
2.318086264000158,2.4038827838827834,0.46498168498168496,0.44402930402930396
2.323335346998647,2.4038827838827834,0.46498168498168496,0.44402930402930396
2.326585763003095,2.4038827838827834,0.46498168498168496,0.44402930402930396
2.3274863850019756,2.4038827838827834,0.46498168498168496,0.44402930402930396
2.329153195998515,2.4038827838827834,0.46498168498168496,0.44402930402930396
2.3328559930014308,2.4038827838827834,0.46498168498168496,0.44402930402930396
2.33824937800091,0.011282051282051281,0.24095238095238095,0.21516483516483517
2.340572411005269,0.011282051282051281,0.24095238095238095,0.21516483516483517
2.3407271250034682,0.1386080586080586,0.06205128205128205,0.04673992673992674
2.346154438004305,0.1386080586080586,0.06205128205128205,0.04673992673992674
2.3479286340007093,1.6286446886446886,0.8880586080586079,0.9347985347985347
2.3508416160038905,1.6286446886446886,0.8880586080586079,0.9347985347985347
2.353933630998654,1.6286446886446886,0.8880586080586079,0.9347985347985347
2.3555311689997325,1.6286446886446886,0.8880586080586079,0.9347985347985347
2.3600030860034167,1.6286446886446886,0.8880586080586079,0.9347985347985347
2.3603347780008335,1.6286446886446886,0.8880586080586079,0.9347985347985347
2.3647341780015267,1.6286446886446886,0.8880586080586079,0.9347985347985347
2.366276597000251,1.6286446886446886,0.8880586080586079,0.9347985347985347
2.370791977002227,1.6286446886446886,0.8880586080586079,0.9347985347985347
2.3710876920013106,1.6286446886446886,0.8880586080586079,0.9347985347985347
2.376438250001229,1.6286446886446886,0.8880586080586079,0.9347985347985347
2.378935000000638,1.6286446886446886,0.8880586080586079,0.9347985347985347
2.3835701380012324,1.6286446886446886,0.8880586080586079,0.9347985347985347
2.383808670005237,1.6286446886446886,0.8880586080586079,0.9347985347985347
2.3884442470007343,1.6286446886446886,0.8880586080586079,0.9347985347985347
2.3887198740048916,2.242710622710623,0.43274725274725273,0.45772893772893775
2.3940201840014197,2.242710622710623,0.43274725274725273,0.45772893772893775
2.3962769889985793,2.242710622710623,0.43274725274725273,0.45772893772893775
2.397759457002394,2.242710622710623,0.43274725274725273,0.45772893772893775
2.402460550001706,2.242710622710623,0.43274725274725273,0.45772893772893775
2.4026831820010557,2.242710622710623,0.43274725274725273,0.45772893772893775
2.4075338800030295,2.242710622710623,0.43274725274725273,0.45772893772893775
2.4077273459988646,1.2506959706959706,0.2683516483516483,0.32798534798534795
2.4120010449987603,1.2506959706959706,0.2683516483516483,0.32798534798534795
2.4142543170019053,1.2506959706959706,0.2683516483516483,0.32798534798534795
2.4150815210014116,1.2506959706959706,0.2683516483516483,0.32798534798534795
2.417194715999358,1.2506959706959706,0.2683516483516483,0.32798534798534795
2.4180548660006025,1.2506959706959706,0.2683516483516483,0.32798534798534795
2.419569133002369,1.2506959706959706,0.2683516483516483,0.32798534798534795
2.4243921020024572,1.2506959706959706,0.2683516483516483,0.32798534798534795
2.429218044002482,1.2506959706959706,0.2683516483516483,0.32798534798534795
2.429434931000287,1.2506959706959706,0.2683516483516483,0.32798534798534795
2.434112647002621,1.2506959706959706,0.2683516483516483,0.32798534798534795
2.4343644050022704,1.2506959706959706,0.2683516483516483,0.32798534798534795
2.438521201002004,1.2506959706959706,0.2683516483516483,0.32798534798534795
2.44193626800552,1.2506959706959706,0.2683516483516483,0.32798534798534795
2.442257802002132,1.2506959706959706,0.2683516483516483,0.32798534798534795
2.446969855998759,1.2506959706959706,0.2683516483516483,0.32798534798534795
2.447088992004865,1.2506959706959706,0.2683516483516483,0.32798534798534795
2.4520075539985555,1.2506959706959706,0.2683516483516483,0.32798534798534795
2.4566815299986047,1.2506959706959706,0.2683516483516483,0.32798534798534795
2.456967172001896,1.2506959706959706,0.2683516483516483,0.32798534798534795
2.461768809000205,1.2506959706959706,0.2683516483516483,0.32798534798534795
2.4618610270044883,1.2506959706959706,0.2683516483516483,0.32798534798534795
2.4668133599989233,1.6512087912087912,0.90014652014652,0.9718681318681318
2.4709708740047063,1.6512087912087912,0.90014652014652,0.9718681318681318
2.473667550002574,0.03223443223443223,0.28205128205128205,0.23853479853479853
2.477739403999294,0.03223443223443223,0.28205128205128205,0.23853479853479853
2.4812144310053554,1.4884249084249084,0.23531135531135527,0.24659340659340656
2.481450703002338,1.4884249084249084,0.23531135531135527,0.24659340659340656
2.486507633999281,1.4884249084249084,0.23531135531135527,0.24659340659340656
2.4902001290029148,0.21032967032967032,0.11684981684981684,0.07172161172161172
2.49554042499949,0.21032967032967032,0.11684981684981684,0.07172161172161172
2.4978029660051106,0.21032967032967032,0.11684981684981684,0.07172161172161172
2.4981257309991634,0.21032967032967032,0.11684981684981684,0.07172161172161172
2.5033150740055135,0.21032967032967032,0.11684981684981684,0.07172161172161172
2.5069718349986942,1.6947252747252746,0.9444688644688644,0.909010989010989
2.5114627840011963,1.6947252747252746,0.9444688644688644,0.909010989010989
2.512349335003819,2.315238095238095,0.43677655677655675,0.4528937728937729
2.513935073999164,2.315238095238095,0.43677655677655675,0.4528937728937729
2.5182389949986828,2.315238095238095,0.43677655677655675,0.4528937728937729
2.52055698800541,2.315238095238095,0.43677655677655675,0.4528937728937729
2.52086291500018,2.315238095238095,0.43677655677655675,0.4528937728937729
2.5262063370028045,2.315238095238095,0.43677655677655675,0.4528937728937729
2.5292711459987913,2.315238095238095,0.43677655677655675,0.4528937728937729
2.5316952470020624,1.6415384615384614,0.32556776556776557,0.3352380952380952
2.531872134000878,1.6415384615384614,0.32556776556776557,0.3352380952380952
2.536523417002172,1.6415384615384614,0.32556776556776557,0.3352380952380952
2.5373155570050585,1.6415384615384614,0.32556776556776557,0.3352380952380952
2.539668335004535,1.6415384615384614,0.32556776556776557,0.3352380952380952
2.5398455670001567,1.6415384615384614,0.32556776556776557,0.3352380952380952
2.54512310300197,0.5157509157509157,0.06849816849816849,0.03223443223443223
2.548060273998999,0.5157509157509157,0.06849816849816849,0.03223443223443223
2.5509902789999614,0.5157509157509157,0.06849816849816849,0.03223443223443223
2.553927314002067,0.5157509157509157,0.06849816849816849,0.03223443223443223
2.5569174219999695,1.58996336996337,0.3690842490842491,0.3884249084249084
2.5592176140053198,1.58996336996337,0.3690842490842491,0.3884249084249084
2.560069081002439,1.58996336996337,0.3690842490842491,0.3884249084249084
2.561663746004342,1.58996336996337,0.3690842490842491,0.3884249084249084
2.5653703680000035,1.58996336996337,0.3690842490842491,0.3884249084249084
2.5655591590038966,1.58996336996337,0.3690842490842491,0.3884249084249084
2.5705732880014693,1.58996336996337,0.3690842490842491,0.3884249084249084
2.574844335002126,1.58996336996337,0.3690842490842491,0.3884249084249084
2.5764390449985513,1.58996336996337,0.3690842490842491,0.3884249084249084
2.580753232999996,1.58996336996337,0.3690842490842491,0.3884249084249084
2.5822908020054456,1.58996336996337,0.3690842490842491,0.3884249084249084
2.5866197100040154,1.58996336996337,0.3690842490842491,0.3884249084249084
2.5888478749984642,1.58996336996337,0.3690842490842491,0.3884249084249084
2.5891022569994675,1.58996336996337,0.3690842490842491,0.3884249084249084
2.5941362990051857,1.58996336996337,0.3690842490842491,0.3884249084249084
2.5987344150053104,1.58996336996337,0.3690842490842491,0.3884249084249084
2.5989730350047466,1.58996336996337,0.3690842490842491,0.3884249084249084
2.6041602289988077,1.58996336996337,0.3690842490842491,0.3884249084249084
2.607327985999291,1.58996336996337,0.3690842490842491,0.3884249084249084
2.6089942149992567,0.21435897435897436,0.08139194139194139,0.03706959706959707
2.6127013040022575,2.3635897435897433,0.4351648351648352,0.3997069597069597
2.6128201600004104,2.3635897435897433,0.4351648351648352,0.3997069597069597
2.618016518004879,2.3635897435897433,0.4351648351648352,0.3997069597069597
2.621133237000322,1.3764102564102565,0.21677655677655677,0.21435897435897436
2.622856103000231,1.3764102564102565,0.21677655677655677,0.21435897435897436
2.6260523780001677,1.6415384615384614,0.8469597069597068,0.9235164835164835
2.6275995559990406,0.0,0.0838095238095238,0.04593406593406593
2.631444320002629,0.0,0.0838095238095238,0.04593406593406593
2.63572741200187,0.0,0.0838095238095238,0.04593406593406593
2.6372380149987293,0.0,0.0838095238095238,0.04593406593406593
2.6417889760050457,0.0,0.0838095238095238,0.04593406593406593
2.642682726000203,0.4835164835164835,0.0838095238095238,0.024175824175824173
2.644304353001644,0.4835164835164835,0.0838095238095238,0.024175824175824173
2.6489578489999985,0.4835164835164835,0.0838095238095238,0.024175824175824173
2.6491158850039938,0.4835164835164835,0.0838095238095238,0.024175824175824173
2.6544537100053276,0.4835164835164835,0.0838095238095238,0.024175824175824173
2.6569402890017955,0.4835164835164835,0.0838095238095238,0.024175824175824173
2.662500518003071,0.4835164835164835,0.0838095238095238,0.024175824175824173
2.664201352003147,1.2635897435897436,0.722051282051282,0.6664468864468864
2.667366542002128,1.2635897435897436,0.722051282051282,0.6664468864468864
2.669041876004485,1.2635897435897436,0.722051282051282,0.6664468864468864
2.6728129320035805,1.2635897435897436,0.722051282051282,0.6664468864468864
2.678713836001407,1.2635897435897436,0.722051282051282,0.6664468864468864
2.683195974001137,1.386080586080586,0.2328937728937729,0.23369963369963367
2.6840751890049432,1.386080586080586,0.2328937728937729,0.23369963369963367
2.685682451003231,1.386080586080586,0.2328937728937729,0.23369963369963367
2.6901295499992557,1.386080586080586,0.2328937728937729,0.23369963369963367
2.6910269150030217,1.386080586080586,0.2328937728937729,0.23369963369963367
2.692674520003493,1.386080586080586,0.2328937728937729,0.23369963369963367
2.6963503639999544,1.386080586080586,0.2328937728937729,0.23369963369963367
2.6965051510051126,1.386080586080586,0.2328937728937729,0.23369963369963367
2.701574040002015,1.386080586080586,0.2328937728937729,0.23369963369963367
2.7058795350021683,0.48754578754578753,0.05802197802197802,0.03142857142857143
2.7074537860025885,0.2079120879120879,0.07816849816849816,0.03868131868131868
2.712499437999213,0.09912087912087912,0.06688644688644689,0.03948717948717949
2.716205387005175,0.09912087912087912,0.06688644688644689,0.03948717948717949
2.7213997340004425,1.0661538461538462,0.2079120879120879,0.46498168498168496
2.7252969840046717,1.0661538461538462,0.2079120879120879,0.46498168498168496
2.7298499969983823,1.0661538461538462,0.2079120879120879,0.46498168498168496
2.7301116050002747,1.0661538461538462,0.2079120879120879,0.46498168498168496
2.7355226750005386,1.0661538461538462,0.2079120879120879,0.46498168498168496
2.7364286750016618,1.0661538461538462,0.2079120879120879,0.46498168498168496
2.7373510920006083,1.3361172161172161,0.166007326007326,0.09267399267399268
2.7389677239989396,1.3361172161172161,0.166007326007326,0.09267399267399268
2.742802013999608,0.9638095238095238,0.0693040293040293,0.03706959706959707
2.7480657740015886,0.9638095238095238,0.0693040293040293,0.03706959706959707
2.7511540570048965,0.9638095238095238,0.0693040293040293,0.03706959706959707
2.753443623005296,0.9638095238095238,0.0693040293040293,0.03706959706959707
2.7536854290010524,0.9638095238095238,0.0693040293040293,0.03706959706959707
2.7590640150010586,0.9638095238095238,0.0693040293040293,0.03706959706959707
2.761501471999509,1.4852014652014651,0.21032967032967032,0.18615384615384614
2.7616968950023875,1.4852014652014651,0.21032967032967032,0.18615384615384614
2.7663659489990096,1.4852014652014651,0.21032967032967032,0.18615384615384614
2.76654604000214,1.4852014652014651,0.21032967032967032,0.18615384615384614
2.77219467300165,0.033846153846153845,0.08864468864468865,0.022564102564102562
2.7724389460054226,0.23208791208791207,0.2063003663003663,0.2361172161172161
2.782057142998383,0.23208791208791207,0.2063003663003663,0.2361172161172161
2.7892347919987515,0.23208791208791207,0.2063003663003663,0.2361172161172161
2.7965230390036595,0.23208791208791207,0.2063003663003663,0.2361172161172161
2.803556759005005,1.6592673992673992,0.28608058608058606,0.2868864468864469
2.809120140998857,1.6592673992673992,0.28608058608058606,0.2868864468864469
2.818515318998834,2.121025641025641,0.36747252747252745,0.36747252747252745
2.824821501999395,1.556117216117216,0.31267399267399265,0.3731135531135531
2.829896663999534,0.20227106227106226,0.166007326007326,0.22967032967032966
2.834570842998801,0.20227106227106226,0.166007326007326,0.22967032967032966
2.8459846900004777,0.20227106227106226,0.166007326007326,0.22967032967032966
2.857736288999149,0.8743589743589744,0.06205128205128205,0.07897435897435898
2.871367416002613,0.8743589743589744,0.06205128205128205,0.07897435897435898
2.8851152069983073,0.04915750915750916,0.12732600732600732,0.10556776556776555
2.8961054500032333,0.04915750915750916,0.12732600732600732,0.10556776556776555
2.910700728003576,0.04915750915750916,0.12732600732600732,0.10556776556776555
2.910996831000375,0.04915750915750916,0.12732600732600732,0.10556776556776555
2.92098057900148,0.04915750915750916,0.12732600732600732,0.10556776556776555
2.9290424889986753,1.2047619047619047,0.3344322344322344,0.4287179487179487
2.9391912870050874,1.2047619047619047,0.3344322344322344,0.4287179487179487
2.9500334430049406,1.0774358974358973,0.9388278388278387,0.9299633699633699
2.9622481010010233,1.0774358974358973,0.9388278388278387,0.9299633699633699
2.971855802999926,1.0774358974358973,0.9388278388278387,0.9299633699633699
2.980571525004052,1.0774358974358973,0.9388278388278387,0.9299633699633699
2.9915220590046374,1.502930402930403,0.33604395604395604,0.3747252747252747
2.9989104390042485,1.502930402930403,0.33604395604395604,0.3747252747252747
3.003512041999784,0.9162637362637363,0.13135531135531134,0.0701098901098901
3.0037129420015845,0.9162637362637363,0.13135531135531134,0.0701098901098901
3.0092747880044044,0.9162637362637363,0.13135531135531134,0.0701098901098901
3.00954807800008,2.17018315018315,0.39003663003663,0.38358974358974357
3.017802597001719,2.17018315018315,0.39003663003663,0.38358974358974357
3.023784456003341,2.17018315018315,0.39003663003663,0.38358974358974357
3.0284721230054856,2.17018315018315,0.39003663003663,0.38358974358974357
3.0384977420035284,2.17018315018315,0.39003663003663,0.38358974358974357
3.048551858999417,0.2175824175824176,0.18695970695970696,0.19824175824175824
3.055884662004246,0.2175824175824176,0.18695970695970696,0.19824175824175824
3.063640320004197,0.2175824175824176,0.18695970695970696,0.19824175824175824
3.071828345004178,0.2175824175824176,0.18695970695970696,0.19824175824175824
3.079026318002434,0.2175824175824176,0.18695970695970696,0.19824175824175824
3.0868819169991184,0.2175824175824176,0.18695970695970696,0.19824175824175824
3.090686421004648,0.19179487179487179,0.16278388278388278,0.17164835164835165
3.098663763004879,0.19179487179487179,0.16278388278388278,0.17164835164835165
3.1054833960006363,0.7043223443223443,0.10315018315018315,0.10234432234432234
3.110927576002723,0.7043223443223443,0.10315018315018315,0.10234432234432234
3.1113052619984956,0.7043223443223443,0.10315018315018315,0.10234432234432234
3.119650084998284,0.7043223443223443,0.10315018315018315,0.10234432234432234
3.1245030110003427,0.7043223443223443,0.10315018315018315,0.10234432234432234
3.1295232129996293,1.4674725274725273,0.9847619047619047,0.9823443223443222
3.136321965001116,0.02498168498168498,0.08945054945054945,0.07252747252747253
3.140264722998836,0.02498168498168498,0.08945054945054945,0.07252747252747253
3.144612987001892,0.02498168498168498,0.08945054945054945,0.07252747252747253
3.145523879000393,0.02498168498168498,0.08945054945054945,0.07252747252747253
3.1488279050026904,0.02498168498168498,0.08945054945054945,0.07252747252747253
3.157531974000449,0.02498168498168498,0.08945054945054945,0.07252747252747253
3.1673249140003463,0.02498168498168498,0.08945054945054945,0.07252747252747253
3.176133065004251,0.02498168498168498,0.08945054945054945,0.07252747252747253
3.184497835005459,0.02498168498168498,0.08945054945054945,0.07252747252747253
3.1877123529993696,0.02498168498168498,0.08945054945054945,0.07252747252747253
3.188644686000771,0.02498168498168498,0.08945054945054945,0.07252747252747253
3.190234727000643,0.02498168498168498,0.08945054945054945,0.07252747252747253
3.1944195719988784,0.02498168498168498,0.08945054945054945,0.07252747252747253
3.197392893001961,0.02498168498168498,0.08945054945054945,0.07252747252747253
3.203504511999199,0.02498168498168498,0.08945054945054945,0.07252747252747253
3.2091901680032606,0.02498168498168498,0.08945054945054945,0.07252747252747253
3.220485336998536,0.02498168498168498,0.08945054945054945,0.07252747252747253
3.227185212999757,0.02498168498168498,0.08945054945054945,0.07252747252747253
3.2321638290013652,0.02498168498168498,0.08945054945054945,0.07252747252747253
3.237896548998833,0.04351648351648352,0.28527472527472525,0.24498168498168496
3.243580757000018,1.1580219780219778,0.1692307692307692,0.09831501831501832
3.253083397001319,0.17648351648351646,0.15472527472527473,0.14989010989010987
3.2588767699999153,0.17648351648351646,0.15472527472527473,0.14989010989010987
3.259022122998431,0.17648351648351646,0.15472527472527473,0.14989010989010987
3.265950655004417,1.0774358974358973,0.083003663003663,0.04673992673992674
3.2722186380051426,0.0,0.0838095238095238,0.07655677655677656
3.277210443004151,0.0,0.0838095238095238,0.07655677655677656
3.2851089910036535,0.0,0.0838095238095238,0.07655677655677656
3.290670497000974,0.17245421245421244,0.2594871794871795,0.5745787545787545
3.3007709180019447,0.5004395604395604,0.49560439560439556,0.4545054945054945
3.3083186770018074,0.5004395604395604,0.49560439560439556,0.4545054945054945
3.313193254005455,0.5004395604395604,0.49560439560439556,0.4545054945054945
3.3236656820008648,0.5004395604395604,0.49560439560439556,0.4545054945054945
3.3343579950014828,0.5439560439560439,0.07494505494505493,0.09106227106227105
3.3417087070047273,0.5439560439560439,0.07494505494505493,0.09106227106227105
3.349446533000446,0.4698168498168498,0.06446886446886446,0.03304029304029304
3.3561034529993776,0.4698168498168498,0.06446886446886446,0.03304029304029304
3.3611916640002164,0.4698168498168498,0.06446886446886446,0.03304029304029304
3.363932398999168,0.4698168498168498,0.06446886446886446,0.03304029304029304
3.369807094000862,0.4698168498168498,0.06446886446886446,0.03304029304029304
3.3738010870001744,0.4698168498168498,0.06446886446886446,0.03304029304029304
3.379458285999135,0.4698168498168498,0.06446886446886446,0.03304029304029304
3.3898942450032337,0.4698168498168498,0.06446886446886446,0.03304029304029304
3.39015007600392,0.2232234432234432,0.11846153846153845,0.0821978021978022
3.398845027004427,0.2232234432234432,0.11846153846153845,0.0821978021978022
3.406428729002073,0.2232234432234432,0.11846153846153845,0.0821978021978022
3.4128049860009924,0.2232234432234432,0.11846153846153845,0.0821978021978022
3.41936965000059,1.0178021978021978,0.2361172161172161,0.27238095238095233
3.424648562002403,0.7599267399267399,0.06688644688644689,0.07575091575091575
3.42607983200287,0.7599267399267399,0.06688644688644689,0.07575091575091575
3.4343945830041775,0.14666666666666667,0.12249084249084248,0.07655677655677656
3.4384357310045743,1.9010256410256408,0.3473260073260073,0.39567765567765567
3.442370018005022,1.9010256410256408,0.3473260073260073,0.39567765567765567
3.448546603998693,1.9010256410256408,0.3473260073260073,0.39567765567765567
3.4539876999988337,0.2224175824175824,0.07655677655677656,0.03142857142857143
3.4622392390010646,0.2224175824175824,0.07655677655677656,0.03142857142857143
3.4746240630047396,1.0822710622710623,0.11523809523809524,0.017728937728937726
3.4850932840054156,1.0822710622710623,0.11523809523809524,0.017728937728937726
3.490738730004523,1.0822710622710623,0.11523809523809524,0.017728937728937726
3.4912419370011776,2.382930402930403,0.3843956043956044,0.4085714285714286
3.4986422380025033,0.6471062271062271,0.6052014652014651,0.5834432234432234
3.505384146999859,0.6471062271062271,0.6052014652014651,0.5834432234432234
3.5113999669993063,0.6471062271062271,0.6052014652014651,0.5834432234432234
3.5169099560007453,0.6471062271062271,0.6052014652014651,0.5834432234432234
3.517159299000923,0.6471062271062271,0.6052014652014651,0.5834432234432234
3.5225715920023504,0.6471062271062271,0.6052014652014651,0.5834432234432234
3.524335523004993,0.8791941391941391,0.6277655677655677,0.523003663003663
3.529979232000187,0.8791941391941391,0.6277655677655677,0.523003663003663
3.538453572000435,0.9073992673992675,0.2087179487179487,0.224029304029304
3.5468835050050984,0.9017582417582416,0.6608058608058608,0.6084249084249085
3.553986853999959,0.9017582417582416,0.6608058608058608,0.6084249084249085
3.5589890730043408,0.9017582417582416,0.6608058608058608,0.6084249084249085
3.5631115090000094,0.9017582417582416,0.6608058608058608,0.6084249084249085
3.567470283000148,0.9017582417582416,0.6608058608058608,0.6084249084249085
3.5677339489993756,0.9017582417582416,0.6608058608058608,0.6084249084249085
3.5720220639996114,0.9017582417582416,0.6608058608058608,0.6084249084249085
3.5730567870050436,0.9017582417582416,0.6608058608058608,0.6084249084249085
3.574067029003345,0.9017582417582416,0.6608058608058608,0.6084249084249085
3.5750395790018956,0.9017582417582416,0.6608058608058608,0.6084249084249085
3.5766823020021548,0.9017582417582416,0.6608058608058608,0.6084249084249085
3.5808388520017616,0.9017582417582416,0.6608058608058608,0.6084249084249085
3.584113069999148,0.9017582417582416,0.6608058608058608,0.6084249084249085
3.5843380040023476,0.9017582417582416,0.6608058608058608,0.6084249084249085
3.589368557004491,0.9017582417582416,0.6608058608058608,0.6084249084249085
3.5950293179994333,0.9017582417582416,0.6608058608058608,0.6084249084249085
3.5952123530005338,0.9017582417582416,0.6608058608058608,0.6084249084249085
3.603366638002626,0.9017582417582416,0.6608058608058608,0.6084249084249085
3.6085153950043605,0.9017582417582416,0.6608058608058608,0.6084249084249085
3.611046318001172,0.9017582417582416,0.6608058608058608,0.6084249084249085
3.6209110130002955,0.9017582417582416,0.6608058608058608,0.6084249084249085
3.627043678003247,0.9017582417582416,0.6608058608058608,0.6084249084249085
3.6317193060021964,0.9017582417582416,0.6608058608058608,0.6084249084249085
3.6388575630044215,0.9017582417582416,0.6608058608058608,0.6084249084249085
3.6460352659996715,0.9017582417582416,0.6608058608058608,0.6084249084249085
3.6547399000046425,0.17487179487179486,0.12007326007326008,0.1112087912087912
3.6617678820039146,0.17487179487179486,0.12007326007326008,0.1112087912087912
3.6700007780018495,0.17487179487179486,0.12007326007326008,0.1112087912087912
3.676533185003791,0.28930402930402926,0.2079120879120879,0.22886446886446887
3.6818421089992626,1.6737728937728935,0.2482051282051282,0.24175824175824176
3.6838728690054268,1.6737728937728935,0.2482051282051282,0.24175824175824176
3.685208193004655,1.6737728937728935,0.2482051282051282,0.24175824175824176
3.691458920999139,1.6737728937728935,0.2482051282051282,0.24175824175824176
3.6955069950054167,1.6737728937728935,0.2482051282051282,0.24175824175824176
3.701638101003482,1.6737728937728935,0.2482051282051282,0.24175824175824176
3.7048801650016685,1.6737728937728935,0.2482051282051282,0.24175824175824176
3.7064959530034685,1.6737728937728935,0.2482051282051282,0.24175824175824176
3.7106118990050163,1.6737728937728935,0.2482051282051282,0.24175824175824176
3.7166239770012908,2.1363369963369965,0.3884249084249084,0.381978021978022
3.720824428004562,2.1363369963369965,0.3884249084249084,0.381978021978022
3.722151850000955,2.1363369963369965,0.3884249084249084,0.381978021978022
3.7280722220020834,2.1363369963369965,0.3884249084249084,0.381978021978022
3.736257165001007,2.1363369963369965,0.3884249084249084,0.381978021978022
3.741348809999181,2.1363369963369965,0.3884249084249084,0.381978021978022
3.744594939998933,2.1363369963369965,0.3884249084249084,0.381978021978022
3.744900678000704,2.1363369963369965,0.3884249084249084,0.381978021978022
3.755746276001446,2.1363369963369965,0.3884249084249084,0.381978021978022
3.7629334650046076,1.0113553113553113,0.25787545787545785,0.27238095238095233
3.77156281000498,1.0113553113553113,0.25787545787545785,0.27238095238095233
3.7798594720006804,0.34087912087912087,0.08622710622710622,0.08058608058608058
3.7882677910019993,1.739047619047619,0.2095238095238095,0.16278388278388278
3.795245742003317,0.24739926739926738,0.2232234432234432,0.25384615384615383
3.803522439004155,0.24739926739926738,0.2232234432234432,0.25384615384615383
3.8100624910002807,0.5375091575091575,0.06043956043956044,0.083003663003663
3.8167917070022668,2.1508424908424906,0.38681318681318677,0.3755311355311355
3.823167137001292,1.4884249084249084,0.2191941391941392,0.1958241758241758
3.8284037750054267,1.4884249084249084,0.2191941391941392,0.1958241758241758
3.8305383449987858,1.4884249084249084,0.2191941391941392,0.1958241758241758
3.8312937680020696,1.4884249084249084,0.2191941391941392,0.1958241758241758
3.8349552240033518,1.4884249084249084,0.2191941391941392,0.1958241758241758
3.8415990530047566,1.4884249084249084,0.2191941391941392,0.1958241758241758
3.8464520839988836,1.4884249084249084,0.2191941391941392,0.1958241758241758
3.8545104950026143,1.4884249084249084,0.2191941391941392,0.1958241758241758
3.8586660280052456,1.4884249084249084,0.2191941391941392,0.1958241758241758
3.8617961190029746,1.4884249084249084,0.2191941391941392,0.1958241758241758
3.864354703000572,1.4884249084249084,0.2191941391941392,0.1958241758241758
3.8715053550040466,1.4884249084249084,0.2191941391941392,0.1958241758241758
3.8762005060052616,0.6519413919413919,0.048351648351648346,0.11443223443223444
3.876388978002069,1.6302564102564103,0.38681318681318677,0.42065934065934063
3.88453046700306,1.6302564102564103,0.38681318681318677,0.42065934065934063
3.888624579005409,0.5068864468864469,0.06608058608058608,0.10637362637362638
3.8910049550031545,0.5068864468864469,0.06608058608058608,0.10637362637362638
3.8912564070051303,0.5068864468864469,0.06608058608058608,0.10637362637362638
3.8961407489987323,0.5068864468864469,0.06608058608058608,0.10637362637362638
3.904340991000936,1.5835164835164834,0.29333333333333333,0.4504761904761904
3.911607701003959,0.2208058608058608,0.0693040293040293,0.14505494505494507
3.9183175040016067,0.2208058608058608,0.0693040293040293,0.14505494505494507
3.9224458180033253,0.2208058608058608,0.0693040293040293,0.14505494505494507
3.925114415003918,0.2208058608058608,0.0693040293040293,0.14505494505494507
3.9342915259985602,0.2208058608058608,0.0693040293040293,0.14505494505494507
3.9402830390026793,0.2208058608058608,0.0693040293040293,0.14505494505494507
3.949217305002094,0.5052747252747253,0.0709157509157509,0.0410989010989011
3.957738249999238,0.5052747252747253,0.0709157509157509,0.0410989010989011
3.9666302949990495,0.5052747252747253,0.0709157509157509,0.0410989010989011
3.97128839600191,0.5052747252747253,0.0709157509157509,0.0410989010989011
3.971462615998462,0.5052747252747253,0.0709157509157509,0.0410989010989011
3.9799097909999546,0.5052747252747253,0.0709157509157509,0.0410989010989011
3.989066720001574,0.5052747252747253,0.0709157509157509,0.0410989010989011
4.000645967003948,0.5052747252747253,0.0709157509157509,0.0410989010989011
4.009875978001219,0.5052747252747253,0.0709157509157509,0.0410989010989011
4.018528811000579,0.1571428571428571,0.09589743589743589,0.03706959706959707
4.025514822998957,0.1571428571428571,0.09589743589743589,0.03706959706959707
4.0296089710027445,0.1571428571428571,0.09589743589743589,0.03706959706959707
4.03562913100177,2.4473992673992675,0.4319413919413919,0.45772893772893775
4.041648582002381,2.4473992673992675,0.4319413919413919,0.45772893772893775
4.04851795900322,0.5536263736263736,0.0838095238095238,0.05641025641025641
4.054728300005081,1.4626373626373625,0.855018315018315,0.8405128205128204
4.0602644690006855,1.4626373626373625,0.855018315018315,0.8405128205128204
4.060422185000789,1.4626373626373625,0.855018315018315,0.8405128205128204
4.070264415000565,0.0,0.08058608058608058,0.06688644688644689
4.0788047470050515,0.0,0.08058608058608058,0.06688644688644689
4.086283759999787,0.0,0.08058608058608058,0.06688644688644689
4.093750329004251,0.0,0.08058608058608058,0.06688644688644689
4.100094885005092,0.0,0.08058608058608058,0.06688644688644689
4.1045562340004835,0.0,0.08058608058608058,0.06688644688644689
4.1046969300005,0.0,0.08058608058608058,0.06688644688644689
4.113685563002946,0.0,0.08058608058608058,0.06688644688644689
4.121747688004689,0.0,0.08058608058608058,0.06688644688644689
4.128803988001891,0.0,0.08058608058608058,0.06688644688644689
4.137531496999145,0.0,0.08058608058608058,0.06688644688644689
4.144708877000085,0.0,0.08058608058608058,0.06688644688644689
4.151710320998973,0.0,0.08058608058608058,0.06688644688644689
4.155493172998831,1.3482051282051282,0.30139194139194136,0.37150183150183147
4.16340443000081,1.3482051282051282,0.30139194139194136,0.37150183150183147
4.174698524999258,0.9976556776556775,0.1402197802197802,0.08139194139194139
4.189008145003754,0.9976556776556775,0.1402197802197802,0.08139194139194139
4.191233335004654,0.9976556776556775,0.1402197802197802,0.08139194139194139
4.194510865003394,0.9976556776556775,0.1402197802197802,0.08139194139194139
4.207811047999712,1.7035897435897436,0.27399267399267396,0.2836630036630036
4.2245867810052005,1.7035897435897436,0.27399267399267396,0.2836630036630036
4.23932675299875,1.003296703296703,0.26996336996336995,0.28205128205128205
4.254416804003995,1.003296703296703,0.26996336996336995,0.28205128205128205
4.256047993003449,0.20227106227106226,0.19179487179487179,0.2377289377289377
4.260469724998984,0.20227106227106226,0.19179487179487179,0.2377289377289377
4.260783051999169,0.20227106227106226,0.19179487179487179,0.2377289377289377
4.272014720998413,0.20227106227106226,0.19179487179487179,0.2377289377289377
4.282748329998867,0.20227106227106226,0.19179487179487179,0.2377289377289377
4.291089427002589,1.5593406593406591,0.31267399267399265,0.3747252747252747
4.298197656004049,1.5593406593406591,0.31267399267399265,0.3747252747252747
4.305350032998831,1.5593406593406591,0.31267399267399265,0.3747252747252747
4.310474290999991,0.43758241758241756,0.26754578754578756,0.24901098901098898
4.314278522004315,0.43758241758241756,0.26754578754578756,0.24901098901098898
4.320621604005282,1.0484249084249082,0.40534798534798533,0.4351648351648352
4.325141458000871,0.49238095238095236,0.0701098901098901,0.006446886446886447
4.325399314002425,1.3063003663003663,0.6873992673992674,0.6801465201465201
4.331819633000123,1.3063003663003663,0.6873992673992674,0.6801465201465201
4.337947571002587,1.3063003663003663,0.6873992673992674,0.6801465201465201
4.342179459003091,1.3063003663003663,0.6873992673992674,0.6801465201465201
4.344779774000926,0.48432234432234433,0.08622710622710622,0.03545787545787545
4.354651387002377,0.48432234432234433,0.08622710622710622,0.03545787545787545
4.363140920002479,0.48432234432234433,0.08622710622710622,0.03545787545787545
4.370953818004637,1.1902564102564102,0.16197802197802197,0.13377289377289378
4.379183561999525,1.1902564102564102,0.16197802197802197,0.13377289377289378
4.3874658810018445,1.1902564102564102,0.16197802197802197,0.13377289377289378
4.394565720001992,1.6399267399267399,0.9307692307692307,0.8880586080586079
4.401297180003894,1.6399267399267399,0.9307692307692307,0.8880586080586079
4.404858981004509,1.1999267399267397,0.14263736263736262,0.112014652014652
4.404988148002303,1.1999267399267397,0.14263736263736262,0.112014652014652
4.409891717004939,1.1999267399267397,0.14263736263736262,0.112014652014652
4.4174522340035765,2.249157509157509,0.44080586080586076,0.4319413919413919
4.423597091001284,2.249157509157509,0.44080586080586076,0.4319413919413919
4.429025987003115,1.4916483516483516,0.8195604395604396,0.7994139194139194
4.429316590998496,1.4916483516483516,0.8195604395604396,0.7994139194139194
4.436056074999215,1.4916483516483516,0.8195604395604396,0.7994139194139194
4.441464335999626,1.6624908424908424,0.34087912087912087,0.3465201465201465
4.442397924998659,1.6624908424908424,0.34087912087912087,0.3465201465201465
4.444095085003937,1.6624908424908424,0.34087912087912087,0.3465201465201465
4.4516460390004795,1.6624908424908424,0.34087912087912087,0.3465201465201465
4.458418179005093,0.3223443223443223,0.07736263736263736,0.04996336996336996
4.464728801998717,0.3223443223443223,0.07736263736263736,0.04996336996336996
4.468173949004267,0.2369230769230769,0.08542124542124542,0.07413919413919413
4.468413848000637,0.2369230769230769,0.08542124542124542,0.07413919413919413
4.473299618002784,0.2369230769230769,0.08542124542124542,0.07413919413919413
4.478210567001952,0.2369230769230769,0.08542124542124542,0.07413919413919413
4.488362725998741,0.2369230769230769,0.08542124542124542,0.07413919413919413
4.4956270170005155,0.1555311355311355,0.17164835164835165,0.14424908424908423
4.505134081999131,0.1555311355311355,0.17164835164835165,0.14424908424908423
4.513168401004805,0.7663736263736264,0.12249084249084248,0.0709157509157509
4.521396656004072,0.7663736263736264,0.12249084249084248,0.0709157509157509
4.526171335004619,1.6262271062271063,0.904981684981685,0.8912820512820512
4.5262930460012285,1.6262271062271063,0.904981684981685,0.8912820512820512
4.535932418999437,1.6262271062271063,0.904981684981685,0.8912820512820512
4.542792116000783,1.6262271062271063,0.904981684981685,0.8912820512820512
4.547898337004881,0.16197802197802197,0.26996336996336995,0.2627106227106227
4.554945128002146,0.16197802197802197,0.26996336996336995,0.2627106227106227
4.558935173001373,1.1032234432234431,0.8227838827838827,0.8058608058608058
4.561804324002878,1.1032234432234431,0.8227838827838827,0.8058608058608058
4.569940359004249,0.12168498168498168,0.0693040293040293,0.048351648351648346
4.575993318001565,1.0967765567765566,0.6277655677655677,0.5479853479853479
4.581451748003019,1.5722344322344322,0.24901098901098898,0.20065934065934066
4.583301708000363,0.6398534798534798,0.12329670329670328,0.09912087912087912
4.586590309998428,0.6398534798534798,0.12329670329670328,0.09912087912087912
4.586741512001026,0.13538461538461538,0.07252747252747253,0.08945054945054945
4.595339015999343,0.13538461538461538,0.07252747252747253,0.08945054945054945
4.6042379130012705,0.13538461538461538,0.07252747252747253,0.08945054945054945
4.611634869004774,0.13538461538461538,0.07252747252747253,0.08945054945054945
4.618505370999628,0.13538461538461538,0.07252747252747253,0.08945054945054945
4.62268251900241,0.13538461538461538,0.07252747252747253,0.08945054945054945
4.624418210005388,0.5431501831501832,0.06849816849816849,0.03062271062271062
4.627545934999944,0.5431501831501832,0.06849816849816849,0.03062271062271062
4.629382548999274,0.5431501831501832,0.06849816849816849,0.03062271062271062
4.633834225998726,0.5431501831501832,0.06849816849816849,0.03062271062271062
4.633954828001151,0.5431501831501832,0.06849816849816849,0.03062271062271062
4.640519575004873,0.5431501831501832,0.06849816849816849,0.03062271062271062
4.649399811998592,0.49802197802197795,0.0838095238095238,0.0273992673992674
4.6566105840029195,0.18695970695970696,0.14102564102564102,0.1402197802197802
4.663873256999068,0.18695970695970696,0.14102564102564102,0.1402197802197802
4.6708173229999375,0.18695970695970696,0.14102564102564102,0.1402197802197802
4.67510039100307,0.18695970695970696,0.14102564102564102,0.1402197802197802
4.676027050998528,1.6004395604395603,0.24659340659340656,0.2208058608058608
4.677268231003836,1.6004395604395603,0.24659340659340656,0.2208058608058608
4.677567208003893,1.6004395604395603,0.24659340659340656,0.2208058608058608
4.68772908700339,1.6004395604395603,0.24659340659340656,0.2208058608058608
4.6962347619992215,0.25787545787545785,0.19985347985347984,0.24659340659340656
4.7044937099999515,1.535164835164835,0.3424908424908425,0.4625641025641025
4.711342009999498,1.535164835164835,0.3424908424908425,0.4625641025641025
4.717713655001717,1.535164835164835,0.3424908424908425,0.4625641025641025
4.723196678998647,1.535164835164835,0.3424908424908425,0.4625641025641025
4.723417123001127,1.535164835164835,0.3424908424908425,0.4625641025641025
4.733676556999853,1.535164835164835,0.3424908424908425,0.4625641025641025
4.741368855000474,1.535164835164835,0.3424908424908425,0.4625641025641025
4.748092544999963,1.535164835164835,0.3424908424908425,0.4625641025641025
4.753761705003853,1.535164835164835,0.3424908424908425,0.4625641025641025
4.761149357000249,0.12168498168498168,0.1942124542124542,0.21355311355311357
4.769017507998797,0.12168498168498168,0.1942124542124542,0.21355311355311357
4.774309104002896,0.12168498168498168,0.1942124542124542,0.21355311355311357
4.7766676239989465,1.0919413919413918,0.8098901098901098,0.7486446886446886
4.776855181000428,1.0919413919413918,0.8098901098901098,0.7486446886446886
4.785639756002638,1.0919413919413918,0.8098901098901098,0.7486446886446886
4.792893224999716,1.0919413919413918,0.8098901098901098,0.7486446886446886
4.801608544003102,0.0,0.18695970695970696,0.19179487179487179
4.808082777999516,0.1418315018315018,0.0838095238095238,0.06527472527472526
4.812416109001788,0.1418315018315018,0.0838095238095238,0.06527472527472526
4.8150542990042595,0.1418315018315018,0.0838095238095238,0.06527472527472526
4.819637833003071,0.1418315018315018,0.0838095238095238,0.06527472527472526
4.825181104999501,0.5955311355311355,0.08703296703296703,0.03062271062271062
4.827102495000872,1.506959706959707,0.85018315018315,0.8252014652014652
4.828945449000457,0.18373626373626373,0.07252747252747253,0.044322344322344324
4.83352965600352,0.18373626373626373,0.07252747252747253,0.044322344322344324
4.8393527760053985,0.7623443223443224,0.6567765567765567,0.6301831501831501
4.83954357499897,0.7623443223443224,0.6567765567765567,0.6301831501831501
4.8481549990028725,0.7623443223443224,0.6567765567765567,0.6301831501831501
4.855500032004784,0.7623443223443224,0.6567765567765567,0.6301831501831501
4.861800760001643,0.7623443223443224,0.6567765567765567,0.6301831501831501
4.8688534430039,0.7623443223443224,0.6567765567765567,0.6301831501831501
4.87531690600008,0.7623443223443224,0.6567765567765567,0.6301831501831501
4.880688092998753,1.5657875457875456,0.3578021978021978,0.3497435897435897
4.881958361998841,1.5657875457875456,0.3578021978021978,0.3497435897435897
4.888486440999259,1.5657875457875456,0.3578021978021978,0.3497435897435897
4.892366634005157,0.6567765567765567,0.1378021978021978,0.10556776556776555
4.8990570250025485,0.6567765567765567,0.1378021978021978,0.10556776556776555
4.905267182002717,0.6567765567765567,0.1378021978021978,0.10556776556776555
4.909896190998552,0.6567765567765567,0.1378021978021978,0.10556776556776555
4.920956984999066,0.6567765567765567,0.1378021978021978,0.10556776556776555
4.92877210000006,0.6567765567765567,0.1378021978021978,0.10556776556776555
4.936759099000483,0.25384615384615383,0.08058608058608058,0.047545787545787546
4.943209116005164,0.25384615384615383,0.08058608058608058,0.047545787545787546
4.95057471900509,0.25384615384615383,0.08058608058608058,0.047545787545787546
4.956516942002054,0.25384615384615383,0.08058608058608058,0.047545787545787546
4.9633958940030425,0.25384615384615383,0.08058608058608058,0.047545787545787546
4.969828591005353,0.25384615384615383,0.08058608058608058,0.047545787545787546
4.974951793999935,0.25384615384615383,0.08058608058608058,0.047545787545787546
4.9771424999999,0.9960439560439559,0.8614652014652014,0.7913553113553113
4.9785388780001085,0.7035164835164834,0.11926739926739927,0.08139194139194139
4.987573074999091,0.7035164835164834,0.11926739926739927,0.08139194139194139
4.995838738999737,0.7035164835164834,0.11926739926739927,0.08139194139194139
5.002567390001786,1.5126007326007325,0.33282051282051284,0.3876190476190476
5.0064521780004725,1.5126007326007325,0.33282051282051284,0.3876190476190476
5.011900779005373,0.1515018315018315,0.13538461538461538,0.0975091575091575
5.0157539210049435,2.2676923076923075,0.3779487179487179,0.39406593406593404
5.019554422004148,2.2676923076923075,0.3779487179487179,0.39406593406593404
5.023452054003428,2.2676923076923075,0.3779487179487179,0.39406593406593404
5.0320576450030785,0.2095238095238095,0.2063003663003663,0.22886446886446887
5.039589343999978,0.2095238095238095,0.2063003663003663,0.22886446886446887
5.0463553560039145,0.2095238095238095,0.2063003663003663,0.22886446886446887
5.053484823998588,0.2095238095238095,0.2063003663003663,0.22886446886446887
5.058310309999797,0.9936263736263735,0.7913553113553113,0.8252014652014652
5.064746310999908,0.9936263736263735,0.7913553113553113,0.8252014652014652
5.069008605001727,0.9936263736263735,0.7913553113553113,0.8252014652014652
5.071750893999706,2.1911355311355307,0.33926739926739924,0.3457142857142857
5.075852856003621,2.1911355311355307,0.33926739926739924,0.3457142857142857
5.078138276003301,2.1911355311355307,0.33926739926739924,0.3457142857142857
5.078426072999719,2.1911355311355307,0.33926739926739924,0.3457142857142857
5.084916988002078,2.1911355311355307,0.33926739926739924,0.3457142857142857
5.0890455699991435,0.24498168498168496,0.23369963369963367,0.24256410256410255
5.091569709002215,2.297509157509157,0.3594139194139194,0.40937728937728934
5.098940376999963,0.9162637362637363,0.7736263736263735,0.7075457875457875
5.106307590998767,0.40776556776556777,0.08864468864468865,0.08139194139194139
5.114144150000357,0.40776556776556777,0.08864468864468865,0.08139194139194139
5.120552091000718,0.40776556776556777,0.08864468864468865,0.08139194139194139
5.126106324001739,0.40776556776556777,0.08864468864468865,0.08139194139194139
5.135522404998483,0.40776556776556777,0.08864468864468865,0.08139194139194139
5.143324349999602,0.40776556776556777,0.08864468864468865,0.08139194139194139
5.149704474002647,0.8743589743589744,0.05802197802197802,0.07655677655677656
5.154940918000648,0.8743589743589744,0.05802197802197802,0.07655677655677656
5.157857218000572,0.8743589743589744,0.05802197802197802,0.07655677655677656
5.160801958001684,0.8743589743589744,0.05802197802197802,0.07655677655677656
5.163082498998847,0.41018315018315016,0.3690842490842491,0.3698901098901099
5.163958076998824,0.41018315018315016,0.3690842490842491,0.3698901098901099
5.164864830003353,0.41018315018315016,0.3690842490842491,0.3698901098901099
5.166372252999281,0.41018315018315016,0.3690842490842491,0.3698901098901099
5.171457837001071,0.41018315018315016,0.3690842490842491,0.3698901098901099
5.175734855001792,2.1605128205128206,0.37875457875457874,0.3376556776556776
5.1773074099983205,1.1112820512820514,0.8743589743589744,0.9783150183150182
5.181740865002212,1.1112820512820514,0.8743589743589744,0.9783150183150182
5.182632798001578,1.1112820512820514,0.8743589743589744,0.9783150183150182
5.184851562000404,1.5754578754578754,0.9734798534798534,0.9364102564102563
5.185085461998824,1.5754578754578754,0.9734798534798534,0.9364102564102563
5.190174515002582,1.5754578754578754,0.9734798534798534,0.9364102564102563
5.193833868004731,1.5754578754578754,0.9734798534798534,0.9364102564102563
5.193982918004622,1.5754578754578754,0.9734798534798534,0.9364102564102563
5.200343094998971,1.5754578754578754,0.9734798534798534,0.9364102564102563
5.205771058004757,1.5754578754578754,0.9734798534798534,0.9364102564102563
5.206021315003454,1.5754578754578754,0.9734798534798534,0.9364102564102563
5.2140584270018735,1.5754578754578754,0.9734798534798534,0.9364102564102563
5.219735292004771,1.5754578754578754,0.9734798534798534,0.9364102564102563
5.226228564999474,1.5754578754578754,0.9734798534798534,0.9364102564102563
5.231525319002685,1.5754578754578754,0.9734798534798534,0.9364102564102563
5.23241563099873,1.5754578754578754,0.9734798534798534,0.9364102564102563
5.233348303998355,1.5754578754578754,0.9734798534798534,0.9364102564102563
5.235615124998731,1.5754578754578754,0.9734798534798534,0.9364102564102563
5.2358162560049095,1.5754578754578754,0.9734798534798534,0.9364102564102563
5.2438163940023514,1.5754578754578754,0.9734798534798534,0.9364102564102563
5.249837294002646,1.5754578754578754,0.9734798534798534,0.9364102564102563
5.256639526000072,1.5754578754578754,0.9734798534798534,0.9364102564102563
5.26174956199975,1.228937728937729,0.925128205128205,0.8646886446886447
5.264140926999971,1.228937728937729,0.925128205128205,0.8646886446886447
5.273742884004605,1.228937728937729,0.925128205128205,0.8646886446886447
5.279932284000097,1.228937728937729,0.925128205128205,0.8646886446886447
5.28620382900408,0.7583150183150182,0.08542124542124542,0.04593406593406593
5.290629378003359,0.2369230769230769,0.0975091575091575,0.0556043956043956
5.290920726998593,2.149230769230769,0.3223443223443223,0.3723076923076923
5.295838434998586,2.149230769230769,0.3223443223443223,0.3723076923076923
5.308136405001278,2.149230769230769,0.3223443223443223,0.3723076923076923
5.318051758004003,2.149230769230769,0.3223443223443223,0.3723076923076923
5.327166508002847,2.149230769230769,0.3223443223443223,0.3723076923076923
5.334413606004091,2.149230769230769,0.3223443223443223,0.3723076923076923
5.341263369999069,2.149230769230769,0.3223443223443223,0.3723076923076923
5.347089101000165,2.149230769230769,0.3223443223443223,0.3723076923076923
5.353295642002195,2.149230769230769,0.3223443223443223,0.3723076923076923
5.358943365004961,0.0,0.22725274725274724,0.18695970695970696
5.370033923005394,0.0,0.22725274725274724,0.18695970695970696
5.381734464004694,1.2579487179487179,0.25142857142857145,0.3449084249084249
5.393896116001997,1.2579487179487179,0.25142857142857145,0.3449084249084249
5.401913050001895,1.2579487179487179,0.25142857142857145,0.3449084249084249
5.408688882998831,1.2579487179487179,0.25142857142857145,0.3449084249084249
5.412630170998455,1.2579487179487179,0.25142857142857145,0.3449084249084249
5.417020332002721,1.2579487179487179,0.25142857142857145,0.3449084249084249
5.417283499002224,1.2579487179487179,0.25142857142857145,0.3449084249084249
5.425502712001617,1.2579487179487179,0.25142857142857145,0.3449084249084249
5.432145825005136,1.2579487179487179,0.25142857142857145,0.3449084249084249
5.435656772999209,2.262051282051282,0.37875457875457874,0.36344322344322344
5.4447671710004215,1.4658608058608058,0.2175824175824176,0.24014652014652016
5.4524623210018035,0.46659340659340653,0.0709157509157509,0.025787545787545788
5.457695475000946,0.0419047619047619,0.05882783882783882,0.03465201465201465
5.459258089002105,0.0419047619047619,0.05882783882783882,0.03465201465201465
5.46548498699849,0.0419047619047619,0.05882783882783882,0.03465201465201465
5.469723524998699,0.0419047619047619,0.05882783882783882,0.03465201465201465
5.470009978002054,1.228937728937729,0.24659340659340656,0.303003663003663
5.475286000000779,1.228937728937729,0.24659340659340656,0.303003663003663
5.478719128004741,1.228937728937729,0.24659340659340656,0.303003663003663
5.478996971003653,1.228937728937729,0.24659340659340656,0.303003663003663
5.489234255001065,1.228937728937729,0.24659340659340656,0.303003663003663
5.498137886999757,0.2772161172161172,0.13941391941391942,0.14424908424908423
5.504145486003836,0.2772161172161172,0.13941391941391942,0.14424908424908423
5.5099774160044035,0.2772161172161172,0.13941391941391942,0.14424908424908423
5.516163870001037,0.1676190476190476,0.0846153846153846,0.025787545787545788
5.520187497000734,0.1676190476190476,0.0846153846153846,0.025787545787545788
5.523589231001097,0.1676190476190476,0.0846153846153846,0.025787545787545788
5.523818122004741,0.1676190476190476,0.0846153846153846,0.025787545787545788
5.533992267999565,0.1676190476190476,0.0846153846153846,0.025787545787545788
5.542512963998888,0.1676190476190476,0.0846153846153846,0.025787545787545788
5.5494639620010275,0.1676190476190476,0.0846153846153846,0.025787545787545788
5.5542355659999885,2.481245421245421,0.39890109890109887,0.3932600732600733
5.562443136004731,2.481245421245421,0.39890109890109887,0.3932600732600733
5.56978793899907,2.481245421245421,0.39890109890109887,0.3932600732600733
5.576477836999402,2.481245421245421,0.39890109890109887,0.3932600732600733
5.58234082400304,2.481245421245421,0.39890109890109887,0.3932600732600733
5.588141192005423,2.481245421245421,0.39890109890109887,0.3932600732600733
5.5961790479996125,0.21597069597069596,0.09347985347985348,0.06608058608058608
5.6040898360006395,0.6535531135531135,0.12974358974358974,0.08058608058608058
5.610677914999542,0.5238095238095237,0.09347985347985348,0.04351648351648352
5.616609272001369,0.5238095238095237,0.09347985347985348,0.04351648351648352
5.623711207001179,0.5238095238095237,0.09347985347985348,0.04351648351648352
5.630669635000231,0.3529670329670329,0.05399267399267399,0.03062271062271062
5.6375708839987055,2.1057142857142854,0.3843956043956044,0.37150183150183147
5.643202967999969,2.1057142857142854,0.3843956043956044,0.37150183150183147
5.65318649999972,2.1057142857142854,0.3843956043956044,0.37150183150183147
5.6603698230028385,2.1057142857142854,0.3843956043956044,0.37150183150183147
5.668099319998873,2.1057142857142854,0.3843956043956044,0.37150183150183147
5.67250690000219,2.1057142857142854,0.3843956043956044,0.37150183150183147
5.672781375003979,1.041978021978022,0.909010989010989,0.8622710622710623
5.677900638002029,1.041978021978022,0.909010989010989,0.8622710622710623
5.685581657999137,1.6673260073260072,0.3231501831501831,0.3964835164835165
5.689482711000892,1.6673260073260072,0.3231501831501831,0.3964835164835165
5.693393212000956,1.6673260073260072,0.3231501831501831,0.3964835164835165
5.699195676999807,0.5979487179487178,0.2627106227106227,0.2506227106227106
5.69929668000259,0.5979487179487178,0.2627106227106227,0.2506227106227106
5.703881598004955,0.5979487179487178,0.2627106227106227,0.2506227106227106
5.704192008000973,0.052380952380952375,0.07575091575091575,0.06124542124542124
5.711051717000373,0.052380952380952375,0.07575091575091575,0.06124542124542124
5.716538009000942,0.052380952380952375,0.07575091575091575,0.06124542124542124
5.716763654003444,0.052380952380952375,0.07575091575091575,0.06124542124542124
5.724229200000991,0.7768498168498168,0.12087912087912088,0.08864468864468865
5.728008363999834,1.0959706959706959,0.5673260073260072,0.5487912087912087
5.734853201000078,1.0959706959706959,0.5673260073260072,0.5487912087912087
5.738001652003732,1.0959706959706959,0.5673260073260072,0.5487912087912087
5.7396711360051995,1.0959706959706959,0.5673260073260072,0.5487912087912087
5.743286169999919,1.0959706959706959,0.5673260073260072,0.5487912087912087
5.749674894999771,1.0959706959706959,0.5673260073260072,0.5487912087912087
5.752708314001211,2.1766300366300366,0.34087912087912087,0.34087912087912087
5.756393720002961,0.6245421245421244,0.5455677655677655,0.4778754578754579
5.761529798000993,0.6245421245421244,0.5455677655677655,0.4778754578754579
5.768147971000872,0.5487912087912087,0.10315018315018315,0.04673992673992674
5.772698835004121,0.5487912087912087,0.10315018315018315,0.04673992673992674
5.772949962003622,0.8517948717948718,0.7381684981684982,0.7736263736263735
5.77940723500069,0.8517948717948718,0.7381684981684982,0.7736263736263735
5.784405386999424,0.365054945054945,0.07816849816849816,0.11443223443223444
5.788159032999829,0.365054945054945,0.07816849816849816,0.11443223443223444
5.793304899001669,0.365054945054945,0.07816849816849816,0.11443223443223444
5.797554590004438,0.365054945054945,0.07816849816849816,0.11443223443223444
5.801347448003071,0.365054945054945,0.07816849816849816,0.11443223443223444
5.804426299000625,0.1523076923076923,0.27076923076923076,0.2804395604395604
5.80686491799861,0.1523076923076923,0.27076923076923076,0.2804395604395604
5.80699032600387,0.21355311355311357,0.08058608058608058,0.08703296703296703
5.812890714005334,0.21355311355311357,0.08058608058608058,0.08703296703296703
5.81299202000082,0.21355311355311357,0.08058608058608058,0.08703296703296703
5.819613072002539,1.502930402930403,0.30945054945054945,0.39406593406593404
5.823338047004654,1.4038095238095236,0.23047619047619047,0.21999999999999997
5.8234412899983,1.4038095238095236,0.23047619047619047,0.21999999999999997
5.828800592003972,1.4038095238095236,0.23047619047619047,0.21999999999999997
5.8323823000027915,1.4038095238095236,0.23047619047619047,0.21999999999999997
5.8370700220039,1.4038095238095236,0.23047619047619047,0.21999999999999997
5.842310477004503,1.4038095238095236,0.23047619047619047,0.21999999999999997
5.845749951004109,0.4456410256410256,0.05802197802197802,0.02901098901098901
5.845863864000421,0.4456410256410256,0.05802197802197802,0.02901098901098901
5.853328376004356,0.4456410256410256,0.05802197802197802,0.02901098901098901
5.85772555800213,0.4456410256410256,0.05802197802197802,0.02901098901098901
5.859202543004358,0.4456410256410256,0.05802197802197802,0.02901098901098901
5.864960967002844,0.4456410256410256,0.05802197802197802,0.02901098901098901
5.870623750000959,0.4456410256410256,0.05802197802197802,0.02901098901098901
5.871447165998688,2.3676190476190473,0.419047619047619,0.4351648351648352
5.87372968600539,2.3676190476190473,0.419047619047619,0.4351648351648352
5.873964677004551,2.3676190476190473,0.419047619047619,0.4351648351648352
5.879771414998686,2.3676190476190473,0.419047619047619,0.4351648351648352
5.888613151000754,2.3676190476190473,0.419047619047619,0.4351648351648352
5.895351102000859,1.6109157509157508,0.925128205128205,0.8654945054945055
5.902621551998891,1.6109157509157508,0.925128205128205,0.8654945054945055
5.90644067300309,1.6109157509157508,0.925128205128205,0.8654945054945055
5.911032463998708,0.06124542124542124,0.11443223443223444,0.10153846153846154
5.911257232000935,0.06124542124542124,0.11443223443223444,0.10153846153846154
5.918152161000762,0.06124542124542124,0.11443223443223444,0.10153846153846154
5.922607539003366,0.06124542124542124,0.11443223443223444,0.10153846153846154
5.922861839004327,0.06124542124542124,0.11443223443223444,0.10153846153846154
5.931822661004844,0.06124542124542124,0.11443223443223444,0.10153846153846154
5.937203294000938,0.06124542124542124,0.11443223443223444,0.10153846153846154
5.938133939002,1.2337728937728938,0.1249084249084249,0.18373626373626373
5.939645504004147,0.09428571428571428,0.07736263736263736,0.12329670329670328
5.944737782003358,0.09428571428571428,0.07736263736263736,0.12329670329670328
5.952460288004659,0.09428571428571428,0.07736263736263736,0.12329670329670328
5.956684953001968,2.0581684981684982,0.3473260073260073,0.4158241758241758
5.958161392998591,2.0581684981684982,0.3473260073260073,0.4158241758241758
5.965392101999896,2.0581684981684982,0.3473260073260073,0.4158241758241758
5.96963964200404,0.23531135531135527,0.17164835164835165,0.1523076923076923
5.969948896999995,0.24901098901098898,0.06688644688644689,0.037875457875457874
5.975544999004342,0.24901098901098898,0.06688644688644689,0.037875457875457874
5.977078566000273,0.24901098901098898,0.06688644688644689,0.037875457875457874
5.9838165770052,0.24901098901098898,0.06688644688644689,0.037875457875457874
5.987005512004544,0.7430036630036629,0.07575091575091575,0.020146520146520144
5.989889347998542,0.7430036630036629,0.07575091575091575,0.020146520146520144
5.992482371999358,0.7430036630036629,0.07575091575091575,0.020146520146520144
6.000236215004406,0.7430036630036629,0.07575091575091575,0.020146520146520144
6.004405867999594,0.7430036630036629,0.07575091575091575,0.020146520146520144
6.007731928999419,0.7430036630036629,0.07575091575091575,0.020146520146520144
6.0087486100019305,0.7430036630036629,0.07575091575091575,0.020146520146520144
6.008954440003436,0.7430036630036629,0.07575091575091575,0.020146520146520144
6.017108049003582,0.7430036630036629,0.07575091575091575,0.020146520146520144
6.02089843700378,0.7430036630036629,0.07575091575091575,0.020146520146520144
6.025400144004379,0.7430036630036629,0.07575091575091575,0.020146520146520144
6.02621181300492,0.21032967032967032,0.1112087912087912,0.06285714285714286
6.028489012001955,0.21032967032967032,0.1112087912087912,0.06285714285714286
6.028685034005321,0.2216117216117216,0.07736263736263736,0.08783882783882783
6.036688726999273,0.2216117216117216,0.07736263736263736,0.08783882783882783
6.041305081002065,1.5754578754578754,0.3642490842490842,0.40937728937728934
6.041508700000122,0.18776556776556774,0.06446886446886446,0.05963369963369963
6.049298793004709,0.18776556776556774,0.06446886446886446,0.05963369963369963
6.053386628002045,0.18776556776556774,0.06446886446886446,0.05963369963369963
6.055737978000252,0.18776556776556774,0.06446886446886446,0.05963369963369963
6.0559540829999605,1.6689377289377287,0.253040293040293,0.3352380952380952
6.06114236600115,1.6689377289377287,0.253040293040293,0.3352380952380952
6.06668288000219,0.49076923076923074,0.10717948717948718,0.12571428571428572
6.066977647002204,0.49076923076923074,0.10717948717948718,0.12571428571428572
6.072478529000364,0.49076923076923074,0.10717948717948718,0.12571428571428572
6.074037058002432,0.49076923076923074,0.10717948717948718,0.12571428571428572
6.078751831999398,0.49076923076923074,0.10717948717948718,0.12571428571428572
6.078980739999679,0.2506227106227106,0.07413919413919413,0.06849816849816849
6.085536395999952,0.2506227106227106,0.07413919413919413,0.06849816849816849
6.089323421998415,0.2506227106227106,0.07413919413919413,0.06849816849816849
6.094775366000249,0.21435897435897436,0.06446886446886446,0.033846153846153845
6.096069097999134,0.21435897435897436,0.06446886446886446,0.033846153846153845
6.103723195999919,0.21435897435897436,0.06446886446886446,0.033846153846153845
6.1082475850053015,0.21435897435897436,0.06446886446886446,0.033846153846153845
6.109731675998773,0.21435897435897436,0.06446886446886446,0.033846153846153845
6.117216575999919,0.21435897435897436,0.06446886446886446,0.033846153846153845
6.121381214004941,1.3788278388278388,0.2111355311355311,0.23853479853479853
6.123191393002344,1.3788278388278388,0.2111355311355311,0.23853479853479853
6.1264023990006535,1.3788278388278388,0.2111355311355311,0.23853479853479853
6.12819583700184,1.3788278388278388,0.2111355311355311,0.23853479853479853
6.133578218003095,1.3788278388278388,0.2111355311355311,0.23853479853479853
6.133955006000178,1.3788278388278388,0.2111355311355311,0.23853479853479853
6.141928841003391,1.3788278388278388,0.2111355311355311,0.23853479853479853
6.150372888005222,1.3788278388278388,0.2111355311355311,0.23853479853479853
6.154687981004827,1.3788278388278388,0.2111355311355311,0.23853479853479853
6.1555746020021616,1.3788278388278388,0.2111355311355311,0.23853479853479853
6.157215649000136,1.3788278388278388,0.2111355311355311,0.23853479853479853
6.160937801003456,1.3788278388278388,0.2111355311355311,0.23853479853479853
6.168689582998923,0.6003663003663003,0.051575091575091575,0.0821978021978022
6.172830839001108,0.6003663003663003,0.051575091575091575,0.0821978021978022
6.175149105998571,0.6003663003663003,0.051575091575091575,0.0821978021978022
6.175989585004572,0.6003663003663003,0.051575091575091575,0.0821978021978022
6.17750645900378,0.6003663003663003,0.051575091575091575,0.0821978021978022
6.184035487000074,0.6003663003663003,0.051575091575091575,0.0821978021978022
6.187798974999168,0.6003663003663003,0.051575091575091575,0.0821978021978022
6.193362272999366,2.2314285714285713,0.42388278388278383,0.42065934065934063
6.194338140005129,2.2314285714285713,0.42388278388278383,0.42065934065934063
6.195310424998752,2.2314285714285713,0.42388278388278383,0.42065934065934063
6.196356625005137,2.2314285714285713,0.42388278388278383,0.42065934065934063
6.1974814839995815,2.2314285714285713,0.42388278388278383,0.42065934065934063
6.197688897002081,2.2314285714285713,0.42388278388278383,0.42065934065934063
6.2030144310047035,2.2314285714285713,0.42388278388278383,0.42065934065934063
6.206130158003361,2.2314285714285713,0.42388278388278383,0.42065934065934063
6.207737973003532,0.25868131868131866,0.15069597069597068,0.10717948717948718
6.211622265000187,1.9945054945054943,0.3497435897435897,0.3997069597069597
6.2165897020022385,0.8920879120879119,0.253040293040293,0.2836630036630036
6.22202940400166,1.6238095238095236,0.39567765567765567,0.40615384615384614
6.223657287999231,1.6238095238095236,0.39567765567765567,0.40615384615384614
6.227423830001499,1.6238095238095236,0.39567765567765567,0.40615384615384614
6.234299624004052,1.6238095238095236,0.39567765567765567,0.40615384615384614
6.237656042001618,1.6238095238095236,0.39567765567765567,0.40615384615384614
6.238498446000449,1.6238095238095236,0.39567765567765567,0.40615384615384614
6.239655789999233,1.6238095238095236,0.39567765567765567,0.40615384615384614
6.2398621030006325,1.6238095238095236,0.39567765567765567,0.40615384615384614
6.244645924001816,1.6238095238095236,0.39567765567765567,0.40615384615384614
6.244964173005428,1.6238095238095236,0.39567765567765567,0.40615384615384614
6.251950071004103,1.6238095238095236,0.39567765567765567,0.40615384615384614
6.255882798002858,0.9057875457875458,0.32476190476190475,0.3038095238095238
6.259697255001811,0.9057875457875458,0.32476190476190475,0.3038095238095238
6.265424878998601,0.9057875457875458,0.32476190476190475,0.3038095238095238
6.26560605999839,0.9057875457875458,0.32476190476190475,0.3038095238095238
6.270112063000852,0.9057875457875458,0.32476190476190475,0.3038095238095238
6.270968711003661,0.9057875457875458,0.32476190476190475,0.3038095238095238
6.272453448000306,0.9057875457875458,0.32476190476190475,0.3038095238095238
6.276568813002086,1.0822710622710623,0.8477655677655677,0.8219780219780219
6.279356598999584,1.0822710622710623,0.8477655677655677,0.8219780219780219
6.283427708003728,1.0822710622710623,0.8477655677655677,0.8219780219780219
6.286212343999068,1.0822710622710623,0.8477655677655677,0.8219780219780219
6.290571274003014,1.0822710622710623,0.8477655677655677,0.8219780219780219
6.292026672002976,1.0822710622710623,0.8477655677655677,0.8219780219780219
6.296174415998394,1.0822710622710623,0.8477655677655677,0.8219780219780219
6.298568418002105,1.0822710622710623,0.8477655677655677,0.8219780219780219
6.29874858900439,1.0822710622710623,0.8477655677655677,0.8219780219780219
6.303454401000636,1.0822710622710623,0.8477655677655677,0.8219780219780219
6.303617566001776,1.0822710622710623,0.8477655677655677,0.8219780219780219
6.308464326000831,1.0822710622710623,0.8477655677655677,0.8219780219780219
6.313322478003101,1.6431501831501831,0.30139194139194136,0.311062271062271
6.313458727003308,0.8115018315018314,0.6873992673992674,0.5947252747252747
6.318175942004018,1.556117216117216,0.36666666666666664,0.40695970695970696
6.318373248002899,1.556117216117216,0.36666666666666664,0.40695970695970696
6.322979035998287,1.556117216117216,0.36666666666666664,0.40695970695970696
6.3237222130046575,1.556117216117216,0.36666666666666664,0.40695970695970696
6.325775466000778,1.556117216117216,0.36666666666666664,0.40695970695970696
6.327242516003025,1.556117216117216,0.36666666666666664,0.40695970695970696
6.327342428005068,1.556117216117216,0.36666666666666664,0.40695970695970696
6.331961796000542,1.556117216117216,0.36666666666666664,0.40695970695970696
6.332261114002904,1.556117216117216,0.36666666666666664,0.40695970695970696
6.336900185000559,1.556117216117216,0.36666666666666664,0.40695970695970696
6.337259086001723,1.556117216117216,0.36666666666666664,0.40695970695970696
6.34193510300247,1.556117216117216,0.36666666666666664,0.40695970695970696
6.342265535000479,1.556117216117216,0.36666666666666664,0.40695970695970696
6.3469410550023895,1.556117216117216,0.36666666666666664,0.40695970695970696
6.347261221999361,0.8920879120879119,0.17487179487179486,0.25465201465201465
6.351942212000722,0.8920879120879119,0.17487179487179486,0.25465201465201465
6.3522494030039525,0.8920879120879119,0.17487179487179486,0.25465201465201465
6.356881338004314,0.8920879120879119,0.17487179487179486,0.25465201465201465
6.35725316600292,0.8920879120879119,0.17487179487179486,0.25465201465201465
6.361936959998275,0.8920879120879119,0.17487179487179486,0.25465201465201465
6.362040370004252,0.8920879120879119,0.17487179487179486,0.25465201465201465
6.366836193999916,0.8920879120879119,0.17487179487179486,0.25465201465201465
6.366944314999273,0.8920879120879119,0.17487179487179486,0.25465201465201465
6.3715862310054945,0.8920879120879119,0.17487179487179486,0.25465201465201465
6.371791483004927,0.8920879120879119,0.17487179487179486,0.25465201465201465
6.376556448005431,0.8920879120879119,0.17487179487179486,0.25465201465201465
6.3813208830033545,1.1136996336996337,0.21194139194139192,0.07897435897435898
6.382056802001898,1.1136996336996337,0.21194139194139192,0.07897435897435898
6.384151013000519,1.2039560439560437,1.025054945054945,0.9783150183150182
6.385710854003264,1.2039560439560437,1.025054945054945,0.9783150183150182
6.389944246999221,1.2039560439560437,1.025054945054945,0.9783150183150182
6.391462705003505,0.6374358974358975,0.3932600732600733,0.23531135531135527
6.395604263001587,0.6374358974358975,0.3932600732600733,0.23531135531135527
6.398569638004119,0.9863736263736262,0.5761904761904761,1.464249084249084
6.400662199004728,0.9863736263736262,0.5761904761904761,1.464249084249084
6.402124113999889,0.9863736263736262,0.5761904761904761,1.464249084249084
6.4062970590021,0.9863736263736262,0.5761904761904761,1.464249084249084
6.409224563998578,0.9863736263736262,0.5761904761904761,1.464249084249084
6.412128435003979,0.9863736263736262,0.5761904761904761,1.464249084249084
6.415628506998473,0.9863736263736262,0.5761904761904761,1.464249084249084
6.415846518000762,0.9863736263736262,0.5761904761904761,1.464249084249084
6.420471094999812,0.9863736263736262,0.5761904761904761,1.464249084249084
6.421223689001636,0.9863736263736262,0.5761904761904761,1.464249084249084
6.422713446998387,0.9863736263736262,0.5761904761904761,1.464249084249084
6.427432175005379,0.9863736263736262,0.5761904761904761,1.464249084249084
6.427646412004833,0.9863736263736262,0.5761904761904761,1.464249084249084
6.432248435005022,0.9863736263736262,0.5761904761904761,1.464249084249084
6.4330066480033565,0.9863736263736262,0.5761904761904761,1.464249084249084
6.434581726003671,0.9863736263736262,0.5761904761904761,1.464249084249084
6.4400406339991605,1.8156043956043957,0.6172893772893773,0.42065934065934063
6.441741038004693,0.5600732600732601,0.11282051282051282,0.3449084249084249
6.444761932005349,0.5600732600732601,0.11282051282051282,0.3449084249084249
6.4470507920050295,0.26915750915750913,0.11604395604395604,0.20307692307692307
6.448078009998426,0.26915750915750913,0.11604395604395604,0.20307692307692307
6.44899831800285,0.26915750915750913,0.11604395604395604,0.20307692307692307
6.450512423005421,0.26915750915750913,0.11604395604395604,0.20307692307692307
6.454977435001638,0.26915750915750913,0.11604395604395604,0.20307692307692307
6.4552609940001275,0.26915750915750913,0.11604395604395604,0.20307692307692307
6.460302375999163,0.26915750915750913,0.11604395604395604,0.20307692307692307
