time,emg1,emg2,emg3
0.011883304003276862,1.1652747252747253,0.9017582417582416,0.776043956043956
0.027669031005643774,0.14505494505494507,0.08139194139194139,0.07252747252747253
0.051839469000697136,1.1580219780219778,0.9444688644688644,0.8606593406593407
0.07988373200350907,1.1580219780219778,0.9444688644688644,0.8606593406593407
0.08045962600590428,0.43113553113553116,0.6277655677655677,0.39003663003663
0.0909865570065449,0.43113553113553116,0.6277655677655677,0.39003663003663
0.10000042100000428,0.43113553113553116,0.6277655677655677,0.39003663003663
0.10854929000197444,1.2136263736263737,0.43999999999999995,0.3038095238095238
0.11532468600489665,1.2136263736263737,0.43999999999999995,0.3038095238095238
0.12009048700565472,1.2136263736263737,0.43999999999999995,0.3038095238095238
0.1252690600013011,1.2136263736263737,0.43999999999999995,0.3038095238095238
0.12743124100234127,1.6834432234432233,1.0935531135531134,0.9750915750915751
0.12773053200362483,0.0,0.2602930402930403,0.0838095238095238
0.13312070300162304,0.0,0.2602930402930403,0.0838095238095238
0.13499148900154978,0.0,0.2602930402930403,0.0838095238095238
0.13767285000358243,0.0,0.2602930402930403,0.0838095238095238
0.14216787400073372,0.0,0.2602930402930403,0.0838095238095238
0.14235055500466842,0.2498168498168498,0.1104029304029304,0.21597069597069596
0.14779521500167903,0.2498168498168498,0.1104029304029304,0.21597069597069596
0.150839382004051,0.2498168498168498,0.1104029304029304,0.21597069597069596
0.15244449900637846,0.0,0.13054945054945052,0.23531135531135527
0.15685654700064333,0.0,0.13054945054945052,0.23531135531135527
0.1577090440041502,1.0645421245421245,0.42388278388278383,0.8018315018315018
0.15929711500211852,1.0645421245421245,0.42388278388278383,0.8018315018315018
0.16378902600263245,1.0645421245421245,0.42388278388278383,0.8018315018315018
0.16406475100666285,0.49882783882783877,0.12329670329670328,0.07252747252747253
0.16927587600366678,0.49882783882783877,0.12329670329670328,0.07252747252747253
0.17235090800386388,1.5528937728937728,1.0234432234432234,0.971062271062271
0.17464490300335456,1.5528937728937728,1.0234432234432234,0.971062271062271
0.1748527500021737,1.0226373626373626,0.8268131868131867,0.6720879120879121
0.17943945700244512,1.2490842490842489,1.1088644688644689,0.9509157509157508
0.17972881800233154,1.2490842490842489,1.1088644688644689,0.9509157509157508
0.18453755100199487,1.2490842490842489,1.1088644688644689,0.9509157509157508
0.19054962900554528,1.2490842490842489,1.1088644688644689,0.9509157509157508
0.1964853690005839,1.2490842490842489,1.1088644688644689,0.9509157509157508
0.20030766000127187,0.39406593406593404,0.3384615384615384,0.21999999999999997
0.20489268800156424,0.39406593406593404,0.3384615384615384,0.21999999999999997
0.20583251400239533,0.39406593406593404,0.3384615384615384,0.21999999999999997
0.2073908790043788,0.39406593406593404,0.3384615384615384,0.21999999999999997
0.2112801150069572,0.39406593406593404,0.3384615384615384,0.21999999999999997
0.21601950000331271,0.39406593406593404,0.3384615384615384,0.21999999999999997
0.22144596400175942,1.0854945054945053,0.381978021978022,0.7937728937728937
0.2238092290062923,0.5923076923076923,0.14908424908424908,0.4432234432234432
0.2241274030020577,0.12571428571428572,0.29413919413919415,0.33282051282051284
0.22867216000304325,0.12571428571428572,0.29413919413919415,0.33282051282051284
0.22953994500130648,0.12571428571428572,0.29413919413919415,0.33282051282051284
0.23131974000716582,0.12571428571428572,0.29413919413919415,0.33282051282051284
0.23471483600587817,0.12571428571428572,0.29413919413919415,0.33282051282051284
0.23554949400568148,0.09186813186813186,0.2747985347985348,0.22725274725274724
0.2378986490002717,0.09186813186813186,0.2747985347985348,0.22725274725274724
0.2381650820025243,0.09186813186813186,0.2747985347985348,0.22725274725274724
0.24323552400164772,0.09186813186813186,0.2747985347985348,0.22725274725274724
0.2493122410014621,0.09186813186813186,0.2747985347985348,0.22725274725274724
0.2539504030064563,0.09186813186813186,0.2747985347985348,0.22725274725274724
0.261882520004292,1.5093772893772892,0.5028571428571429,0.4021245421245421
0.2693482560061966,1.5093772893772892,0.5028571428571429,0.4021245421245421
0.27501197500532726,1.5093772893772892,0.5028571428571429,0.4021245421245421
0.2824207790035871,0.5407326007326007,0.5141391941391941,0.3763369963369963
0.28690702900348697,0.5407326007326007,0.5141391941391941,0.3763369963369963
0.2872686960035935,0.5407326007326007,0.5141391941391941,0.3763369963369963
0.2919719730052748,0.5407326007326007,0.5141391941391941,0.3763369963369963
0.29220725100458367,1.4086446886446886,0.41340659340659336,0.3811721611721612
0.29935443500289693,1.4086446886446886,0.41340659340659336,0.3811721611721612
0.303826735005714,1.0564835164835162,0.2063003663003663,0.7276923076923076
0.307738726005482,1.0564835164835162,0.2063003663003663,0.7276923076923076
0.3102755040017655,1.0564835164835162,0.2063003663003663,0.7276923076923076
0.3172123480035225,1.0564835164835162,0.2063003663003663,0.7276923076923076
0.32123272100579925,0.0,0.23369963369963367,0.25384615384615383
0.3252589500043541,0.0,0.23369963369963367,0.25384615384615383
0.32820713500404963,0.0,0.17164835164835165,0.26915750915750913
0.33197558100073365,0.0,0.1249084249084249,0.23047619047619047
0.33691985600307817,0.0,0.1249084249084249,0.23047619047619047
0.34164804800093407,1.0226373626373626,0.8284249084249083,0.664029304029304
0.34175854100612924,1.0226373626373626,0.8284249084249083,0.664029304029304
0.34809525000309804,1.0226373626373626,0.8284249084249083,0.664029304029304
0.35142160300165415,1.0226373626373626,0.8284249084249083,0.664029304029304
0.3523416750031174,1.0234432234432234,0.38358974358974357,0.5826373626373627
0.35405676300433697,1.0234432234432234,0.38358974358974357,0.5826373626373627
0.3565189630025998,1.0234432234432234,0.38358974358974357,0.5826373626373627
0.35680081200553104,1.0234432234432234,0.38358974358974357,0.5826373626373627
0.36175103500136174,1.0234432234432234,0.38358974358974357,0.5826373626373627
0.36730141500447644,1.0234432234432234,0.38358974358974357,0.5826373626373627
0.3682647870009532,1.116923076923077,0.6801465201465201,0.7389743589743589
0.3686326060051215,1.116923076923077,0.6801465201465201,0.7389743589743589
0.37397003100340953,1.116923076923077,0.6801465201465201,0.7389743589743589
0.37750636000419036,0.033846153846153845,0.24659340659340656,0.25787545787545785
0.3855541830052971,0.033846153846153845,0.24659340659340656,0.25787545787545785
0.39021028900606325,0.0,0.2361172161172161,0.07978021978021978
0.3903678100032266,0.1829304029304029,0.1104029304029304,0.3167032967032967
0.3970765420017415,0.1829304029304029,0.1104029304029304,0.3167032967032967
0.4004559250024613,1.6189743589743588,0.5084981684981685,0.3852014652014652
0.40132976900349604,1.6189743589743588,0.5084981684981685,0.3852014652014652
0.40296435200434644,1.6189743589743588,0.5084981684981685,0.3852014652014652
0.40716555700055324,1.6189743589743588,0.5084981684981685,0.3852014652014652
0.40901872000540607,1.6189743589743588,0.5084981684981685,0.3852014652014652
0.41180441400501877,1.6189743589743588,0.5084981684981685,0.3852014652014652
0.42014542600372806,1.6189743589743588,0.5084981684981685,0.3852014652014652
0.4242190410004696,1.124981684981685,0.3183150183150183,0.7881318681318681
0.42847895200247876,1.124981684981685,0.3183150183150183,0.7881318681318681
0.43034676300158026,1.124981684981685,0.3183150183150183,0.7881318681318681
0.43288720800046576,1.124981684981685,0.3183150183150183,0.7881318681318681
0.4387726040004054,1.124981684981685,0.3183150183150183,0.7881318681318681
0.444992443000956,0.6277655677655677,0.1418315018315018,0.473040293040293
0.4488351660038461,0.30945054945054945,0.08703296703296703,0.14827838827838827
0.4531343900016509,0.0,0.2191941391941392,0.11362637362637362
0.4540802060000715,1.6367032967032966,0.5157509157509157,0.3698901098901099
0.4550294560031034,1.6367032967032966,0.5157509157509157,0.3698901098901099
0.45663037500344217,1.6367032967032966,0.5157509157509157,0.3698901098901099
0.4615653979999479,1.1580219780219778,0.4013186813186813,0.8437362637362636
0.4691356570037897,0.051575091575091575,0.083003663003663,0.16117216117216115
0.47425828400446335,0.0,0.2071062271062271,0.1643956043956044
0.47883832800289383,0.0,0.2071062271062271,0.1643956043956044
0.48963295700377785,0.0,0.2071062271062271,0.1643956043956044
0.5007639500036021,0.1829304029304029,0.07816849816849816,0.224029304029304
0.5108191610052017,0.1829304029304029,0.07816849816849816,0.224029304029304
0.5186255360022187,0.1829304029304029,0.07816849816849816,0.224029304029304
0.5260910890065134,0.1829304029304029,0.07816849816849816,0.224029304029304
0.5322868510047556,0.1829304029304029,0.07816849816849816,0.224029304029304
0.5355772230032017,0.1829304029304029,0.07816849816849816,0.224029304029304
0.5364654520017211,0.1829304029304029,0.07816849816849816,0.224029304029304
0.5381402570055798,0.1829304029304029,0.07816849816849816,0.224029304029304
0.5412776690063765,1.0661538461538462,0.24256410256410255,0.6422710622710622
0.5429556830058573,1.0661538461538462,0.24256410256410255,0.6422710622710622
0.5514865500008455,1.0661538461538462,0.24256410256410255,0.6422710622710622
0.5587888660011231,0.10315018315018315,0.32476190476190475,0.1789010989010989
0.5663532730031875,0.10315018315018315,0.32476190476190475,0.1789010989010989
0.5704963190000854,0.10315018315018315,0.32476190476190475,0.1789010989010989
0.5743834900058573,0.8663003663003663,0.3449084249084249,0.5423443223443223
0.5809790080020321,0.8663003663003663,0.3449084249084249,0.5423443223443223
0.5866186450002715,0.61003663003663,0.1249084249084249,0.3424908424908425
0.5923470150009962,0.0,0.09992673992673992,0.19985347985347984
0.5925483010069001,1.68021978021978,0.5052747252747253,0.5221978021978021
0.60141871500673,1.68021978021978,0.5052747252747253,0.5221978021978021
0.6080866610063822,1.68021978021978,0.5052747252747253,0.5221978021978021
0.6154193630063673,0.0,0.17567765567765567,0.18937728937728937
0.6187332200061064,1.7285714285714286,0.5044688644688645,0.5084981684981685
0.6190319870001986,1.7285714285714286,0.5044688644688645,0.5084981684981685
0.6239525940036401,1.7285714285714286,0.5044688644688645,0.5084981684981685
0.6292568700009724,1.232967032967033,0.8695238095238095,0.8896703296703296
0.632305372004339,1.232967032967033,0.8695238095238095,0.8896703296703296
0.633273678002297,1.232967032967033,0.8695238095238095,0.8896703296703296
0.6342532620037673,1.232967032967033,0.8695238095238095,0.8896703296703296
0.6353081030028989,1.232967032967033,0.8695238095238095,0.8896703296703296
0.6363461990040378,1.232967032967033,0.8695238095238095,0.8896703296703296
0.6366896500039729,1.232967032967033,0.8695238095238095,0.8896703296703296
0.6457949980031117,1.232967032967033,0.8695238095238095,0.8896703296703296
0.6546452300026431,1.232967032967033,0.8695238095238095,0.8896703296703296
0.6629406840002048,1.232967032967033,0.8695238095238095,0.8896703296703296
0.670571603004646,1.1265934065934065,0.8542124542124543,0.7655677655677655
0.6782683200071915,1.1265934065934065,0.8542124542124543,0.7655677655677655
0.6844951430030051,1.1265934065934065,0.8542124542124543,0.7655677655677655
0.6900353860037285,1.1265934065934065,0.8542124542124543,0.7655677655677655
0.7011649520063656,1.1265934065934065,0.8542124542124543,0.7655677655677655
0.7119053700007498,1.1265934065934065,0.8542124542124543,0.7655677655677655
0.7239249120029854,0.17326007326007326,0.08058608058608058,0.06205128205128205
0.7241795200025081,1.0484249084249082,0.805054945054945,0.6809523809523809
0.7340321020019474,1.0484249084249082,0.805054945054945,0.6809523809523809
0.7424422370022512,0.0,0.22564102564102564,0.0838095238095238
0.7508594310056651,1.0742124542124543,0.8493772893772893,0.6680586080586081
0.7578735670031165,1.7108424908424908,0.5205860805860806,0.5036630036630036
0.7644304310015286,1.6076923076923075,0.4931868131868131,0.3537728937728937
0.7697993050023797,0.12249084249084248,0.09589743589743589,0.1805128205128205
0.7700332680033171,0.12249084249084248,0.09589743589743589,0.1805128205128205
0.7773565790048451,0.12249084249084248,0.09589743589743589,0.1805128205128205
0.7839837540013832,0.12249084249084248,0.09589743589743589,0.1805128205128205
0.7892916240016348,0.5012454212454212,0.12329670329670328,0.29413919413919415
0.7906141290004598,1.6544322344322344,1.0137728937728938,1.0347252747252746
0.790736883005593,1.6544322344322344,1.0137728937728938,1.0347252747252746
0.8005255990065052,1.6544322344322344,1.0137728937728938,1.0347252747252746
0.8066208610034664,1.6544322344322344,1.0137728937728938,1.0347252747252746
0.8122321320042829,0.1402197802197802,0.09267399267399268,0.112014652014652
0.8124504780062125,0.1402197802197802,0.09267399267399268,0.112014652014652
0.818734721004148,0.1402197802197802,0.09267399267399268,0.112014652014652
0.8232339090027381,0.1402197802197802,0.09267399267399268,0.112014652014652
0.8247573850021581,0.1402197802197802,0.09267399267399268,0.112014652014652
0.8338390860008076,0.1402197802197802,0.09267399267399268,0.112014652014652
0.8378036090070964,0.1402197802197802,0.09267399267399268,0.112014652014652
0.8417405810032506,0.1402197802197802,0.09267399267399268,0.112014652014652
0.8498055150048458,0.1402197802197802,0.09267399267399268,0.112014652014652
0.8541549050059984,0.1402197802197802,0.09267399267399268,0.112014652014652
0.8557930890019634,0.1402197802197802,0.09267399267399268,0.112014652014652
0.8621952130051795,0.1402197802197802,0.09267399267399268,0.112014652014652
0.8665023520006798,0.0,0.06849816849816849,0.1643956043956044
0.8674561390071176,0.21435897435897436,0.10234432234432234,0.0419047619047619
0.8690667490009218,0.21435897435897436,0.10234432234432234,0.0419047619047619
0.8729594830001588,0.21435897435897436,0.10234432234432234,0.0419047619047619
0.8777647820024868,0.21435897435897436,0.10234432234432234,0.0419047619047619
0.8859358770059771,0.21435897435897436,0.10234432234432234,0.0419047619047619
0.8922945940066711,0.21435897435897436,0.10234432234432234,0.0419047619047619
0.8992743540002266,0.5971428571428571,0.28124542124542123,0.17567765567765567
0.903049735003151,0.20065934065934066,0.3698901098901099,0.26915750915750913
0.9085800480024773,0.20065934065934066,0.3698901098901099,0.26915750915750913
0.9109776360055548,0.20065934065934066,0.3698901098901099,0.26915750915750913
0.9177815840012045,0.20065934065934066,0.3698901098901099,0.26915750915750913
0.9216178630013019,0.20065934065934066,0.3698901098901099,0.26915750915750913
0.9261982340030954,0.20065934065934066,0.3698901098901099,0.26915750915750913
0.9263811870041536,0.20065934065934066,0.3698901098901099,0.26915750915750913
0.9339819880042342,0.20065934065934066,0.3698901098901099,0.26915750915750913
0.9385637140003382,0.20065934065934066,0.3698901098901099,0.26915750915750913
0.9394437450027908,0.20065934065934066,0.3698901098901099,0.26915750915750913
0.9413327260044753,0.20065934065934066,0.3698901098901099,0.26915750915750913
0.944712057003926,0.20065934065934066,0.3698901098901099,0.26915750915750913
0.944887824000034,0.20065934065934066,0.3698901098901099,0.26915750915750913
0.9508898350031814,0.20065934065934066,0.3698901098901099,0.26915750915750913
0.9547863550033071,0.20065934065934066,0.3698901098901099,0.26915750915750913
0.9595207370002754,0.3811721611721612,0.5842490842490843,0.4005128205128205
0.9597261810049531,0.3811721611721612,0.5842490842490843,0.4005128205128205
0.9663828140037367,0.3811721611721612,0.5842490842490843,0.4005128205128205
0.9703115730007994,0.3811721611721612,0.5842490842490843,0.4005128205128205
0.9742786600036197,0.3811721611721612,0.5842490842490843,0.4005128205128205
0.9805198080066475,0.3811721611721612,0.5842490842490843,0.4005128205128205
0.9837924410021515,0.8179487179487179,0.22644688644688646,0.801025641025641
0.9854509170036181,0.8179487179487179,0.22644688644688646,0.801025641025641
0.9893882960022893,1.573846153846154,1.0983882783882783,0.9758974358974358
0.9934013660022174,1.573846153846154,1.0983882783882783,0.9758974358974358
0.9976956650061766,1.5488644688644688,0.5181684981684981,0.5560439560439561
0.9986438020059722,1.5488644688644688,0.5181684981684981,0.5560439560439561
1.000278329003777,1.5488644688644688,0.5181684981684981,0.5560439560439561
1.0041228000045521,1.5488644688644688,0.5181684981684981,0.5560439560439561
1.0091299390041968,0.0,0.13296703296703297,0.24659340659340656
1.0177094040045631,0.0,0.13296703296703297,0.24659340659340656
1.0221291030029533,0.14263736263736262,0.32798534798534795,0.25384615384615383
1.0229733210071572,0.14263736263736262,0.32798534798534795,0.25384615384615383
1.0246109010040527,0.14263736263736262,0.32798534798534795,0.25384615384615383
1.0312892650035792,0.14263736263736262,0.32798534798534795,0.25384615384615383
1.035717436003324,0.0,0.09912087912087912,0.2627106227106227
1.0359126320036012,0.0,0.09912087912087912,0.2627106227106227
1.0435352370041073,0.0,0.09912087912087912,0.2627106227106227
1.0498606030014344,0.26996336996336995,0.09831501831501832,0.2111355311355311
1.0539668920027907,0.0,0.25384615384615383,0.0821978021978022
1.0563217910021194,0.0,0.25384615384615383,0.0821978021978022
1.0564532090065768,0.0,0.25384615384615383,0.0821978021978022
1.0649247160035884,0.0,0.25384615384615383,0.0821978021978022
1.070629434005241,0.0,0.25384615384615383,0.0821978021978022
1.070724760000303,0.0,0.25384615384615383,0.0821978021978022
1.0773064930035616,0.0,0.25384615384615383,0.0821978021978022
1.0814764670067234,0.0,0.25384615384615383,0.0821978021978022
1.083079001000442,0.0,0.25384615384615383,0.0821978021978022
1.0868995890050428,0.0,0.25384615384615383,0.0821978021978022
1.0908322620016406,0.0,0.25384615384615383,0.0821978021978022
1.0975305710016983,1.41992673992674,0.4738461538461538,0.6027838827838827
1.1016982890068903,1.41992673992674,0.4738461538461538,0.6027838827838827
1.1049036580006941,1.41992673992674,0.4738461538461538,0.6027838827838827
1.1059129210043466,1.41992673992674,0.4738461538461538,0.6027838827838827
1.1076411540052504,1.41992673992674,0.4738461538461538,0.6027838827838827
1.1113037820032332,1.41992673992674,0.4738461538461538,0.6027838827838827
1.1178890690061962,1.41992673992674,0.4738461538461538,0.6027838827838827
1.1217314420064213,0.4287179487179487,0.48754578754578753,0.3457142857142857
1.1279052490062895,0.4287179487179487,0.48754578754578753,0.3457142857142857
1.1318781770023634,0.4287179487179487,0.48754578754578753,0.3457142857142857
1.1343095700067352,0.4287179487179487,0.48754578754578753,0.3457142857142857
1.134507251001196,0.17567765567765567,0.4005128205128205,0.25706959706959703
1.1390374100010376,0.17567765567765567,0.4005128205128205,0.25706959706959703
1.1406436980032595,0.9275457875457875,0.19824175824175824,0.5713553113553113
1.1455913580066408,0.9275457875457875,0.19824175824175824,0.5713553113553113
1.1507688030033023,0.9275457875457875,0.19824175824175824,0.5713553113553113
1.1530537980070221,0.9275457875457875,0.19824175824175824,0.5713553113553113
1.1532777970060124,0.9275457875457875,0.19824175824175824,0.5713553113553113
1.158908171004441,0.9275457875457875,0.19824175824175824,0.5713553113553113
1.1591494830063311,0.8953113553113552,0.2216117216117216,0.7462271062271062
1.1637493580055889,0.8953113553113552,0.2216117216117216,0.7462271062271062
1.1645544990024064,0.8953113553113552,0.2216117216117216,0.7462271062271062
1.1667295750012272,0.8953113553113552,0.2216117216117216,0.7462271062271062
1.1675658130043303,0.8953113553113552,0.2216117216117216,0.7462271062271062
1.169628242001636,0.8953113553113552,0.2216117216117216,0.7462271062271062
1.171138604004227,0.8953113553113552,0.2216117216117216,0.7462271062271062
1.1760162440041313,1.464249084249084,0.448058608058608,0.361025641025641
1.1808110820056754,0.03223443223443223,0.25223443223443226,0.23208791208791207
1.1810158870066516,0.03223443223443223,0.25223443223443226,0.23208791208791207
1.1858001320069889,0.03223443223443223,0.25223443223443226,0.23208791208791207
1.1860640200029593,0.03223443223443223,0.25223443223443226,0.23208791208791207
1.1909769200065057,0.03223443223443223,0.25223443223443226,0.23208791208791207
1.1962347200023942,0.03223443223443223,0.25223443223443226,0.23208791208791207
1.1988472690063645,1.2926007326007325,1.046007326007326,0.909010989010989
1.2056295210059034,1.2926007326007325,1.046007326007326,0.909010989010989
1.210408233004273,1.2926007326007325,1.046007326007326,0.909010989010989
1.2177283710043412,0.967032967032967,0.3594139194139194,0.5681318681318681
1.2223785610040068,0.967032967032967,0.3594139194139194,0.5681318681318681
1.2225437080051051,0.967032967032967,0.3594139194139194,0.5681318681318681
1.2302950090015656,0.967032967032967,0.3594139194139194,0.5681318681318681
1.2352184550036327,0.967032967032967,0.3594139194139194,0.5681318681318681
1.238466459006304,0.967032967032967,0.3594139194139194,0.5681318681318681
1.240051790002326,0.967032967032967,0.3594139194139194,0.5681318681318681
1.2441570380033227,0.967032967032967,0.3594139194139194,0.5681318681318681
1.24653876600496,0.01934065934065934,0.12329670329670328,0.1958241758241758
1.2467154820042197,0.01934065934065934,0.12329670329670328,0.1958241758241758
1.2529667150010937,0.01934065934065934,0.12329670329670328,0.1958241758241758
1.2573446570022497,0.01934065934065934,0.12329670329670328,0.1958241758241758
1.2587784310017014,0.01934065934065934,0.12329670329670328,0.1958241758241758
1.2667450420049136,0.01934065934065934,0.12329670329670328,0.1958241758241758
1.2743822320044274,0.0,0.2345054945054945,0.2377289377289377
1.2817598400069983,0.0,0.2345054945054945,0.2377289377289377
1.2875966400024481,1.2152380952380952,0.9944322344322343,0.9517216117216116
1.296257288006018,1.2152380952380952,0.9944322344322343,0.9517216117216116
1.3017844930000138,1.2152380952380952,0.9944322344322343,0.9517216117216116
1.3020918940019328,1.2152380952380952,0.9944322344322343,0.9517216117216116
1.3104541860011523,1.2152380952380952,0.9944322344322343,0.9517216117216116
1.3177942440015613,0.4851282051282051,0.4456410256410256,0.5076923076923077
1.3249394330050563,0.4851282051282051,0.4456410256410256,0.5076923076923077
1.3329618840070907,0.4851282051282051,0.4456410256410256,0.5076923076923077
1.3401882620019023,1.5528937728937728,0.5383150183150183,0.4786813186813187
1.3462469260048238,0.846153846153846,0.6616117216117217,0.6495238095238095
1.3521650480033713,0.846153846153846,0.6616117216117217,0.6495238095238095
1.3583370520063909,0.0,0.09347985347985348,0.23128205128205126
1.363234641001327,0.0,0.09347985347985348,0.23128205128205126
1.3680285930022364,0.0,0.09347985347985348,0.23128205128205126
1.3741385490066023,1.6431501831501831,0.9968498168498168,0.967032967032967
1.3790401710066362,1.5875457875457875,0.4553113553113553,0.5479853479853479
1.3839591660071164,1.5875457875457875,0.4553113553113553,0.5479853479853479
1.3900065750058275,0.5157509157509157,0.0838095238095238,0.11684981684981684
1.396111270005349,1.4416849816849817,1.1024175824175824,1.0186080586080586
1.4010701500010327,1.4416849816849817,1.1024175824175824,1.0186080586080586
1.4059566490032012,1.4416849816849817,1.1024175824175824,1.0186080586080586
1.4108941330050584,1.5496703296703296,0.9912087912087911,0.938021978021978
1.4157469540004968,1.5496703296703296,0.9912087912087911,0.938021978021978
1.4220047170019825,1.5496703296703296,0.9912087912087911,0.938021978021978
1.427058303001104,1.5496703296703296,0.9912087912087911,0.938021978021978
1.4320297340018442,1.5496703296703296,0.9912087912087911,0.938021978021978
1.4357685550057795,1.5496703296703296,0.9912087912087911,0.938021978021978
1.4406959830012056,1.5496703296703296,0.9912087912087911,0.938021978021978
1.4467466240021167,1.5496703296703296,0.9912087912087911,0.938021978021978
1.4498928940010956,1.5496703296703296,0.9912087912087911,0.938021978021978
1.4522690060039167,1.5496703296703296,0.9912087912087911,0.938021978021978
1.4594045350022498,1.5496703296703296,0.9912087912087911,0.938021978021978
1.4643718380029895,1.5496703296703296,0.9912087912087911,0.938021978021978
1.4684405240041087,1.5496703296703296,0.9912087912087911,0.938021978021978
1.4700732920027804,1.5496703296703296,0.9912087912087911,0.938021978021978
1.4739256940010819,1.5496703296703296,0.9912087912087911,0.938021978021978
1.478352893005649,1.3264468864468864,0.4182417582417582,0.28124542124542123
1.4799002670042682,1.3264468864468864,0.4182417582417582,0.28124542124542123
1.4845533870029612,1.3264468864468864,0.4182417582417582,0.28124542124542123
1.4847763100042357,1.3264468864468864,0.4182417582417582,0.28124542124542123
1.4897555200004717,1.3264468864468864,0.4182417582417582,0.28124542124542123
1.49377200500021,1.3264468864468864,0.4182417582417582,0.28124542124542123
1.4965961650013924,1.3264468864468864,0.4182417582417582,0.28124542124542123
1.5000419830030296,1.3264468864468864,0.4182417582417582,0.28124542124542123
1.5002429690066492,1.3264468864468864,0.4182417582417582,0.28124542124542123
1.5050538680006866,1.3264468864468864,0.4182417582417582,0.28124542124542123
1.5052674670005217,1.3264468864468864,0.4182417582417582,0.28124542124542123
1.5103393880053773,1.3264468864468864,0.4182417582417582,0.28124542124542123
1.514264853001805,1.3264468864468864,0.4182417582417582,0.28124542124542123
1.517463749005401,0.6003663003663003,0.3295970695970696,0.21355311355311357
1.5198062960043899,0.6003663003663003,0.3295970695970696,0.21355311355311357
1.5199961020043702,0.6003663003663003,0.3295970695970696,0.21355311355311357
1.5255568270004005,0.6003663003663003,0.3295970695970696,0.21355311355311357
1.5272963550014538,0.6003663003663003,0.3295970695970696,0.21355311355311357
1.5304709680058295,0.6003663003663003,0.3295970695970696,0.21355311355311357
1.5327859210010502,0.6003663003663003,0.3295970695970696,0.21355311355311357
1.5330140680016484,0.6003663003663003,0.3295970695970696,0.21355311355311357
1.539401607005857,0.6003663003663003,0.3295970695970696,0.21355311355311357
1.5444299790033256,0.6003663003663003,0.3295970695970696,0.21355311355311357
1.5498259280066122,0.6003663003663003,0.3295970695970696,0.21355311355311357
1.550703416003671,0.0,0.10153846153846154,0.2756043956043956
1.552265629004978,0.0,0.10153846153846154,0.2756043956043956
1.556026918005955,0.0,0.10153846153846154,0.2756043956043956
1.5606547730058082,0.0,0.10153846153846154,0.2756043956043956
1.5609147480063257,0.0,0.10153846153846154,0.2756043956043956
1.5665738780007814,0.0,0.10153846153846154,0.2756043956043956
1.5668170420030947,0.0,0.10153846153846154,0.2756043956043956
1.5729379300028086,0.0,0.10153846153846154,0.2756043956043956
1.580531729006907,0.0,0.10153846153846154,0.2756043956043956
1.5847198830015259,0.0,0.10153846153846154,0.2756043956043956
1.5865798360027838,1.120952380952381,0.6575824175824176,0.8743589743589744
1.589266820003104,1.120952380952381,0.6575824175824176,0.8743589743589744
1.5943546670023352,1.120952380952381,0.6575824175824176,0.8743589743589744
1.5975219730025856,1.120952380952381,0.6575824175824176,0.8743589743589744
1.5991552700070315,1.120952380952381,0.6575824175824176,0.8743589743589744
1.602262876003806,1.0065201465201465,0.21999999999999997,0.6736996336996337
1.6053569680007058,1.0065201465201465,0.21999999999999997,0.6736996336996337
1.608490475002327,1.0065201465201465,0.21999999999999997,0.6736996336996337
1.610095160001947,1.0065201465201465,0.21999999999999997,0.6736996336996337
1.6138605250016553,1.0065201465201465,0.21999999999999997,0.6736996336996337
1.619184031005716,1.0065201465201465,0.21999999999999997,0.6736996336996337
1.6216018970008008,1.0065201465201465,0.21999999999999997,0.6736996336996337
1.6218208430000232,0.4279120879120879,0.10476190476190475,0.365054945054945
1.6271872700017411,0.4279120879120879,0.10476190476190475,0.365054945054945
1.6294707380002365,0.4279120879120879,0.10476190476190475,0.365054945054945
1.6297219670013874,0.0,0.16278388278388278,0.23128205128205126
1.6351990370021667,0.012087912087912087,0.10798534798534798,0.27318681318681315
1.6384883210048429,0.20146520146520144,0.2868864468864469,0.21677655677655677
1.638781594003376,0.9823443223443222,0.21838827838827837,0.5874725274725274
1.6476730020003743,0.9823443223443222,0.21838827838827837,0.5874725274725274
1.6555086210064474,0.19904761904761903,0.0846153846153846,0.20307692307692307
1.662696670005971,0.19904761904761903,0.0846153846153846,0.20307692307692307
1.6680222890063305,0.9904029304029303,0.1958241758241758,0.5342857142857143
1.6695202690025326,0.9904029304029303,0.1958241758241758,0.5342857142857143
1.677495235002425,0.9904029304029303,0.1958241758241758,0.5342857142857143
1.6845984240062535,0.9904029304029303,0.1958241758241758,0.5342857142857143
1.6901740800021798,0.9904029304029303,0.1958241758241758,0.5342857142857143
1.6999035000044387,0.9904029304029303,0.1958241758241758,0.5342857142857143
1.7091470780069358,1.1016117216117214,0.4351648351648352,0.8832234432234431
1.7169694090043777,1.1016117216117214,0.4351648351648352,0.8832234432234431
1.7241074400008074,1.1016117216117214,0.4351648351648352,0.8832234432234431
1.7290643870001077,0.4085714285714286,0.08703296703296703,0.14989010989010987
1.7346383150070324,0.4085714285714286,0.08703296703296703,0.14989010989010987
1.7349035410006763,0.17487179487179486,0.3586080586080586,0.27238095238095233
1.7428319890022976,0.17487179487179486,0.3586080586080586,0.27238095238095233
1.7485561070061522,0.17487179487179486,0.3586080586080586,0.27238095238095233
1.7579504029999953,0.17487179487179486,0.3586080586080586,0.27238095238095233
1.7669253330022912,0.9952380952380951,0.21597069597069596,0.6833699633699634
1.7755090800055768,0.6237362637362637,0.13457875457875457,0.37875457875457874
1.7808432380043087,0.6237362637362637,0.13457875457875457,0.37875457875457874
1.78326807400299,0.6237362637362637,0.13457875457875457,0.37875457875457874
1.7834627500051283,0.6237362637362637,0.13457875457875457,0.37875457875457874
1.7890037200049846,0.6237362637362637,0.13457875457875457,0.37875457875457874
1.7915361440027482,0.6237362637362637,0.13457875457875457,0.37875457875457874
1.7996617300013895,0.6237362637362637,0.13457875457875457,0.37875457875457874
1.8069801320016268,0.6237362637362637,0.13457875457875457,0.37875457875457874
1.8122743160056416,0.0,0.12974358974358974,0.2208058608058608
1.8146833690043422,0.8147252747252747,0.32556776556776557,0.5971428571428571
1.8234690340032103,0.8147252747252747,0.32556776556776557,0.5971428571428571
1.8302869120016112,1.1201465201465202,0.27399267399267396,0.7494505494505495
1.834938249005063,0.0,0.112014652014652,0.26673992673992675
1.8421575120009948,0.0,0.112014652014652,0.26673992673992675
1.8464608150025015,0.0,0.112014652014652,0.26673992673992675
1.8475506490067346,0.0,0.112014652014652,0.26673992673992675
1.8478031740014558,0.0,0.112014652014652,0.26673992673992675
1.8572090870002285,0.0,0.13941391941391942,0.24578754578754577
1.8664574100039317,0.0,0.13941391941391942,0.24578754578754577
1.8738307950043236,1.012161172161172,0.18695970695970696,0.6277655677655677
1.87919965400215,0.5955311355311355,0.3755311355311355,0.30864468864468864
1.8795868330053054,0.9517216117216116,0.19985347985347984,0.6382417582417582
1.888227519004431,0.9517216117216116,0.19985347985347984,0.6382417582417582
1.8941982950054808,0.9517216117216116,0.19985347985347984,0.6382417582417582
1.9050547220031149,1.6334798534798534,0.5246153846153846,0.5560439560439561
1.91494926600717,1.6334798534798534,0.5246153846153846,0.5560439560439561
1.92267857400293,1.6334798534798534,0.5246153846153846,0.5560439560439561
1.9290911140051321,1.6334798534798534,0.5246153846153846,0.5560439560439561
1.9336756610064185,1.6334798534798534,0.5246153846153846,0.5560439560439561
1.933793667005375,1.6334798534798534,0.5246153846153846,0.5560439560439561
1.94293356500566,1.6334798534798534,0.5246153846153846,0.5560439560439561
1.9507182320012362,1.087106227106227,0.2602930402930403,0.7365567765567765
1.9576894100027857,0.0,0.13619047619047617,0.253040293040293
1.962299549006275,0.0,0.13619047619047617,0.253040293040293
1.9703363600056036,0.0,0.13619047619047617,0.253040293040293
1.9773681240039878,0.0,0.13619047619047617,0.253040293040293
1.982715072001156,0.0,0.13619047619047617,0.253040293040293
1.9829725210001925,0.0,0.13619047619047617,0.253040293040293
1.9906673030054662,0.1523076923076923,0.09106227106227105,0.09509157509157509
1.9975580880054622,0.1523076923076923,0.09106227106227105,0.09509157509157509
2.0032520160020795,0.1523076923076923,0.09106227106227105,0.09509157509157509
2.0111674110012245,0.1523076923076923,0.09106227106227105,0.09509157509157509
2.0162075070038554,0.0,0.15311355311355312,0.24498168498168496
2.0194374110069475,1.2966300366300365,1.0887179487179486,0.929157509157509
2.021062673004053,1.0194139194139193,0.24578754578754577,0.6946520146520146
2.024116448003042,1.0194139194139193,0.24578754578754577,0.6946520146520146
2.0270898190065054,0.3336263736263736,0.09106227106227105,0.1571428571428571
2.0302157440019073,0.3336263736263736,0.09106227106227105,0.1571428571428571
2.0318125360063277,0.3336263736263736,0.09106227106227105,0.1571428571428571
2.0357402000008733,0.3336263736263736,0.09106227106227105,0.1571428571428571
2.04031985700567,0.3336263736263736,0.09106227106227105,0.1571428571428571
2.0406405170069775,0.3336263736263736,0.09106227106227105,0.1571428571428571
2.0459489850036334,0.3336263736263736,0.09106227106227105,0.1571428571428571
2.0484720000022207,1.4755311355311356,1.1467399267399265,1.0508424908424907
2.0485914390010294,1.4755311355311356,1.1467399267399265,1.0508424908424907
2.053092394002306,1.4755311355311356,1.1467399267399265,1.0508424908424907
2.0540521170041757,1.4755311355311356,1.1467399267399265,1.0508424908424907
2.054967314004898,1.4755311355311356,1.1467399267399265,1.0508424908424907
2.0565220980060985,1.4755311355311356,1.1467399267399265,1.0508424908424907
2.0609534390023327,1.0766300366300365,0.35135531135531134,0.8364835164835164
2.0625252470053965,1.0766300366300365,0.35135531135531134,0.8364835164835164
2.0671044059999986,1.0766300366300365,0.35135531135531134,0.8364835164835164
2.0673227440056507,0.24901098901098898,0.09831501831501832,0.024175824175824173
2.0755311870016158,0.0,0.16117216117216115,0.22886446886446887
2.0812907540021115,0.5987545787545787,0.3658608058608058,0.20388278388278389
2.088761227001669,0.5987545787545787,0.3658608058608058,0.20388278388278389
2.096571528003551,0.017728937728937726,0.09186813186813186,0.27802197802197803
2.1025700440004584,0.017728937728937726,0.09186813186813186,0.27802197802197803
2.1095213790031266,0.5520146520146519,0.08058608058608058,0.09267399267399268
2.1152126160013722,0.03304029304029304,0.2482051282051282,0.3102564102564102
2.1221494630008237,0.03304029304029304,0.2482051282051282,0.3102564102564102
2.127784962001897,0.5568498168498168,0.0975091575091575,0.10315018315018315
2.1279278510046424,0.0,0.2562637362637363,0.0821978021978022
2.1347865240022657,0.0,0.2562637362637363,0.0821978021978022
2.1387289820049773,0.0,0.2562637362637363,0.0821978021978022
2.142387325002346,0.0,0.2562637362637363,0.0821978021978022
2.1478161830018507,0.0,0.2562637362637363,0.0821978021978022
2.149501987005351,0.0,0.2562637362637363,0.0821978021978022
2.152564876007091,0.0,0.2562637362637363,0.0821978021978022
2.1550656280014664,0.6567765567765567,0.29333333333333333,0.166007326007326
2.160382281006605,1.2176556776556777,1.0371428571428571,0.9815384615384615
2.162793176001287,1.2176556776556777,1.0371428571428571,0.9815384615384615
2.1629083630032255,1.2176556776556777,1.0371428571428571,0.9815384615384615
2.167562598006043,1.2176556776556777,1.0371428571428571,0.9815384615384615
2.167779307004821,1.2176556776556777,1.0371428571428571,0.9815384615384615
2.1726488120038994,1.2176556776556777,1.0371428571428571,0.9815384615384615
2.178319835002185,0.0024175824175824176,0.07978021978021978,0.2747985347985348
2.1784975770060555,0.0024175824175824176,0.07978021978021978,0.2747985347985348
2.1837465810021968,0.0024175824175824176,0.07978021978021978,0.2747985347985348
2.1860876710052253,0.0024175824175824176,0.07978021978021978,0.2747985347985348
2.186283845003345,0.0024175824175824176,0.07978021978021978,0.2747985347985348
2.191519550004159,0.0024175824175824176,0.07978021978021978,0.2747985347985348
2.1952225020068,0.5632967032967032,0.23369963369963367,0.4593406593406593
2.2005178700055694,0.12974358974358974,0.26996336996336995,0.21355311355311357
2.2037244250022923,0.12974358974358974,0.26996336996336995,0.21355311355311357
2.205460266006412,0.12974358974358974,0.26996336996336995,0.21355311355311357
2.2092934500033152,1.195091575091575,0.7075457875457875,0.8389010989010988
2.214170377003029,0.0,0.12168498168498168,0.2715750915750916
2.218969975001528,0.0,0.12168498168498168,0.2715750915750916
2.2236958060020697,1.1338461538461537,0.29736263736263735,0.7615384615384615
2.2237845720010228,0.19018315018315018,0.10395604395604395,0.051575091575091575
2.2292278650056687,0.19018315018315018,0.10395604395604395,0.051575091575091575
2.2309180830052355,0.19018315018315018,0.10395604395604395,0.051575091575091575
2.2347154680028325,0.19018315018315018,0.10395604395604395,0.051575091575091575
2.239960182007053,0.19018315018315018,0.10395604395604395,0.051575091575091575
2.2430953510047402,0.19018315018315018,0.10395604395604395,0.051575091575091575
2.243970931005606,0.19018315018315018,0.10395604395604395,0.051575091575091575
2.245551019004779,0.19018315018315018,0.10395604395604395,0.051575091575091575
2.2499455270008184,0.19018315018315018,0.10395604395604395,0.051575091575091575
2.2516204730054596,0.19018315018315018,0.10395604395604395,0.051575091575091575
2.2553261190041667,0.19018315018315018,0.10395604395604395,0.051575091575091575
2.2608034490040154,0.19018315018315018,0.10395604395604395,0.051575091575091575
2.262387951006531,0.19018315018315018,0.10395604395604395,0.051575091575091575
2.266868148006324,0.5149450549450549,0.09670329670329669,0.03223443223443223
2.267187861005368,0.5149450549450549,0.09670329670329669,0.03223443223443223
2.2724907970041386,0.5149450549450549,0.09670329670329669,0.03223443223443223
2.2750195090047782,0.5149450549450549,0.09670329670329669,0.03223443223443223
2.2802819270000327,0.5149450549450549,0.09670329670329669,0.03223443223443223
2.283314912005153,0.5149450549450549,0.09670329670329669,0.03223443223443223
2.2863238010031637,0.5149450549450549,0.09670329670329669,0.03223443223443223
2.2886602410071646,1.4086446886446886,1.1008058608058606,0.9863736263736262
2.2889531900000293,0.0,0.1643956043956044,0.224029304029304
2.293979815003695,0.0,0.1643956043956044,0.224029304029304
2.297519932006253,0.0,0.1643956043956044,0.224029304029304
2.298647151001205,0.0,0.1643956043956044,0.224029304029304
2.298808915002155,0.0,0.1643956043956044,0.224029304029304
2.307131906003633,0.0,0.1643956043956044,0.224029304029304
2.3136383760065655,0.0,0.1643956043956044,0.224029304029304
2.3195031520008342,0.0,0.1643956043956044,0.224029304029304
2.326235528002144,0.0,0.1643956043956044,0.224029304029304
2.3317914930012194,0.0,0.1643956043956044,0.224029304029304
2.3319412540004123,0.0,0.10798534798534798,0.2683516483516483
2.337250625001616,0.0,0.10798534798534798,0.2683516483516483
2.3397783580003306,0.0,0.10798534798534798,0.2683516483516483
2.3453106050001225,0.0,0.10798534798534798,0.2683516483516483
2.3463702050066786,0.0,0.10798534798534798,0.2683516483516483
2.3472935740064713,0.0,0.10798534798534798,0.2683516483516483
2.348236221005209,0.0,0.10798534798534798,0.2683516483516483
2.3490835600023274,0.0,0.10798534798534798,0.2683516483516483
2.3506795350040193,0.0,0.10798534798534798,0.2683516483516483
2.354570464005519,0.0,0.10798534798534798,0.2683516483516483
2.359084370000346,0.0,0.10798534798534798,0.2683516483516483
2.3592659330024617,0.0,0.10798534798534798,0.2683516483516483
2.364587266005401,0.0,0.10798534798534798,0.2683516483516483
2.366885147006542,0.0,0.10798534798534798,0.2683516483516483
2.3672117030000663,1.4674725274725273,1.112893772893773,1.0274725274725274
2.3718063260021154,1.4674725274725273,1.112893772893773,1.0274725274725274
2.3726616560015827,1.4674725274725273,1.112893772893773,1.0274725274725274
2.3743932620054693,1.4674725274725273,1.112893772893773,1.0274725274725274
2.377532489001169,1.4674725274725273,1.112893772893773,1.0274725274725274
2.3791855800009216,1.4674725274725273,1.112893772893773,1.0274725274725274
2.3830288230019505,1.4674725274725273,1.112893772893773,1.0274725274725274
2.3876889670063974,1.4674725274725273,1.112893772893773,1.0274725274725274
2.3879012710021925,1.4674725274725273,1.112893772893773,1.0274725274725274
2.3924951830049395,1.4674725274725273,1.112893772893773,1.0274725274725274
2.392777549001039,0.0,0.08783882783882783,0.2756043956043956
2.398120256002585,0.0,0.08783882783882783,0.2756043956043956
2.4003623349999543,0.0,0.08783882783882783,0.2756043956043956
2.401173454003583,0.0,0.08783882783882783,0.2756043956043956
2.4027058460051194,0.0,0.08783882783882783,0.2756043956043956
2.4064767000018037,0.0,0.08783882783882783,0.2756043956043956
2.4135024020069977,0.0,0.08783882783882783,0.2756043956043956
2.4189674260051106,0.0,0.11765567765567764,0.2594871794871795
2.419114204007201,0.0,0.11765567765567764,0.2594871794871795
2.4274200110012316,0.0,0.11765567765567764,0.2594871794871795
2.434022121000453,0.2232234432234432,0.08542124542124542,0.02336996336996337
2.43714204900607,0.2232234432234432,0.08542124542124542,0.02336996336996337
2.439446027005033,0.5842490842490843,0.5737728937728938,0.43032967032967034
2.439733621002233,0.5842490842490843,0.5737728937728938,0.43032967032967034
2.445018484002503,0.5842490842490843,0.5737728937728938,0.43032967032967034
2.4480408650051686,0.5842490842490843,0.5737728937728938,0.43032967032967034
2.4510239900046145,0.5842490842490843,0.5737728937728938,0.43032967032967034
2.4540803910058457,0.5842490842490843,0.5737728937728938,0.43032967032967034
2.457124503001978,0.5842490842490843,0.5737728937728938,0.43032967032967034
2.4587676870069117,0.5842490842490843,0.5737728937728938,0.43032967032967034
2.462536816005013,0.5842490842490843,0.5737728937728938,0.43032967032967034
2.4671482700068736,1.1362637362637362,0.18937728937728937,0.6898168498168498
2.467360375005228,1.1362637362637362,0.18937728937728937,0.6898168498168498
2.472902609006269,1.1362637362637362,0.18937728937728937,0.6898168498168498
2.473753829006455,1.1362637362637362,0.18937728937728937,0.6898168498168498
2.475356898001337,0.6019780219780219,0.3811721611721612,0.21194139194139192
2.479610791000596,0.9976556776556775,0.8856410256410255,0.6535531135531135
2.4817467700049747,1.1419047619047618,0.4037362637362637,0.8364835164835164
2.482537672003673,1.1419047619047618,0.4037362637362637,0.8364835164835164
2.4846924750017934,1.1419047619047618,0.4037362637362637,0.8364835164835164
2.4854895170064992,1.1419047619047618,0.4037362637362637,0.8364835164835164
2.4877099730001646,1.656043956043956,1.0564835164835162,0.9573626373626374
2.4880014670052333,1.656043956043956,1.0564835164835162,0.9573626373626374
2.492231783005991,1.656043956043956,1.0564835164835162,0.9573626373626374
2.4945005150002544,1.656043956043956,1.0564835164835162,0.9573626373626374
2.495268192004005,0.5213919413919413,0.27318681318681315,0.1523076923076923
2.4973819110018667,0.6728937728937728,0.5995604395604395,0.47706959706959706
2.498857331003819,0.6728937728937728,0.5995604395604395,0.47706959706959706
2.5035541730030673,0.6728937728937728,0.5995604395604395,0.47706959706959706
2.5038342000043485,0.2063003663003663,0.0846153846153846,0.25545787545787546
2.508800408002571,0.2063003663003663,0.0846153846153846,0.25545787545787546
2.5137228060048074,0.2063003663003663,0.0846153846153846,0.25545787545787546
2.5138222800014773,0.2063003663003663,0.0846153846153846,0.25545787545787546
2.518710693002504,0.2063003663003663,0.0846153846153846,0.25545787545787546
2.5235823650000384,1.0435897435897434,0.24417582417582417,0.6648351648351648
2.5237973750045057,1.0435897435897434,0.24417582417582417,0.6648351648351648
2.5279907470030594,1.0435897435897434,0.24417582417582417,0.6648351648351648
2.5308421310037374,1.0435897435897434,0.24417582417582417,0.6648351648351648
2.534388949999993,1.0435897435897434,0.24417582417582417,0.6648351648351648
2.5345644840053865,1.7640293040293038,0.5246153846153846,0.5052747252747253
2.539349985003355,1.7640293040293038,0.5246153846153846,0.5052747252747253
2.5394652310060337,1.7640293040293038,0.5246153846153846,0.5052747252747253
2.5442921470021247,1.7640293040293038,0.5246153846153846,0.5052747252747253
2.5492450530000497,1.7640293040293038,0.5246153846153846,0.5052747252747253
2.554302460004692,1.7640293040293038,0.5246153846153846,0.5052747252747253
2.5585322700062534,1.7640293040293038,0.5246153846153846,0.5052747252747253
2.561445243001799,1.7640293040293038,0.5246153846153846,0.5052747252747253
2.5652742700040108,1.7640293040293038,0.5246153846153846,0.5052747252747253
2.569560043004458,1.7640293040293038,0.5246153846153846,0.5052747252747253
2.5723668450009427,1.7640293040293038,0.5246153846153846,0.5052747252747253
2.575932820000162,1.4868131868131869,0.43597069597069593,0.3416849816849817
2.5761104990015156,0.5560439560439561,0.5632967032967032,0.4254945054945055
2.5810981030008406,0.5560439560439561,0.5632967032967032,0.4254945054945055
2.585325834006653,0.7663736263736264,0.12974358974358974,0.4496703296703296
2.588219036006194,0.7663736263736264,0.12974358974358974,0.4496703296703296
2.5916865570034133,0.7663736263736264,0.12974358974358974,0.4496703296703296
2.5925563880009577,0.7663736263736264,0.12974358974358974,0.4496703296703296
2.5946521570003824,0.7663736263736264,0.12974358974358974,0.4496703296703296
2.594941140006995,0.7663736263736264,0.12974358974358974,0.4496703296703296
2.600164161005523,0.7663736263736264,0.12974358974358974,0.4496703296703296
2.604103161000239,0.7663736263736264,0.12974358974358974,0.4496703296703296
2.6082344599999487,0.7663736263736264,0.12974358974358974,0.4496703296703296
2.610773476000759,0.0,0.2095238095238095,0.14424908424908423
2.6163579050044063,0.0,0.2095238095238095,0.14424908424908423
2.6171782630044618,0.0,0.2095238095238095,0.14424908424908423
2.618753013004607,0.0,0.2095238095238095,0.14424908424908423
2.6225003140061744,0.0,0.2095238095238095,0.14424908424908423
2.6269609720038716,0.0,0.2095238095238095,0.14424908424908423
2.6278123510055593,0.3723076923076923,0.3892307692307692,0.5076923076923077
2.6293812400035677,0.3723076923076923,0.3892307692307692,0.5076923076923077
2.633841814000334,0.3723076923076923,0.3892307692307692,0.5076923076923077
2.6346827230008785,0.0,0.08139194139194139,0.27076923076923076
2.636305761006952,0.0,0.08139194139194139,0.27076923076923076
2.640084406004462,0.0,0.08139194139194139,0.27076923076923076
2.6443190760037396,0.0,0.08139194139194139,0.27076923076923076
2.6464591410040157,0.0,0.08139194139194139,0.27076923076923076
2.647951807004574,0.0,0.08139194139194139,0.27076923076923076
2.652077711005404,0.0,0.08139194139194139,0.27076923076923076
2.6542801760006114,0.0,0.08139194139194139,0.27076923076923076
2.65517331600131,0.0,0.08139194139194139,0.27076923076923076
2.657294577002176,0.0,0.08139194139194139,0.27076923076923076
2.657613957002468,0.0,0.08139194139194139,0.27076923076923076
2.662759103004646,0.0,0.08139194139194139,0.27076923076923076
2.6656416969999555,0.9275457875457875,0.19018315018315018,0.6261538461538461
2.669307726006082,0.9275457875457875,0.19018315018315018,0.6261538461538461
2.669514106004499,0.9275457875457875,0.19018315018315018,0.6261538461538461
2.674235228005273,0.9275457875457875,0.19018315018315018,0.6261538461538461
2.674463885006844,0.9275457875457875,0.19018315018315018,0.6261538461538461
2.6792496620037127,0.9275457875457875,0.19018315018315018,0.6261538461538461
2.679378231005103,0.9275457875457875,0.19018315018315018,0.6261538461538461
2.684169237007154,0.9275457875457875,0.19018315018315018,0.6261538461538461
2.684468484003446,0.9275457875457875,0.19018315018315018,0.6261538461538461
2.6892837770064943,0.9275457875457875,0.19018315018315018,0.6261538461538461
2.694782763006515,0.9275457875457875,0.19018315018315018,0.6261538461538461
2.696893397005624,0.9275457875457875,0.19018315018315018,0.6261538461538461
2.69772959400143,0.9275457875457875,0.19018315018315018,0.6261538461538461
2.6998285020017647,0.9275457875457875,0.19018315018315018,0.6261538461538461
2.701311009004712,0.6342124542124542,0.11846153846153845,0.506080586080586
2.7055043800064595,0.6342124542124542,0.11846153846153845,0.506080586080586
2.709244199002569,0.6342124542124542,0.11846153846153845,0.506080586080586
2.713519848002761,0.6342124542124542,0.11846153846153845,0.506080586080586
2.7169601140049053,0.6342124542124542,0.11846153846153845,0.506080586080586
2.717429190000985,0.6342124542124542,0.11846153846153845,0.506080586080586
2.721573809001711,0.6342124542124542,0.11846153846153845,0.506080586080586
2.7245625180003117,0.6342124542124542,0.11846153846153845,0.506080586080586
2.727568518006592,0.6342124542124542,0.11846153846153845,0.506080586080586
2.730558323004516,0.6342124542124542,0.11846153846153845,0.506080586080586
2.733550289005507,0.6342124542124542,0.11846153846153845,0.506080586080586
2.736548902001232,0.6342124542124542,0.11846153846153845,0.506080586080586
2.738873776004766,0.6342124542124542,0.11846153846153845,0.506080586080586
2.7391242350058747,0.6342124542124542,0.11846153846153845,0.506080586080586
2.744328156004485,0.6342124542124542,0.11846153846153845,0.506080586080586
2.7473594040056923,0.6342124542124542,0.11846153846153845,0.506080586080586
2.74967219800601,0.9065934065934066,0.5568498168498168,0.49721611721611714
2.749921336006082,0.0,0.10556776556776555,0.2925274725274725
2.755089582002256,0.0,0.10556776556776555,0.2925274725274725
2.7588504670056864,0.6148717948717949,0.28608058608058606,0.14505494505494507
2.76431357000547,1.191062271062271,0.195018315018315,0.6463003663003662
2.7659686600018176,1.191062271062271,0.195018315018315,0.6463003663003662
2.7702567870001076,1.191062271062271,0.195018315018315,0.6463003663003662
2.771901225001784,1.191062271062271,0.195018315018315,0.6463003663003662
2.7756880430024466,1.191062271062271,0.195018315018315,0.6463003663003662
2.7809559110028204,1.191062271062271,0.195018315018315,0.6463003663003662
2.783226633000595,1.191062271062271,0.195018315018315,0.6463003663003662
2.783520622004289,1.191062271062271,0.195018315018315,0.6463003663003662
2.7886999060065136,1.191062271062271,0.195018315018315,0.6463003663003662
2.7924093770052423,1.191062271062271,0.195018315018315,0.6463003663003662
2.7976226300015696,1.191062271062271,0.195018315018315,0.6463003663003662
2.800579488000949,1.191062271062271,0.195018315018315,0.6463003663003662
2.8035595590044977,1.191062271062271,0.195018315018315,0.6463003663003662
2.806576696006232,1.191062271062271,0.195018315018315,0.6463003663003662
2.809730272005254,1.191062271062271,0.195018315018315,0.6463003663003662
2.811376776000543,1.191062271062271,0.195018315018315,0.6463003663003662
2.8165463790064678,1.191062271062271,0.195018315018315,0.6463003663003662
2.820295043005899,1.5126007326007325,0.415018315018315,0.3731135531135531
2.8234031770043657,1.1064468864468864,0.39890109890109887,0.792967032967033
2.8258213020017138,1.1064468864468864,0.39890109890109887,0.792967032967033
2.825923630000034,1.1064468864468864,0.39890109890109887,0.792967032967033
2.831543568005145,1.1064468864468864,0.39890109890109887,0.792967032967033
2.832367865004926,1.1064468864468864,0.39890109890109887,0.792967032967033
2.8346631300009903,1.1064468864468864,0.39890109890109887,0.792967032967033
2.8349247950027348,1.1064468864468864,0.39890109890109887,0.792967032967033
2.8401396270055557,1.1064468864468864,0.39890109890109887,0.792967032967033
2.843161080003483,1.1419047619047618,0.2651282051282051,0.7413919413919414
2.846173979000014,1.1419047619047618,0.2651282051282051,0.7413919413919414
2.8485229760044604,0.14586080586080585,0.08542124542124542,0.09992673992673992
2.8493310040066717,0.0,0.18373626373626373,0.195018315018315
2.850947148006526,0.0,0.18373626373626373,0.195018315018315
2.8546866190008586,0.0,0.18373626373626373,0.195018315018315
2.8601671810029075,0.0,0.18373626373626373,0.195018315018315
2.861058304006292,0.0,0.18373626373626373,0.195018315018315
2.862650785005826,0.0,0.18373626373626373,0.195018315018315
2.866591428006359,0.0,0.18373626373626373,0.195018315018315
2.872101023000141,0.0,0.18857142857142856,0.16117216117216115
2.8722757890063804,1.6826373626373625,0.46659340659340653,0.5544322344322344
2.8776529410024523,0.95010989010989,0.33926739926739924,0.2087179487179487
2.8806352380051976,1.1805860805860806,0.43435897435897436,0.8211721611721612
2.8837823490030132,1.1805860805860806,0.43435897435897436,0.8211721611721612
2.884865788000752,0.15794871794871795,0.09670329670329669,0.2361172161172161
2.885182347999944,0.15794871794871795,0.09670329670329669,0.2361172161172161
2.8913816870044684,1.598021978021978,1.1048351648351646,1.1088644688644689
2.898813930005417,1.598021978021978,1.1048351648351646,1.1088644688644689
2.902615136001259,0.78007326007326,0.30622710622710625,0.1926007326007326
2.910167250003724,0.78007326007326,0.30622710622710625,0.1926007326007326
2.91543258800084,0.78007326007326,0.30622710622710625,0.1926007326007326
2.9169145330015454,0.78007326007326,0.30622710622710625,0.1926007326007326
2.924288863003312,0.78007326007326,0.30622710622710625,0.1926007326007326
2.9295380520052277,0.78007326007326,0.30622710622710625,0.1926007326007326
2.9316238600004,1.4852014652014651,1.1515750915750915,1.083076923076923
2.932590563003032,1.4852014652014651,1.1515750915750915,1.083076923076923
2.9334897310036467,1.4852014652014651,1.1515750915750915,1.083076923076923
2.9350919330026954,0.5713553113553113,0.29413919413919415,0.15633699633699633
2.938941470005375,0.044322344322344324,0.3457142857142857,0.2683516483516483
2.945902802006458,1.1942857142857142,0.44080586080586076,0.8534065934065934
2.9514739780061063,1.1942857142857142,0.44080586080586076,0.8534065934065934
2.956708123005228,1.1942857142857142,0.44080586080586076,0.8534065934065934
2.9606108870066237,1.1942857142857142,0.44080586080586076,0.8534065934065934
2.9663323470012983,1.0492307692307692,0.17487179487179486,0.6358241758241758
2.9697255960054463,1.0492307692307692,0.17487179487179486,0.6358241758241758
2.9700105610027094,0.0,0.1676190476190476,0.22805860805860806
2.9765109100044356,0.0,0.1676190476190476,0.22805860805860806
2.9814136500062887,0.0,0.1676190476190476,0.22805860805860806
2.9849975960023585,0.6463003663003662,0.13054945054945052,0.4827106227106227
2.9851403430002392,0.6463003663003662,0.13054945054945052,0.4827106227106227
2.99033706800401,0.6463003663003662,0.13054945054945052,0.4827106227106227
2.997431540999969,1.39010989010989,1.0693772893772893,0.8864468864468864
3.002350317001401,1.39010989010989,1.0693772893772893,0.8864468864468864
3.005531596005312,1.39010989010989,1.0693772893772893,0.8864468864468864
3.007167310002842,1.39010989010989,1.0693772893772893,0.8864468864468864
3.0120365190014127,1.39010989010989,1.0693772893772893,0.8864468864468864
3.017754025000613,1.39010989010989,1.0693772893772893,0.8864468864468864
3.024074983004539,1.39010989010989,1.0693772893772893,0.8864468864468864
3.0284370140070678,0.6583882783882784,0.12329670329670328,0.33604395604395604
3.0297107880032854,0.6583882783882784,0.12329670329670328,0.33604395604395604
3.0351227290011593,0.006446886446886447,0.12087912087912088,0.2909157509157509
3.0367288290071883,1.5770695970695972,0.4851282051282051,0.356996336996337
3.0413437810057076,1.5770695970695972,0.4851282051282051,0.356996336996337
3.0416210260009393,1.5770695970695972,0.4851282051282051,0.356996336996337
3.05224448700028,1.5770695970695972,0.4851282051282051,0.356996336996337
3.0593637640049565,1.5770695970695972,0.4851282051282051,0.356996336996337
3.0652087080015917,1.1725274725274726,0.415018315018315,0.9009523809523808
3.0684694130031858,0.419047619047619,0.4085714285714286,0.42468864468864465
3.0700835830066353,0.419047619047619,0.4085714285714286,0.42468864468864465
3.075109102006536,0.419047619047619,0.4085714285714286,0.42468864468864465
3.081963797005301,0.419047619047619,0.4085714285714286,0.42468864468864465
3.086944926006254,1.157216117216117,0.40534798534798533,0.8316483516483516
3.0902340920001734,0.4657875457875458,0.09912087912087912,0.022564102564102562
3.0916884260004736,0.4657875457875458,0.09912087912087912,0.022564102564102562
3.1006873520018416,0.4657875457875458,0.09912087912087912,0.022564102564102562
3.109816287003923,1.6076923076923075,0.5455677655677655,0.4045421245421245
3.117835842000204,0.46175824175824176,0.5624908424908425,0.39809523809523806
3.1251240960045834,0.46175824175824176,0.5624908424908425,0.39809523809523806
3.131649090006249,0.46175824175824176,0.5624908424908425,0.39809523809523806
3.1355802540056175,0.46175824175824176,0.5624908424908425,0.39809523809523806
3.1393912010025815,1.6552380952380952,0.5455677655677655,0.36666666666666664
3.1448245580031653,0.618095238095238,0.1418315018315018,0.4553113553113553
3.1469269760054885,0.618095238095238,0.1418315018315018,0.4553113553113553
3.147815806005383,0.618095238095238,0.1418315018315018,0.4553113553113553
3.149425104005786,0.0,0.1942124542124542,0.2095238095238095
3.154006261000177,0.0,0.1942124542124542,0.2095238095238095
3.154244010002003,0.0,0.1942124542124542,0.2095238095238095
3.1589805930052535,0.1789010989010989,0.2715750915750916,0.21032967032967032
3.159174543005065,0.1789010989010989,0.2715750915750916,0.21032967032967032
3.16567165300512,0.1789010989010989,0.2715750915750916,0.21032967032967032
3.1694336670043413,0.1789010989010989,0.2715750915750916,0.21032967032967032
3.1748452760002692,0.1789010989010989,0.2715750915750916,0.21032967032967032
3.177992141005234,0.1789010989010989,0.2715750915750916,0.21032967032967032
3.1809620230051223,0.1789010989010989,0.2715750915750916,0.21032967032967032
3.1828641680040164,0.1789010989010989,0.2715750915750916,0.21032967032967032
3.18517678900389,0.1789010989010989,0.2715750915750916,0.21032967032967032
3.185465581002063,0.1789010989010989,0.2715750915750916,0.21032967032967032
3.193931772002543,0.1789010989010989,0.2715750915750916,0.21032967032967032
3.2006356560013955,0.1789010989010989,0.2715750915750916,0.21032967032967032
3.204445843002759,0.1789010989010989,0.2715750915750916,0.21032967032967032
3.2099858520014095,0.1789010989010989,0.2715750915750916,0.21032967032967032
3.211792623005749,0.1789010989010989,0.2715750915750916,0.21032967032967032
3.21583475600346,0.1789010989010989,0.2715750915750916,0.21032967032967032
3.2198760970059084,0.1789010989010989,0.2715750915750916,0.21032967032967032
3.2230051870064926,0.8687179487179487,0.1515018315018315,0.5358974358974359
3.2242949760038755,0.3884249084249084,0.0838095238095238,0.008058608058608058
3.224417119003192,0.3884249084249084,0.0838095238095238,0.008058608058608058
3.2358783170056995,0.3884249084249084,0.0838095238095238,0.008058608058608058
3.244547453999985,0.3884249084249084,0.0838095238095238,0.008058608058608058
3.2500941650068853,1.1072527472527471,0.195018315018315,0.6301831501831501
3.250262953006313,0.0,0.13377289377289378,0.2651282051282051
3.2601663670066046,0.0,0.13377289377289378,0.2651282051282051
3.266820164004457,0.0,0.13377289377289378,0.2651282051282051
3.272267215004831,0.0,0.13377289377289378,0.2651282051282051
3.2730835630063666,0.0,0.13377289377289378,0.2651282051282051
3.2746978280047188,0.0,0.13377289377289378,0.2651282051282051
3.2801441720002913,0.0,0.13377289377289378,0.2651282051282051
3.280277305006166,0.0,0.13377289377289378,0.2651282051282051
3.285908757003199,0.0,0.13377289377289378,0.2651282051282051
3.28616342600435,0.0,0.13377289377289378,0.2651282051282051
3.291576805000659,0.0,0.13377289377289378,0.2651282051282051
3.293324685000698,0.0,0.13377289377289378,0.2651282051282051
3.2962955290058744,0.0,0.13377289377289378,0.2651282051282051
3.2988422640046338,0.0,0.13377289377289378,0.2651282051282051
3.3041444000045885,0.0,0.13377289377289378,0.2651282051282051
3.306740294006886,0.3078388278388278,0.09267399267399268,0.32717948717948714
3.3156954150035745,0.3078388278388278,0.09267399267399268,0.32717948717948714
3.3203037880011834,0.3078388278388278,0.09267399267399268,0.32717948717948714
3.3205297100066673,0.3078388278388278,0.09267399267399268,0.32717948717948714
3.327736035003909,0.3078388278388278,0.09267399267399268,0.32717948717948714
3.3321901460003573,0.3602197802197802,0.10315018315018315,0.025787545787545788
3.3324600500054657,0.3602197802197802,0.10315018315018315,0.025787545787545788
3.337784385003033,0.3602197802197802,0.10315018315018315,0.025787545787545788
3.3408769810048398,0.3602197802197802,0.10315018315018315,0.025787545787545788
3.343553676000738,0.3602197802197802,0.10315018315018315,0.025787545787545788
3.34840820300451,0.08058608058608058,0.07816849816849816,0.2361172161172161
3.3523383880019537,0.0,0.17648351648351646,0.23369963369963367
3.356234505001339,0.0,0.17648351648351646,0.23369963369963367
3.3614658980004606,0.0,0.17648351648351646,0.23369963369963367
3.3651208770024823,0.9968498168498168,0.2087179487179487,0.6422710622710622
3.370243201003177,0.29816849816849816,0.08622710622710622,0.02095238095238095
3.373606807006581,0.025787545787545788,0.09428571428571428,0.2804395604395604
3.374758048004878,1.3683516483516485,0.4287179487179487,0.6027838827838827
3.375010170006135,1.3683516483516485,0.4287179487179487,0.6027838827838827
3.380378940004448,1.3683516483516485,0.4287179487179487,0.6027838827838827
3.382717432003119,1.3683516483516485,0.4287179487179487,0.6027838827838827
3.388030065005296,1.3683516483516485,0.4287179487179487,0.6027838827838827
3.391042091003328,1.3683516483516485,0.4287179487179487,0.6027838827838827
3.393735238001682,1.3683516483516485,0.4287179487179487,0.6027838827838827
3.3993069530042703,1.3683516483516485,0.4287179487179487,0.6027838827838827
3.3996925960018416,1.3683516483516485,0.4287179487179487,0.6027838827838827
3.40519554700586,1.3683516483516485,0.4287179487179487,0.6027838827838827
3.40552404900518,1.3683516483516485,0.4287179487179487,0.6027838827838827
3.4139286650024587,1.3683516483516485,0.4287179487179487,0.6027838827838827
3.4210173770043184,1.3683516483516485,0.4287179487179487,0.6027838827838827
3.4269080470039626,1.0298901098901099,0.2063003663003663,0.6438827838827839
3.432523064002453,1.0298901098901099,0.2063003663003663,0.6438827838827839
3.437928882005508,0.0,0.224029304029304,0.2796336996336996
3.438721616003022,0.0,0.224029304029304,0.2796336996336996
3.4409976660026587,0.0,0.224029304029304,0.2796336996336996
3.4412598890048685,0.0,0.224029304029304,0.2796336996336996
3.448256638002931,0.25223443223443226,0.09025641025641025,0.26754578754578756
3.4520057780027855,0.25223443223443226,0.09025641025641025,0.26754578754578756
3.4577281620004214,0.0,0.13296703296703297,0.27802197802197803
3.4579620430013165,0.21999999999999997,0.27318681318681315,0.20388278388278389
3.46785749400442,0.21999999999999997,0.27318681318681315,0.20388278388278389
3.473561046004761,0.21999999999999997,0.27318681318681315,0.20388278388278389
3.4737946550012566,0.21999999999999997,0.27318681318681315,0.20388278388278389
3.4813295359999756,0.6616117216117217,0.3344322344322344,0.19985347985347984
3.4853054080012953,0.6616117216117217,0.3344322344322344,0.19985347985347984
3.48860163900099,0.6616117216117217,0.3344322344322344,0.19985347985347984
3.4902468970030895,0.6616117216117217,0.3344322344322344,0.19985347985347984
3.4964576180063887,0.6616117216117217,0.3344322344322344,0.19985347985347984
3.4997134160003043,0.6616117216117217,0.3344322344322344,0.19985347985347984
3.5006487840000773,0.6616117216117217,0.3344322344322344,0.19985347985347984
3.5015937500065775,0.6616117216117217,0.3344322344322344,0.19985347985347984
3.503209964001144,0.6616117216117217,0.3344322344322344,0.19985347985347984
3.506927139002073,0.6616117216117217,0.3344322344322344,0.19985347985347984
3.507136170002923,1.6834432234432233,1.0766300366300365,0.9758974358974358
3.5136497460043756,1.6834432234432233,1.0766300366300365,0.9758974358974358
3.5191799150052248,1.6834432234432233,1.0766300366300365,0.9758974358974358
3.5193780810004682,1.6834432234432233,1.0766300366300365,0.9758974358974358
3.5248094860071433,1.6834432234432233,1.0766300366300365,0.9758974358974358
3.5266281600052025,1.6834432234432233,1.0766300366300365,0.9758974358974358
3.5292751120068715,1.6012454212454212,1.0476190476190474,0.946080586080586
3.5344745720067294,1.6012454212454212,1.0476190476190474,0.946080586080586
3.5361151240067557,1.6012454212454212,1.0476190476190474,0.946080586080586
3.5391942270071013,1.6012454212454212,1.0476190476190474,0.946080586080586
3.541673906001961,1.6012454212454212,1.0476190476190474,0.946080586080586
3.54181365200202,1.6012454212454212,1.0476190476190474,0.946080586080586
3.548940616004984,1.6012454212454212,1.0476190476190474,0.946080586080586
3.5525139140008832,1.6012454212454212,1.0476190476190474,0.946080586080586
3.5527393400043366,1.6012454212454212,1.0476190476190474,0.946080586080586
3.5573593150038505,1.6012454212454212,1.0476190476190474,0.946080586080586
3.557580910004617,0.2506227106227106,0.3876190476190476,0.28608058608058606
3.5669895650062244,0.2506227106227106,0.3876190476190476,0.28608058608058606
3.5731965110026067,0.2506227106227106,0.3876190476190476,0.28608058608058606
3.5801762610062724,0.2506227106227106,0.3876190476190476,0.28608058608058606
3.5864225220066146,0.917069597069597,0.21194139194139192,0.6463003663003662
3.5895304840014433,0.917069597069597,0.21194139194139192,0.6463003663003662
3.5920592800030136,0.917069597069597,0.21194139194139192,0.6463003663003662
3.5997353350030608,0.917069597069597,0.21194139194139192,0.6463003663003662
3.6052163770000334,0.917069597069597,0.21194139194139192,0.6463003663003662
3.6075463260058314,0.2369230769230769,0.09025641025641025,0.024175824175824173
3.6077937330046552,0.2369230769230769,0.09025641025641025,0.024175824175824173
3.616228052000224,0.2369230769230769,0.09025641025641025,0.024175824175824173
3.620848554004624,0.0,0.12249084249084248,0.2868864468864469
3.6217015300062485,0.0,0.12249084249084248,0.2868864468864469
3.62330762000056,0.0,0.12249084249084248,0.2868864468864469
3.628444322006544,0.0,0.12249084249084248,0.2868864468864469
3.6316345910017844,0.0,0.12249084249084248,0.2868864468864469
3.6324792290033656,0.0,0.12249084249084248,0.2868864468864469
3.6343244810050237,0.0,0.12249084249084248,0.2868864468864469
3.63947589500458,0.0,0.12249084249084248,0.2868864468864469
3.6427072930018767,0.0,0.12249084249084248,0.2868864468864469
3.6430199820024427,0.0,0.12249084249084248,0.2868864468864469
3.64939681100077,0.0,0.12249084249084248,0.2868864468864469
3.65322355900571,0.0,0.12249084249084248,0.2868864468864469
3.6577540680009406,0.0,0.12249084249084248,0.2868864468864469
3.6587006180052413,1.278901098901099,1.004102564102564,0.9436630036630036
3.6611984100018162,1.278901098901099,1.004102564102564,0.9436630036630036
3.665981535006722,1.278901098901099,1.004102564102564,0.9436630036630036
3.6713312060019234,1.278901098901099,1.004102564102564,0.9436630036630036
3.674143226002343,0.0,0.18454212454212454,0.19824175824175824
3.6792070750016137,1.2305494505494505,0.4351648351648352,0.2989743589743589
3.6815521820026333,1.2305494505494505,0.4351648351648352,0.2989743589743589
3.6817941320041427,0.3199267399267399,0.08139194139194139,0.3167032967032967
3.6869616850017337,0.3199267399267399,0.08139194139194139,0.3167032967032967
3.690728718000173,0.3199267399267399,0.08139194139194139,0.3167032967032967
3.6971234650045517,0.0,0.09267399267399268,0.28285714285714286
3.7009814220000408,0.8783882783882784,0.6608058608058608,0.6197069597069597
3.7058602840043022,0.31186813186813184,0.10073260073260072,0.4625641025641025
3.712260772001173,0.31186813186813184,0.10073260073260072,0.4625641025641025
3.717248612003459,0.31186813186813184,0.10073260073260072,0.4625641025641025
3.7224415560049238,0.31186813186813184,0.10073260073260072,0.4625641025641025
3.7250488019999466,0.4738461538461538,0.11765567765567764,0.29816849816849816
3.732212229006109,0.7228571428571429,0.5399267399267399,0.6205128205128204
3.7372819720039843,0.7228571428571429,0.5399267399267399,0.6205128205128204
3.740407221004716,0.7228571428571429,0.5399267399267399,0.6205128205128204
3.7447430890024407,0.7228571428571429,0.5399267399267399,0.6205128205128204
3.745118992002972,0.7228571428571429,0.5399267399267399,0.6205128205128204
3.7497147240064805,0.5842490842490843,0.46175824175824176,0.5802197802197803
3.7498957280040486,0.5842490842490843,0.46175824175824176,0.5802197802197803
3.7551923190039815,0.5842490842490843,0.46175824175824176,0.5802197802197803
3.7583191660014563,0.5842490842490843,0.46175824175824176,0.5802197802197803
3.7620609380028327,0.5842490842490843,0.46175824175824176,0.5802197802197803
3.7656087720024516,0.5842490842490843,0.46175824175824176,0.5802197802197803
3.7658146860048873,0.5842490842490843,0.46175824175824176,0.5802197802197803
3.7712357039999915,1.668131868131868,1.1499633699633698,1.0145787545787546
3.7721850620000623,1.668131868131868,1.1499633699633698,1.0145787545787546
3.773705099003564,1.668131868131868,1.1499633699633698,1.0145787545787546
3.7795611360052135,1.598021978021978,0.5254212454212454,0.40695970695970696
3.784922901002574,1.598021978021978,0.5254212454212454,0.40695970695970696
3.787127887000679,1.598021978021978,0.5254212454212454,0.40695970695970696
3.787417428000481,1.598021978021978,0.5254212454212454,0.40695970695970696
3.7945192490005866,1.598021978021978,0.5254212454212454,0.40695970695970696
3.7977062850040966,1.598021978021978,0.5254212454212454,0.40695970695970696
3.798052538004413,1.598021978021978,0.5254212454212454,0.40695970695970696
3.8027305610012263,1.1386813186813185,0.2949450549450549,0.8163369963369963
3.802892271000019,0.14989010989010987,0.0821978021978022,0.2482051282051282
3.8088062550014,0.14989010989010987,0.0821978021978022,0.2482051282051282
3.8161922950021108,0.14989010989010987,0.0821978021978022,0.2482051282051282
3.8207916190003743,0.14989010989010987,0.0821978021978022,0.2482051282051282
3.8216570270014927,0.14989010989010987,0.0821978021978022,0.2482051282051282
3.8233410160028143,0.14989010989010987,0.0821978021978022,0.2482051282051282
3.8315497460062033,0.14989010989010987,0.0821978021978022,0.2482051282051282
3.8361971600024845,0.0,0.1942124542124542,0.2248351648351648
3.836330625003029,0.0,0.1942124542124542,0.2248351648351648
3.842344979006157,0.0,0.1942124542124542,0.2248351648351648
3.852226157003315,0.0,0.1942124542124542,0.2248351648351648
3.8614890160024515,0.0,0.1942124542124542,0.2248351648351648
3.8662241300044116,1.2023443223443222,0.9694505494505494,0.9178754578754579
3.8663486420045956,1.2023443223443222,0.9694505494505494,0.9178754578754579
3.872402343004069,1.2023443223443222,0.9694505494505494,0.9178754578754579
3.8823827690066537,1.2023443223443222,0.9694505494505494,0.9178754578754579
3.888047490007011,0.05802197802197802,0.2909157509157509,0.2063003663003663
3.8883363980057766,0.05802197802197802,0.2909157509157509,0.2063003663003663
3.8958495540064177,0.05802197802197802,0.2909157509157509,0.2063003663003663
3.900655186000222,0.6068131868131869,0.3698901098901099,0.2232234432234432
3.9074324070024886,0.8034432234432234,0.6245421245421244,0.6463003663003662
3.9133224040051573,0.8034432234432234,0.6245421245421244,0.6463003663003662
3.9166008490064996,0.0,0.09912087912087912,0.3021978021978022
3.9182461550008156,0.0,0.09912087912087912,0.3021978021978022
3.921535073000996,0.0,0.09912087912087912,0.3021978021978022
3.922444121002627,0.2715750915750916,0.09347985347985348,0.224029304029304
3.9240343350029434,0.2715750915750916,0.09347985347985348,0.224029304029304
3.9302977660045144,0.2715750915750916,0.09347985347985348,0.224029304029304
3.9337295110017294,0.2715750915750916,0.09347985347985348,0.224029304029304
3.9347502090022317,0.2715750915750916,0.09347985347985348,0.224029304029304
3.9350210820048233,0.2715750915750916,0.09347985347985348,0.224029304029304
3.9405104130055406,0.2715750915750916,0.09347985347985348,0.224029304029304
3.941413860004104,0.2715750915750916,0.09347985347985348,0.224029304029304
3.9444222640013322,0.2715750915750916,0.09347985347985348,0.224029304029304
3.9477642380006728,0.2715750915750916,0.09347985347985348,0.224029304029304
3.953435047005769,0.2715750915750916,0.09347985347985348,0.224029304029304
3.9544392160023563,0.6728937728937728,0.2796336996336996,0.5246153846153846
3.9552830220054602,0.6728937728937728,0.2796336996336996,0.5246153846153846
3.956881505000638,0.6728937728937728,0.2796336996336996,0.5246153846153846
3.963917355002195,0.6728937728937728,0.2796336996336996,0.5246153846153846
3.9676965570033644,0.6728937728937728,0.2796336996336996,0.5246153846153846
3.9731310890056193,0.6728937728937728,0.2796336996336996,0.5246153846153846
3.9756521030067233,1.5416117216117216,0.49882783882783877,0.6293772893772893
3.9757636430003913,1.5416117216117216,0.49882783882783877,0.6293772893772893
3.9812155030012946,1.5416117216117216,0.49882783882783877,0.6293772893772893
3.9820482100039953,1.5416117216117216,0.49882783882783877,0.6293772893772893
3.9836411270007375,1.5416117216117216,0.49882783882783877,0.6293772893772893
3.987482351003564,1.5416117216117216,0.49882783882783877,0.6293772893772893
3.993692343006842,1.5416117216117216,0.49882783882783877,0.6293772893772893
3.9989281430025585,0.029816849816849816,0.1104029304029304,0.3078388278388278
3.99921686900052,0.029816849816849816,0.1104029304029304,0.3078388278388278
4.004560972003674,0.029816849816849816,0.1104029304029304,0.3078388278388278
4.007761650005705,0.029816849816849816,0.1104029304029304,0.3078388278388278
4.009488855001109,0.029816849816849816,0.1104029304029304,0.3078388278388278
4.013387702005275,0.029816849816849816,0.1104029304029304,0.3078388278388278
4.015818765001313,1.722930402930403,0.4625641025641025,0.48835164835164835
4.015948468004353,1.722930402930403,0.4625641025641025,0.48835164835164835
4.0215172020034515,1.722930402930403,0.4625641025641025,0.48835164835164835
4.023025800001051,1.722930402930403,0.4625641025641025,0.48835164835164835
4.0335967790015275,1.722930402930403,0.4625641025641025,0.48835164835164835
4.041436387000431,1.722930402930403,0.4625641025641025,0.48835164835164835
4.0474475040027755,1.722930402930403,0.4625641025641025,0.48835164835164835
4.051960088007036,1.556117216117216,1.012967032967033,0.8977289377289376
4.052239326003473,1.556117216117216,1.012967032967033,0.8977289377289376
4.057103375002043,1.556117216117216,1.012967032967033,0.8977289377289376
4.067228003004857,1.556117216117216,1.012967032967033,0.8977289377289376
4.077007217005303,0.19340659340659339,0.08864468864468865,0.2345054945054945
4.085191941005178,0.19340659340659339,0.08864468864468865,0.2345054945054945
4.092064617005235,0.19340659340659339,0.08864468864468865,0.2345054945054945
4.098655448004138,0.19340659340659339,0.08864468864468865,0.2345054945054945
4.104209360004461,0.19340659340659339,0.08864468864468865,0.2345054945054945
4.104318448000413,0.19340659340659339,0.08864468864468865,0.2345054945054945
4.1108434130001115,0.19340659340659339,0.08864468864468865,0.2345054945054945
4.115676952002104,0.0,0.195018315018315,0.2683516483516483
4.1207770020046155,0.0,0.195018315018315,0.2683516483516483
4.122348745004274,1.1507692307692305,0.38278388278388276,0.8195604395604396
4.1292424150014995,1.1507692307692305,0.38278388278388276,0.8195604395604396
4.133888898002624,1.1507692307692305,0.38278388278388276,0.8195604395604396
4.1340085770061705,1.1507692307692305,0.38278388278388276,0.8195604395604396
4.138671377004357,1.1507692307692305,0.38278388278388276,0.8195604395604396
4.138927504005551,1.1507692307692305,0.38278388278388276,0.8195604395604396
4.145256845004042,1.1507692307692305,0.38278388278388276,0.8195604395604396
4.148761317002936,1.1507692307692305,0.38278388278388276,0.8195604395604396
4.148978963006812,1.1507692307692305,0.38278388278388276,0.8195604395604396
4.153626973005885,1.1507692307692305,0.38278388278388276,0.8195604395604396
4.154041631001746,1.1507692307692305,0.38278388278388276,0.8195604395604396
4.158180464000907,1.1507692307692305,0.38278388278388276,0.8195604395604396
4.163187464000657,1.344981684981685,1.0717948717948718,0.9283516483516483
4.166642406002211,0.4198534798534798,0.09106227106227105,0.02336996336996337
4.166862054000376,0.4198534798534798,0.09106227106227105,0.02336996336996337
4.173560088005615,0.4198534798534798,0.09106227106227105,0.02336996336996337
4.18030204000388,0.4198534798534798,0.09106227106227105,0.02336996336996337
4.185264075000305,1.195091575091575,1.1048351648351646,0.9525274725274724
4.188307941003586,1.195091575091575,1.1048351648351646,0.9525274725274724
4.1913581950066146,1.195091575091575,1.1048351648351646,0.9525274725274724
4.19572783500189,1.6004395604395603,0.5109157509157509,0.6583882783882784
4.203582171001472,1.6004395604395603,0.5109157509157509,0.6583882783882784
4.210434755004826,1.6004395604395603,0.5109157509157509,0.6583882783882784
4.214609761002066,1.6004395604395603,0.5109157509157509,0.6583882783882784
4.2164134020058555,0.8783882783882784,0.30945054945054945,0.5576556776556777
4.219427260002703,0.8783882783882784,0.30945054945054945,0.5576556776556777
4.22193124700425,0.8783882783882784,0.30945054945054945,0.5576556776556777
4.230098194006132,0.0701098901098901,0.08139194139194139,0.21274725274725276
4.23416088000522,0.0701098901098901,0.08139194139194139,0.21274725274725276
4.237245781005186,0.0701098901098901,0.08139194139194139,0.21274725274725276
4.239802244002931,1.2184615384615385,0.39003663003663,0.8493772893772893
4.246070550005243,1.166080586080586,0.2989743589743589,0.788937728937729
4.249504081002669,0.083003663003663,0.09428571428571428,0.11362637362637362
4.249780771002406,0.0,0.2071062271062271,0.14666666666666667
4.2552836340037175,0.0,0.2071062271062271,0.14666666666666667
4.2561671280054725,0.0,0.2071062271062271,0.14666666666666667
4.257807196001522,0.0,0.2071062271062271,0.14666666666666667
4.265133572000195,0.9235164835164835,0.7454212454212454,0.6043956043956044
4.2689596920026815,0.36344322344322344,0.07333333333333333,0.1692307692307692
4.27424742000585,0.0,0.20065934065934066,0.25223443223443226
4.279034995000984,1.6898901098901096,0.4835164835164835,0.37875457875457874
4.283008054000675,1.6898901098901096,0.4835164835164835,0.37875457875457874
4.286721501004649,0.6680586080586081,0.10476190476190475,0.3497435897435897
4.286841084001935,0.6680586080586081,0.10476190476190475,0.3497435897435897
4.293776970000181,0.6680586080586081,0.10476190476190475,0.3497435897435897
4.298025805001089,0.6680586080586081,0.10476190476190475,0.3497435897435897
4.299567780006328,1.232161172161172,1.0766300366300365,0.90014652014652
4.30443878799997,1.232161172161172,1.0766300366300365,0.90014652014652
4.308277905001887,1.232161172161172,1.0766300366300365,0.90014652014652
4.315579846006585,0.4891575091575091,0.43355311355311354,0.37875457875457874
4.320152987005713,0.4891575091575091,0.43355311355311354,0.37875457875457874
4.32047935200535,1.087106227106227,0.32395604395604394,0.8211721611721612
4.326459132003947,1.087106227106227,0.32395604395604394,0.8211721611721612
4.333280489001481,1.087106227106227,0.32395604395604394,0.8211721611721612
4.337875492004969,0.6422710622710622,0.3441025641025641,0.21597069597069596
4.338691814002232,0.6422710622710622,0.3441025641025641,0.21597069597069596
4.341025965004519,0.6422710622710622,0.3441025641025641,0.21597069597069596
4.3412808580033015,0.6422710622710622,0.3441025641025641,0.21597069597069596
4.34849593200488,0.6422710622710622,0.3441025641025641,0.21597069597069596
4.353000741000869,0.6422710622710622,0.3441025641025641,0.21597069597069596
4.353282141004456,1.7680586080586078,0.5084981684981685,0.49479853479853475
4.359860356002173,1.7680586080586078,0.5084981684981685,0.49479853479853475
4.363980614005413,1.7680586080586078,0.5084981684981685,0.49479853479853475
4.3655621350044385,1.7680586080586078,0.5084981684981685,0.49479853479853475
4.37007259400707,1.7680586080586078,0.5084981684981685,0.49479853479853475
4.371014447002381,1.7680586080586078,0.5084981684981685,0.49479853479853475
4.3718981180063565,1.7680586080586078,0.5084981684981685,0.49479853479853475
4.3736596620001364,1.7680586080586078,0.5084981684981685,0.49479853479853475
4.379272966005374,1.7680586080586078,0.5084981684981685,0.49479853479853475
4.390050986999995,0.9509157509157508,0.20468864468864467,0.6487179487179486
4.401360714000475,0.9509157509157508,0.20468864468864467,0.6487179487179486
4.40976642100577,0.9509157509157508,0.20468864468864467,0.6487179487179486
4.417166035003902,0.9509157509157508,0.20468864468864467,0.6487179487179486
4.421720507001737,0.9509157509157508,0.20468864468864467,0.6487179487179486
4.422078723000595,0.9509157509157508,0.20468864468864467,0.6487179487179486
4.431008300001849,0.9509157509157508,0.20468864468864467,0.6487179487179486
4.438500207004836,0.9509157509157508,0.20468864468864467,0.6487179487179486
4.444794686001842,1.2627838827838826,0.9831501831501831,0.8783882783882784
4.451229040001635,0.7147985347985348,0.12813186813186814,0.43274725274725273
4.45685661600146,1.7011721611721609,1.1161172161172161,1.0580952380952382
4.4686774570000125,1.112893772893773,0.38681318681318677,0.8526007326007327
4.479164484000648,1.112893772893773,0.38681318681318677,0.8526007326007327
4.4857158310042,1.112893772893773,0.38681318681318677,0.8526007326007327
4.491195373004302,1.112893772893773,0.38681318681318677,0.8526007326007327
4.491462872007105,1.112893772893773,0.38681318681318677,0.8526007326007327
4.498502645001281,1.112893772893773,0.38681318681318677,0.8526007326007327
4.502599931001896,0.9388278388278387,0.40937728937728934,0.8026373626373626
4.506479844007117,1.1161172161172161,0.15956043956043955,0.5044688644688645
4.514474952004093,1.1161172161172161,0.15956043956043955,0.5044688644688645
4.5200966550037265,1.1161172161172161,0.15956043956043955,0.5044688644688645
4.520284920006816,1.116923076923077,0.8775824175824175,0.7067399267399267
4.52937634200498,1.116923076923077,0.8775824175824175,0.7067399267399267
4.53377579300286,1.116923076923077,0.8775824175824175,0.7067399267399267
4.535499049001373,1.116923076923077,0.8775824175824175,0.7067399267399267
4.537842454003112,1.116923076923077,0.8775824175824175,0.7067399267399267
4.538002118002623,1.2265201465201465,0.4126007326007326,0.8848351648351648
4.546521665004548,1.2265201465201465,0.4126007326007326,0.8848351648351648
4.552361610003572,1.2265201465201465,0.4126007326007326,0.8848351648351648
4.56098753700644,1.2265201465201465,0.4126007326007326,0.8848351648351648
4.566546365000249,0.4456410256410256,0.09106227106227105,0.25868131868131866
4.566687961007119,0.3924542124542124,0.08622710622710622,0.018534798534798533
4.572203268005978,0.3924542124542124,0.08622710622710622,0.018534798534798533
4.573858579002263,0.3924542124542124,0.08622710622710622,0.018534798534798533
4.57940582500305,0.3924542124542124,0.08622710622710622,0.018534798534798533
4.584873841005901,0.3924542124542124,0.08622710622710622,0.018534798534798533
4.586408548006148,0.3924542124542124,0.08622710622710622,0.018534798534798533
4.5911171810003,0.3924542124542124,0.08622710622710622,0.018534798534798533
4.591223184004775,0.3924542124542124,0.08622710622710622,0.018534798534798533
4.599996728000406,0.3924542124542124,0.08622710622710622,0.018534798534798533
4.606244370006607,1.6979487179487176,0.48754578754578753,0.5342857142857143
4.61110797800211,1.6979487179487176,0.48754578754578753,0.5342857142857143
4.6161893520038575,1.6979487179487176,0.48754578754578753,0.5342857142857143
4.618478812000831,1.6979487179487176,0.48754578754578753,0.5342857142857143
4.6193350790053955,1.6979487179487176,0.48754578754578753,0.5342857142857143
4.621083089004969,1.6979487179487176,0.48754578754578753,0.5342857142857143
4.623440927003685,1.6979487179487176,0.48754578754578753,0.5342857142857143
4.623814072001551,0.5350915750915751,0.10637362637362638,0.03223443223443223
4.6327217490033945,0.25465201465201465,0.10073260073260072,0.02095238095238095
4.637944324000273,0.25465201465201465,0.10073260073260072,0.02095238095238095
4.641243781006779,0.25465201465201465,0.10073260073260072,0.02095238095238095
4.641546744001971,0.6326007326007326,0.12732600732600732,0.39406593406593404
4.6486350280029,0.6326007326007326,0.12732600732600732,0.39406593406593404
4.65358669100533,0.6326007326007326,0.12732600732600732,0.39406593406593404
4.659716002002824,1.5851282051282052,0.4383882783882784,0.36344322344322344
4.663796705004643,1.5851282051282052,0.4383882783882784,0.36344322344322344
4.666815141004918,1.5851282051282052,0.4383882783882784,0.36344322344322344
4.669111714007158,1.5851282051282052,0.4383882783882784,0.36344322344322344
4.669394756005204,1.5851282051282052,0.4383882783882784,0.36344322344322344
4.674783590002335,1.5851282051282052,0.4383882783882784,0.36344322344322344
4.6783184120067745,0.6519413919413919,0.3142857142857142,0.19179487179487179
4.683619162002287,0.855018315018315,0.7147985347985348,0.5536263736263736
4.685197511003935,0.1418315018315018,0.09428571428571428,0.24336996336996336
4.689038297001389,0.1418315018315018,0.09428571428571428,0.24336996336996336
4.697212924002088,0.1418315018315018,0.09428571428571428,0.24336996336996336
4.701861774999998,0.1418315018315018,0.09428571428571428,0.24336996336996336
4.7020411970006535,0.1418315018315018,0.09428571428571428,0.24336996336996336
4.708148777004681,0.1418315018315018,0.09428571428571428,0.24336996336996336
4.7142267400049604,0.1418315018315018,0.09428571428571428,0.24336996336996336
4.717989078002574,0.1418315018315018,0.09428571428571428,0.24336996336996336
4.722452129004523,0.1418315018315018,0.09428571428571428,0.24336996336996336
4.724071526004991,0.5238095238095237,0.11443223443223444,0.38681318681318677
4.729888966001454,0.2361172161172161,0.07816849816849816,0.03062271062271062
4.735324920002313,0.2361172161172161,0.07816849816849816,0.03062271062271062
4.73691290300485,0.0,0.11846153846153845,0.2836630036630036
4.741002861002926,0.0,0.11846153846153845,0.2836630036630036
4.746713639004156,0.40937728937728934,0.1087912087912088,0.2949450549450549
4.752122195000993,0.07736263736263736,0.0838095238095238,0.24014652014652016
4.754380588005006,1.7809523809523808,0.5068864468864469,0.47706959706959706
4.754688600005466,1.7809523809523808,0.5068864468864469,0.47706959706959706
4.761482646004879,1.7809523809523808,0.5068864468864469,0.47706959706959706
4.765567223003018,1.3353113553113554,0.17406593406593407,0.73010989010989
4.767952619004063,1.3353113553113554,0.17406593406593407,0.73010989010989
4.768158155005949,1.3353113553113554,0.17406593406593407,0.73010989010989
4.773591093005962,1.3353113553113554,0.17406593406593407,0.73010989010989
4.776326088001952,1.49003663003663,0.4198534798534798,0.3618315018315018
4.780466798001726,1.49003663003663,0.4198534798534798,0.3618315018315018
4.781414717006555,0.7873260073260073,0.14908424908424908,0.5084981684981685
4.783016740002495,0.7873260073260073,0.14908424908424908,0.5084981684981685
4.786848957002803,0.7873260073260073,0.14908424908424908,0.5084981684981685
4.791478351005935,0.2635164835164835,0.10315018315018315,0.029816849816849816
4.792842527000175,0.2635164835164835,0.10315018315018315,0.029816849816849816
4.799049730005208,0.2635164835164835,0.10315018315018315,0.029816849816849816
4.8030050530069275,0.2635164835164835,0.10315018315018315,0.029816849816849816
4.807517403001839,0.3529670329670329,0.08783882783882783,0.02095238095238095
4.809189841005718,0.3529670329670329,0.08783882783882783,0.02095238095238095
4.813204678001057,0.0,0.1652014652014652,0.3078388278388278
4.815672754004481,0.0,0.1652014652014652,0.3078388278388278
4.8209522040051525,0.0,0.1652014652014652,0.3078388278388278
4.823162978005712,0.0,0.1652014652014652,0.3078388278388278
4.8233844180067535,0.0,0.1652014652014652,0.3078388278388278
4.83084061700356,0.0,0.1652014652014652,0.3078388278388278
4.835454876003496,1.4739194139194138,0.8687179487179487,0.8735531135531135
4.835746614000527,1.4658608058608058,0.4585347985347985,0.3779487179487179
4.84088204800355,1.4658608058608058,0.4585347985347985,0.3779487179487179
4.846677163004642,1.4658608058608058,0.4585347985347985,0.3779487179487179
4.851223521000065,1.4658608058608058,0.4585347985347985,0.3779487179487179
4.851531341002556,0.0,0.1555311355311355,0.23047619047619047
4.8570231390040135,1.261172161172161,0.4045421245421245,0.6205128205128204
4.859906434001459,1.261172161172161,0.4045421245421245,0.6205128205128204
4.86264747200039,1.261172161172161,0.4045421245421245,0.6205128205128204
4.865904504003993,1.261172161172161,0.4045421245421245,0.6205128205128204
4.867545681001502,1.261172161172161,0.4045421245421245,0.6205128205128204
4.871960124000907,1.261172161172161,0.4045421245421245,0.6205128205128204
4.873504909002804,1.261172161172161,0.4045421245421245,0.6205128205128204
4.879923356005747,1.261172161172161,0.4045421245421245,0.6205128205128204
4.883305104005558,1.261172161172161,0.4045421245421245,0.6205128205128204
4.883630940006697,0.5923076923076923,0.10798534798534798,0.43999999999999995
4.889748749003047,0.5923076923076923,0.10798534798534798,0.43999999999999995
4.895795282005565,0.10476190476190475,0.07575091575091575,0.10395604395604395
4.899186164002458,0.10476190476190475,0.07575091575091575,0.10395604395604395
4.899527102003049,0.10476190476190475,0.07575091575091575,0.10395604395604395
4.904745157000434,0.10476190476190475,0.07575091575091575,0.10395604395604395
4.90807166700688,0.5616849816849817,0.09589743589743589,0.06205128205128205
4.908436641002481,0.5616849816849817,0.09589743589743589,0.06205128205128205
4.915261491005367,0.5616849816849817,0.09589743589743589,0.06205128205128205
4.91903506500239,0.5616849816849817,0.09589743589743589,0.06205128205128205
4.924756522006646,0.5616849816849817,0.09589743589743589,0.06205128205128205
4.925666365001234,0.5084981684981685,0.09912087912087912,0.4722344322344322
4.926668261003215,0.5084981684981685,0.09912087912087912,0.4722344322344322
4.927682658002595,0.5084981684981685,0.09912087912087912,0.4722344322344322
4.929123339999933,0.5084981684981685,0.09912087912087912,0.4722344322344322
4.933118120003201,0.5084981684981685,0.09912087912087912,0.4722344322344322
4.937014717004786,0.5084981684981685,0.09912087912087912,0.4722344322344322
4.942465387000993,0.5084981684981685,0.09912087912087912,0.4722344322344322
4.943422431002546,0.5084981684981685,0.09912087912087912,0.4722344322344322
4.946258265001234,0.5084981684981685,0.09912087912087912,0.4722344322344322
4.948357005006983,0.5375091575091575,0.4867399267399267,0.5544322344322344
4.949960314006603,0.5375091575091575,0.4867399267399267,0.5544322344322344
4.954018337004527,0.5375091575091575,0.4867399267399267,0.5544322344322344
4.957060160006222,0.5375091575091575,0.4867399267399267,0.5544322344322344
4.9625349740017555,0.5375091575091575,0.4867399267399267,0.5544322344322344
4.962849011004437,0.5375091575091575,0.4867399267399267,0.5544322344322344
4.968822244001785,0.5375091575091575,0.4867399267399267,0.5544322344322344
4.977559866005322,0.0,0.24175824175824176,0.11362637362637362
4.982013693006593,0.0,0.24175824175824176,0.11362637362637362
4.982323883006757,0.42065934065934063,0.09025641025641025,0.3972893772893773
4.988042227007099,0.42065934065934063,0.09025641025641025,0.3972893772893773
4.988222293002764,0.5874725274725274,0.49076923076923074,0.61003663003663
4.997197191005398,0.5874725274725274,0.49076923076923074,0.61003663003663
5.00096505300462,0.6817582417582417,0.3876190476190476,0.21999999999999997
5.006309230004263,0.6817582417582417,0.3876190476190476,0.21999999999999997
5.009787087001314,0.6817582417582417,0.3876190476190476,0.21999999999999997
5.010123611005838,0.6817582417582417,0.3876190476190476,0.21999999999999997
5.01613565000298,0.6817582417582417,0.3876190476190476,0.21999999999999997
5.021689311004593,0.06446886446886446,0.3021978021978022,0.24336996336996336
5.022501288003696,0.06446886446886446,0.3021978021978022,0.24336996336996336
5.024205333000282,0.06446886446886446,0.3021978021978022,0.24336996336996336
5.029498562005756,0.4021245421245421,0.08058608058608058,0.1797069597069597
5.030474953004159,0.4021245421245421,0.08058608058608058,0.1797069597069597
5.031395413003338,0.4021245421245421,0.08058608058608058,0.1797069597069597
5.032363042002544,0.4021245421245421,0.08058608058608058,0.1797069597069597
5.033266597005422,0.4021245421245421,0.08058608058608058,0.1797069597069597
5.03427760800696,0.4021245421245421,0.08058608058608058,0.1797069597069597
5.035218651006289,0.4021245421245421,0.08058608058608058,0.1797069597069597
5.036220314003003,0.4021245421245421,0.08058608058608058,0.1797069597069597
5.038127087005705,0.4021245421245421,0.08058608058608058,0.1797069597069597
5.039712354002404,0.4021245421245421,0.08058608058608058,0.1797069597069597
5.047972459004086,0.4021245421245421,0.08058608058608058,0.1797069597069597
5.05415762100165,0.4021245421245421,0.08058608058608058,0.1797069597069597
5.059917710001173,0.4021245421245421,0.08058608058608058,0.1797069597069597
5.067236381000839,1.3973626373626373,1.0983882783882783,0.925128205128205
5.071854883004562,1.3973626373626373,1.0983882783882783,0.925128205128205
5.0721875360031845,1.3973626373626373,1.0983882783882783,0.925128205128205
5.079007851003553,1.3973626373626373,1.0983882783882783,0.925128205128205
5.082995357006439,1.3973626373626373,1.0983882783882783,0.925128205128205
5.086883559000853,1.3973626373626373,1.0983882783882783,0.925128205128205
5.091392391004774,0.0,0.2377289377289377,0.10556776556776555
5.0923887900062255,0.0,0.12813186813186814,0.30139194139194136
5.094048642000416,0.0,0.12813186813186814,0.30139194139194136
5.097479348005436,0.0,0.12813186813186814,0.30139194139194136
5.097703394007112,0.0,0.12813186813186814,0.30139194139194136
5.103490706002049,1.1918681318681317,0.3932600732600733,0.842124542124542
5.1037738760060165,1.0395604395604394,0.19018315018315018,0.5769963369963369
5.109245103005378,1.0395604395604394,0.19018315018315018,0.5769963369963369
5.110313818004215,1.0395604395604394,0.19018315018315018,0.5769963369963369
5.111435370003164,1.0395604395604394,0.19018315018315018,0.5769963369963369
5.111809414003801,0.083003663003663,0.12329670329670328,0.3223443223443223
5.116274788000737,0.083003663003663,0.12329670329670328,0.3223443223443223
5.1171689510010765,0.083003663003663,0.12329670329670328,0.3223443223443223
5.118634741003916,0.083003663003663,0.12329670329670328,0.3223443223443223
5.118753343005665,0.083003663003663,0.12329670329670328,0.3223443223443223
5.1237038650069735,0.083003663003663,0.12329670329670328,0.3223443223443223
5.12783211900387,0.083003663003663,0.12329670329670328,0.3223443223443223
5.130505034001544,0.083003663003663,0.12329670329670328,0.3223443223443223
5.13628338300623,0.083003663003663,0.12329670329670328,0.3223443223443223
5.147695054001815,0.083003663003663,0.12329670329670328,0.3223443223443223
5.156205462000798,0.083003663003663,0.12329670329670328,0.3223443223443223
5.164986047006096,1.303076923076923,1.0113553113553113,0.9243223443223443
5.17182620800304,1.303076923076923,1.0113553113553113,0.9243223443223443
5.175698431005003,0.0,0.1095970695970696,0.311062271062271
5.179840474003868,0.6019780219780219,0.5794139194139193,0.4029304029304029
5.18213864700374,0.6019780219780219,0.5794139194139193,0.4029304029304029
5.182330772004207,0.6019780219780219,0.5794139194139193,0.4029304029304029
5.187727557000471,0.6019780219780219,0.5794139194139193,0.4029304029304029
5.1892870780066005,0.2651282051282051,0.10315018315018315,0.03142857142857143
5.1936521570023615,0.2651282051282051,0.10315018315018315,0.03142857142857143
5.195260391003103,0.2651282051282051,0.10315018315018315,0.03142857142857143
5.202369152000756,0.2651282051282051,0.10315018315018315,0.03142857142857143
5.206990829006827,1.0153846153846153,0.2079120879120879,0.6857875457875457
5.216435941001691,1.5972161172161172,1.0355311355311354,0.9186813186813186
5.2245685790039715,1.5972161172161172,1.0355311355311354,0.9186813186813186
5.229590678005479,0.701098901098901,0.11604395604395604,0.3884249084249084
5.234239156001422,0.0,0.1112087912087912,0.2917216117216117
5.2343460120027885,0.0,0.1112087912087912,0.2917216117216117
5.239618690000498,0.025787545787545788,0.26593406593406593,0.20388278388278389
5.241910372002167,0.025787545787545788,0.26593406593406593,0.20388278388278389
5.242220674001146,0.025787545787545788,0.26593406593406593,0.20388278388278389
5.2473348769999575,0.025787545787545788,0.26593406593406593,0.20388278388278389
5.251028991006024,0.025787545787545788,0.26593406593406593,0.20388278388278389
5.256211669002369,0.025787545787545788,0.26593406593406593,0.20388278388278389
5.259838395002589,0.025787545787545788,0.26593406593406593,0.20388278388278389
5.260013718005212,0.025787545787545788,0.26593406593406593,0.20388278388278389
5.2651277580007445,0.025787545787545788,0.26593406593406593,0.20388278388278389
5.268085682000674,0.025787545787545788,0.26593406593406593,0.20388278388278389
5.2717231230053585,0.025787545787545788,0.26593406593406593,0.20388278388278389
5.271822129005159,1.211208791208791,0.3972893772893773,0.5955311355311355
5.276926934006042,1.7011721611721609,0.48432234432234433,0.502051282051282
5.280712957006472,1.7011721611721609,0.48432234432234433,0.502051282051282
5.280821572006971,1.7011721611721609,0.48432234432234433,0.502051282051282
5.2867530020012055,1.7011721611721609,0.48432234432234433,0.502051282051282
5.29358001100627,0.2957509157509157,0.09831501831501832,0.18937728937728937
5.298233547000564,0.2957509157509157,0.09831501831501832,0.18937728937728937
5.307316689002619,0.2957509157509157,0.09831501831501832,0.18937728937728937
5.31323941800656,0.6213186813186813,0.10395604395604395,0.09589743589743589
5.319688497002062,0.6213186813186813,0.10395604395604395,0.09589743589743589
5.323618432004878,0.6213186813186813,0.10395604395604395,0.09589743589743589
5.327495401004853,0.6213186813186813,0.10395604395604395,0.09589743589743589
5.332088659000874,0.6213186813186813,0.10395604395604395,0.09589743589743589
5.332316934000119,0.0,0.1378021978021978,0.26190476190476186
5.340402150002774,0.0,0.1378021978021978,0.26190476190476186
5.345902400003979,0.0,0.1378021978021978,0.26190476190476186
5.346110709004279,0.0,0.1378021978021978,0.26190476190476186
5.351440549005929,0.0,0.1378021978021978,0.26190476190476186
5.353680487001839,0.0,0.14102564102564102,0.27399267399267396
5.35389862300508,0.0,0.14102564102564102,0.27399267399267396
5.3592220960053965,0.0,0.14102564102564102,0.27399267399267396
5.361569126005634,0.0,0.14102564102564102,0.27399267399267396
5.361735238002439,0.630989010989011,0.14263736263736262,0.3449084249084249
5.367062679004448,0.630989010989011,0.14263736263736262,0.3449084249084249
5.369381295000494,0.630989010989011,0.14263736263736262,0.3449084249084249
5.369599049001408,0.630989010989011,0.14263736263736262,0.3449084249084249
5.374790724003105,0.630989010989011,0.14263736263736262,0.3449084249084249
5.377796485001454,0.630989010989011,0.14263736263736262,0.3449084249084249
5.380061731004389,0.630989010989011,0.14263736263736262,0.3449084249084249
5.3810018970034434,1.344981684981685,0.190989010989011,0.7623443223443224
5.381942630003323,1.344981684981685,0.190989010989011,0.7623443223443224
5.382856940006604,1.344981684981685,0.190989010989011,0.7623443223443224
5.384596000003512,1.344981684981685,0.190989010989011,0.7623443223443224
5.387672908000241,1.344981684981685,0.190989010989011,0.7623443223443224
5.3895626880039345,1.344981684981685,0.190989010989011,0.7623443223443224
5.391939056004048,0.0,0.13538461538461538,0.3191208791208791
5.397416911000619,0.0,0.13538461538461538,0.3191208791208791
5.399774516001344,0.0,0.13538461538461538,0.3191208791208791
5.406404206005391,0.0,0.13538461538461538,0.3191208791208791
5.414126729003328,0.0,0.13538461538461538,0.3191208791208791
5.421036026004003,0.0,0.14908424908424908,0.27318681318681315
5.427424845001951,0.0,0.14908424908424908,0.27318681318681315
5.432925604000047,1.6544322344322344,1.1048351648351646,1.037948717948718
5.433121255002334,1.6544322344322344,1.1048351648351646,1.037948717948718
5.437896109004214,1.6544322344322344,1.1048351648351646,1.037948717948718
5.444620416004909,1.216043956043956,0.32476190476190475,0.8477655677655677
5.448768773007032,0.26109890109890105,0.06769230769230769,0.21355311355311357
5.451189409002836,0.26109890109890105,0.06769230769230769,0.21355311355311357
5.451325966001605,0.26109890109890105,0.06769230769230769,0.21355311355311357
5.457111053001427,0.26109890109890105,0.06769230769230769,0.21355311355311357
5.457318106004095,0.26109890109890105,0.06769230769230769,0.21355311355311357
5.466187717000139,0.26109890109890105,0.06769230769230769,0.21355311355311357
5.4759366670041345,0.26109890109890105,0.06769230769230769,0.21355311355311357
5.481824037000479,0.0,0.17809523809523808,0.25384615384615383
5.486292894005601,0.0,0.17809523809523808,0.25384615384615383
5.486622279000585,0.0,0.17809523809523808,0.25384615384615383
5.4927467000015895,0.0,0.17809523809523808,0.25384615384615383
5.496923086000606,1.684249084249084,0.5375091575091575,0.5495970695970696
5.499431235002703,1.684249084249084,0.5375091575091575,0.5495970695970696
5.504964375002601,1.0661538461538462,0.24336996336996336,0.7486446886446886
5.505853456001205,1.0661538461538462,0.24336996336996336,0.7486446886446886
5.507707075004873,1.0661538461538462,0.24336996336996336,0.7486446886446886
5.513095796006382,1.0661538461538462,0.24336996336996336,0.7486446886446886
5.514022847004526,1.0661538461538462,0.24336996336996336,0.7486446886446886
5.515640007004549,1.0661538461538462,0.24336996336996336,0.7486446886446886
5.518828314001439,1.0661538461538462,0.24336996336996336,0.7486446886446886
5.5211272630040185,1.0661538461538462,0.24336996336996336,0.7486446886446886
5.521331201001885,1.0661538461538462,0.24336996336996336,0.7486446886446886
5.528726969001582,1.0661538461538462,0.24336996336996336,0.7486446886446886
5.532827757000632,0.1112087912087912,0.33604395604395604,0.1772893772893773
5.535945792005805,0.1112087912087912,0.33604395604395604,0.1772893772893773
5.537593070002913,0.1112087912087912,0.33604395604395604,0.1772893772893773
5.54308876900177,1.1467399267399265,0.36747252747252745,0.8219780219780219
5.543418418004876,1.1467399267399265,0.36747252747252745,0.8219780219780219
5.549947555002291,1.1467399267399265,0.36747252747252745,0.8219780219780219
5.554029564002121,1.1467399267399265,0.36747252747252745,0.8219780219780219
5.557297813000332,1.1467399267399265,0.36747252747252745,0.8219780219780219
5.559191796004598,1.1467399267399265,0.36747252747252745,0.8219780219780219
5.561940874002175,1.1467399267399265,0.36747252747252745,0.8219780219780219
5.568223152004066,1.1467399267399265,0.36747252747252745,0.8219780219780219
5.571505532003357,1.1467399267399265,0.36747252747252745,0.8219780219780219
5.573907312005758,1.1467399267399265,0.36747252747252745,0.8219780219780219
5.574204299002304,1.1467399267399265,0.36747252747252745,0.8219780219780219
5.581110161001561,1.1467399267399265,0.36747252747252745,0.8219780219780219
5.585035002004588,1.1467399267399265,0.36747252747252745,0.8219780219780219
5.588925467003719,0.28527472527472525,0.4013186813186813,0.4786813186813187
5.5965066620046855,0.28527472527472525,0.4013186813186813,0.4786813186813187
5.600408611004241,0.024175824175824173,0.09025641025641025,0.29816849816849816
5.604990198000451,0.8743589743589744,0.13941391941391942,0.5971428571428571
5.6052753620024305,0.8743589743589744,0.13941391941391942,0.5971428571428571
5.6123277460064855,0.8743589743589744,0.13941391941391942,0.5971428571428571
5.617474997001409,0.0,0.2191941391941392,0.15633699633699633
5.619460579000588,0.0,0.2191941391941392,0.15633699633699633
5.6203221150062745,0.0,0.2191941391941392,0.15633699633699633
5.6223599150034715,0.0,0.2191941391941392,0.15633699633699633
5.624078064000059,0.0,0.2191941391941392,0.15633699633699633
5.628831958005321,0.2683516483516483,0.08542124542124542,0.03948717948717949
5.633404154003074,0.2683516483516483,0.08542124542124542,0.03948717948717949
5.633622158005892,0.2683516483516483,0.08542124542124542,0.03948717948717949
5.6391437300044345,0.2683516483516483,0.08542124542124542,0.03948717948717949
5.639958045001549,0.2683516483516483,0.08542124542124542,0.03948717948717949
5.642499266003142,0.2683516483516483,0.08542124542124542,0.03948717948717949
5.6506185329999425,0.2683516483516483,0.08542124542124542,0.03948717948717949
5.657508324002265,0.0,0.21999999999999997,0.16278388278388278
5.665105724001478,0.9823443223443222,0.3336263736263736,0.2095238095238095
5.671415717006312,0.9823443223443222,0.3336263736263736,0.2095238095238095
5.678766673001519,1.4715018315018316,0.4561172161172161,0.6390476190476191
5.687571525006206,1.4715018315018316,0.4561172161172161,0.6390476190476191
5.696130628006358,1.4715018315018316,0.4561172161172161,0.6390476190476191
5.703326040005777,1.4715018315018316,0.4561172161172161,0.6390476190476191
5.708838600003219,0.3167032967032967,0.07494505494505493,0.012893772893772894
5.70921092700155,0.5302564102564102,0.527032967032967,0.4512820512820513
5.714580149004178,0.5302564102564102,0.527032967032967,0.4512820512820513
5.716557713007205,0.5302564102564102,0.527032967032967,0.4512820512820513
5.717573265006649,0.5302564102564102,0.527032967032967,0.4512820512820513
5.718529671001306,0.5302564102564102,0.527032967032967,0.4512820512820513
5.720219016002375,0.5302564102564102,0.527032967032967,0.4512820512820513
5.723080893003498,0.5302564102564102,0.527032967032967,0.4512820512820513
5.728119494000566,0.36344322344322344,0.08622710622710622,0.33684981684981685
5.730981103006343,0.36344322344322344,0.08622710622710622,0.33684981684981685
5.734364979005477,0.36344322344322344,0.08622710622710622,0.33684981684981685
5.7352508080002735,1.6367032967032966,0.49076923076923074,0.3432967032967033
5.736854866001522,0.40937728937728934,0.3505494505494505,0.195018315018315
5.741398108002613,1.2555311355311354,0.9718681318681318,0.8493772893772893
5.743191187000775,1.2555311355311354,0.9718681318681318,0.8493772893772893
5.74496443800308,1.2555311355311354,0.9718681318681318,0.8493772893772893
5.748094169000979,1.2555311355311354,0.9718681318681318,0.8493772893772893
5.749044272000901,1.5464468864468863,0.9702564102564102,1.0016849816849815
5.749991304001014,1.5464468864468863,0.9702564102564102,1.0016849816849815
5.7517658330034465,1.5464468864468863,0.9702564102564102,1.0016849816849815
5.754317514001741,1.5464468864468863,0.9702564102564102,1.0016849816849815
5.76184143100545,1.6898901098901096,0.4778754578754579,0.361025641025641
5.766352048005501,1.6898901098901096,0.4778754578754579,0.361025641025641
5.766556348004087,1.6898901098901096,0.4778754578754579,0.361025641025641
5.7719881430020905,1.6898901098901096,0.4778754578754579,0.361025641025641
5.773964449006598,1.6898901098901096,0.4778754578754579,0.361025641025641
5.7771792440034915,1.6898901098901096,0.4778754578754579,0.361025641025641
5.77751143900241,1.6898901098901096,0.4778754578754579,0.361025641025641
5.78647666600591,1.6898901098901096,0.4778754578754579,0.361025641025641
5.794293657003436,0.07252747252747253,0.25465201465201465,0.29736263736263735
5.801979541000037,0.07252747252747253,0.25465201465201465,0.29736263736263735
5.807006643000932,1.1354578754578755,0.23208791208791207,0.7357509157509158
5.8139057510052226,1.1354578754578755,0.23208791208791207,0.7357509157509158
5.817171138005506,1.1354578754578755,0.23208791208791207,0.7357509157509158
5.818105814003502,1.1354578754578755,0.23208791208791207,0.7357509157509158
5.819725969005958,1.1354578754578755,0.23208791208791207,0.7357509157509158
5.823788076006167,1.1354578754578755,0.23208791208791207,0.7357509157509158
5.829542149003828,0.4867399267399267,0.09186813186813186,0.2957509157509157
5.835103512006754,0.0,0.1555311355311355,0.2836630036630036
5.835968890001823,0.0,0.1555311355311355,0.2836630036630036
5.8368662820066675,0.0,0.1555311355311355,0.2836630036630036
5.838550310007122,0.0,0.1555311355311355,0.2836630036630036
5.843394846000592,0.0,0.1555311355311355,0.2836630036630036
5.847535724002228,0.0,0.1555311355311355,0.2836630036630036
5.84992827300448,0.0,0.1555311355311355,0.2836630036630036
5.850165645002562,0.0,0.1555311355311355,0.2836630036630036
5.8570607810033835,0.0,0.1555311355311355,0.2836630036630036
5.861947578006948,1.810769230769231,0.5431501831501832,0.5044688644688645
5.865741419002006,1.810769230769231,0.5431501831501832,0.5044688644688645
5.871196408006654,1.810769230769231,0.5431501831501832,0.5044688644688645
5.873491867001576,0.0,0.12087912087912088,0.29736263736263735
5.873762028000783,0.0,0.12087912087912088,0.29736263736263735
5.880944143005763,0.0,0.12087912087912088,0.29736263736263735
5.885488858002645,1.1918681318681317,1.1040293040293039,0.9855677655677655
5.886368316001608,0.22644688644688646,0.0709157509157509,0.21274725274725276
5.88869016100216,0.22644688644688646,0.0709157509157509,0.21274725274725276
5.888953974004835,0.22644688644688646,0.0709157509157509,0.21274725274725276
5.896596733000479,0.0,0.18937728937728937,0.311062271062271
5.900349173003633,0.0,0.18937728937728937,0.311062271062271
5.906007267003588,0.0,0.18937728937728937,0.311062271062271
5.906205229002808,0.3183150183150183,0.08542124542124542,0.19340659340659339
5.916818439000053,0.3183150183150183,0.08542124542124542,0.19340659340659339
5.927542301003996,0.3183150183150183,0.08542124542124542,0.19340659340659339
5.935307081002975,0.3183150183150183,0.08542124542124542,0.19340659340659339
5.939819769002497,0.3183150183150183,0.08542124542124542,0.19340659340659339
5.9417708960027085,0.3183150183150183,0.08542124542124542,0.19340659340659339
5.944882286006759,0.3183150183150183,0.08542124542124542,0.19340659340659339
5.945206453005085,0.3183150183150183,0.08542124542124542,0.19340659340659339
5.949900785002683,0.3183150183150183,0.08542124542124542,0.19340659340659339
5.950065320001158,0.0,0.2087179487179487,0.13377289377289378
5.955464401005884,0.0,0.2087179487179487,0.13377289377289378
5.957648569004959,0.0,0.2087179487179487,0.13377289377289378
5.957987240006332,0.0,0.2087179487179487,0.13377289377289378
5.9652799530013,0.0,0.2087179487179487,0.13377289377289378
5.969973501007189,0.0,0.2087179487179487,0.13377289377289378
5.970086635003099,0.0,0.2087179487179487,0.13377289377289378
5.977486686002521,0.0,0.1265201465201465,0.30945054945054945
5.982022728006996,0.0,0.1265201465201465,0.30945054945054945
5.987843962000625,0.8534065934065934,0.14102564102564102,0.4553113553113553
5.988192815006187,0.8534065934065934,0.14102564102564102,0.4553113553113553
5.997376837003685,0.8534065934065934,0.14102564102564102,0.4553113553113553
6.00432580600318,0.8534065934065934,0.14102564102564102,0.4553113553113553
6.010935109006823,0.15956043956043955,0.08703296703296703,0.2377289377289377
6.016032511004596,0.15956043956043955,0.08703296703296703,0.2377289377289377
6.020097460001125,0.15956043956043955,0.08703296703296703,0.2377289377289377
6.021767699006887,0.15956043956043955,0.08703296703296703,0.2377289377289377
6.02713325300283,0.15956043956043955,0.08703296703296703,0.2377289377289377
6.02903513199999,0.15956043956043955,0.08703296703296703,0.2377289377289377
6.03053300800093,0.15956043956043955,0.08703296703296703,0.2377289377289377
6.038580867003475,0.15956043956043955,0.08703296703296703,0.2377289377289377
6.047691962005047,0.5874725274725274,0.307032967032967,0.15956043956043955
6.054246826002782,0.24175824175824176,0.08703296703296703,0.2369230769230769
6.0573613660017145,0.24175824175824176,0.08703296703296703,0.2369230769230769
6.061204608005937,0.24175824175824176,0.08703296703296703,0.2369230769230769
6.064386253005068,0.24175824175824176,0.08703296703296703,0.2369230769230769
6.065957029000856,0.24175824175824176,0.08703296703296703,0.2369230769230769
6.070487333003257,0.24175824175824176,0.08703296703296703,0.2369230769230769
6.072018119004497,0.24175824175824176,0.08703296703296703,0.2369230769230769
6.075548371001787,0.0,0.10315018315018315,0.303003663003663
6.07564709700091,0.0,0.10315018315018315,0.303003663003663
6.081824977001816,0.0,0.10315018315018315,0.303003663003663
6.085614175004594,0.8227838827838827,0.2063003663003663,0.6092307692307692
6.085710529005155,0.2328937728937729,0.14344322344322344,0.048351648351648346
6.092283269004838,0.2328937728937729,0.14344322344322344,0.048351648351648346
6.097784090001369,0.0709157509157509,0.1104029304029304,0.3690842490842491
6.098011025002052,0.0709157509157509,0.1104029304029304,0.3690842490842491
6.103178897006728,0.0709157509157509,0.1104029304029304,0.3690842490842491
6.107260961005522,0.0709157509157509,0.1104029304029304,0.3690842490842491
6.111470768002619,0.0709157509157509,0.1104029304029304,0.3690842490842491
6.114981631006231,0.0709157509157509,0.1104029304029304,0.3690842490842491
6.123040288002812,0.0709157509157509,0.1104029304029304,0.3690842490842491
6.131523800002469,0.0709157509157509,0.1104029304029304,0.3690842490842491
6.136339097000018,0.0709157509157509,0.1104029304029304,0.3690842490842491
6.142809930002841,1.3401465201465201,1.0411721611721612,0.8816117216117215
6.147166840004502,1.3401465201465201,1.0411721611721612,0.8816117216117215
6.147487762005767,1.3401465201465201,1.0411721611721612,0.8816117216117215
6.15201092800271,1.3401465201465201,1.0411721611721612,0.8816117216117215
6.152836176006531,0.0,0.22644688644688646,0.3191208791208791
6.155169577003107,0.0,0.22644688644688646,0.3191208791208791
6.165300346001459,0.0,0.22644688644688646,0.3191208791208791
6.17198245900363,1.1241758241758242,0.27641025641025635,0.8106959706959707
6.178083522005181,1.1241758241758242,0.27641025641025635,0.8106959706959707
6.181265871004143,1.1241758241758242,0.27641025641025635,0.8106959706959707
6.182803308001894,1.1241758241758242,0.27641025641025635,0.8106959706959707
6.1873789520032005,1.1241758241758242,0.27641025641025635,0.8106959706959707
6.1876256490068045,0.4851282051282051,0.49479853479853475,0.4545054945054945
6.1937408030062215,0.4851282051282051,0.49479853479853475,0.4545054945054945
6.1979965990030905,1.631062271062271,0.5044688644688645,0.36344322344322344
6.198910953004088,1.631062271062271,0.5044688644688645,0.36344322344322344
6.200518763005675,1.631062271062271,0.5044688644688645,0.36344322344322344
6.206071026004793,1.631062271062271,0.5044688644688645,0.36344322344322344
6.206304748004186,0.0,0.16842490842490843,0.24256410256410255
6.212930487003177,0.0,0.16842490842490843,0.24256410256410255
6.217108870005177,0.0,0.16842490842490843,0.24256410256410255
6.219515705000958,1.1298168498168497,1.083076923076923,0.8703296703296703
6.219718070002273,1.1298168498168497,1.083076923076923,0.8703296703296703
6.225017082004342,1.1298168498168497,1.083076923076923,0.8703296703296703
6.226861418006592,0.7986080586080586,0.0693040293040293,0.4464468864468864
6.229287011999986,0.7986080586080586,0.0693040293040293,0.4464468864468864
6.229461327005993,0.7986080586080586,0.0693040293040293,0.4464468864468864
6.234867666003993,0.7986080586080586,0.0693040293040293,0.4464468864468864
6.236613434004539,0.7986080586080586,0.0693040293040293,0.4464468864468864
6.240507703005278,0.7986080586080586,0.0693040293040293,0.4464468864468864
6.244579497004452,0.7986080586080586,0.0693040293040293,0.4464468864468864
6.248242446999939,0.7986080586080586,0.0693040293040293,0.4464468864468864
6.2529998760001035,0.7986080586080586,0.0693040293040293,0.4464468864468864
6.2531868100049905,0.7986080586080586,0.0693040293040293,0.4464468864468864
6.258617625004263,0.7986080586080586,0.0693040293040293,0.4464468864468864
6.260448863002239,0.7986080586080586,0.0693040293040293,0.4464468864468864
6.263189231001888,0.7986080586080586,0.0693040293040293,0.4464468864468864
6.268683267000597,0.49076923076923074,0.08139194139194139,0.06285714285714286
6.2695374920003815,1.494871794871795,1.0387545787545787,1.0524542124542122
6.271361638006056,1.494871794871795,1.0387545787545787,1.0524542124542122
6.273947975001647,0.0,0.2345054945054945,0.20227106227106226
6.2810010240064,1.2426373626373626,0.5778021978021978,0.5512087912087912
6.284963434001838,0.9718681318681318,0.09992673992673992,0.9412454212454211
6.288829830002214,0.9718681318681318,0.09992673992673992,0.9412454212454211
6.295516642006987,0.9718681318681318,0.09992673992673992,0.9412454212454211
6.2998657550051576,1.5577289377289376,0.4738461538461538,0.3747252747252747
6.300764007006364,1.5577289377289376,0.4738461538461538,0.3747252747252747
6.302362219001225,1.5577289377289376,0.4738461538461538,0.3747252747252747
6.306836063005903,1.5577289377289376,0.4738461538461538,0.3747252747252747
6.307822767004836,1.5577289377289376,0.4738461538461538,0.3747252747252747
6.308665082004154,1.5577289377289376,0.4738461538461538,0.3747252747252747
6.310821488004876,1.5577289377289376,0.4738461538461538,0.3747252747252747
6.311646217000089,1.5577289377289376,0.4738461538461538,0.3747252747252747
6.313982627005316,1.5577289377289376,0.4738461538461538,0.3747252747252747
6.314144649004447,1.5577289377289376,0.4738461538461538,0.3747252747252747
6.31898329500109,1.5577289377289376,0.4738461538461538,0.3747252747252747
6.319174419004412,1.5577289377289376,0.4738461538461538,0.3747252747252747
6.323983067006338,1.5577289377289376,0.4738461538461538,0.3747252747252747
6.324102216000028,1.5577289377289376,0.4738461538461538,0.3747252747252747
6.329011258007085,1.5577289377289376,0.4738461538461538,0.3747252747252747
6.333152606006479,1.5577289377289376,0.4738461538461538,0.3747252747252747
6.33592694800609,1.5577289377289376,0.4738461538461538,0.3747252747252747
6.339443880002364,1.5577289377289376,0.4738461538461538,0.3747252747252747
6.339713846005907,1.5577289377289376,0.4738461538461538,0.3747252747252747
6.344482098000299,1.5577289377289376,0.4738461538461538,0.3747252747252747
6.344573289003165,1.5577289377289376,0.4738461538461538,0.3747252747252747
6.349343013003818,1.5577289377289376,0.4738461538461538,0.3747252747252747
6.349464866005292,1.5577289377289376,0.4738461538461538,0.3747252747252747
6.354272864002269,1.5577289377289376,0.4738461538461538,0.3747252747252747
6.359733191005944,1.5577289377289376,0.4738461538461538,0.3747252747252747
6.360715145005088,1.5577289377289376,0.4738461538461538,0.3747252747252747
6.361653085004946,1.5577289377289376,0.4738461538461538,0.3747252747252747
6.363200409003184,1.5577289377289376,0.4738461538461538,0.3747252747252747
6.367643286001112,1.5577289377289376,0.4738461538461538,0.3747252747252747
6.369211336001172,1.5577289377289376,0.4738461538461538,0.3747252747252747
6.373630545000196,1.5577289377289376,0.4738461538461538,0.3747252747252747
6.374506572006794,1.5577289377289376,0.4738461538461538,0.3747252747252747
6.37594797800557,1.5577289377289376,0.4738461538461538,0.3747252747252747
6.380040917007136,0.4802930402930403,0.6317948717948718,0.4005128205128205
