time,emg1,emg2,emg3
0.012678790000791196,1.4078388278388276,2.526373626373626,0.1821245421245421
0.031813271998544224,1.4078388278388276,2.526373626373626,0.1821245421245421
0.04342072700092103,1.4078388278388276,2.526373626373626,0.1821245421245421
0.05189968299964676,0.36827838827838827,2.5521611721611723,1.6205860805860803
0.05789276200084714,0.36827838827838827,2.5521611721611723,1.6205860805860803
0.06240288100525504,2.1186080586080585,3.3,1.1983150183150182
0.06273930000315886,2.1186080586080585,3.3,1.1983150183150182
0.06812104800337693,2.1186080586080585,3.3,1.1983150183150182
0.06916479200299364,2.1186080586080585,3.3,1.1983150183150182
0.07018695900478633,2.1186080586080585,3.3,1.1983150183150182
0.07115355400310364,2.1186080586080585,3.3,1.1983150183150182
0.07215423500019824,2.1186080586080585,3.3,1.1983150183150182
0.07253032500011614,2.1186080586080585,3.3,1.1983150183150182
0.07771864800452022,2.1186080586080585,3.3,1.1983150183150182
0.08107777300028829,2.1186080586080585,3.3,1.1983150183150182
0.08134017900010804,2.1186080586080585,3.3,1.1983150183150182
0.08635553299973253,2.1186080586080585,3.3,1.1983150183150182
0.09252976700372528,2.1186080586080585,3.3,1.1983150183150182
0.09715980400505941,3.2290842490842486,2.5964835164835165,1.3353113553113554
0.10286695200193208,3.2290842490842486,2.5964835164835165,1.3353113553113554
0.10306222100189188,1.3562637362637362,2.5441025641025643,1.8405860805860805
0.10778056699928129,1.3562637362637362,2.5441025641025643,1.8405860805860805
0.11332691999996314,3.3,2.8551648351648353,2.5715018315018314
0.11489301300025545,2.6682051282051282,2.797142857142857,0.3449084249084249
0.1186809569990146,2.6682051282051282,2.797142857142857,0.3449084249084249
0.12385351400007494,2.6682051282051282,2.797142857142857,0.3449084249084249
0.1275194879999617,2.6682051282051282,2.797142857142857,0.3449084249084249
0.13277339200431015,2.6682051282051282,2.797142857142857,0.3449084249084249
0.13599071700446075,2.6682051282051282,2.797142857142857,0.3449084249084249
0.13752441800170345,2.6682051282051282,2.797142857142857,0.3449084249084249
0.1420205899994471,2.6682051282051282,2.797142857142857,0.3449084249084249
0.14322935700329253,2.6682051282051282,2.797142857142857,0.3449084249084249
0.14348812400567112,2.6682051282051282,2.797142857142857,0.3449084249084249
0.15224229500017827,2.6682051282051282,2.797142857142857,0.3449084249084249
0.1574708680054755,3.3,2.768131868131868,2.5787545787545785
0.15906802500103367,3.3,2.768131868131868,2.5787545787545785
0.16286029400362168,3.3,2.768131868131868,2.5787545787545785
0.16847692499868572,2.713333333333333,2.3087912087912086,1.963076923076923
0.1696852029999718,2.713333333333333,2.3087912087912086,1.963076923076923
0.16994043500017142,2.713333333333333,2.3087912087912086,1.963076923076923
0.17831577800097875,2.713333333333333,2.3087912087912086,1.963076923076923
0.18536265100556193,2.713333333333333,2.3087912087912086,1.963076923076923
0.18872786100109806,2.713333333333333,2.3087912087912086,1.963076923076923
0.18969722900510533,2.713333333333333,2.3087912087912086,1.963076923076923
0.19004980599856935,2.713333333333333,2.3087912087912086,1.963076923076923
0.19523694300005445,2.713333333333333,2.3087912087912086,1.963076923076923
0.1989482900025905,2.713333333333333,2.3087912087912086,1.963076923076923
0.20863015500071924,2.713333333333333,2.3087912087912086,1.963076923076923
0.21618882100301562,2.713333333333333,2.3087912087912086,1.963076923076923
0.2256114109986811,3.3,2.194358974358974,0.29010989010989013
0.23142640000151005,3.3,2.194358974358974,0.29010989010989013
0.2417189430052531,2.6536996336996337,2.237069597069597,0.11443223443223444
0.24832247399899643,2.6536996336996337,2.237069597069597,0.11443223443223444
0.25217253300070297,2.6536996336996337,2.237069597069597,0.11443223443223444
0.25698734800243983,2.967179487179487,2.399047619047619,0.5947252747252747
0.26185643800272373,2.967179487179487,2.399047619047619,0.5947252747252747
0.26571703100489685,2.693992673992674,2.556996336996337,3.3
0.2695429349987535,2.693992673992674,2.556996336996337,3.3
0.2807484600052703,2.693992673992674,2.556996336996337,3.3
0.28594273600174347,1.2724542124542124,2.5424908424908423,1.7535531135531135
0.2914719830005197,1.2724542124542124,2.5424908424908423,1.7535531135531135
0.29159073900518706,2.6843223443223443,3.3,0.5487912087912087
0.29655404799996177,2.6843223443223443,3.3,0.5487912087912087
0.300531453001895,2.6843223443223443,3.3,0.5487912087912087
0.3068377210001927,2.415164835164835,2.5715018315018314,3.3
0.31030423199990764,2.415164835164835,2.5715018315018314,3.3
0.31054715999925975,2.415164835164835,2.5715018315018314,3.3
0.3165967540044221,2.415164835164835,2.5715018315018314,3.3
0.32262169800378615,0.3352380952380952,2.5723076923076924,2.448205128205128
0.32818725000106497,0.3352380952380952,2.5723076923076924,2.448205128205128
0.32838173400523374,0.3352380952380952,2.5723076923076924,2.448205128205128
0.3331509580020793,0.3352380952380952,2.5723076923076924,2.448205128205128
0.3332943060013349,3.008278388278388,2.4038827838827834,0.5544322344322344
0.34047916200506734,3.008278388278388,2.4038827838827834,0.5544322344322344
0.34485905800102046,3.008278388278388,2.4038827838827834,0.5544322344322344
0.345912335003959,3.008278388278388,2.4038827838827834,0.5544322344322344
0.34624509300192585,3.008278388278388,2.4038827838827834,0.5544322344322344
0.3507509920018492,3.008278388278388,2.4038827838827834,0.5544322344322344
0.3510969120034133,3.008278388278388,2.4038827838827834,0.5544322344322344
0.3587926489999518,3.008278388278388,2.4038827838827834,0.5544322344322344
0.3629036320053274,3.008278388278388,2.4038827838827834,0.5544322344322344
0.36610395000025164,3.008278388278388,2.4038827838827834,0.5544322344322344
0.367807389004156,3.3,2.826153846153846,2.5787545787545785
0.37225959100032924,3.3,2.826153846153846,2.5787545787545785
0.37253904600220267,1.8937728937728935,2.5505494505494504,1.6947252747252746
0.3779382050051936,1.8937728937728935,2.5505494505494504,1.6947252747252746
0.3796724260027986,1.8937728937728935,2.5505494505494504,1.6947252747252746
0.38217769100447185,1.353040293040293,2.548937728937729,2.024322344322344
0.3823467280017212,1.353040293040293,2.548937728937729,2.024322344322344
0.3877639950005687,1.353040293040293,2.548937728937729,2.024322344322344
0.3906147950037848,1.353040293040293,2.548937728937729,2.024322344322344
0.3923635259998264,2.6649816849816848,0.8034432234432234,1.3377289377289376
0.3955625529997633,2.6649816849816848,0.8034432234432234,1.3377289377289376
0.3964455020031892,2.6649816849816848,0.8034432234432234,1.3377289377289376
0.3980866730053094,0.3747252747252747,2.581172161172161,3.3
0.4021456530026626,1.0967765567765566,3.3,1.6133333333333333
0.40731494100327836,2.297509157509157,2.56989010989011,3.175897435897436
0.410513233000529,2.297509157509157,2.56989010989011,3.175897435897436
0.410756974000833,2.297509157509157,2.56989010989011,3.175897435897436
0.415443359001074,2.297509157509157,2.56989010989011,3.175897435897436
0.41561349700350547,1.5343589743589743,3.3,1.7245421245421246
0.42138112900283886,1.5343589743589743,3.3,1.7245421245421246
0.4216666400025133,2.5424908424908423,2.573113553113553,3.3
0.42879619000450475,2.5424908424908423,2.573113553113553,3.3
0.4337896670040209,2.6762637362637363,3.3,0.6769230769230768
0.44248415600304725,3.1130402930402927,2.1315018315018315,0.13377289377289378
0.45045471499906853,0.2917216117216117,3.3,1.2563369963369961
0.45920045600360027,0.2917216117216117,3.3,1.2563369963369961
0.4659444330027327,2.281391941391941,2.9816849816849818,1.0685714285714285
0.4693016439996427,3.3,3.3,1.0427838827838827
0.4698268749998533,3.3,3.3,1.0427838827838827
0.4752662000028067,3.3,3.3,1.0427838827838827
0.4754572020028718,2.4747985347985346,2.5787545787545785,2.556996336996337
0.48041015100170625,2.4747985347985346,2.5787545787545785,2.556996336996337
0.48443979800504167,2.4747985347985346,2.5787545787545785,2.556996336996337
0.4900366380024934,2.4747985347985346,2.5787545787545785,2.556996336996337
0.4979991830041399,2.4747985347985346,2.5787545787545785,2.556996336996337
0.5047626180021325,2.4747985347985346,2.5787545787545785,2.556996336996337
0.511400704002881,2.4747985347985346,2.5787545787545785,2.556996336996337
0.5167334560028394,2.4747985347985346,2.5787545787545785,2.556996336996337
0.5169943900036742,2.4747985347985346,2.5787545787545785,2.556996336996337
0.5263410840052529,2.4747985347985346,2.5787545787545785,2.556996336996337
0.5323226300024544,2.4747985347985346,2.5787545787545785,2.556996336996337
0.5365345930040348,2.149230769230769,3.3,0.6753113553113552
0.5410321119998116,2.149230769230769,3.3,0.6753113553113552
0.5518358210028964,2.149230769230769,3.3,0.6753113553113552
0.5617286670021713,2.149230769230769,3.3,0.6753113553113552
0.5699703970021801,2.149230769230769,3.3,0.6753113553113552
0.5784903820022009,2.149230769230769,3.3,0.6753113553113552
0.5854690250052954,2.149230769230769,3.3,0.6753113553113552
0.591832260004594,2.149230769230769,3.3,0.6753113553113552
0.5966809759993339,2.149230769230769,3.3,0.6753113553113552
0.5997803670034045,2.149230769230769,3.3,0.6753113553113552
0.6014547140002833,2.149230769230769,3.3,0.6753113553113552
0.6080411850052769,2.149230769230769,3.3,0.6753113553113552
0.6134677000009106,2.149230769230769,3.3,0.6753113553113552
0.613738819003629,1.5625641025641024,2.5513553113553114,1.826080586080586
0.618615879000572,1.5625641025641024,2.5513553113553114,1.826080586080586
0.6258945080044214,1.5625641025641024,2.5513553113553114,1.826080586080586
0.6299471300008008,1.5625641025641024,2.5513553113553114,1.826080586080586
0.6338603230033186,1.5625641025641024,2.5513553113553114,1.826080586080586
0.6376674140046816,1.5625641025641024,2.5513553113553114,1.826080586080586
0.6427611580002122,1.5625641025641024,2.5513553113553114,1.826080586080586
0.6461206780004431,1.5625641025641024,2.5513553113553114,1.826080586080586
0.6464431440035696,1.5625641025641024,2.5513553113553114,1.826080586080586
0.6511245100045926,1.5625641025641024,2.5513553113553114,1.826080586080586
0.6513587510053185,1.5625641025641024,2.5513553113553114,1.826080586080586
0.657402055003331,1.5625641025641024,2.5513553113553114,1.826080586080586
0.6622486070045852,1.5625641025641024,2.5513553113553114,1.826080586080586
0.6662839089985937,2.0734798534798533,2.561025641025641,2.5666666666666664
0.6687166720003006,2.6577289377289377,3.3,1.452161172161172
0.6690650400050799,2.6577289377289377,3.3,1.452161172161172
0.6757758390012896,2.6577289377289377,3.3,1.452161172161172
0.6812555880023865,2.6577289377289377,3.3,1.452161172161172
0.6815189120025025,2.6577289377289377,3.3,1.452161172161172
0.6865299070050241,2.6577289377289377,3.3,1.452161172161172
0.6928650160043617,2.6625641025641027,2.2797802197802195,2.3676190476190473
0.6969560620054835,2.6585347985347987,2.697216117216117,0.1386080586080586
0.7000687079998897,2.6585347985347987,2.697216117216117,0.1386080586080586
0.7025078119986574,2.6585347985347987,2.697216117216117,0.1386080586080586
0.7131139850025647,2.6585347985347987,2.697216117216117,0.1386080586080586
0.7185419050001656,2.6585347985347987,2.697216117216117,0.1386080586080586
0.7217370250000386,2.6585347985347987,2.697216117216117,0.1386080586080586
0.7221958700029063,2.6585347985347987,2.697216117216117,0.1386080586080586
0.7269739600014873,2.6585347985347987,2.697216117216117,0.1386080586080586
0.7323091060025035,2.6585347985347987,2.697216117216117,0.1386080586080586
0.7339061450038571,2.6585347985347987,2.697216117216117,0.1386080586080586
0.7408368079995853,2.6585347985347987,2.697216117216117,0.1386080586080586
0.7444004780045361,1.2257142857142858,2.5424908424908423,1.85025641025641
0.744533686003706,2.689157509157509,3.051794871794872,1.863150183150183
0.7501757540012477,2.689157509157509,3.051794871794872,1.863150183150183
0.7510856040025828,2.689157509157509,3.051794871794872,1.863150183150183
0.7519948070039391,1.411062271062271,2.552967032967033,1.8768498168498167
0.7543735780054703,1.411062271062271,2.552967032967033,1.8768498168498167
0.7607847059989581,1.411062271062271,2.552967032967033,1.8768498168498167
0.7649119179986883,1.411062271062271,2.552967032967033,1.8768498168498167
0.7681169070056058,1.411062271062271,2.552967032967033,1.8768498168498167
0.7691156110013253,1.411062271062271,2.552967032967033,1.8768498168498167
0.7709351080047782,1.411062271062271,2.552967032967033,1.8768498168498167
0.7737718030039105,1.411062271062271,2.552967032967033,1.8768498168498167
0.7762204540049424,1.411062271062271,2.552967032967033,1.8768498168498167
0.7817288010046468,1.411062271062271,2.552967032967033,1.8768498168498167
0.7829233010052121,2.6778754578754578,2.5634432234432234,3.3
0.7832106569985626,2.6778754578754578,2.5634432234432234,3.3
0.7897400120054954,2.9115750915750915,2.496556776556776,1.0975824175824174
0.7946450890012784,2.9115750915750915,2.496556776556776,1.0975824175824174
0.7977969350031344,2.2233699633699633,3.3,1.0290842490842491
0.799523390000104,2.2233699633699633,3.3,1.0290842490842491
0.8031879219997791,2.2233699633699633,3.3,1.0290842490842491
0.8102907430002233,2.2233699633699633,3.3,1.0290842490842491
0.8149601449986221,2.2233699633699633,3.3,1.0290842490842491
0.8151963839991367,2.2233699633699633,3.3,1.0290842490842491
0.8216986730039935,2.2233699633699633,3.3,1.0290842490842491
0.8266219030047068,2.2233699633699633,3.3,1.0290842490842491
0.8297392669992405,2.2233699633699633,3.3,1.0290842490842491
0.8313990000024205,2.2233699633699633,3.3,1.0290842490842491
0.8372553160006646,2.2233699633699633,3.3,1.0290842490842491
0.84434878200409,1.070989010989011,3.3,1.5649816849816849
0.8489379220045521,1.070989010989011,3.3,1.5649816849816849
0.8491942160035251,1.070989010989011,3.3,1.5649816849816849
0.857394964004925,1.070989010989011,3.3,1.5649816849816849
0.8635782710043713,1.070989010989011,3.3,1.5649816849816849
0.8691293430019869,1.070989010989011,3.3,1.5649816849816849
0.8692752100032521,1.070989010989011,3.3,1.5649816849816849
0.878670318001241,1.070989010989011,3.3,1.5649816849816849
0.8848919740048586,1.070989010989011,3.3,1.5649816849816849
0.8914894410045235,1.070989010989011,3.3,1.5649816849816849
0.896376128999691,3.3,3.3,0.7671794871794871
0.9052392020021216,2.723003663003663,2.56989010989011,0.7349450549450549
0.9211454079995747,2.723003663003663,2.56989010989011,0.7349450549450549
0.9364348310045898,2.723003663003663,2.56989010989011,0.7349450549450549
0.9368113430027734,2.644029304029304,2.577948717948718,2.5666666666666664
0.9482515499985311,1.7785347985347983,2.5715018315018314,1.0580952380952382
0.9584023940042243,2.6923809523809523,2.3764835164835163,2.5287912087912088
0.9712891439994564,2.6923809523809523,2.3764835164835163,2.5287912087912088
0.9806377670029178,2.6923809523809523,2.3764835164835163,2.5287912087912088
0.987041329004569,2.6923809523809523,2.3764835164835163,2.5287912087912088
0.9926769680023426,2.6923809523809523,2.3764835164835163,2.5287912087912088
1.0004379520032671,2.6923809523809523,2.3764835164835163,2.5287912087912088
1.0064384510042146,2.189523809523809,2.577948717948718,3.3
1.010781823999423,2.189523809523809,2.577948717948718,3.3
1.0117270530026872,2.189523809523809,2.577948717948718,3.3
1.0127046820052783,2.189523809523809,2.577948717948718,3.3
1.0136524170011398,2.189523809523809,2.577948717948718,3.3
1.0146288480027579,2.189523809523809,2.577948717948718,3.3
1.016340135000064,2.7584615384615385,2.577948717948718,2.5634432234432234
1.0196724670022377,2.7584615384615385,2.577948717948718,2.5634432234432234
1.019981559998996,2.7584615384615385,2.577948717948718,2.5634432234432234
1.0265388550033094,2.7584615384615385,2.577948717948718,2.5634432234432234
1.030641083001683,2.7584615384615385,2.577948717948718,2.5634432234432234
1.0336976149992552,2.7584615384615385,2.577948717948718,2.5634432234432234
1.0360473190012272,2.7584615384615385,2.577948717948718,2.5634432234432234
1.0362854890045128,2.7584615384615385,2.577948717948718,2.5634432234432234
1.0429843599995365,2.7584615384615385,2.577948717948718,2.5634432234432234
1.046990603004815,2.7584615384615385,2.577948717948718,2.5634432234432234
1.0511254130033194,2.7584615384615385,2.577948717948718,2.5634432234432234
1.0532082470017485,2.7584615384615385,2.577948717948718,2.5634432234432234
1.0542836180029553,2.7584615384615385,2.577948717948718,2.5634432234432234
1.0546093430020846,2.7584615384615385,2.577948717948718,2.5634432234432234
1.0600599500030512,2.7584615384615385,2.577948717948718,2.5634432234432234
1.0611404640003457,2.7584615384615385,2.577948717948718,2.5634432234432234
1.0614250479993643,2.7584615384615385,2.577948717948718,2.5634432234432234
1.0660619970003609,2.68996336996337,2.655311355311355,2.655311355311355
1.066272433999984,2.6609523809523807,3.3,1.7277655677655677
1.0714064249987132,2.6609523809523807,3.3,1.7277655677655677
1.0749362540009315,3.3,3.3,0.8389010989010988
1.0751105160015868,3.3,3.3,0.8389010989010988
1.0799266600006376,3.3,3.3,0.8389010989010988
1.0800581619987497,3.3,3.3,0.8389010989010988
1.0848315000039292,3.3,3.3,0.8389010989010988
1.090613783999288,2.6923809523809523,3.3,3.3
1.090739963001397,2.6923809523809523,3.3,3.3
1.0953207070051576,2.6923809523809523,3.3,3.3
1.0956850280053914,2.6923809523809523,3.3,3.3
1.1001593430046341,2.6923809523809523,3.3,3.3
1.1016986530012218,2.6923809523809523,3.3,3.3
1.1057107619999442,2.693992673992674,2.5602197802197804,2.763296703296703
1.1093934110031114,2.693992673992674,2.5602197802197804,2.763296703296703
1.1147804420033935,2.693992673992674,2.5602197802197804,2.763296703296703
1.1163369780042558,2.693992673992674,2.5602197802197804,2.763296703296703
1.1207076940045226,2.693992673992674,2.5602197802197804,2.763296703296703
1.122253614004876,2.693992673992674,2.5602197802197804,2.763296703296703
1.1266445459987153,2.693992673992674,2.5602197802197804,2.763296703296703
1.127512311002647,2.693992673992674,2.5602197802197804,2.763296703296703
1.129713835005532,2.693992673992674,2.5602197802197804,2.763296703296703
1.13004803199874,2.693992673992674,2.5602197802197804,2.763296703296703
1.1344264799990924,2.693992673992674,2.5602197802197804,2.763296703296703
1.1360075660049915,2.693992673992674,2.5602197802197804,2.763296703296703
1.1405084050056757,2.693992673992674,2.5602197802197804,2.763296703296703
1.1407599119993392,2.693992673992674,2.5602197802197804,2.763296703296703
1.145482477004407,2.713333333333333,2.735897435897436,2.9228571428571426
1.145633676002035,2.713333333333333,2.735897435897436,2.9228571428571426
1.150281210000685,2.713333333333333,2.735897435897436,2.9228571428571426
1.150474401001702,2.6625641025641027,0.7728205128205128,1.7092307692307693
1.1560697489985614,1.2176556776556777,2.548937728937729,1.7567765567765568
1.1563186540006427,0.2087179487179487,2.569084249084249,2.225787545787546
1.1614254090018221,0.2087179487179487,2.569084249084249,2.225787545787546
1.167026358001749,0.2087179487179487,2.569084249084249,2.225787545787546
1.167286285002774,3.0203663003663,3.1388278388278383,1.1797802197802196
1.174533297002199,3.0203663003663,3.1388278388278383,1.1797802197802196
1.1829089110033237,3.3,3.3,1.0782417582417583
1.1905371500033652,2.7117216117216114,2.5553846153846154,3.3
1.1949219410016667,2.7117216117216114,2.5553846153846154,3.3
1.1959995420038467,2.7117216117216114,2.5553846153846154,3.3
1.1963858310045907,2.7117216117216114,2.5553846153846154,3.3
1.2014316220011096,2.7117216117216114,2.5553846153846154,3.3
1.2057442799996352,2.693992673992674,3.3,3.3
1.2061201260003145,2.693992673992674,3.3,3.3
1.2114039240041166,2.693992673992674,3.3,3.3
1.2137816380054574,2.693992673992674,3.3,3.3
1.2139094099984504,2.693992673992674,3.3,3.3
1.2198895280016586,2.693992673992674,3.3,3.3
1.2243485910003074,2.6762637362637363,2.5747252747252745,3.3
1.225885380001273,2.7117216117216114,2.444175824175824,2.8027838827838827
1.2296761610050453,2.7117216117216114,2.444175824175824,2.8027838827838827
1.2348936870039324,2.7117216117216114,2.444175824175824,2.8027838827838827
1.2380453520017909,2.7117216117216114,2.444175824175824,2.8027838827838827
1.2396390900030383,1.8293040293040292,2.553772893772894,2.4345054945054945
1.2433899820025545,1.8293040293040292,2.553772893772894,2.4345054945054945
1.248762634000741,3.0566300366300365,3.3,1.4183150183150184
1.250314889002766,3.0566300366300365,3.3,1.4183150183150184
1.2548007310033427,3.0566300366300365,3.3,1.4183150183150184
1.2551075250012218,3.0566300366300365,3.3,1.4183150183150184
1.2595932120020734,0.26109890109890105,2.5473260073260073,1.4698901098901098
1.261228977004066,0.26109890109890105,2.5473260073260073,1.4698901098901098
1.264682465000078,0.26109890109890105,2.5473260073260073,1.4698901098901098
1.2648897340041003,0.26109890109890105,2.5473260073260073,1.4698901098901098
1.2697460100025637,0.26109890109890105,2.5473260073260073,1.4698901098901098
1.2745462329985457,2.6585347985347987,3.3,2.7786080586080586
1.2747462810002617,2.6585347985347987,3.3,2.7786080586080586
1.2794440790021326,2.6585347985347987,3.3,2.7786080586080586
1.2796242740005255,2.6585347985347987,3.3,2.7786080586080586
1.2844127909993404,2.6585347985347987,3.3,2.7786080586080586
1.284546829003375,2.6585347985347987,3.3,2.7786080586080586
1.2892354840005282,2.6585347985347987,3.3,2.7786080586080586
1.2894164040044416,2.6545054945054947,3.137216117216117,0.3972893772893773
1.2943975660018623,2.6545054945054947,3.137216117216117,0.3972893772893773
1.2988140050001675,2.6545054945054947,3.137216117216117,0.3972893772893773
1.2997019320027903,2.6545054945054947,3.137216117216117,0.3972893772893773
1.3012069300020812,2.6545054945054947,3.137216117216117,0.3972893772893773
1.306099607005308,2.6545054945054947,3.137216117216117,0.3972893772893773
1.3109068190024118,2.6714285714285713,3.3,1.8945787545787542
1.3110423640027875,2.6714285714285713,3.3,1.8945787545787542
1.3157299279992003,2.6714285714285713,3.3,1.8945787545787542
1.315874336003617,2.6714285714285713,3.3,1.8945787545787542
1.319998201004637,2.6714285714285713,3.3,1.8945787545787542
1.3227991690000636,2.6714285714285713,3.3,1.8945787545787542
1.3263615340038086,2.6617582417582417,3.3,1.5875457875457875
1.326568156000576,2.6617582417582417,3.3,1.5875457875457875
1.3307237760018324,2.6617582417582417,3.3,1.5875457875457875
1.3342680950008798,2.6617582417582417,3.3,1.5875457875457875
1.3344080320021021,2.4796336996336996,2.9454212454212456,0.9114285714285715
1.3391175959986867,2.4796336996336996,2.9454212454212456,0.9114285714285715
1.3392911910050316,2.4796336996336996,2.9454212454212456,0.9114285714285715
1.3440022479990148,2.9776556776556777,2.5908424908424905,3.3
1.344158519001212,2.9776556776556777,2.5908424908424905,3.3
1.3489218739996431,2.9776556776556777,2.5908424908424905,3.3
1.3490428320001229,2.655311355311355,3.3,2.9736263736263737
1.3540819219997502,2.655311355311355,3.3,2.9736263736263737
1.3589274850019137,2.655311355311355,3.3,2.9736263736263737
1.3636487490002764,2.655311355311355,3.3,2.9736263736263737
1.3690719650039682,2.655311355311355,3.3,2.9736263736263737
1.3714538089989219,2.655311355311355,3.3,2.9736263736263737
1.3715776210010517,2.655311355311355,3.3,2.9736263736263737
1.3760047790055978,2.655311355311355,3.3,2.9736263736263737
1.377580147003755,1.9622710622710622,2.5521611721611723,1.7583882783882783
1.381311793003988,1.2587545787545786,3.3,1.4134798534798534
1.3865971820050618,1.2587545787545786,3.3,1.4134798534798534
1.389976161000959,1.2587545787545786,3.3,1.4134798534798534
1.3902356649996364,1.2587545787545786,3.3,1.4134798534798534
1.3946969200042076,1.2587545787545786,3.3,1.4134798534798534
1.3955324269991252,1.2587545787545786,3.3,1.4134798534798534
1.3971462230038014,1.2587545787545786,3.3,1.4134798534798534
1.401496001999476,1.2587545787545786,3.3,1.4134798534798534
1.4025054529993213,1.2587545787545786,3.3,1.4134798534798534
1.4034306800022023,1.2587545787545786,3.3,1.4134798534798534
1.4049919730023248,1.2587545787545786,3.3,1.4134798534798534
1.4096603100042557,1.2587545787545786,3.3,1.4134798534798534
1.4098395860055462,1.2587545787545786,3.3,1.4134798534798534
1.4145186790046864,1.2587545787545786,3.3,1.4134798534798534
1.4147082620038418,1.2587545787545786,3.3,1.4134798534798534
1.4194684860049165,1.2587545787545786,3.3,1.4134798534798534
1.4195809420052683,1.2587545787545786,3.3,1.4134798534798534
1.4244777700005216,1.2587545787545786,3.3,1.4134798534798534
1.4290795030028676,1.2587545787545786,3.3,1.4134798534798534
1.4293585949999397,1.2587545787545786,3.3,1.4134798534798534
1.434083792999445,1.2587545787545786,3.3,1.4134798534798534
1.4342712190045859,3.1388278388278383,2.250769230769231,0.11846153846153845
1.4389426269990508,3.1388278388278383,2.250769230769231,0.11846153846153845
1.439150119003898,3.1388278388278383,2.250769230769231,0.11846153846153845
1.4437066910031717,3.1388278388278383,2.250769230769231,0.11846153846153845
1.4440485919985804,3.1388278388278383,2.250769230769231,0.11846153846153845
1.4486050730047282,3.1388278388278383,2.250769230769231,0.11846153846153845
1.4489091620052932,3.1388278388278383,2.250769230769231,0.11846153846153845
1.454240220002248,3.1388278388278383,2.250769230769231,0.11846153846153845
1.4566915059986059,3.1388278388278383,2.250769230769231,0.11846153846153845
1.4623185169984936,3.1388278388278383,2.250769230769231,0.11846153846153845
1.463168021000456,3.1388278388278383,2.250769230769231,0.11846153846153845
1.464851055003237,3.1388278388278383,2.250769230769231,0.11846153846153845
1.4681392010024865,3.1388278388278383,2.250769230769231,0.11846153846153845
1.469065552999382,3.1388278388278383,2.250769230769231,0.11846153846153845
1.470760561998759,3.1388278388278383,2.250769230769231,0.11846153846153845
1.47328004600422,3.1388278388278383,2.250769230769231,0.11846153846153845
1.4734495090015116,3.1388278388278383,2.250769230769231,0.11846153846153845
1.478930957004195,3.1388278388278383,2.250769230769231,0.11846153846153845
1.4806403760012472,3.1388278388278383,2.250769230769231,0.11846153846153845
1.484669292003673,3.1388278388278383,2.250769230769231,0.11846153846153845
1.4885021980007878,2.664175824175824,3.3,1.859120879120879
1.4924343720049364,2.655311355311355,1.0266666666666666,1.00007326007326
1.4962000599989551,2.655311355311355,1.0266666666666666,1.00007326007326
1.5008577190019423,2.655311355311355,1.0266666666666666,1.00007326007326
1.5011050920002162,2.655311355311355,1.0266666666666666,1.00007326007326
1.5058290270026191,2.655311355311355,1.0266666666666666,1.00007326007326
1.5059402580009191,2.655311355311355,1.0266666666666666,1.00007326007326
1.5112945069995476,2.6569230769230767,3.3,3.2564835164835166
1.5135655050034984,2.655311355311355,2.44014652014652,0.18857142857142856
1.5138212390011176,2.655311355311355,2.44014652014652,0.18857142857142856
1.5192131500007235,2.655311355311355,2.44014652014652,0.18857142857142856
1.521556915002293,2.655311355311355,2.44014652014652,0.18857142857142856
1.5269962340025813,2.655311355311355,2.44014652014652,0.18857142857142856
1.5302754730000743,2.655311355311355,2.44014652014652,0.18857142857142856
1.5311648580027395,2.655311355311355,2.44014652014652,0.18857142857142856
1.532907859000261,2.655311355311355,2.44014652014652,0.18857142857142856
1.5360943350024172,2.655311355311355,2.44014652014652,0.18857142857142856
1.5376891570049338,2.655311355311355,2.44014652014652,0.18857142857142856
1.5416729420030606,2.655311355311355,2.44014652014652,0.18857142857142856
1.5462588139998843,2.655311355311355,2.44014652014652,0.18857142857142856
1.5465253650036175,2.655311355311355,2.44014652014652,0.18857142857142856
1.5518401360022835,2.655311355311355,2.44014652014652,0.18857142857142856
1.5543129889992997,1.502124542124542,2.5505494505494504,2.0090109890109886
1.5596929140010616,1.502124542124542,2.5505494505494504,2.0090109890109886
1.5615420270041795,1.502124542124542,2.5505494505494504,2.0090109890109886
1.5638803219990223,1.502124542124542,2.5505494505494504,2.0090109890109886
1.5641020960028982,1.502124542124542,2.5505494505494504,2.0090109890109886
1.568583487001888,1.502124542124542,2.5505494505494504,2.0090109890109886
1.5703524010023102,1.502124542124542,2.5505494505494504,2.0090109890109886
1.5736018890020205,1.502124542124542,2.5505494505494504,2.0090109890109886
1.5738902000011876,1.502124542124542,2.5505494505494504,2.0090109890109886
1.5793937240014202,1.502124542124542,2.5505494505494504,2.0090109890109886
1.5810790329996962,0.5286446886446886,0.9017582417582416,0.21597069597069596
1.584915680999984,0.5286446886446886,0.9017582417582416,0.21597069597069596
1.589478374000464,3.3,3.3,1.199120879120879
1.590308181999717,2.6617582417582417,0.4786813186813187,1.324029304029304
1.5919516810026835,2.6617582417582417,0.4786813186813187,1.324029304029304
1.59656674299913,2.6617582417582417,0.4786813186813187,1.324029304029304
1.5968362280036672,2.6617582417582417,0.4786813186813187,1.324029304029304
1.6016950490011368,2.6617582417582417,0.4786813186813187,1.324029304029304
1.606778272005613,2.6617582417582417,0.4786813186813187,1.324029304029304
1.6102217810039292,2.6617582417582417,0.4786813186813187,1.324029304029304
1.6110311510055908,2.6617582417582417,0.4786813186813187,1.324029304029304
1.613178161001997,2.6617582417582417,0.4786813186813187,1.324029304029304
1.6139414360004594,2.6617582417582417,0.4786813186813187,1.324029304029304
1.6162186799992924,2.6617582417582417,0.4786813186813187,1.324029304029304
1.6164742570035742,2.6617582417582417,0.4786813186813187,1.324029304029304
1.6213070020021405,2.6617582417582417,0.4786813186813187,1.324029304029304
1.6261804860041593,2.6617582417582417,0.4786813186813187,1.324029304029304
1.626317945003393,2.673040293040293,3.1484981684981683,2.5295970695970698
1.6314908979984466,2.673040293040293,3.1484981684981683,2.5295970695970698
1.6344640770039405,2.673040293040293,3.1484981684981683,2.5295970695970698
1.6367744770032004,2.673040293040293,3.1484981684981683,2.5295970695970698
1.6370522380020702,2.673040293040293,3.1484981684981683,2.5295970695970698
1.64163057100086,2.673040293040293,3.1484981684981683,2.5295970695970698
1.6418846460001078,2.673040293040293,3.1484981684981683,2.5295970695970698
1.6471847030043136,2.673040293040293,3.1484981684981683,2.5295970695970698
1.6493136380013311,2.8712820512820514,2.540879120879121,2.0807326007326004
1.6501595990048372,2.8712820512820514,2.540879120879121,2.0807326007326004
1.6522471760035842,2.8712820512820514,2.540879120879121,2.0807326007326004
1.653659603005508,2.8712820512820514,2.540879120879121,2.0807326007326004
1.6578462260004017,2.8712820512820514,2.540879120879121,2.0807326007326004
1.660022967000259,0.5600732600732601,1.1862271062271061,0.1805128205128205
1.6608482880037627,0.5600732600732601,1.1862271062271061,0.1805128205128205
1.6625484219985083,0.5600732600732601,1.1862271062271061,0.1805128205128205
1.6660822609992465,0.5600732600732601,1.1862271062271061,0.1805128205128205
1.6663678420009091,2.659340659340659,2.5747252747252745,3.3
1.6710941249984899,2.659340659340659,2.5747252747252745,3.3
1.67130140500376,2.659340659340659,2.5747252747252745,3.3
1.6754532100021606,2.659340659340659,2.5747252747252745,3.3
1.6789803420033422,0.5246153846153846,0.6495238095238095,0.2482051282051282
1.6792007710027974,0.5246153846153846,0.6495238095238095,0.2482051282051282
1.6842154539990588,0.5246153846153846,0.6495238095238095,0.2482051282051282
1.6883321150016855,0.5246153846153846,0.6495238095238095,0.2482051282051282
1.6918006970008719,0.5246153846153846,0.6495238095238095,0.2482051282051282
1.6920959190028952,3.3,3.3,0.6245421245421244
1.6967794400043203,3.3,3.3,0.6245421245421244
1.6970885379996616,3.3,3.3,0.6245421245421244
1.701845936004247,3.3,3.3,0.6245421245421244
1.702047778002452,3.3,3.3,0.6245421245421244
1.7061982939994778,3.3,3.3,0.6245421245421244
1.7095524950054823,3.3,3.3,0.6245421245421244
1.7097901340021053,3.3,3.3,0.697069597069597
1.7145882600016193,3.3,3.3,0.697069597069597
1.714844287998858,2.755238095238095,2.748791208791209,0.70996336996337
1.719590810003865,2.755238095238095,2.748791208791209,0.70996336996337
1.719696350999584,2.755238095238095,2.748791208791209,0.70996336996337
1.7244172630016692,2.755238095238095,2.748791208791209,0.70996336996337
1.7246169190038927,2.755238095238095,2.748791208791209,0.70996336996337
1.7294297170010395,2.755238095238095,2.748791208791209,0.70996336996337
1.7295346450046054,2.755238095238095,2.748791208791209,0.70996336996337
1.7343045590023394,2.755238095238095,2.748791208791209,0.70996336996337
1.7344604669997352,2.755238095238095,2.748791208791209,0.70996336996337
1.739665999004501,2.755238095238095,2.748791208791209,0.70996336996337
1.7447697829993558,1.913919413919414,2.557802197802198,2.54974358974359
1.746543995999673,3.3,2.772161172161172,2.5787545787545785
1.749534105998464,3.3,2.772161172161172,2.5787545787545785
1.7526184570015175,2.6617582417582417,1.858315018315018,0.5802197802197803
1.7549568590038689,1.220879120879121,2.5521611721611723,2.05010989010989
1.755192349999561,1.220879120879121,2.5521611721611723,2.05010989010989
1.7596956019988284,1.220879120879121,2.5521611721611723,2.05010989010989
1.7605268430052092,1.220879120879121,2.5521611721611723,2.05010989010989
1.7620750179994502,1.220879120879121,2.5521611721611723,2.05010989010989
1.7661756099987542,1.220879120879121,2.5521611721611723,2.05010989010989
1.7690691239986336,1.220879120879121,2.5521611721611723,2.05010989010989
1.7724992319999728,2.66014652014652,0.801025641025641,1.1757509157509156
1.7727208370051812,2.66014652014652,0.801025641025641,1.1757509157509156
1.7775215790024959,2.66014652014652,0.801025641025641,1.1757509157509156
1.777681803003361,0.5729670329670329,0.7776556776556776,0.3191208791208791
1.7824699490010971,0.5729670329670329,0.7776556776556776,0.3191208791208791
1.7826366549998056,0.5729670329670329,0.7776556776556776,0.3191208791208791
1.787501318998693,0.5729670329670329,0.7776556776556776,0.3191208791208791
1.792311162003898,2.6545054945054947,2.556996336996337,3.3
1.7924133080014144,2.958315018315018,2.6923809523809523,0.4254945054945055
1.7971442339985515,2.958315018315018,2.6923809523809523,0.4254945054945055
1.797346239000035,0.3731135531135531,2.087985347985348,0.5076923076923077
1.8021364490050473,0.3731135531135531,2.087985347985348,0.5076923076923077
1.8022497310012113,0.3731135531135531,2.087985347985348,0.5076923076923077
1.8069490620036959,0.3731135531135531,2.087985347985348,0.5076923076923077
1.807744099998672,0.3731135531135531,2.087985347985348,0.5076923076923077
1.8092746820038883,0.3731135531135531,2.087985347985348,0.5076923076923077
1.814099706003617,0.3731135531135531,2.087985347985348,0.5076923076923077
1.8143071860031341,2.9728205128205127,2.726227106227106,0.6575824175824176
1.819255296002666,2.9728205128205127,2.726227106227106,0.6575824175824176
1.8241381690022536,2.9728205128205127,2.726227106227106,0.6575824175824176
1.8289776250021532,3.3,2.8551648351648353,2.5795604395604395
1.8290947320056148,3.3,2.8551648351648353,2.5795604395604395
1.833889501001977,2.2838095238095235,2.5505494505494504,1.7559706959706958
1.8387165820022346,2.2838095238095235,2.5505494505494504,1.7559706959706958
1.8435909260006156,2.2838095238095235,2.5505494505494504,1.7559706959706958
1.8484172520038555,2.6923809523809523,2.5424908424908423,2.469157509157509
1.8485244770054123,2.6923809523809523,2.5424908424908423,2.469157509157509
1.8534196469991002,2.6923809523809523,2.5424908424908423,2.469157509157509
1.8575924559991108,2.428058608058608,2.916410256410256,0.9178754578754579
1.8603984260043944,1.1967032967032967,3.3,1.7406593406593407
1.8666371370054549,1.1967032967032967,3.3,1.7406593406593407
1.8721907200015266,1.1967032967032967,3.3,1.7406593406593407
1.8724750300025335,1.1967032967032967,3.3,1.7406593406593407
1.8806526100015617,1.535164835164835,2.5118681318681317,1.3594871794871795
1.8867342490048031,0.31750915750915754,2.5715018315018314,2.747179487179487
1.8895399750035722,0.31750915750915754,2.5715018315018314,2.747179487179487
1.8930264930022531,0.31750915750915754,2.5715018315018314,2.747179487179487
1.8938375010038726,1.4674725274725273,2.5441025641025643,1.4247619047619047
1.8953737320043729,1.4674725274725273,2.5441025641025643,1.4247619047619047
1.8996576249992358,0.42388278388278383,2.457069597069597,0.5649084249084249
1.9011634350026725,1.4118681318681316,2.541684981684982,2.0646153846153843
1.9054297780021443,1.4118681318681316,2.541684981684982,2.0646153846153843
1.907606412001769,1.4118681318681316,2.541684981684982,2.0646153846153843
1.9084193720045732,1.4118681318681316,2.541684981684982,2.0646153846153843
1.909966194005392,1.4118681318681316,2.541684981684982,2.0646153846153843
1.9141248570012976,1.4118681318681316,2.541684981684982,2.0646153846153843
1.9169488370025647,1.4118681318681316,2.541684981684982,2.0646153846153843
1.9204742389993044,1.4118681318681316,2.541684981684982,2.0646153846153843
1.920649614003196,1.9389010989010989,2.5602197802197804,2.6649816849816848
1.925455361000786,1.9389010989010989,2.5602197802197804,2.6649816849816848
1.9255741840024712,1.9389010989010989,2.5602197802197804,2.6649816849816848
1.930318940001598,1.9389010989010989,2.5602197802197804,2.6649816849816848
1.930517446999147,1.9389010989010989,2.5602197802197804,2.6649816849816848
1.9352851000003284,1.9389010989010989,2.5602197802197804,2.6649816849816848
1.9353974940022454,2.1226373626373625,3.074358974358974,1.1596336996336996
1.9395435230035218,2.1226373626373625,3.074358974358974,1.1596336996336996
1.9423373410027125,2.1226373626373625,3.074358974358974,1.1596336996336996
1.9458222630055388,2.1226373626373625,3.074358974358974,1.1596336996336996
1.9460939920027158,2.1226373626373625,3.074358974358974,1.1596336996336996
1.9508162740021362,2.1226373626373625,3.074358974358974,1.1596336996336996
1.9510439510049764,2.1226373626373625,3.074358974358974,1.1596336996336996
1.9563304699986475,2.1226373626373625,3.074358974358974,1.1596336996336996
1.9585717670051963,2.1226373626373625,3.074358974358974,1.1596336996336996
1.9588219650031533,2.1226373626373625,3.074358974358974,1.1596336996336996
1.9632066859994666,2.1226373626373625,3.074358974358974,1.1596336996336996
1.964709676001803,2.1226373626373625,3.074358974358974,1.1596336996336996
1.9690029400007916,2.1226373626373625,3.074358974358974,1.1596336996336996
1.971190682001179,3.3,3.3,0.7663736263736264
1.971994216000894,3.3,3.3,0.7663736263736264
1.974095698002202,3.3,3.3,0.7663736263736264
1.975532001000829,3.3,3.3,0.7663736263736264
1.9796470690052956,3.3,3.3,0.7663736263736264
1.982388306001667,3.3,3.3,0.7663736263736264
1.985886048998509,2.652087912087912,3.3,1.3538461538461537
1.9861554150047596,2.652087912087912,3.3,1.3538461538461537
1.9908863840028062,2.652087912087912,3.3,1.3538461538461537
1.9910491350019583,2.652087912087912,3.3,1.3538461538461537
1.9957703350009979,2.652087912087912,3.3,1.3538461538461537
2.000640521000605,2.652087912087912,3.3,1.3538461538461537
2.0054818390053697,2.0484981684981682,2.5634432234432234,2.963150183150183
2.005600472999504,2.0484981684981682,2.5634432234432234,2.963150183150183
2.0104460360016674,2.6633699633699632,1.1693040293040293,2.0154578754578756
2.0153930490050698,3.1904029304029304,2.258827838827839,0.1112087912087912
2.020285929000238,3.1904029304029304,2.258827838827839,0.1112087912087912
2.0251038249989506,3.1904029304029304,2.258827838827839,0.1112087912087912
2.025282585003879,3.1904029304029304,2.258827838827839,0.1112087912087912
2.0300316830034717,3.1904029304029304,2.258827838827839,0.1112087912087912
2.0302218400029233,2.6617582417582417,0.7091575091575092,1.8695970695970694
2.0351267920050304,2.6617582417582417,0.7091575091575092,1.8695970695970694
2.0392573940043803,2.6617582417582417,0.7091575091575092,1.8695970695970694
2.042067340000358,2.6617582417582417,0.7091575091575092,1.8695970695970694
2.045567585999379,2.6617582417582417,0.7091575091575092,1.8695970695970694
2.0457948250041227,2.6617582417582417,0.7091575091575092,1.8695970695970694
2.0505386580043705,2.6617582417582417,0.7091575091575092,1.8695970695970694
2.0506973730007303,2.6617582417582417,0.7091575091575092,1.8695970695970694
2.055427683000744,2.6617582417582417,0.7091575091575092,1.8695970695970694
2.0555430040039937,2.6617582417582417,0.7091575091575092,1.8695970695970694
2.060279506004008,2.6617582417582417,0.7091575091575092,1.8695970695970694
2.0604118690025643,2.6617582417582417,0.7091575091575092,1.8695970695970694
2.065408700000262,2.6617582417582417,0.7091575091575092,1.8695970695970694
2.0703459639989887,2.655311355311355,3.3,1.232161172161172
2.074100975005422,3.287106227106227,2.0476923076923077,0.09912087912087912
2.0786959629986086,3.287106227106227,2.0476923076923077,0.09912087912087912
2.0789287130028242,3.287106227106227,2.0476923076923077,0.09912087912087912
2.084426411005552,3.287106227106227,2.0476923076923077,0.09912087912087912
2.085987300000852,3.287106227106227,2.0476923076923077,0.09912087912087912
2.0903548499991302,3.287106227106227,2.0476923076923077,0.09912087912087912
2.091840551001951,3.287106227106227,2.0476923076923077,0.09912087912087912
2.0959360990018467,3.287106227106227,2.0476923076923077,0.09912087912087912
2.099359189000097,1.7052014652014653,2.349084249084249,1.2668131868131869
2.099569304002216,1.7052014652014653,2.349084249084249,1.2668131868131869
2.1043344990030164,1.7052014652014653,2.349084249084249,1.2668131868131869
2.1044415830037906,1.7052014652014653,2.349084249084249,1.2668131868131869
2.1092300720047206,2.693992673992674,2.581172161172161,2.5586080586080584
2.1140293319986085,2.693992673992674,2.581172161172161,2.5586080586080584
2.11417844400421,2.693992673992674,2.581172161172161,2.5586080586080584
2.11900768000487,2.693992673992674,2.581172161172161,2.5586080586080584
2.1237092150040553,2.693992673992674,2.581172161172161,2.5586080586080584
2.1238745800001197,2.693992673992674,2.581172161172161,2.5586080586080584
2.1287252719994285,2.693992673992674,2.581172161172161,2.5586080586080584
2.1334681950029335,2.6714285714285713,1.514212454212454,0.5479853479853479
2.1337475850014016,2.6714285714285713,1.514212454212454,0.5479853479853479
2.138479699999152,2.6714285714285713,1.514212454212454,0.5479853479853479
2.1387362780005787,0.7244688644688644,3.2935531135531133,1.2893772893772892
2.1428084060025867,0.7244688644688644,3.2935531135531133,1.2893772893772892
2.146283931004291,0.7244688644688644,3.2935531135531133,1.2893772893772892
2.1470963770043454,0.7244688644688644,3.2935531135531133,1.2893772893772892
2.149280836005346,0.7244688644688644,3.2935531135531133,1.2893772893772892
2.1500550550044863,0.7244688644688644,3.2935531135531133,1.2893772893772892
2.1521750090032583,0.7244688644688644,3.2935531135531133,1.2893772893772892
2.15300609300175,1.6133333333333333,3.2645421245421247,1.3175824175824176
2.1551108050043695,1.6133333333333333,3.2645421245421247,1.3175824175824176
2.155960041003709,1.6133333333333333,3.2645421245421247,1.3175824175824176
2.1574956760014175,1.6133333333333333,3.2645421245421247,1.3175824175824176
2.1616657429985935,1.6133333333333333,3.2645421245421247,1.3175824175824176
2.164000233002298,1.6133333333333333,3.2645421245421247,1.3175824175824176
2.164257178999833,1.6133333333333333,3.2645421245421247,1.3175824175824176
2.1692262590004248,1.6133333333333333,3.2645421245421247,1.3175824175824176
2.173790329004987,1.6133333333333333,3.2645421245421247,1.3175824175824176
2.1739957829995546,1.6133333333333333,3.2645421245421247,1.3175824175824176
2.179398749001848,1.6133333333333333,3.2645421245421247,1.3175824175824176
2.18167849600286,1.6133333333333333,3.2645421245421247,1.3175824175824176
2.181883777004259,1.6133333333333333,3.2645421245421247,1.3175824175824176
2.187417853005172,1.6133333333333333,3.2645421245421247,1.3175824175824176
2.188956515004975,1.6133333333333333,3.2645421245421247,1.3175824175824176
2.1933391819984536,1.6133333333333333,3.2645421245421247,1.3175824175824176
2.194811690998904,1.6133333333333333,3.2645421245421247,1.3175824175824176
2.199074809002923,1.6133333333333333,3.2645421245421247,1.3175824175824176
2.2022029260042473,1.6133333333333333,3.2645421245421247,1.3175824175824176
2.2030677540024044,2.713333333333333,3.3,3.3
2.2052158290025545,2.713333333333333,3.3,3.3
2.2060523710024427,2.713333333333333,3.3,3.3
2.2075138360014535,2.713333333333333,3.3,3.3
2.2116348589988775,2.713333333333333,3.3,3.3
2.2145517009994364,2.104102564102564,3.0695238095238095,1.1104761904761904
2.217410902005213,2.104102564102564,3.0695238095238095,1.1104761904761904
2.2208784550020937,2.104102564102564,3.0695238095238095,1.1104761904761904
2.2211444130007294,2.104102564102564,3.0695238095238095,1.1104761904761904
2.225967910999316,2.690769230769231,2.432893772893773,2.2886446886446885
2.226095479003561,2.673040293040293,2.9099633699633696,2.6569230769230767
2.230867288002628,2.673040293040293,2.9099633699633696,2.6569230769230767
2.2357098659995245,2.673040293040293,2.9099633699633696,2.6569230769230767
2.2405130750048556,2.1266666666666665,3.3,1.124981684981685
2.2407030969989137,2.693992673992674,3.3,3.3
2.245479483004601,2.693992673992674,3.3,3.3
2.2455968850044883,2.6682051282051282,2.5586080586080584,3.3
2.2497589620033978,2.6682051282051282,2.5586080586080584,3.3
2.252542144000472,2.6682051282051282,2.5586080586080584,3.3
2.256052434000594,2.6682051282051282,2.5586080586080584,3.3
2.256291493999015,2.6682051282051282,2.5586080586080584,3.3
2.2610385680018226,2.6682051282051282,2.5586080586080584,3.3
2.2611591380045866,2.693992673992674,3.3,3.3
2.2661829630014836,2.693992673992674,3.3,3.3
2.2704151020006975,2.693992673992674,3.3,3.3
2.271939497004496,2.693992673992674,3.3,3.3
2.2767683710044366,2.693992673992674,3.3,3.3
2.281671507000283,2.693992673992674,3.3,3.3
2.285864858000423,2.693992673992674,3.3,3.3
2.2881101060047513,2.693992673992674,3.3,3.3
2.2889471650050837,2.693992673992674,3.3,3.3
2.2904673810044187,2.693992673992674,3.3,3.3
2.2947322920008446,2.693992673992674,3.3,3.3
2.2968684299994493,2.693992673992674,3.3,3.3
2.29780259400286,2.693992673992674,3.3,3.3
2.299287459005427,2.693992673992674,3.3,3.3
2.3035770740025328,2.693992673992674,3.3,3.3
2.3063476989991614,2.690769230769231,2.6875457875457873,2.174212454212454
2.3098209210002096,2.690769230769231,2.6875457875457873,2.174212454212454
2.310095166998508,2.690769230769231,2.6875457875457873,2.174212454212454
2.3147876290022396,2.690769230769231,2.6875457875457873,2.174212454212454
2.3149596709990874,2.690769230769231,2.6875457875457873,2.174212454212454
2.319785496001714,2.690769230769231,2.6875457875457873,2.174212454212454
2.3246693250039243,2.690769230769231,2.6875457875457873,2.174212454212454
2.32483586500166,2.690769230769231,2.6875457875457873,2.174212454212454
2.3298043540053186,2.690769230769231,2.6875457875457873,2.174212454212454
2.334224682999775,2.690769230769231,2.6875457875457873,2.174212454212454
2.3352446729986696,2.690769230769231,2.6875457875457873,2.174212454212454
2.3361002480014577,2.690769230769231,2.6875457875457873,2.174212454212454
2.337759295005526,2.690769230769231,2.6875457875457873,2.174212454212454
2.340966442003264,2.690769230769231,2.6875457875457873,2.174212454212454
2.343410526002117,2.690769230769231,2.6875457875457873,2.174212454212454
2.348617177005508,2.690769230769231,2.6875457875457873,2.174212454212454
2.351774722999835,2.690769230769231,2.6875457875457873,2.174212454212454
2.353420283005107,2.690769230769231,2.6875457875457873,2.174212454212454
2.356606567998824,2.690769230769231,2.6875457875457873,2.174212454212454
2.3581649940024363,0.9662271062271062,3.3,1.4344322344322344
2.362985309002397,0.9662271062271062,3.3,1.4344322344322344
2.367620982004155,0.9662271062271062,3.3,1.4344322344322344
2.3677919410038157,2.673040293040293,3.3,2.9405860805860806
2.372654153004987,2.673040293040293,3.3,2.9405860805860806
2.3769997720009997,2.673040293040293,3.3,2.9405860805860806
2.3785390929988353,2.673040293040293,3.3,2.9405860805860806
2.382701963004365,2.673040293040293,3.3,2.9405860805860806
2.384895013005007,2.673040293040293,3.3,2.9405860805860806
2.385790635002195,2.673040293040293,3.3,2.9405860805860806
2.3872154810014763,2.673040293040293,3.3,2.9405860805860806
2.392095506998885,2.673040293040293,3.3,2.9405860805860806
2.396243360999506,2.673040293040293,3.3,2.9405860805860806
2.3990780240055756,2.673040293040293,3.3,2.9405860805860806
2.402489746003994,2.673040293040293,3.3,2.9405860805860806
2.4032641730009345,2.673040293040293,3.3,2.9405860805860806
2.404793977002555,2.673040293040293,3.3,2.9405860805860806
2.408949060998566,2.673040293040293,3.3,2.9405860805860806
2.4117363170007593,2.673040293040293,3.3,2.9405860805860806
2.415552711005148,2.673040293040293,3.3,2.9405860805860806
2.419877637003083,2.673040293040293,3.3,2.9405860805860806
2.4214069939989713,2.9655677655677657,2.589230769230769,2.5521611721611723
2.4256191150052473,2.9655677655677657,2.589230769230769,2.5521611721611723
2.427744900000107,2.9655677655677657,2.589230769230769,2.5521611721611723
2.4285775770040345,2.9655677655677657,2.589230769230769,2.5521611721611723
2.4307085100008408,2.9655677655677657,2.589230769230769,2.5521611721611723
2.431526861000748,2.9655677655677657,2.589230769230769,2.5521611721611723
2.433056016001501,2.9655677655677657,2.589230769230769,2.5521611721611723
2.4378576170056476,1.5005128205128204,2.797142857142857,1.6987545787545786
2.438045430004422,1.6931135531135528,2.5545787545787544,2.2201465201465203
2.4428439600014826,1.6931135531135528,2.5545787545787544,2.2201465201465203
2.447775149004883,1.6931135531135528,2.5545787545787544,2.2201465201465203
2.4524691110054846,1.6931135531135528,2.5545787545787544,2.2201465201465203
2.45265255200502,1.6931135531135528,2.5545787545787544,2.2201465201465203
2.4568238089996157,1.6931135531135528,2.5545787545787544,2.2201465201465203
2.459737691002374,1.4787545787545788,2.5473260073260073,2.0742857142857143
2.462705673002347,3.3,2.736703296703297,2.54974358974359
2.4655365130020073,3.3,2.736703296703297,2.54974358974359
2.4690387029986596,2.27010989010989,2.5755311355311354,2.5594139194139194
2.4698180820050766,3.3,3.3,0.6753113553113552
2.4713793650007574,3.3,3.3,0.6753113553113552
2.4761910849993,3.3,3.3,0.6753113553113552
2.476343394999276,2.294285714285714,3.3,1.0959706959706959
2.481272593999165,2.294285714285714,3.3,1.0959706959706959
2.4853689130031853,2.6617582417582417,3.3,1.5464468864468863
2.4882281649988727,2.6617582417582417,3.3,1.5464468864468863
2.491752613001154,2.6617582417582417,3.3,1.5464468864468863
2.4919602240042877,2.6617582417582417,3.3,1.5464468864468863
2.496776840998791,2.6617582417582417,3.3,1.5464468864468863
2.5016291520005325,2.6617582417582417,3.3,1.5464468864468863
2.5017729610044626,2.6617582417582417,3.3,1.5464468864468863
2.506547340002726,2.6617582417582417,3.3,1.5464468864468863
2.5066973409993807,2.6617582417582417,3.3,1.5464468864468863
2.5114158490032423,2.652087912087912,2.1919413919413917,0.25465201465201465
2.511671094005578,2.652087912087912,2.1919413919413917,0.25465201465201465
2.5164141390050645,2.652087912087912,2.1919413919413917,0.25465201465201465
2.5165851620040485,0.2683516483516483,1.286959706959707,0.2917216117216117
2.521340049999708,0.2683516483516483,1.286959706959707,0.2917216117216117
2.5215594160035835,0.2683516483516483,1.286959706959707,0.2917216117216117
2.5264495110022835,0.2683516483516483,1.286959706959707,0.2917216117216117
2.53128548800305,2.6617582417582417,1.3328937728937729,1.9880586080586078
2.5314974460052326,2.6617582417582417,1.3328937728937729,1.9880586080586078
2.5362765430036234,2.6617582417582417,1.3328937728937729,1.9880586080586078
2.5410752210009377,2.6617582417582417,1.3328937728937729,1.9880586080586078
2.541241072001867,2.6617582417582417,1.3328937728937729,1.9880586080586078
2.5460194980041706,2.6617582417582417,1.3328937728937729,1.9880586080586078
2.5507629819985596,2.6617582417582417,1.3328937728937729,1.9880586080586078
2.55096178399981,2.6617582417582417,1.3328937728937729,1.9880586080586078
2.555890604999149,2.6617582417582417,1.3328937728937729,1.9880586080586078
2.5602112470005522,2.6617582417582417,1.3328937728937729,1.9880586080586078
2.562595423005405,2.6617582417582417,1.3328937728937729,1.9880586080586078
2.562750846002018,2.6617582417582417,1.3328937728937729,1.9880586080586078
2.5675203430000693,2.6617582417582417,1.3328937728937729,1.9880586080586078
2.5724417000019457,2.6617582417582417,1.3328937728937729,1.9880586080586078
2.5773261549984454,2.6617582417582417,1.3328937728937729,1.9880586080586078
2.5820889540045755,2.6617582417582417,1.3328937728937729,1.9880586080586078
2.58222840000235,2.6617582417582417,1.3328937728937729,1.9880586080586078
2.587034953001421,2.6617582417582417,1.3328937728937729,1.9880586080586078
2.5871519159991294,2.6617582417582417,1.3328937728937729,1.9880586080586078
2.5918187230054173,2.6617582417582417,1.3328937728937729,1.9880586080586078
2.5920483770023566,2.9518681318681317,2.5505494505494504,1.4183150183150184
2.5962240570006543,2.9518681318681317,2.5505494505494504,1.4183150183150184
2.598974628999713,2.9518681318681317,2.5505494505494504,1.4183150183150184
2.6024674370055436,2.9518681318681317,2.5505494505494504,1.4183150183150184
2.6027029200049583,2.9518681318681317,2.5505494505494504,1.4183150183150184
2.60745905800286,2.9518681318681317,2.5505494505494504,1.4183150183150184
2.607564559999446,2.9518681318681317,2.5505494505494504,1.4183150183150184
2.6122939810011303,2.9518681318681317,2.5505494505494504,1.4183150183150184
2.612569124001311,2.9808791208791208,2.390989010989011,0.1797069597069597
2.617835858000035,2.9808791208791208,2.390989010989011,0.1797069597069597
2.620069657001295,0.3706959706959707,2.577948717948718,3.2589010989010987
2.6214984399994137,2.6875457875457873,3.3,3.3
2.6263364830010687,2.6875457875457873,3.3,3.3
2.631750008004019,2.6875457875457873,3.3,3.3
2.633312172998558,3.1194871794871792,2.4216117216117214,0.6092307692307692
2.6375439379989984,2.1266666666666665,2.5763369963369964,3.3
2.639706499001477,2.1266666666666665,2.5763369963369964,3.3
2.6404977339989273,2.1266666666666665,2.5763369963369964,3.3
2.6426480450027157,2.1266666666666665,2.5763369963369964,3.3
2.643419037005515,2.1266666666666665,2.5763369963369964,3.3
2.645761120998941,2.1266666666666665,2.5763369963369964,3.3
2.6459711580027943,2.1266666666666665,2.5763369963369964,3.3
2.650202545002685,2.1266666666666665,2.5763369963369964,3.3
2.652405259999796,2.1266666666666665,2.5763369963369964,3.3
2.6531661530025303,2.1266666666666665,2.5763369963369964,3.3
2.655280090002634,2.1266666666666665,2.5763369963369964,3.3
2.656792027002666,0.43274725274725273,3.3,1.116923076923077
2.6609023249984602,0.43274725274725273,3.3,1.116923076923077
2.6651620240008924,0.43274725274725273,3.3,1.116923076923077
2.667310766999435,0.43274725274725273,3.3,1.116923076923077
2.668108887002745,0.43274725274725273,3.3,1.116923076923077
2.6702465990019846,0.43274725274725273,3.3,1.116923076923077
2.671087296002952,0.43274725274725273,3.3,1.116923076923077
2.6732035570021253,0.43274725274725273,3.3,1.116923076923077
2.6740496390048065,0.43274725274725273,3.3,1.116923076923077
2.6755577760050073,0.43274725274725273,3.3,1.116923076923077
2.679747431000578,0.31750915750915754,3.3,1.3578754578754577
2.683252375005395,1.804322344322344,2.5586080586080584,2.4175824175824174
2.683474148005189,2.958315018315018,2.617435897435897,1.1628571428571428
2.689307528002246,2.958315018315018,2.617435897435897,1.1628571428571428
2.6944416140031535,2.958315018315018,2.617435897435897,1.1628571428571428
2.69809031800105,2.958315018315018,2.617435897435897,1.1628571428571428
2.698235433002992,1.2305494505494505,2.544908424908425,1.9050549450549448
2.7027560470014578,2.2684981684981684,2.56989010989011,3.3
2.70310284900188,2.2684981684981684,2.56989010989011,3.3
2.7074983740021707,2.2684981684981684,2.56989010989011,3.3
2.709014546002436,2.2684981684981684,2.56989010989011,3.3
2.7133735380048165,1.6705494505494505,2.5424908424908423,1.8478388278388278
2.714268109004479,1.6705494505494505,2.5424908424908423,1.8478388278388278
2.715813802999037,1.6705494505494505,2.5424908424908423,1.8478388278388278
2.719555665004009,1.6705494505494505,2.5424908424908423,1.8478388278388278
2.7197338420010055,1.6705494505494505,2.5424908424908423,1.8478388278388278
2.724179971999547,1.6705494505494505,2.5424908424908423,1.8478388278388278
2.725708896003198,1.6705494505494505,2.5424908424908423,1.8478388278388278
2.7294102490050136,1.6705494505494505,2.5424908424908423,1.8478388278388278
2.7347380080027506,2.6633699633699632,1.6238095238095236,0.4996336996336996
2.738831274000404,2.6633699633699632,1.6238095238095236,0.4996336996336996
2.7404941440036055,2.6633699633699632,1.6238095238095236,0.4996336996336996
2.7448273500049254,2.71010989010989,3.3,3.3
2.7463990270043723,2.71010989010989,3.3,3.3
2.7500771600025473,2.71010989010989,3.3,3.3
2.7502297399987583,2.66014652014652,2.4167765567765565,0.14827838827838827
2.7552719570012414,2.66014652014652,2.4167765567765565,0.14827838827838827
2.758979404999991,2.66014652014652,2.4167765567765565,0.14827838827838827
2.765472587001568,2.66014652014652,2.4167765567765565,0.14827838827838827
2.7685664599994197,2.66014652014652,2.4167765567765565,0.14827838827838827
2.770827612002904,2.66014652014652,2.4167765567765565,0.14827838827838827
2.771098755998537,2.66014652014652,2.4167765567765565,0.14827838827838827
2.7762257360009244,2.66014652014652,2.4167765567765565,0.14827838827838827
2.7800270049992832,2.66014652014652,2.4167765567765565,0.14827838827838827
2.7863250040027197,2.66014652014652,2.4167765567765565,0.14827838827838827
2.7915647190020536,2.66014652014652,2.4167765567765565,0.14827838827838827
2.7931505710002966,2.66014652014652,2.4167765567765565,0.14827838827838827
2.797584968000592,2.66014652014652,2.4167765567765565,0.14827838827838827
2.7984683590038912,2.66014652014652,2.4167765567765565,0.14827838827838827
2.80003193399898,2.66014652014652,2.4167765567765565,0.14827838827838827
2.8044127200046205,2.693992673992674,2.305567765567765,2.5441025641025643
2.805274319005548,2.42967032967033,2.577948717948718,2.5682783882783884
2.806853073001548,2.42967032967033,2.577948717948718,2.5682783882783884
2.810608598003455,2.42967032967033,2.577948717948718,2.5682783882783884
2.8151543790008873,2.42967032967033,2.577948717948718,2.5682783882783884
2.816032492002705,0.5093040293040293,1.1564102564102563,0.34813186813186814
2.817652666999493,0.5093040293040293,1.1564102564102563,0.34813186813186814
2.8213496009993833,0.5093040293040293,1.1564102564102563,0.34813186813186814
2.8214696790018934,0.5093040293040293,1.1564102564102563,0.34813186813186814
2.8275410269998247,0.5093040293040293,1.1564102564102563,0.34813186813186814
2.8343846710049547,0.5093040293040293,1.1564102564102563,0.34813186813186814
2.8375906410001335,3.3,3.3,1.0524542124542122
2.8386201480025193,3.3,3.3,1.0524542124542122
2.839495555999747,3.3,3.3,1.0524542124542122
2.84107323900389,3.3,3.3,1.0524542124542122
2.8448887830018066,3.3,3.3,1.0524542124542122
2.8510872240003664,3.3,3.3,1.0524542124542122
2.8564838460006285,3.3,3.3,1.0524542124542122
2.856776646003709,3.3,3.3,1.0524542124542122
2.8617841890009004,3.3,3.3,1.0524542124542122
2.866709661000641,3.3,3.3,1.0524542124542122
2.876147820999904,3.3,3.3,1.0524542124542122
2.882110910002666,1.71003663003663,3.3,2.028351648351648
2.8870565879988135,2.6746520146520147,2.5747252747252745,3.3
2.892893030002597,2.6746520146520147,2.5747252747252745,3.3
2.897490570001537,2.6915750915750913,3.3,0.6213186813186813
2.897676003005472,2.6915750915750913,3.3,0.6213186813186813
2.903328391003015,2.6915750915750913,3.3,0.6213186813186813
2.9035349180048797,2.6915750915750913,3.3,0.6213186813186813
2.909592052004882,2.6915750915750913,3.3,0.6213186813186813
2.9134172949998174,2.66014652014652,1.498095238095238,0.5745787545787545
2.9187343700032216,2.66014652014652,1.498095238095238,0.5745787545787545
2.9220340390020283,0.6374358974358975,1.046007326007326,0.5125274725274725
2.9224133739990066,0.6374358974358975,1.046007326007326,0.5125274725274725
2.92702634500165,0.6374358974358975,1.046007326007326,0.5125274725274725
2.9272785389985074,2.6585347985347987,1.6568498168498167,2.0694505494505493
2.9317709489987465,2.6585347985347987,1.6568498168498167,2.0694505494505493
2.932597627004725,2.6585347985347987,1.6568498168498167,2.0694505494505493
2.9342139580039657,2.6585347985347987,1.6568498168498167,2.0694505494505493
2.939551110001048,2.6585347985347987,1.6568498168498167,2.0694505494505493
2.940398122998886,2.6585347985347987,1.6568498168498167,2.0694505494505493
2.942069734002871,2.6585347985347987,1.6568498168498167,2.0694505494505493
2.9458633700050996,2.6585347985347987,1.6568498168498167,2.0694505494505493
2.949632209005358,2.6585347985347987,1.6568498168498167,2.0694505494505493
2.954662995005492,2.6585347985347987,1.6568498168498167,2.0694505494505493
2.959254453002359,1.4932600732600732,3.3,2.2177289377289378
2.9594727290023,1.4932600732600732,3.3,2.2177289377289378
2.96448350600258,1.4932600732600732,3.3,2.2177289377289378
2.970396584998525,1.4932600732600732,3.3,2.2177289377289378
2.9761086799990153,1.4932600732600732,3.3,2.2177289377289378
2.981516272004228,2.561831501831502,2.8503296703296703,0.8896703296703296
2.983804928000609,2.561831501831502,2.8503296703296703,0.8896703296703296
2.9841038800004753,2.561831501831502,2.8503296703296703,0.8896703296703296
2.9916954100044677,2.561831501831502,2.8503296703296703,0.8896703296703296
2.9962028860027203,2.561831501831502,2.8503296703296703,0.8896703296703296
2.9971438229986234,2.561831501831502,2.8503296703296703,0.8896703296703296
2.998706818005303,2.561831501831502,2.8503296703296703,0.8896703296703296
3.0036700160053442,2.561831501831502,2.8503296703296703,0.8896703296703296
3.0077460690008593,2.8019780219780217,2.581172161172161,2.565054945054945
3.010678626000299,2.8019780219780217,2.581172161172161,2.565054945054945
3.0137185600033263,2.8019780219780217,2.581172161172161,2.565054945054945
3.015519156004302,1.8518681318681318,2.6585347985347987,1.0339194139194139
3.019840872999339,1.8518681318681318,2.6585347985347987,1.0339194139194139
3.021290131000569,1.8518681318681318,2.6585347985347987,1.0339194139194139
3.0278831380055635,1.8518681318681318,2.6585347985347987,1.0339194139194139
3.03171027800272,2.6504761904761907,2.5787545787545785,2.54974358974359
3.0386673000029987,1.5947985347985347,2.5360439560439563,1.456190476190476
3.0428748929989524,2.71010989010989,3.3,3.3
3.04459250200307,2.71010989010989,3.3,3.3
3.048292494000634,2.71010989010989,3.3,3.3
3.056428367002809,2.71010989010989,3.3,3.3
3.0632103380048648,1.7317948717948717,3.3,1.7978754578754577
3.0684421580008348,2.690769230769231,2.4586813186813186,2.756043956043956
3.070274726000207,2.690769230769231,2.4586813186813186,2.756043956043956
3.072909123999125,2.690769230769231,2.4586813186813186,2.756043956043956
3.080026903000544,2.690769230769231,2.4586813186813186,2.756043956043956
3.0854439250033465,2.690769230769231,2.4586813186813186,2.756043956043956
3.0858937119992333,2.690769230769231,2.4586813186813186,2.756043956043956
3.0911982610050472,2.690769230769231,2.4586813186813186,2.756043956043956
3.092067101999419,2.690769230769231,2.4586813186813186,2.756043956043956
3.094576830000733,2.690769230769231,2.4586813186813186,2.756043956043956
3.1003756310019526,2.690769230769231,2.4586813186813186,2.756043956043956
3.106834368001728,2.690769230769231,2.4586813186813186,2.756043956043956
3.110996070005058,2.690769230769231,2.4586813186813186,2.756043956043956
3.11337255500257,2.690769230769231,2.4586813186813186,2.756043956043956
3.1135308200027794,2.690769230769231,2.4586813186813186,2.756043956043956
3.11815480900259,2.690769230769231,2.4586813186813186,2.756043956043956
3.118414438999025,1.8293040293040292,2.5634432234432234,2.432087912087912
3.1261721859991667,1.8293040293040292,2.5634432234432234,2.432087912087912
3.1318266419984866,1.8293040293040292,2.5634432234432234,2.432087912087912
3.132029013999272,1.8293040293040292,2.5634432234432234,2.432087912087912
3.137442833998648,1.8293040293040292,2.5634432234432234,2.432087912087912
3.139576052002667,1.8293040293040292,2.5634432234432234,2.432087912087912
3.139877402005368,1.8293040293040292,2.5634432234432234,2.432087912087912
3.1445249460011837,1.8293040293040292,2.5634432234432234,2.432087912087912
3.1447872249991633,1.8293040293040292,2.5634432234432234,2.432087912087912
3.149344262004888,2.6609523809523807,1.6286446886446886,2.198388278388278
3.1502250090052257,2.6609523809523807,1.6286446886446886,2.198388278388278
3.1522736359984265,2.6609523809523807,1.6286446886446886,2.198388278388278
3.1534396520000882,2.6609523809523807,1.6286446886446886,2.198388278388278
3.1537150560034206,2.6609523809523807,1.6286446886446886,2.198388278388278
3.1606796019987087,2.6609523809523807,1.6286446886446886,2.198388278388278
3.1651616919989465,0.9662271062271062,3.3,1.2378021978021978
3.165552253005444,3.0566300366300365,2.589230769230769,2.5642490842490844
3.173469314002432,3.0566300366300365,2.589230769230769,2.5642490842490844
3.1780386570026167,3.0566300366300365,2.589230769230769,2.5642490842490844
3.1782505230003153,3.0566300366300365,2.589230769230769,2.5642490842490844
3.1830482950026635,3.0566300366300365,2.589230769230769,2.5642490842490844
3.1909391799999867,2.6883516483516483,3.3,3.216190476190476
3.194950463002897,2.6883516483516483,3.3,3.216190476190476
3.197996883005544,2.6883516483516483,3.3,3.216190476190476
3.2005615220041364,2.6883516483516483,3.3,3.216190476190476
3.2076372550000087,2.6883516483516483,3.3,3.216190476190476
3.2113726809984655,2.9768498168498168,2.5843956043956045,2.5602197802197804
3.2170152480030083,3.3,3.3,1.2434432234432233
3.219124716000806,0.5254212454212454,1.1894505494505494,0.1643956043956044
3.219491799005482,0.5254212454212454,1.1894505494505494,0.1643956043956044
3.225236138001492,0.5254212454212454,1.1894505494505494,0.1643956043956044
3.229057163000107,0.5254212454212454,1.1894505494505494,0.1643956043956044
3.233523401002458,2.6617582417582417,0.9106227106227106,1.4779487179487178
3.234376626001904,2.6617582417582417,0.9106227106227106,1.4779487179487178
3.2365171880010166,2.6617582417582417,0.9106227106227106,1.4779487179487178
3.2378638029986178,2.6617582417582417,0.9106227106227106,1.4779487179487178
3.2434033960016677,2.6617582417582417,0.9106227106227106,1.4779487179487178
3.2443175970038283,2.6617582417582417,0.9106227106227106,1.4779487179487178
3.245221268000023,2.6617582417582417,0.9106227106227106,1.4779487179487178
3.2468679049998173,2.6617582417582417,0.9106227106227106,1.4779487179487178
3.2508506670055795,2.6617582417582417,0.9106227106227106,1.4779487179487178
3.2555903700049384,2.6617582417582417,0.9106227106227106,1.4779487179487178
3.2605289359999006,0.9227106227106227,1.523882783882784,0.788937728937729
3.264504664002743,0.9227106227106227,1.523882783882784,0.788937728937729
3.2675379409993184,0.9227106227106227,1.523882783882784,0.788937728937729
3.273139141005231,0.9227106227106227,1.523882783882784,0.788937728937729
3.278678735005087,0.9227106227106227,1.523882783882784,0.788937728937729
3.280342202000611,0.9227106227106227,1.523882783882784,0.788937728937729
3.283349678000377,0.9227106227106227,1.523882783882784,0.788937728937729
3.2876133160025347,0.9227106227106227,1.523882783882784,0.788937728937729
3.2895890880026855,0.9227106227106227,1.523882783882784,0.788937728937729
3.290483425000275,0.9227106227106227,1.523882783882784,0.788937728937729
3.292175261005468,0.9227106227106227,1.523882783882784,0.788937728937729
3.295859271005611,1.5085714285714285,3.3,1.9816117216117215
3.295967809004651,1.5085714285714285,3.3,1.9816117216117215
3.30248382800346,1.804322344322344,2.556996336996337,2.3128205128205126
3.3070310120019712,2.690769230769231,2.5682783882783884,3.3
3.3071681000001263,2.690769230769231,2.5682783882783884,3.3
3.3117924430043786,2.690769230769231,2.5682783882783884,3.3
3.312065326004813,2.690769230769231,2.5682783882783884,3.3
3.3165949050016934,2.2201465201465203,2.5424908424908423,1.5037362637362637
3.316890804999275,2.2201465201465203,2.5424908424908423,1.5037362637362637
3.324286672002927,2.2201465201465203,2.5424908424908423,1.5037362637362637
3.328087564004818,2.2201465201465203,2.5424908424908423,1.5037362637362637
3.3333509160001995,2.2201465201465203,2.5424908424908423,1.5037362637362637
3.3370727130022715,2.2201465201465203,2.5424908424908423,1.5037362637362637
3.3426535280013923,1.5770695970695972,2.552967032967033,2.2402930402930403
3.342812667004182,2.690769230769231,3.3,3.15978021978022
3.347359191000578,2.690769230769231,3.3,3.15978021978022
3.3476543860015227,2.690769230769231,3.3,3.15978021978022
3.352947953004332,2.690769230769231,3.3,3.15978021978022
3.3560828789995867,2.690769230769231,3.3,3.15978021978022
3.357720382999105,0.689010989010989,2.735897435897436,1.016996336996337
3.3613822240004083,0.689010989010989,2.735897435897436,1.016996336996337
3.3671293959996547,0.689010989010989,2.735897435897436,1.016996336996337
3.3673837800015463,0.689010989010989,2.735897435897436,1.016996336996337
3.375213445004192,2.9816849816849818,2.8551648351648353,0.47062271062271055
3.379960090001987,2.9816849816849818,2.8551648351648353,0.47062271062271055
3.3867300570054795,2.9816849816849818,2.8551648351648353,0.47062271062271055
3.3914380370042636,2.9816849816849818,2.8551648351648353,0.47062271062271055
3.395971013000235,1.4271794871794872,2.5441025641025643,1.6657142857142855
3.3968488220052677,1.4271794871794872,2.5441025641025643,1.6657142857142855
3.398347782000201,1.4271794871794872,2.5441025641025643,1.6657142857142855
3.4048289359998307,1.4271794871794872,2.5441025641025643,1.6657142857142855
3.409530641998572,2.993772893772894,3.3,1.1241758241758242
3.4150208100036252,2.993772893772894,3.3,1.1241758241758242
3.416598834999604,0.9541391941391941,1.9364835164835164,0.9186813186813186
3.4226844209988485,1.7616117216117215,2.5586080586080584,2.3378021978021977
3.426065356004983,1.7616117216117215,2.5586080586080584,2.3378021978021977
3.426916953998443,1.7616117216117215,2.5586080586080584,2.3378021978021977
3.428505429001234,1.7616117216117215,2.5586080586080584,2.3378021978021977
3.4328003710033954,1.7616117216117215,2.5586080586080584,2.3378021978021977
3.433700243003841,1.7616117216117215,2.5586080586080584,2.3378021978021977
3.436053688004904,1.7616117216117215,2.5586080586080584,2.3378021978021977
3.436362687003566,1.7616117216117215,2.5586080586080584,2.3378021978021977
3.441656426002737,1.7616117216117215,2.5586080586080584,2.3378021978021977
3.442549887004134,1.7616117216117215,2.5586080586080584,2.3378021978021977
3.4441014590047416,1.7616117216117215,2.5586080586080584,2.3378021978021977
3.4478901020047488,1.7616117216117215,2.5586080586080584,2.3378021978021977
3.453642385000421,1.7616117216117215,2.5586080586080584,2.3378021978021977
3.463137077000283,1.7616117216117215,2.5586080586080584,2.3378021978021977
3.4722540600050706,1.7616117216117215,2.5586080586080584,2.3378021978021977
3.4783694139987347,1.7616117216117215,2.5586080586080584,2.3378021978021977
3.483076443000755,1.7616117216117215,2.5586080586080584,2.3378021978021977
3.4919579350025742,1.7616117216117215,2.5586080586080584,2.3378021978021977
3.496458460998838,1.7616117216117215,2.5586080586080584,2.3378021978021977
3.4973254580036155,1.7616117216117215,2.5586080586080584,2.3378021978021977
3.4990071409993106,1.6471794871794871,2.5586080586080584,2.3660073260073258
3.5033702549990267,1.6471794871794871,2.5586080586080584,2.3660073260073258
3.5046144910011208,1.6471794871794871,2.5586080586080584,2.3660073260073258
3.50487020300352,1.6471794871794871,2.5586080586080584,2.3660073260073258
3.511624742001004,1.6471794871794871,2.5586080586080584,2.3660073260073258
3.515243106005073,1.6471794871794871,2.5586080586080584,2.3660073260073258
3.5235095739990356,1.6471794871794871,2.5586080586080584,2.3660073260073258
3.527437861004728,2.693992673992674,2.726227106227106,1.826080586080586
3.531871373001195,2.693992673992674,2.726227106227106,1.826080586080586
3.5329353010019986,2.693992673992674,2.726227106227106,1.826080586080586
3.5338961650049896,2.4264468864468864,2.5432967032967033,1.4086446886446886
3.535414069003309,2.4264468864468864,2.5432967032967033,1.4086446886446886
3.541659417998744,2.4264468864468864,2.5432967032967033,1.4086446886446886
3.545366128004389,2.4264468864468864,2.5432967032967033,1.4086446886446886
3.545716150001681,2.497362637362637,2.577948717948718,3.3
3.551594926000689,2.497362637362637,2.577948717948718,3.3
3.5565798860043287,2.497362637362637,2.577948717948718,3.3
3.5597022940055467,1.506959706959707,2.577948717948718,2.5505494505494504
3.5612845340001513,1.506959706959707,2.577948717948718,2.5505494505494504
3.5649843310020515,1.506959706959707,2.577948717948718,2.5505494505494504
3.572572240998852,1.506959706959707,2.577948717948718,2.5505494505494504
3.5764895570027875,1.506959706959707,2.577948717948718,2.5505494505494504
3.581692956002371,1.506959706959707,2.577948717948718,2.5505494505494504
3.5848823429987533,1.506959706959707,2.577948717948718,2.5505494505494504
3.5861456650018226,1.506959706959707,2.577948717948718,2.5505494505494504
3.5864182360019186,1.506959706959707,2.577948717948718,2.5505494505494504
3.591896653000731,1.506959706959707,2.577948717948718,2.5505494505494504
3.5922042509992025,3.3,2.3345787545787546,0.5544322344322344
3.5973337730029016,3.3,2.3345787545787546,0.5544322344322344
3.6005162820001715,3.3,2.3345787545787546,0.5544322344322344
3.602438735004398,3.3,2.3345787545787546,0.5544322344322344
3.605000438001298,3.3,2.3345787545787546,0.5544322344322344
3.610608075003256,3.3,2.3345787545787546,0.5544322344322344
3.610919160004414,2.422417582417582,3.142051282051282,0.5721611721611721
3.6154460280013154,2.422417582417582,3.142051282051282,0.5721611721611721
3.617301213002065,2.422417582417582,3.142051282051282,0.5721611721611721
3.6199842109999736,1.7648351648351648,2.5586080586080584,2.254798534798535
3.625334541000484,1.7648351648351648,2.5586080586080584,2.254798534798535
3.626938079003594,2.843882783882784,3.3,0.9815384615384615
3.631329950003419,2.843882783882784,3.3,0.9815384615384615
3.632953168002132,2.784249084249084,2.602124542124542,0.8590476190476191
3.6389328920049593,1.4884249084249084,3.3,2.146007326007326
3.64395993600192,1.4884249084249084,3.3,2.146007326007326
3.647442689005402,1.4884249084249084,3.3,2.146007326007326
3.655798299005255,2.755238095238095,3.3,0.8332600732600732
3.6608485670003574,2.755238095238095,3.3,0.8332600732600732
3.6650457530049607,2.755238095238095,3.3,0.8332600732600732
3.6686176549992524,2.755238095238095,3.3,0.8332600732600732
3.675837583003158,2.755238095238095,3.3,0.8332600732600732
3.6807517820052453,2.755238095238095,3.3,0.8332600732600732
3.685490647003462,2.713333333333333,2.545714285714286,3.3
3.6930335520009976,2.713333333333333,2.545714285714286,3.3
3.6975975329987705,1.3627106227106225,2.569084249084249,3.3
3.6984111630008556,0.41098901098901097,3.3,1.037948717948718
3.699986459003412,0.41098901098901097,3.3,1.037948717948718
3.7076198089998798,0.41098901098901097,3.3,1.037948717948718
3.7125889220042154,0.41098901098901097,3.3,1.037948717948718
3.716733444001875,0.41098901098901097,3.3,1.037948717948718
3.718905639005243,0.41098901098901097,3.3,1.037948717948718
3.719408728000417,0.41098901098901097,3.3,1.037948717948718
3.723190415003046,0.41098901098901097,3.3,1.037948717948718
3.727733599000203,0.41098901098901097,3.3,1.037948717948718
3.7281667420029407,0.41098901098901097,3.3,1.037948717948718
3.7327393049999955,0.41098901098901097,3.3,1.037948717948718
3.733066783999675,0.41098901098901097,3.3,1.037948717948718
3.740310302004218,0.41098901098901097,3.3,1.037948717948718
3.7442767590036965,2.0936263736263734,2.5561904761904763,2.024322344322344
3.748136901005637,2.0936263736263734,2.5561904761904763,2.024322344322344
3.753854542999761,2.0936263736263734,2.5561904761904763,2.024322344322344
3.754120001998672,2.0936263736263734,2.5561904761904763,2.024322344322344
3.759606145998987,0.5157509157509157,2.5586080586080584,1.5287179487179487
3.759824947002926,0.5157509157509157,2.5586080586080584,1.5287179487179487
3.7645786889988813,0.5157509157509157,2.5586080586080584,1.5287179487179487
3.764687162001792,2.8019780219780217,2.5553846153846154,2.729450549450549
3.771042612999736,2.8019780219780217,2.5553846153846154,2.729450549450549
3.774431590005406,2.8019780219780217,2.5553846153846154,2.729450549450549
3.7746302990053664,2.8019780219780217,2.5553846153846154,2.729450549450549
3.77919337899948,2.8019780219780217,2.5553846153846154,2.729450549450549
3.7800679210049566,2.8019780219780217,2.5553846153846154,2.729450549450549
3.78160323100019,2.8019780219780217,2.5553846153846154,2.729450549450549
3.786165648998576,2.8019780219780217,2.5553846153846154,2.729450549450549
3.7864570310048293,2.8019780219780217,2.5553846153846154,2.729450549450549
3.794205244004843,2.8019780219780217,2.5553846153846154,2.729450549450549
3.7979911980000907,2.6488644688644687,2.912380952380952,0.9098168498168498
3.806346997000219,2.6488644688644687,2.912380952380952,0.9098168498168498
3.8109593400004087,2.6488644688644687,2.912380952380952,0.9098168498168498
3.8111944269985543,2.6488644688644687,2.912380952380952,0.9098168498168498
3.816902434002259,2.6488644688644687,2.912380952380952,0.9098168498168498
3.825561458004813,2.6488644688644687,2.912380952380952,0.9098168498168498
3.8302155609999318,2.6488644688644687,2.912380952380952,0.9098168498168498
3.8305079710044083,2.6488644688644687,2.912380952380952,0.9098168498168498
3.8370830019994173,2.6488644688644687,2.912380952380952,0.9098168498168498
3.843208026002685,2.6488644688644687,2.912380952380952,0.9098168498168498
3.84793554800126,2.6488644688644687,2.912380952380952,0.9098168498168498
3.857043469004566,2.6577289377289377,2.8906227106227105,0.6374358974358975
3.862056739999389,1.801098901098901,3.051794871794872,1.5263003663003663
3.8659158459995524,1.801098901098901,3.051794871794872,1.5263003663003663
3.8718369280031766,1.801098901098901,3.051794871794872,1.5263003663003663
3.875374653005565,2.937362637362637,2.4393406593406595,0.46014652014652013
3.875502768001752,0.5495970695970696,3.296776556776557,0.913040293040293
3.880079961003503,0.5495970695970696,3.296776556776557,0.913040293040293
3.8809102250015712,0.5495970695970696,3.296776556776557,0.913040293040293
3.8825094679996255,0.5495970695970696,3.296776556776557,0.913040293040293
3.8878475860037724,0.5495970695970696,3.296776556776557,0.913040293040293
3.890189477999229,0.5495970695970696,3.296776556776557,0.913040293040293
3.900632078999479,0.5495970695970696,3.296776556776557,0.913040293040293
3.9082897120024427,1.9526007326007324,3.3,1.4723076923076923
3.9131761150056263,1.9526007326007324,3.3,1.4723076923076923
3.917754504000186,1.9526007326007324,3.3,1.4723076923076923
3.9179490150054335,1.9526007326007324,3.3,1.4723076923076923
3.9245014480038662,1.9526007326007324,3.3,1.4723076923076923
3.9284016329984297,2.4006593406593404,2.5835897435897435,2.56989010989011
3.9330886930038105,2.4006593406593404,2.5835897435897435,2.56989010989011
3.933199885999784,2.4006593406593404,2.5835897435897435,2.56989010989011
3.9425231760033057,2.4006593406593404,2.5835897435897435,2.56989010989011
3.947152382999775,2.4006593406593404,2.5835897435897435,2.56989010989011
3.9473779530017055,2.655311355311355,3.3,2.548937728937729
3.952869931999885,2.655311355311355,3.3,2.548937728937729
3.95400385800167,2.655311355311355,3.3,2.548937728937729
3.9544711240014294,2.655311355311355,3.3,2.548937728937729
3.958900238001661,2.655311355311355,3.3,2.548937728937729
3.9591942930055666,2.655311355311355,3.3,2.548937728937729
3.964040840000962,2.655311355311355,3.3,2.548937728937729
3.9709449200017843,3.3,2.8019780219780217,2.5715018315018314
3.97445792399958,3.3,2.8019780219780217,2.5715018315018314
3.9802907910052454,3.3,2.8019780219780217,2.5715018315018314
3.980407175004075,3.3,2.8019780219780217,2.5715018315018314
3.9866480140044587,3.3,2.8019780219780217,2.5715018315018314
3.990565375999722,2.6682051282051282,1.668131868131868,1.987252747252747
3.9943709510043846,2.706886446886447,2.545714285714286,1.3973626373626373
3.9981560420055757,2.706886446886447,2.545714285714286,1.3973626373626373
4.004921452004055,2.706886446886447,2.545714285714286,1.3973626373626373
4.010460227000294,2.706886446886447,2.545714285714286,1.3973626373626373
4.020992958001443,2.706886446886447,2.545714285714286,1.3973626373626373
4.0298034959996585,0.43999999999999995,3.058241758241758,0.8977289377289376
4.0393563990000985,0.43999999999999995,3.058241758241758,0.8977289377289376
4.043674127999111,2.693992673992674,3.3,3.145274725274725
4.044593904000067,2.693992673992674,3.3,3.145274725274725
4.046362813998712,2.693992673992674,3.3,3.145274725274725
4.049793739999586,2.693992673992674,3.3,3.145274725274725
4.050101840002753,2.693992673992674,3.3,3.145274725274725
4.058464442001423,2.693992673992674,3.3,3.145274725274725
4.063115121003648,2.693992673992674,3.3,3.145274725274725
4.063953617005609,3.3,3.3,1.999340659340659
4.065720568003599,3.3,3.3,1.999340659340659
4.068283305001387,3.3,3.3,1.999340659340659
4.0743578860056004,3.3,3.3,1.999340659340659
4.078184111000155,2.3619780219780218,3.026007326007326,1.3167765567765568
4.082669381001324,2.3619780219780218,3.026007326007326,1.3167765567765568
4.083514316000219,2.3619780219780218,3.026007326007326,1.3167765567765568
4.085224255999492,2.3619780219780218,3.026007326007326,1.3167765567765568
4.089468691003276,2.3619780219780218,3.026007326007326,1.3167765567765568
4.090864126002998,2.3619780219780218,3.026007326007326,1.3167765567765568
4.099476968003728,2.3619780219780218,3.026007326007326,1.3167765567765568
4.107920831003867,2.3619780219780218,3.026007326007326,1.3167765567765568
4.112498524002149,2.3619780219780218,3.026007326007326,1.3167765567765568
4.112747037004738,2.3619780219780218,3.026007326007326,1.3167765567765568
4.117804519002675,2.3619780219780218,3.026007326007326,1.3167765567765568
4.123103252000874,2.3619780219780218,3.026007326007326,1.3167765567765568
4.123999333998654,2.3619780219780218,3.026007326007326,1.3167765567765568
4.125735107001674,2.3619780219780218,3.026007326007326,1.3167765567765568
4.128785787004745,2.3619780219780218,3.026007326007326,1.3167765567765568
4.131220668001333,2.3619780219780218,3.026007326007326,1.3167765567765568
4.138461399001244,2.3619780219780218,3.026007326007326,1.3167765567765568
4.1424352020039805,2.3619780219780218,3.026007326007326,1.3167765567765568
4.14647985099873,2.3619780219780218,3.026007326007326,1.3167765567765568
4.149475206002535,2.3619780219780218,3.026007326007326,1.3167765567765568
4.1544255320040975,2.3619780219780218,3.026007326007326,1.3167765567765568
4.157699016999686,2.3619780219780218,3.026007326007326,1.3167765567765568
4.15789465400303,3.013113553113553,2.5787545787545785,2.548937728937729
4.163663061000989,3.013113553113553,2.5787545787545785,2.548937728937729
4.171513102002791,3.3,2.726227106227106,2.56989010989011
4.175129151000874,2.8422710622710623,2.5038095238095237,0.4794871794871795
4.18569989700336,2.8422710622710623,2.5038095238095237,0.4794871794871795
4.192942226000014,2.8422710622710623,2.5038095238095237,0.4794871794871795
4.197444905999873,1.9542124542124542,3.3,2.283003663003663
4.198318793998624,1.9542124542124542,3.3,2.283003663003663
4.199229081001249,1.9542124542124542,3.3,2.283003663003663
4.200972118000209,1.9542124542124542,3.3,2.283003663003663
4.206013816001359,1.9542124542124542,3.3,2.283003663003663
4.208500708002248,1.9542124542124542,3.3,2.283003663003663
4.213102608999179,1.9542124542124542,3.3,2.283003663003663
4.213320383001701,1.8655677655677654,2.984102564102564,1.801098901098901
4.219115100000636,1.8655677655677654,2.984102564102564,1.801098901098901
4.225841658000718,1.8655677655677654,2.984102564102564,1.801098901098901
4.230345938005485,2.9905494505494503,2.5964835164835165,3.3
4.231229277000239,2.9905494505494503,2.5964835164835165,3.3
4.233994676003931,2.9905494505494503,2.5964835164835165,3.3
4.241202935001638,2.9905494505494503,2.5964835164835165,3.3
4.248596206001821,2.9905494505494503,2.5964835164835165,3.3
4.255136535000929,3.261318681318681,3.3,1.4545787545787545
4.2586353619990405,3.261318681318681,3.3,1.4545787545787545
4.258863514005498,1.216043956043956,2.556996336996337,2.4465934065934065
4.263391414002399,1.216043956043956,2.556996336996337,2.4465934065934065
4.2651148760051,1.216043956043956,2.556996336996337,2.4465934065934065
4.268959569999424,1.216043956043956,2.556996336996337,2.4465934065934065
4.27586545500526,1.216043956043956,2.556996336996337,2.4465934065934065
4.281724890002806,1.216043956043956,2.556996336996337,2.4465934065934065
4.289894499001093,1.216043956043956,2.556996336996337,2.4465934065934065
4.294893796002725,3.3,3.0227838827838824,0.6712820512820512
4.300574293003592,3.3,3.0227838827838824,0.6712820512820512
4.31042371300282,3.3,3.0227838827838824,0.6712820512820512
4.31654665300448,3.3,2.747179487179487,2.581172161172161
4.322580516003654,3.3,2.747179487179487,2.581172161172161
4.327170577998913,3.3,2.747179487179487,2.581172161172161
4.327358444003039,3.3,2.747179487179487,2.581172161172161
4.331849971000338,3.3,2.747179487179487,2.581172161172161
4.332870177000586,3.3,2.747179487179487,2.581172161172161
4.33381360200292,3.3,2.747179487179487,2.581172161172161
4.335437189001823,3.3,2.747179487179487,2.581172161172161
4.343210778999492,3.3,2.747179487179487,2.581172161172161
4.3493132240037085,3.3,2.747179487179487,2.581172161172161
4.354742939001881,2.6585347985347987,0.5495970695970696,1.498095238095238
4.355021980998572,2.6585347985347987,0.5495970695970696,1.498095238095238
4.364385847999074,2.6585347985347987,0.5495970695970696,1.498095238095238
4.373324031002994,2.6585347985347987,0.5495970695970696,1.498095238095238
4.377960201003589,0.361025641025641,2.5747252747252745,3.1847619047619045
4.378330763000122,2.4385347985347985,2.577948717948718,3.3
4.38782087200525,2.4385347985347985,2.577948717948718,3.3
4.392478598005255,2.4385347985347985,2.577948717948718,3.3
4.39263939599914,2.0767032967032963,2.569084249084249,3.3
4.397407800999645,2.0767032967032963,2.569084249084249,3.3
4.397562085003301,1.672161172161172,2.5553846153846154,2.4216117216117214
4.40513145600562,2.713333333333333,3.3,3.3
4.4096242990053724,2.713333333333333,3.3,3.3
4.409772712999256,2.713333333333333,3.3,3.3
4.414700865003397,2.713333333333333,3.3,3.3
4.421979682003439,2.713333333333333,3.3,3.3
4.426318682002602,2.713333333333333,3.3,3.3
4.428017995000118,2.713333333333333,3.3,3.3
4.431968028002302,2.713333333333333,3.3,3.3
4.436920808002469,3.0356776556776555,1.7398534798534797,0.2191941391941392
4.44065827200393,3.0356776556776555,1.7398534798534797,0.2191941391941392
4.444598118003341,3.0356776556776555,1.7398534798534797,0.2191941391941392
4.448944525000115,3.0356776556776555,1.7398534798534797,0.2191941391941392
4.450590501000988,2.652087912087912,3.0816117216117216,0.5358974358974359
4.455674646000261,2.652087912087912,3.0816117216117216,0.5358974358974359
4.457328084004985,2.652087912087912,3.0816117216117216,0.5358974358974359
4.463508660999651,1.5166300366300365,2.5553846153846154,2.3893772893772893
4.468887316004839,1.5166300366300365,2.5553846153846154,2.3893772893772893
4.46924016399862,2.6488644688644687,1.9985347985347983,0.18454212454212454
4.473675624998577,2.6488644688644687,1.9985347985347983,0.18454212454212454
4.474573188002978,2.6488644688644687,1.9985347985347983,0.18454212454212454
4.4761720599999535,2.6488644688644687,1.9985347985347983,0.18454212454212454
4.47994284699962,2.6488644688644687,1.9985347985347983,0.18454212454212454
4.485333718999755,2.6488644688644687,1.9985347985347983,0.18454212454212454
4.488071273000969,2.6682051282051282,2.02029304029304,2.3458608058608057
4.492464815004496,2.6682051282051282,2.02029304029304,2.3458608058608057
4.492699955000717,1.6649084249084247,3.3,2.283003663003663
4.501184785003716,1.6649084249084247,3.3,2.283003663003663
4.507711621001363,1.6649084249084247,3.3,2.283003663003663
4.510822295000253,1.6649084249084247,3.3,2.283003663003663
4.513225924005383,1.286959706959707,3.3,2.1838827838827837
4.513393831002759,1.286959706959707,3.3,2.1838827838827837
4.518689561999054,1.286959706959707,3.3,2.1838827838827837
4.521190997998929,3.3,2.7278388278388275,2.5473260073260073
4.527462124999147,3.3,2.7278388278388275,2.5473260073260073
4.530618483004218,3.3,2.7278388278388275,2.5473260073260073
4.53152324900293,2.928498168498168,1.8945787545787542,0.2079120879120879
4.533315328000754,2.928498168498168,1.8945787545787542,0.2079120879120879
4.53988501799904,2.928498168498168,1.8945787545787542,0.2079120879120879
4.543930211999395,2.928498168498168,1.8945787545787542,0.2079120879120879
4.546365968999453,2.6617582417582417,3.3,0.904981684981685
4.5464769230020465,2.6617582417582417,3.3,0.904981684981685
4.5525536550048855,2.7326739926739925,2.9180219780219776,0.8002197802197801
4.557339805003721,2.7326739926739925,2.9180219780219776,0.8002197802197801
4.562912669003708,1.3522344322344322,3.3,1.7890109890109889
4.563276869004767,1.3522344322344322,3.3,1.7890109890109889
4.5688555230008205,1.3522344322344322,3.3,1.7890109890109889
4.569114994999836,3.3,3.3,1.6858608058608056
4.577165941002022,3.3,3.3,1.6858608058608056
4.5817413160038996,3.3,3.3,1.6858608058608056
4.581937535003817,3.3,3.3,1.6858608058608056
4.58926861800137,3.3,3.3,1.6858608058608056
4.593083560001105,3.3,3.3,1.6858608058608056
4.597536487002799,3.3,3.3,1.6858608058608056
4.598382815005607,3.3,3.3,1.6858608058608056
4.600063395002508,3.3,3.3,1.6858608058608056
4.607315029003075,3.3,3.3,1.6858608058608056
4.611874275004084,3.3,3.3,1.6858608058608056
4.612150076005491,3.3,3.3,1.6858608058608056
4.618531550004263,3.3,3.3,1.6858608058608056
4.623637479002355,3.3,3.3,1.6858608058608056
4.625198521003767,3.3,3.3,1.6858608058608056
4.628927128003852,3.3,3.3,1.6858608058608056
4.63435040100012,3.3,3.3,1.6858608058608056
4.637399254002958,3.3,3.3,1.6858608058608056
4.639052176004043,3.3,3.3,1.6858608058608056
4.6437320620025275,3.3,3.3,1.6858608058608056
4.649881434001145,3.3,3.3,1.6858608058608056
4.655234648998885,3.3,3.3,1.6858608058608056
4.655510233002133,3.3,3.3,1.6858608058608056
4.6599436110045644,3.3,3.3,1.6858608058608056
4.6615016639989335,3.3,3.3,1.6858608058608056
4.665512753002986,3.3,3.3,1.6858608058608056
4.67081564199907,2.1806593406593406,2.577948717948718,2.5626373626373624
4.671836227003951,2.1806593406593406,2.577948717948718,2.5626373626373624
4.672190135999699,2.1806593406593406,2.577948717948718,2.5626373626373624
4.676626441003464,2.1806593406593406,2.577948717948718,2.5626373626373624
4.677525855004205,2.1806593406593406,2.577948717948718,2.5626373626373624
4.679094516999612,2.1806593406593406,2.577948717948718,2.5626373626373624
4.683458898005483,2.1806593406593406,2.577948717948718,2.5626373626373624
4.684339521001675,2.1806593406593406,2.577948717948718,2.5626373626373624
4.686744759004796,2.1806593406593406,2.577948717948718,2.5626373626373624
4.692421176005155,2.1806593406593406,2.577948717948718,2.5626373626373624
4.692749934998574,3.0147252747252744,2.1427838827838825,1.0008791208791208
4.69744821000495,3.0147252747252744,2.1427838827838825,1.0008791208791208
4.697577156999614,2.880952380952381,2.581172161172161,2.54974358974359
4.7053003149994765,2.880952380952381,2.581172161172161,2.54974358974359
4.709413147000305,2.880952380952381,2.581172161172161,2.54974358974359
4.71172154800297,2.880952380952381,2.581172161172161,2.54974358974359
4.711922679998679,2.880952380952381,2.581172161172161,2.54974358974359
4.717324918005033,2.880952380952381,2.581172161172161,2.54974358974359
4.72002603400324,2.880952380952381,2.581172161172161,2.54974358974359
4.723913989000721,2.880952380952381,2.581172161172161,2.54974358974359
4.72698415999912,2.3168498168498166,2.5747252747252745,2.5755311355311354
4.729245909002202,2.3168498168498166,2.5747252747252745,2.5755311355311354
4.72949900200183,2.3168498168498166,2.5747252747252745,2.5755311355311354
4.734320461000607,2.3168498168498166,2.5747252747252745,2.5755311355311354
4.7418349430008675,2.3168498168498166,2.5747252747252745,2.5755311355311354
4.746352643000137,2.3168498168498166,2.5747252747252745,2.5755311355311354
4.747189314999559,2.3168498168498166,2.5747252747252745,2.5755311355311354
4.748712830005388,2.3168498168498166,2.5747252747252745,2.5755311355311354
4.755858650998562,2.3168498168498166,2.5747252747252745,2.5755311355311354
4.759293035000155,2.3168498168498166,2.5747252747252745,2.5755311355311354
4.759532868003589,2.3168498168498166,2.5747252747252745,2.5755311355311354
4.764722280000569,2.3168498168498166,2.5747252747252745,2.5755311355311354
4.769422025005042,3.3,2.760879120879121,2.581172161172161
4.7758986440021545,2.648058608058608,1.7342124542124542,0.5632967032967032
4.7805330859991955,2.648058608058608,1.7342124542124542,0.5632967032967032
4.789780573002645,2.690769230769231,2.8317948717948713,1.1523809523809523
4.794625291004195,2.6488644688644687,3.269377289377289,2.4594871794871795
4.8035138990017,2.6488644688644687,3.269377289377289,2.4594871794871795
4.8107709169999,2.706886446886447,2.328131868131868,1.792234432234432
4.815904606999538,1.7495238095238095,3.3,2.76007326007326
4.817820157004462,1.7495238095238095,3.3,2.76007326007326
4.82036391600559,1.7495238095238095,3.3,2.76007326007326
4.827661091003392,1.7495238095238095,3.3,2.76007326007326
4.835004355998535,2.6875457875457873,1.3482051282051282,0.3771428571428571
4.83896569400531,2.6875457875457873,1.3482051282051282,0.3771428571428571
4.841308473005483,2.6875457875457873,1.3482051282051282,0.3771428571428571
4.84157165200304,2.6875457875457873,1.3482051282051282,0.3771428571428571
4.847258384004817,2.6875457875457873,1.3482051282051282,0.3771428571428571
4.847560884001723,2.6875457875457873,1.3482051282051282,0.3771428571428571
4.854993355998886,2.6875457875457873,1.3482051282051282,0.3771428571428571
4.859302032004052,2.2233699633699633,2.796336996336996,1.6568498168498167
4.860915993005619,1.1386813186813185,2.548937728937729,2.19032967032967
4.865817432000767,1.1386813186813185,2.548937728937729,2.19032967032967
4.871189001001767,1.1386813186813185,2.548937728937729,2.19032967032967
4.873343568004202,1.1386813186813185,2.548937728937729,2.19032967032967
4.873593700998754,1.1386813186813185,2.548937728937729,2.19032967032967
4.87821145500493,1.1386813186813185,2.548937728937729,2.19032967032967
4.878461774998868,1.1386813186813185,2.548937728937729,2.19032967032967
4.883709654000995,1.1386813186813185,2.548937728937729,2.19032967032967
4.8883609940021415,1.1386813186813185,2.548937728937729,2.19032967032967
4.892326977998891,2.1830769230769227,2.548937728937729,2.41032967032967
4.895331947998784,2.1830769230769227,2.548937728937729,2.41032967032967
4.897864837999805,2.1830769230769227,2.548937728937729,2.41032967032967
4.904788628002279,1.7221245421245421,2.552967032967033,2.6367765567765566
4.907993077002175,2.71010989010989,2.1347252747252745,1.701978021978022
4.909528305004642,2.993772893772894,2.557802197802198,2.0702564102564103
4.913427968000178,2.993772893772894,2.557802197802198,2.0702564102564103
4.917363020998891,1.3594871794871795,3.1323809523809523,1.9284249084249083
4.92366345100163,3.3,2.740732600732601,2.5505494505494504
4.927664348004328,3.3,2.740732600732601,2.5505494505494504
4.930701306002447,3.3,2.740732600732601,2.5505494505494504
4.93311979900318,1.7124542124542126,3.3,2.3813186813186813
4.933338485003333,1.7124542124542126,3.3,2.3813186813186813
4.940559909999138,1.7124542124542126,3.3,2.3813186813186813
4.944446464003704,1.7124542124542126,3.3,2.3813186813186813
4.948244633000286,1.7124542124542126,3.3,2.3813186813186813
4.94834691700089,2.652087912087912,0.8808058608058608,0.2232234432234432
4.955439812001714,2.652087912087912,0.8808058608058608,0.2232234432234432
4.958485363000364,2.652087912087912,0.8808058608058608,0.2232234432234432
4.960802665998926,2.652087912087912,0.8808058608058608,0.2232234432234432
4.96109607800463,2.652087912087912,0.8808058608058608,0.2232234432234432
4.968099657999119,2.652087912087912,0.8808058608058608,0.2232234432234432
4.972631162003381,2.652087912087912,0.8808058608058608,0.2232234432234432
4.977815727004781,2.652087912087912,0.8808058608058608,0.2232234432234432
4.980885791999754,2.652087912087912,0.8808058608058608,0.2232234432234432
4.983422174002044,2.652087912087912,0.8808058608058608,0.2232234432234432
4.990151869998954,3.2339194139194136,2.7326739926739925,1.4263736263736264
4.993886035001196,3.2339194139194136,2.7326739926739925,1.4263736263736264
4.9994591630020295,3.2339194139194136,2.7326739926739925,1.4263736263736264
5.001270412001759,3.2339194139194136,2.7326739926739925,1.4263736263736264
5.0049018999998225,3.2339194139194136,2.7326739926739925,1.4263736263736264
5.009469397999055,3.2339194139194136,2.7326739926739925,1.4263736263736264
5.009777589002624,2.655311355311355,1.7317948717948717,0.5455677655677655
5.015001897998445,2.655311355311355,1.7317948717948717,0.5455677655677655
5.0182163800054695,2.655311355311355,1.7317948717948717,0.5455677655677655
5.019938940000429,2.655311355311355,1.7317948717948717,0.5455677655677655
5.023636135003471,2.655311355311355,1.7317948717948717,0.5455677655677655
5.027412486000685,2.655311355311355,1.7317948717948717,0.5455677655677655
5.03279078900232,3.3,3.3,1.8969963369963367
5.034776571999828,1.514212454212454,3.3,2.017875457875458
5.036285628004407,0.423076923076923,3.3,1.2305494505494505
5.041894873000274,0.423076923076923,3.3,1.2305494505494505
5.042110940004932,0.423076923076923,3.3,1.2305494505494505
5.046597566004493,0.423076923076923,3.3,1.2305494505494505
5.047461993002798,0.423076923076923,3.3,1.2305494505494505
5.049119815004815,0.423076923076923,3.3,1.2305494505494505
5.054292553002597,0.423076923076923,3.3,1.2305494505494505
5.056621054005518,0.423076923076923,3.3,1.2305494505494505
5.056732387005468,0.423076923076923,3.3,1.2305494505494505
5.062116339002387,0.423076923076923,3.3,1.2305494505494505
5.063696435005113,0.423076923076923,3.3,1.2305494505494505
5.06825489300536,0.423076923076923,3.3,1.2305494505494505
5.069081194000319,0.423076923076923,3.3,1.2305494505494505
5.070667792999302,0.423076923076923,3.3,1.2305494505494505
5.074616727004468,0.423076923076923,3.3,1.2305494505494505
5.079389716003789,0.423076923076923,3.3,1.2305494505494505
5.085001497005578,0.423076923076923,3.3,1.2305494505494505
5.085865619003016,0.423076923076923,3.3,1.2305494505494505
5.087486561002152,0.423076923076923,3.3,1.2305494505494505
5.0912308570041205,0.423076923076923,3.3,1.2305494505494505
5.096453238002141,3.2717948717948717,2.3426373626373627,1.2700366300366301
5.098767550000048,3.2717948717948717,2.3426373626373627,1.2700366300366301
5.099057999999786,3.2717948717948717,2.3426373626373627,1.2700366300366301
5.104407311999239,3.2717948717948717,2.3426373626373627,1.2700366300366301
5.106604272004915,3.2717948717948717,2.3426373626373627,1.2700366300366301
5.106885998000507,3.2717948717948717,2.3426373626373627,1.2700366300366301
5.112413920003746,3.2717948717948717,2.3426373626373627,1.2700366300366301
5.113249860005453,1.6979487179487176,3.3,3.078388278388278
5.114820390001114,1.6979487179487176,3.3,3.078388278388278
5.121742007002467,1.6979487179487176,3.3,3.078388278388278
5.125515268999152,1.6979487179487176,3.3,3.078388278388278
5.1294793380002375,2.6649816849816848,0.5979487179487178,0.61003663003663
5.133705959000508,2.6649816849816848,0.5979487179487178,0.61003663003663
5.138117891001457,2.6649816849816848,0.5979487179487178,0.61003663003663
5.138267485002871,2.6649816849816848,0.5979487179487178,0.61003663003663
5.1435524039989104,2.6649816849816848,0.5979487179487178,0.61003663003663
5.145115693005209,2.6649816849816848,0.5979487179487178,0.61003663003663
5.149536072000046,2.6649816849816848,0.5979487179487178,0.61003663003663
5.151875763003773,2.6649816849816848,0.5979487179487178,0.61003663003663
5.152155579999089,2.6649816849816848,0.5979487179487178,0.61003663003663
5.156909682998958,2.6649816849816848,0.5979487179487178,0.61003663003663
5.157149528000446,2.6649816849816848,0.5979487179487178,0.61003663003663
5.162449663002917,2.6649816849816848,0.5979487179487178,0.61003663003663
5.163418331001594,3.034065934065934,3.0936996336996336,1.174139194139194
5.164447062001273,3.034065934065934,3.0936996336996336,1.174139194139194
5.165378572004556,3.034065934065934,3.0936996336996336,1.174139194139194
5.1662593799992464,3.034065934065934,3.0936996336996336,1.174139194139194
5.1677962690009736,3.034065934065934,3.0936996336996336,1.174139194139194
5.171920452004997,3.034065934065934,3.0936996336996336,1.174139194139194
5.174739906004106,3.034065934065934,3.0936996336996336,1.174139194139194
5.17829139999958,3.034065934065934,3.0936996336996336,1.174139194139194
5.178468785001314,3.034065934065934,3.0936996336996336,1.174139194139194
5.183243346000381,3.034065934065934,3.0936996336996336,1.174139194139194
5.18343473799905,3.034065934065934,3.0936996336996336,1.174139194139194
5.187642327000503,3.034065934065934,3.0936996336996336,1.174139194139194
5.18987183200079,2.8664468864468864,2.5521611721611723,2.452234432234432
5.191354292001051,2.8664468864468864,2.5521611721611723,2.452234432234432
5.195635103998939,2.8664468864468864,2.5521611721611723,2.452234432234432
5.1977709480052,1.2079853479853477,2.5521611721611723,2.1516483516483516
5.198586905004049,2.6585347985347987,2.5682783882783884,3.3
5.200099640998815,2.6585347985347987,2.5682783882783884,3.3
5.207685416004097,2.693992673992674,2.1315018315018315,1.3989743589743588
5.211851979001949,2.693992673992674,2.1315018315018315,1.3989743589743588
5.214173526001105,2.693992673992674,2.1315018315018315,1.3989743589743588
5.214432572000078,2.693992673992674,2.1315018315018315,1.3989743589743588
5.2190643990034005,2.693992673992674,2.1315018315018315,1.3989743589743588
5.219325793004828,2.693992673992674,2.1315018315018315,1.3989743589743588
5.2237462120028795,2.693992673992674,2.1315018315018315,1.3989743589743588
5.224619196000276,2.693992673992674,2.1315018315018315,1.3989743589743588
5.226212353998562,2.693992673992674,2.1315018315018315,1.3989743589743588
5.229979604999244,2.693992673992674,2.1315018315018315,1.3989743589743588
5.235202408999612,2.693992673992674,2.1315018315018315,1.3989743589743588
5.23745856500318,0.759120879120879,3.145274725274725,1.6093040293040293
5.237706742002047,0.759120879120879,3.145274725274725,1.6093040293040293
5.242763221001951,0.759120879120879,3.145274725274725,1.6093040293040293
5.246432651001669,2.693992673992674,3.3,2.8857875457875455
5.252153594003175,2.693992673992674,3.3,2.8857875457875455
5.252386125001067,1.6979487179487176,3.3,2.0347985347985347
5.257939692004584,1.6979487179487176,3.3,2.0347985347985347
5.2582146510030725,1.6979487179487176,3.3,2.0347985347985347
5.262689658004092,1.6979487179487176,3.3,2.0347985347985347
5.2635375399986515,1.6979487179487176,3.3,2.0347985347985347
5.26513090699882,1.6979487179487176,3.3,2.0347985347985347
5.269939294004871,1.6979487179487176,3.3,2.0347985347985347
5.275193127999955,1.6979487179487176,3.3,2.0347985347985347
5.277607242001977,1.6979487179487176,3.3,2.0347985347985347
5.277737271004298,1.6979487179487176,3.3,2.0347985347985347
5.28285945400421,1.6979487179487176,3.3,2.0347985347985347
5.286810741999943,3.3,3.3,0.7986080586080586
5.290506404002372,2.6504761904761907,3.3,2.501391941391941
5.295759143002215,1.3345054945054944,3.3,2.1677655677655676
5.298736805001681,1.4432967032967032,2.5553846153846154,2.0517216117216117
5.30113652,1.4432967032967032,2.5553846153846154,2.0517216117216117
5.301296502999321,1.4432967032967032,2.5553846153846154,2.0517216117216117
5.307468892002362,1.4432967032967032,2.5553846153846154,2.0517216117216117
5.313646383001469,1.4432967032967032,2.5553846153846154,2.0517216117216117
5.317430916999001,2.108131868131868,2.577948717948718,3.2419780219780217
5.322813678001694,2.108131868131868,2.577948717948718,3.2419780219780217
5.3250897340039955,2.6504761904761907,3.3,0.9557509157509158
5.325365392003732,2.6504761904761907,3.3,0.9557509157509158
5.329818452999461,2.6504761904761907,3.3,0.9557509157509158
5.330759299999045,2.6504761904761907,3.3,0.9557509157509158
5.332331151003018,2.6504761904761907,3.3,0.9557509157509158
5.336779244003992,2.6504761904761907,3.3,0.9557509157509158
5.337632909999229,2.6504761904761907,3.3,0.9557509157509158
5.339204734002124,2.6504761904761907,3.3,0.9557509157509158
5.342923087999225,2.6504761904761907,3.3,0.9557509157509158
5.34305204100383,2.6504761904761907,3.3,0.9557509157509158
5.347508555001696,2.6504761904761907,3.3,0.9557509157509158
5.3483783720002975,2.6504761904761907,3.3,0.9557509157509158
5.350007293003728,2.6504761904761907,3.3,0.9557509157509158
5.353870593004103,2.6504761904761907,3.3,0.9557509157509158
5.359524669998791,2.6504761904761907,3.3,0.9557509157509158
5.359739953004464,2.6504761904761907,3.3,0.9557509157509158
5.3644171390042175,2.6504761904761907,3.3,0.9557509157509158
5.3647021150027285,2.6504761904761907,3.3,0.9557509157509158
5.369881972001167,2.6504761904761907,3.3,0.9557509157509158
5.3733237289998215,3.3,2.9776556776556777,1.1612454212454213
5.373450222999963,3.3,2.9776556776556777,1.1612454212454213
5.3784097009993275,3.3,2.9776556776556777,1.1612454212454213
5.3841798920038855,1.7688644688644688,2.552967032967033,1.9405128205128204
5.3946381870046025,1.7688644688644688,2.552967032967033,1.9405128205128204
5.402428024004621,2.655311355311355,1.3949450549450548,0.11604395604395604
5.407084862999909,2.655311355311355,1.3949450549450548,0.11604395604395604
5.4071900820054,2.655311355311355,1.3949450549450548,0.11604395604395604
5.412506296001084,2.655311355311355,1.3949450549450548,0.11604395604395604
5.414985449999222,2.655311355311355,1.3949450549450548,0.11604395604395604
5.415123146005499,2.655311355311355,1.3949450549450548,0.11604395604395604
5.4219644910044735,2.655311355311355,1.3949450549450548,0.11604395604395604
5.42705918700085,2.655311355311355,1.3949450549450548,0.11604395604395604
5.430895623001561,2.6545054945054947,3.3,1.477142857142857
5.433960769005353,2.6545054945054947,3.3,1.477142857142857
5.437011050002184,2.6545054945054947,3.3,1.477142857142857
5.438872095000988,2.6545054945054947,3.3,1.477142857142857
5.440133691001392,2.6545054945054947,3.3,1.477142857142857
5.440437338002084,2.6545054945054947,3.3,1.477142857142857
5.449201193005138,2.6545054945054947,3.3,1.477142857142857
5.45841403400118,2.6488644688644687,2.1476190476190475,0.7252747252747253
5.465823308004474,2.6488644688644687,2.1476190476190475,0.7252747252747253
5.473361014002876,2.6545054945054947,2.2088644688644687,0.9404395604395603
5.477140852002776,2.6545054945054947,2.2088644688644687,0.9404395604395603
5.481935989999329,2.6545054945054947,2.2088644688644687,0.9404395604395603
5.490732475002005,2.6545054945054947,2.2088644688644687,0.9404395604395603
5.496945931001392,2.6536996336996337,1.0572893772893772,1.0927472527472526
5.502054058000795,2.689157509157509,2.5465201465201464,3.091282051282051
5.507293308000953,2.71010989010989,3.3,2.121831501831502
5.509352066001156,2.71010989010989,3.3,2.121831501831502
5.510429943999043,2.71010989010989,3.3,2.121831501831502
5.510696003999328,2.71010989010989,3.3,2.121831501831502
5.520564730002661,2.71010989010989,3.3,2.121831501831502
5.526972070998454,2.71010989010989,3.3,2.121831501831502
5.5307102340011625,2.71010989010989,3.3,2.121831501831502
5.536448318001931,1.5126007326007325,3.3,2.0549450549450547
5.536842384004558,1.5126007326007325,3.3,2.0549450549450547
5.542254712003341,1.5126007326007325,3.3,2.0549450549450547
5.543761018001533,1.5126007326007325,3.3,2.0549450549450547
5.547314848001406,1.5126007326007325,3.3,2.0549450549450547
5.547613487004128,1.5126007326007325,3.3,2.0549450549450547
5.554783215004136,2.3587545787545787,2.545714285714286,2.2846153846153845
5.558225300999766,0.5149450549450549,2.553772893772894,2.0549450549450547
5.558527745000902,1.88007326007326,2.5682783882783884,2.419194139194139
5.563010600999405,1.88007326007326,2.5682783882783884,2.419194139194139
5.563909294003679,2.8745054945054944,3.3,0.9944322344322343
5.565552478001337,2.8745054945054944,3.3,0.9944322344322343
5.569166360000963,2.8745054945054944,3.3,0.9944322344322343
5.569451192000997,2.8745054945054944,3.3,0.9944322344322343
5.574442871999054,2.8745054945054944,3.3,0.9944322344322343
5.578167013001803,2.8745054945054944,3.3,0.9944322344322343
5.582680240004265,2.8745054945054944,3.3,0.9944322344322343
5.583134660999349,2.8745054945054944,3.3,0.9944322344322343
5.5906786269988515,2.8745054945054944,3.3,0.9944322344322343
5.5951128240049,2.8745054945054944,3.3,0.9944322344322343
5.596710145000543,2.8745054945054944,3.3,0.9944322344322343
5.602759865003463,2.0621978021978022,2.577948717948718,3.1775091575091574
5.606957529998908,2.6673992673992672,2.5747252747252745,3.3
5.607873444001598,2.6673992673992672,2.5747252747252745,3.3
5.609543655002199,2.6673992673992672,2.5747252747252745,3.3
5.6128096130050835,2.6673992673992672,2.5747252747252745,3.3
5.61377275200357,2.6673992673992672,2.5747252747252745,3.3
5.6147776690049795,2.6673992673992672,2.5747252747252745,3.3
5.615751190998708,2.6673992673992672,2.5747252747252745,3.3
5.616778790004901,2.6673992673992672,2.5747252747252745,3.3
5.618645700000343,2.6673992673992672,2.5747252747252745,3.3
5.621737408000627,2.6673992673992672,2.5747252747252745,3.3
5.622189849003917,2.6673992673992672,2.5747252747252745,3.3
5.626125289003539,2.6673992673992672,2.5747252747252745,3.3
5.629849066004681,2.6673992673992672,2.5747252747252745,3.3
5.635598075001326,2.6673992673992672,2.5747252747252745,3.3
5.635812396001711,2.6673992673992672,2.5747252747252745,3.3
5.641801400000986,2.6673992673992672,2.5747252747252745,3.3
5.646334365999792,2.713333333333333,2.5747252747252745,3.27018315018315
5.64722735399846,2.713333333333333,2.5747252747252745,3.27018315018315
5.648827987999539,2.713333333333333,2.5747252747252745,3.27018315018315
5.6532529090036405,2.713333333333333,2.5747252747252745,3.27018315018315
5.653626348001126,2.713333333333333,2.5747252747252745,3.27018315018315
5.6588043330048095,2.713333333333333,2.5747252747252745,3.27018315018315
5.661747229998582,2.693992673992674,3.3,1.2563369963369961
5.664977594002266,2.693992673992674,3.3,1.2563369963369961
5.666043985002034,2.693992673992674,3.3,1.2563369963369961
5.666366915000253,2.710915750915751,2.0017582417582416,1.016190476190476
5.674113209002826,2.710915750915751,2.0017582417582416,1.016190476190476
5.680865779002488,2.710915750915751,2.0017582417582416,1.016190476190476
5.687158122003893,2.710915750915751,2.0017582417582416,1.016190476190476
5.692535589005274,2.710915750915751,2.0017582417582416,1.016190476190476
5.6927904350013705,1.6334798534798534,3.3,2.343443223443223
5.69734047500242,1.6334798534798534,3.3,2.343443223443223
5.6982826169987675,1.6334798534798534,3.3,2.343443223443223
5.699833160004346,1.6334798534798534,3.3,2.343443223443223
5.707203837002453,2.6923809523809523,1.9397069597069596,0.8227838827838827
5.711562283999228,2.6923809523809523,1.9397069597069596,0.8227838827838827
5.713082148999092,1.7527472527472527,3.3,2.5038095238095237
5.721538849000353,1.7527472527472527,3.3,2.5038095238095237
5.728649345001031,1.7527472527472527,3.3,2.5038095238095237
5.735367491004581,2.655311355311355,3.3,1.8736263736263734
5.741483900004823,0.3642490842490842,0.689010989010989,0.26754578754578756
5.746386678998533,0.3642490842490842,0.689010989010989,0.26754578754578756
5.750328284004354,0.3642490842490842,0.689010989010989,0.26754578754578756
5.759028158005094,0.3642490842490842,0.689010989010989,0.26754578754578756
5.76351900100417,0.3642490842490842,0.689010989010989,0.26754578754578756
5.764414839002711,0.3642490842490842,0.689010989010989,0.26754578754578756
5.768407013005344,0.3642490842490842,0.689010989010989,0.26754578754578756
5.773010914002953,0.3642490842490842,0.689010989010989,0.26754578754578756
5.780939937001676,0.3642490842490842,0.689010989010989,0.26754578754578756
5.786265212998842,2.6617582417582417,2.5747252747252745,3.3
5.78811212900473,2.6617582417582417,2.5747252747252745,3.3
5.79044876700209,2.6617582417582417,2.5747252747252745,3.3
5.7906584330048645,2.6617582417582417,2.5747252747252745,3.3
5.795318634001887,2.6617582417582417,2.5747252747252745,3.3
5.795529415001511,2.6617582417582417,2.5747252747252745,3.3
5.800241982004081,2.6617582417582417,2.5747252747252745,3.3
5.800475711002946,3.1146520146520142,2.585201465201465,3.3
5.8055891530020745,3.1146520146520142,2.585201465201465,3.3
5.808592822999344,3.1146520146520142,2.585201465201465,3.3
5.810835461001261,3.1146520146520142,2.585201465201465,3.3
5.811104069005523,1.6157509157509156,3.3,2.2064468864468862
5.815575075001107,1.6157509157509156,3.3,2.2064468864468862
5.816485465998994,1.6157509157509156,3.3,2.2064468864468862
5.818205783005396,1.6157509157509156,3.3,2.2064468864468862
5.821732611002517,1.6157509157509156,3.3,2.2064468864468862
5.828562963004515,1.6157509157509156,3.3,2.2064468864468862
5.832713987001625,1.6157509157509156,3.3,2.2064468864468862
5.835189279001497,1.6157509157509156,3.3,2.2064468864468862
5.842700159002561,1.6157509157509156,3.3,2.2064468864468862
5.848895759001607,1.6157509157509156,3.3,2.2064468864468862
5.853828276005515,2.6569230769230767,1.3659340659340657,0.4416117216117216
5.857369520999782,2.6569230769230767,1.3659340659340657,0.4416117216117216
5.864720524004952,2.6843223443223443,2.565054945054945,3.079194139194139
5.870753670998965,2.714139194139194,1.9783882783882782,0.7857142857142856
5.875899384001968,2.714139194139194,1.9783882783882782,0.7857142857142856
5.8774949020007625,1.7656410256410255,2.5545787545787544,2.2040293040293037
5.881978028999583,1.7656410256410255,2.5545787545787544,2.2040293040293037
5.883725673003937,1.7656410256410255,2.5545787545787544,2.2040293040293037
5.887362307999865,1.7656410256410255,2.5545787545787544,2.2040293040293037
5.892610706003325,1.7656410256410255,2.5545787545787544,2.2040293040293037
5.89486719800334,1.7656410256410255,2.5545787545787544,2.2040293040293037
5.895195928998874,1.7656410256410255,2.5545787545787544,2.2040293040293037
5.900188503001118,1.7656410256410255,2.5545787545787544,2.2040293040293037
5.905062628000451,1.7656410256410255,2.5545787545787544,2.2040293040293037
5.909552570999949,1.7656410256410255,2.5545787545787544,2.2040293040293037
5.9104268420051085,1.7656410256410255,2.5545787545787544,2.2040293040293037
5.912079203000758,1.7656410256410255,2.5545787545787544,2.2040293040293037
5.916938398004277,1.7656410256410255,2.5545787545787544,2.2040293040293037
5.917126581000048,1.7656410256410255,2.5545787545787544,2.2040293040293037
5.923981855004968,1.7656410256410255,2.5545787545787544,2.2040293040293037
5.927713497003424,2.6665934065934067,0.8783882783882784,0.3158974358974359
5.9328196280039265,2.6665934065934067,0.8783882783882784,0.3158974358974359
5.938061338005355,2.6665934065934067,0.8783882783882784,0.3158974358974359
5.939731867998489,2.6665934065934067,0.8783882783882784,0.3158974358974359
5.94345668599999,3.3,3.3,0.4561172161172161
5.948746665002545,2.7326739926739925,2.5787545787545785,2.552967032967033
5.953676968005311,2.262051282051282,2.5521611721611723,2.283003663003663
5.957343291003781,2.262051282051282,2.5521611721611723,2.283003663003663
5.961730938004621,2.262051282051282,2.5521611721611723,2.283003663003663
5.962120827003673,2.262051282051282,2.5521611721611723,2.283003663003663
5.9667748249994474,2.262051282051282,2.5521611721611723,2.283003663003663
5.966999200005375,2.262051282051282,2.5521611721611723,2.283003663003663
5.974687396002992,2.262051282051282,2.5521611721611723,2.283003663003663
5.979440022005292,2.262051282051282,2.5521611721611723,2.283003663003663
5.986616898000648,2.718168498168498,3.3,0.83003663003663
5.990256195000256,2.718168498168498,3.3,0.83003663003663
5.990400339003827,1.8712087912087911,3.3,1.0613186813186812
5.995100446998549,1.8712087912087911,3.3,1.0613186813186812
5.995252029999392,1.8712087912087911,3.3,1.0613186813186812
6.001921380004205,1.8712087912087911,3.3,1.0613186813186812
6.0065787640050985,1.8712087912087911,3.3,1.0613186813186812
6.012288187004742,1.8712087912087911,3.3,1.0613186813186812
6.012458809003874,1.8712087912087911,3.3,1.0613186813186812
6.017066091000743,1.8712087912087911,3.3,1.0613186813186812
6.017578496001079,1.7414652014652015,2.5561904761904763,2.162124542124542
6.023491870000726,2.7117216117216114,3.3,1.6052747252747253
6.027609650998784,3.3,3.3,0.5890842490842491
6.0291654510001536,3.3,3.3,0.5890842490842491
6.037812032001966,3.3,3.3,0.5890842490842491
6.043134034000104,3.3,3.3,0.5890842490842491
6.043426232005004,3.3,3.3,0.5890842490842491
6.047853971002041,3.3,3.3,0.5890842490842491
6.049568299000384,3.3,3.3,0.5890842490842491
6.054966397001408,3.145274725274725,2.9180219780219776,1.4175091575091574
6.056238943005155,3.145274725274725,2.9180219780219776,1.4175091575091574
6.061682996005402,3.145274725274725,2.9180219780219776,1.4175091575091574
6.062578001001384,3.2097435897435895,3.3,0.9758974358974358
6.064124773001822,3.2097435897435895,3.3,0.9758974358974358
6.071324042000924,3.2097435897435895,3.3,0.9758974358974358
6.074722376004502,3.2097435897435895,3.3,0.9758974358974358
6.075042837001092,3.2097435897435895,3.3,0.9758974358974358
6.07954692900239,3.2097435897435895,3.3,0.9758974358974358
6.080388558002596,3.2097435897435895,3.3,0.9758974358974358
6.081993849002174,3.2097435897435895,3.3,0.9758974358974358
6.0888408410028205,3.2097435897435895,3.3,0.9758974358974358
6.092812763003167,3.2097435897435895,3.3,0.9758974358974358
6.097581840003841,3.2097435897435895,3.3,0.9758974358974358
6.102893162002147,3.2097435897435895,3.3,0.9758974358974358
6.105594557004224,3.2097435897435895,3.3,0.9758974358974358
6.10952842199913,3.2097435897435895,3.3,0.9758974358974358
6.113352546002716,2.428864468864469,2.8068131868131867,1.6133333333333333
6.120075065999117,2.428864468864469,2.8068131868131867,1.6133333333333333
6.1248284640023485,2.428864468864469,2.8068131868131867,1.6133333333333333
6.128730948003067,2.428864468864469,2.8068131868131867,1.6133333333333333
6.132684560005146,2.428864468864469,2.8068131868131867,1.6133333333333333
6.137710792005237,1.7785347985347983,2.5030036630036627,1.5665934065934064
6.141909743004362,1.7785347985347983,2.5030036630036627,1.5665934065934064
6.142372474001604,1.7785347985347983,2.5030036630036627,1.5665934065934064
6.147475484001916,1.7785347985347983,2.5030036630036627,1.5665934065934064
6.152121355000418,1.7785347985347983,2.5030036630036627,1.5665934065934064
6.160659868000948,1.7785347985347983,2.5030036630036627,1.5665934065934064
6.1687337090043,2.693992673992674,3.3,2.2233699633699633
6.1740526639987365,2.693992673992674,3.3,2.2233699633699633
6.175171943003079,2.693992673992674,3.3,2.2233699633699633
6.175505762003013,2.693992673992674,3.3,2.2233699633699633
6.181380109999736,2.693992673992674,3.3,2.2233699633699633
6.188713146999362,2.61018315018315,2.581172161172161,3.3
6.193299979000585,2.61018315018315,2.581172161172161,3.3
6.193505472001561,2.61018315018315,2.581172161172161,3.3
