time,emg1,emg2,emg3
0.029496881004888564,1.7011721611721609,0.5133333333333333,3.171062271062271
0.049637602001894265,2.739120879120879,2.747179487179487,2.5424908424908423
0.050000182003714144,2.6408058608058607,1.6447619047619046,1.9477655677655676
0.060838276003778446,2.6408058608058607,1.6447619047619046,1.9477655677655676
0.06945065100444481,2.6408058608058607,1.6447619047619046,1.9477655677655676
0.07626175900077214,1.4860073260073259,0.5906959706959707,3.055018315018315
0.08184630300092977,1.4860073260073259,0.5906959706959707,3.055018315018315
0.08207785400009016,1.9945054945054943,2.639194139194139,3.3
0.08983189100399613,1.9945054945054943,2.639194139194139,3.3
0.0979726040022797,1.9945054945054943,2.639194139194139,3.3
0.1036853340046946,1.9945054945054943,2.639194139194139,3.3
0.1108467610029038,1.9945054945054943,2.639194139194139,3.3
0.11686535600165371,1.9945054945054943,2.639194139194139,3.3
0.1229703380013234,1.9945054945054943,2.639194139194139,3.3
0.12630455400358187,1.9945054945054943,2.639194139194139,3.3
0.1266285390011035,0.9758974358974358,0.9831501831501831,2.6126007326007326
0.13235420600540238,0.9758974358974358,0.9831501831501831,2.6126007326007326
0.13247742100065807,0.9758974358974358,0.9831501831501831,2.6126007326007326
0.13808208700356772,0.9758974358974358,0.9831501831501831,2.6126007326007326
0.13840539400553098,0.9758974358974358,0.9831501831501831,2.6126007326007326
0.14532127900019987,0.9758974358974358,0.9831501831501831,2.6126007326007326
0.1545216540034744,3.3,1.1958974358974357,3.3
0.16146590700373054,3.3,1.1958974358974357,3.3
0.1666659110051114,3.3,1.1958974358974357,3.3
0.16816177000146126,3.1404395604395603,2.7004395604395603,2.230622710622711
0.17667154600349022,3.1404395604395603,2.7004395604395603,2.230622710622711
0.18248108099942328,3.1404395604395603,2.7004395604395603,2.230622710622711
0.19025460600096267,1.3578754578754577,0.26996336996336995,0.7494505494505495
0.19540135800343705,1.3578754578754577,0.26996336996336995,0.7494505494505495
0.20160706800379558,1.3578754578754577,0.26996336996336995,0.7494505494505495
0.20754549400589895,0.8445421245421244,0.25787545787545785,0.5165567765567766
0.21329878800315782,3.3,3.008278388278388,3.167838827838828
0.225271146002342,3.3,3.008278388278388,3.167838827838828
0.2355208350054454,3.3,3.008278388278388,3.167838827838828
0.2450022750053904,3.3,3.008278388278388,3.167838827838828
0.2548999310020008,3.3,3.008278388278388,3.167838827838828
0.2645116780040553,3.3,3.008278388278388,3.167838827838828
0.27297551400261,2.868058608058608,1.0677655677655677,3.2935531135531133
0.2779152170041925,2.868058608058608,1.0677655677655677,3.2935531135531133
0.28243448799912585,2.868058608058608,1.0677655677655677,3.2935531135531133
0.2827242839994142,1.6528205128205127,2.2008058608058607,1.7156776556776556
0.29240737600048305,1.6528205128205127,2.2008058608058607,1.7156776556776556
0.2972591560028377,3.3,1.2740659340659342,3.2726007326007327
0.30539203900116263,3.3,1.2740659340659342,3.2726007326007327
0.3106350480011315,3.3,1.2740659340659342,3.2726007326007327
0.3129473320004763,3.3,1.2740659340659342,3.2726007326007327
0.32320015100413,3.3,1.2740659340659342,3.2726007326007327
0.3297440120004467,3.3,1.2740659340659342,3.2726007326007327
0.33548011500533903,3.3,1.2740659340659342,3.2726007326007327
0.34628938200330595,3.3,1.2740659340659342,3.2726007326007327
0.35506789500504965,3.3,1.2740659340659342,3.2726007326007327
0.36102222699992126,3.3,1.2740659340659342,3.2726007326007327
0.36679676900530467,3.3,1.2740659340659342,3.2726007326007327
0.3669588320044568,3.3,1.2740659340659342,3.2726007326007327
0.37254859300446697,3.3,1.2740659340659342,3.2726007326007327
0.3736168600007659,2.4989743589743587,1.8172161172161172,1.0387545787545787
0.37390862699976424,2.4989743589743587,1.8172161172161172,1.0387545787545787
0.37902670400217175,2.4989743589743587,1.8172161172161172,1.0387545787545787
0.3830747180036269,1.6544322344322344,0.8566300366300367,1.9735531135531135
0.3876606300036656,1.6544322344322344,0.8566300366300367,1.9735531135531135
0.39522346900048433,1.6544322344322344,0.8566300366300367,1.9735531135531135
0.40289671500067925,1.174139194139194,0.622124542124542,2.277362637362637
0.41002843100432074,1.174139194139194,0.622124542124542,2.277362637362637
0.4156264410048607,2.6786813186813188,0.8630769230769231,3.2709890109890107
0.4227619970042724,2.6786813186813188,0.8630769230769231,3.2709890109890107
0.42782939500466455,2.8245421245421243,2.8777289377289375,2.2958974358974356
0.4321116460050689,1.398168498168498,1.7132600732600733,3.3
0.4333554640033981,1.398168498168498,1.7132600732600733,3.3
0.43354011500196066,1.398168498168498,1.7132600732600733,3.3
0.4413415810049628,1.398168498168498,1.7132600732600733,3.3
0.44679442699998617,1.398168498168498,1.7132600732600733,3.3
0.44776702400122304,3.3,2.726227106227106,2.5312087912087913
0.44884852500399575,3.3,2.726227106227106,2.5312087912087913
0.44925208800123073,3.3,2.726227106227106,2.5312087912087913
0.4574274780025007,3.3,2.726227106227106,2.5312087912087913
0.4640985280057066,3.3,2.726227106227106,2.5312087912087913
0.4711083630027133,3.3,2.726227106227106,2.5312087912087913
0.47487666700180853,2.31040293040293,2.112161172161172,0.22725274725274724
0.4800921810019645,2.31040293040293,2.112161172161172,0.22725274725274724
0.4826948289992288,2.31040293040293,2.112161172161172,0.22725274725274724
0.4902145560045028,2.31040293040293,2.112161172161172,0.22725274725274724
0.49570166299963603,2.083150183150183,2.3200732600732596,3.3
0.4966097950018593,2.083150183150183,2.3200732600732596,3.3
0.49755543200444663,2.083150183150183,2.3200732600732596,3.3
0.49857167200389085,2.083150183150183,2.3200732600732596,3.3
0.4996684470024775,2.083150183150183,2.3200732600732596,3.3
0.5000936750002438,2.083150183150183,2.3200732600732596,3.3
0.5074774020031327,2.083150183150183,2.3200732600732596,3.3
0.5158242700053961,0.8969230769230768,0.34007326007326005,0.5318681318681319
0.5244758710032329,0.8969230769230768,0.34007326007326005,0.5318681318681319
0.5324830730023677,1.688278388278388,0.2715750915750916,0.8324542124542124
0.5389560380062903,1.688278388278388,0.2715750915750916,0.8324542124542124
0.5432927060028305,1.688278388278388,0.2715750915750916,0.8324542124542124
0.5450853670045035,1.688278388278388,0.2715750915750916,0.8324542124542124
0.5483712109999033,1.688278388278388,0.2715750915750916,0.8324542124542124
0.5493436969991308,1.688278388278388,0.2715750915750916,0.8324542124542124
0.550619977999304,1.688278388278388,0.2715750915750916,0.8324542124542124
0.5508678490004968,1.688278388278388,0.2715750915750916,0.8324542124542124
0.55586367000069,1.688278388278388,0.2715750915750916,0.8324542124542124
0.559432566005853,1.688278388278388,0.2715750915750916,0.8324542124542124
0.5596393840023666,1.688278388278388,0.2715750915750916,0.8324542124542124
0.5646106460044393,1.2805128205128204,0.29333333333333333,0.6865934065934066
0.5714035590062849,3.3,2.5666666666666664,2.997802197802198
0.5759976200060919,3.3,2.5666666666666664,2.997802197802198
0.5853286670026137,3.3,2.5666666666666664,2.997802197802198
0.5921385920009925,0.9944322344322343,0.8187545787545787,2.644029304029304
0.5990747510004439,0.9944322344322343,0.8187545787545787,2.644029304029304
0.6041278900011093,1.3063003663003663,0.9098168498168498,1.892161172161172
0.6076997730051517,1.3063003663003663,0.9098168498168498,1.892161172161172
0.6187630210042698,1.3063003663003663,0.9098168498168498,1.892161172161172
0.6290577000036137,1.3063003663003663,0.9098168498168498,1.892161172161172
0.6360674730021856,1.3063003663003663,0.9098168498168498,1.892161172161172
0.6418006290041376,1.3063003663003663,0.9098168498168498,1.892161172161172
0.649713350001548,1.3063003663003663,0.9098168498168498,1.892161172161172
0.6554937660039286,1.904249084249084,2.2032234432234428,3.3
0.6613591790010105,1.904249084249084,2.2032234432234428,3.3
0.6614792239997769,1.904249084249084,2.2032234432234428,3.3
0.6668509880037163,0.9033699633699634,0.35216117216117215,0.5576556776556777
0.6730132130032871,0.9033699633699634,0.35216117216117215,0.5576556776556777
0.6782600360020297,2.597289377289377,1.7978754578754577,1.8478388278388278
0.6798833630018635,2.597289377289377,1.7978754578754577,1.8478388278388278
0.6860363220039289,2.597289377289377,1.7978754578754577,1.8478388278388278
0.691279464001127,2.597289377289377,1.7978754578754577,1.8478388278388278
0.6931606260041008,2.1991941391941388,2.297509157509157,0.30542124542124544
0.6957808180013672,2.1991941391941388,2.297509157509157,0.30542124542124544
0.7015764919997309,2.1991941391941388,2.297509157509157,0.30542124542124544
0.7090202780018444,2.0275457875457876,0.33604395604395604,1.261978021978022
0.7140547020026133,2.1838827838827837,2.685934065934066,3.3
0.7188855330023216,3.0308424908424905,2.5295970695970698,1.4497435897435897
0.7238965830038069,3.0308424908424905,2.5295970695970698,1.4497435897435897
0.7274736450053751,3.0308424908424905,2.5295970695970698,1.4497435897435897
0.7276578960008919,1.1241758241758242,1.4005860805860806,3.1267399267399263
0.7330694920019596,1.1241758241758242,1.4005860805860806,3.1267399267399263
0.7361601790034911,2.5481318681318683,2.281391941391941,0.2917216117216117
0.7368096710051759,1.4763369963369963,1.1096703296703296,1.854285714285714
0.7398947160036187,1.4763369963369963,1.1096703296703296,1.854285714285714
0.7409739650029223,1.4763369963369963,1.1096703296703296,1.854285714285714
0.7419730320034432,1.4763369963369963,1.1096703296703296,1.854285714285714
0.7423154280040762,1.4763369963369963,1.1096703296703296,1.854285714285714
0.7477452730017831,1.4763369963369963,1.1096703296703296,1.854285714285714
0.7487135810006293,1.4763369963369963,1.1096703296703296,1.854285714285714
0.7499250730033964,1.4763369963369963,1.1096703296703296,1.854285714285714
0.750244394002948,1.4763369963369963,1.1096703296703296,1.854285714285714
0.7580764710000949,2.8358241758241753,1.9598534798534797,1.3288644688644689
0.7627008480048971,2.8358241758241753,1.9598534798534797,1.3288644688644689
0.7629098000033991,2.8358241758241753,1.9598534798534797,1.3288644688644689
0.7704936139998608,3.1259340659340658,2.936556776556776,2.452234432234432
0.7744524830050068,3.1259340659340658,2.936556776556776,2.452234432234432
0.7800976610014914,1.7624175824175823,0.9146520146520146,1.9372893772893773
0.7898095050040865,1.7624175824175823,0.9146520146520146,1.9372893772893773
0.7990081940006348,1.7624175824175823,0.9146520146520146,1.9372893772893773
0.8077898440024001,1.0008791208791208,0.386007326007326,2.0444688644688642
0.8142839800057118,1.0008791208791208,0.386007326007326,2.0444688644688642
0.8197420340002282,1.0008791208791208,0.386007326007326,2.0444688644688642
0.8200323910059524,1.0008791208791208,0.386007326007326,2.0444688644688642
0.8282480810012203,1.1435164835164835,0.22564102564102564,0.6293772893772893
0.8356617970057414,1.1435164835164835,0.22564102564102564,0.6293772893772893
0.8421388370043132,1.1435164835164835,0.22564102564102564,0.6293772893772893
0.8471141059999354,1.1435164835164835,0.22564102564102564,0.6293772893772893
0.854591473005712,1.1435164835164835,0.22564102564102564,0.6293772893772893
0.8604584250060725,2.9647619047619047,2.265274725274725,1.735018315018315
0.8679439580009785,2.9647619047619047,2.265274725274725,1.735018315018315
0.874220232006337,2.9647619047619047,2.265274725274725,1.735018315018315
0.8788588060051552,1.6326739926739926,0.8397069597069596,2.0895970695970694
0.8883230430001277,1.743076923076923,2.323296703296703,3.3
0.8953178529991419,1.0484249084249082,0.3046153846153846,0.6035897435897435
0.901760690001538,1.0484249084249082,0.3046153846153846,0.6035897435897435
0.907675394002581,1.1402930402930402,0.3046153846153846,0.5939194139194138
0.9131626450034673,1.1402930402930402,0.3046153846153846,0.5939194139194138
0.9134194950020174,1.9485714285714284,2.282197802197802,0.4166300366300366
0.9226497290001134,1.9485714285714284,2.282197802197802,0.4166300366300366
0.9275106390050496,1.8607326007326006,2.1927472527472527,3.3
0.9321817770032794,1.0532600732600732,1.0774358974358973,2.647252747252747
0.9323715630016522,1.423956043956044,2.2483516483516484,1.1225641025641024
0.9392990650012507,1.423956043956044,2.2483516483516484,1.1225641025641024
0.9434175120040891,0.9855677655677655,0.4996336996336996,2.2435164835164834
0.9466570400036289,0.9855677655677655,0.4996336996336996,2.2435164835164834
0.9477624749997631,0.9855677655677655,0.4996336996336996,2.2435164835164834
0.9480292930020369,0.9855677655677655,0.4996336996336996,2.2435164835164834
0.9561516200046754,0.9855677655677655,0.4996336996336996,2.2435164835164834
0.9607557470008032,0.9855677655677655,0.4996336996336996,2.2435164835164834
0.9610833860060666,1.6818315018315015,0.6366300366300366,1.3836630036630035
0.966982748999726,1.6818315018315015,0.6366300366300366,1.3836630036630035
0.9748274760058848,1.6818315018315015,0.6366300366300366,1.3836630036630035
0.9805381920014042,1.6818315018315015,0.6366300366300366,1.3836630036630035
0.9808146310024313,1.6818315018315015,0.6366300366300366,1.3836630036630035
0.9886366080027074,1.6818315018315015,0.6366300366300366,1.3836630036630035
0.9925399290004862,1.6818315018315015,0.6366300366300366,1.3836630036630035
0.9964126940030837,1.6818315018315015,0.6366300366300366,1.3836630036630035
1.0015512390018557,1.6818315018315015,0.6366300366300366,1.3836630036630035
1.0057643780019134,1.6818315018315015,0.6366300366300366,1.3836630036630035
1.0075538370001595,1.6818315018315015,0.6366300366300366,1.3836630036630035
1.010034592000011,1.6818315018315015,0.6366300366300366,1.3836630036630035
1.0153167710013804,1.6818315018315015,0.6366300366300366,1.3836630036630035
1.0180889710027259,1.6818315018315015,0.6366300366300366,1.3836630036630035
1.023708347005595,1.6818315018315015,0.6366300366300366,1.3836630036630035
1.0283426160021918,1.6818315018315015,0.6366300366300366,1.3836630036630035
1.0287235880023218,1.6818315018315015,0.6366300366300366,1.3836630036630035
1.0318324710024172,1.6818315018315015,0.6366300366300366,1.3836630036630035
1.0341528070057393,1.9235897435897436,1.0484249084249082,2.10007326007326
1.0343595310041565,1.9235897435897436,1.0484249084249082,2.10007326007326
1.040760208001302,1.696336996336996,0.8783882783882784,2.133919413919414
1.0451045610025176,1.696336996336996,0.8783882783882784,2.133919413919414
1.0467591640044702,3.3,2.897069597069597,2.71010989010989
1.0503723110014107,3.3,2.897069597069597,2.71010989010989
1.0505016610040911,3.3,2.897069597069597,2.71010989010989
1.0577100139998947,3.3,2.897069597069597,2.71010989010989
1.0622553120047087,1.016190476190476,0.7607326007326007,2.5787545787545785
1.0631341430052998,1.016190476190476,0.7607326007326007,2.5787545787545785
1.0640474160027225,1.016190476190476,0.7607326007326007,2.5787545787545785
1.0658785039995564,1.016190476190476,0.7607326007326007,2.5787545787545785
1.0721373800042784,1.016190476190476,0.7607326007326007,2.5787545787545785
1.0774810040020384,1.016190476190476,0.7607326007326007,2.5787545787545785
1.078939088001789,1.016190476190476,0.7607326007326007,2.5787545787545785
1.0868657020037062,1.016190476190476,0.7607326007326007,2.5787545787545785
1.0906812899993383,1.016190476190476,0.7607326007326007,2.5787545787545785
1.0951272279999102,1.016190476190476,0.7607326007326007,2.5787545787545785
1.0960783210030058,1.016190476190476,0.7607326007326007,2.5787545787545785
1.0970340530038811,1.120952380952381,0.7784615384615384,2.5666666666666664
1.0980432760043186,1.120952380952381,0.7784615384615384,2.5666666666666664
1.098989309000899,1.120952380952381,0.7784615384615384,2.5666666666666664
1.0999790179994307,1.7285714285714286,0.24659340659340656,0.8783882783882784
1.1011491840035887,1.7285714285714286,0.24659340659340656,0.8783882783882784
1.101418215999729,1.0258608058608059,0.32073260073260074,0.5568498168498168
1.1095245470060036,1.0258608058608059,0.32073260073260074,0.5568498168498168
1.1170909860011307,1.4328205128205127,0.5649084249084249,3.1009523809523807
1.1229322420040262,1.4328205128205127,0.5649084249084249,3.1009523809523807
1.1311332650002441,1.4328205128205127,0.5649084249084249,3.1009523809523807
1.1353123340013553,0.26996336996336995,2.250769230769231,2.8197069597069593
1.1383769550011493,0.26996336996336995,2.250769230769231,2.8197069597069593
1.1401241880012094,0.26996336996336995,2.250769230769231,2.8197069597069593
1.1433135900006164,0.26996336996336995,2.250769230769231,2.8197069597069593
1.1448675530045875,0.26996336996336995,2.250769230769231,2.8197069597069593
1.148716070005321,0.26996336996336995,2.250769230769231,2.8197069597069593
1.1536162250049529,1.8679853479853479,2.328937728937729,0.7953846153846154
1.1580041680063005,2.307179487179487,1.9679120879120877,0.4657875457875458
1.160538804004318,2.307179487179487,1.9679120879120877,0.4657875457875458
1.1676744670039625,2.307179487179487,1.9679120879120877,0.4657875457875458
1.1739058010061854,2.307179487179487,1.9679120879120877,0.4657875457875458
1.1784929090063088,2.307179487179487,1.9679120879120877,0.4657875457875458
1.1788046330038924,2.307179487179487,1.9679120879120877,0.4657875457875458
1.1849066040012985,2.307179487179487,1.9679120879120877,0.4657875457875458
1.1902653460056172,2.307179487179487,1.9679120879120877,0.4657875457875458
1.1905859840044286,2.5553846153846154,2.1750183150183147,0.39809523809523806
1.195440375006001,2.5553846153846154,2.1750183150183147,0.39809523809523806
1.2021703800055548,2.5553846153846154,2.1750183150183147,0.39809523809523806
1.2055705670063617,2.5553846153846154,2.1750183150183147,0.39809523809523806
1.2057880089996615,2.5553846153846154,2.1750183150183147,0.39809523809523806
1.2110268890028237,2.5553846153846154,2.1750183150183147,0.39809523809523806
1.2140980300027877,2.5553846153846154,2.1750183150183147,0.39809523809523806
1.2166019819997018,2.5553846153846154,2.1750183150183147,0.39809523809523806
1.2218618290062295,2.5553846153846154,2.1750183150183147,0.39809523809523806
1.224334042002738,2.5553846153846154,2.1750183150183147,0.39809523809523806
1.2245105800029705,2.5553846153846154,2.1750183150183147,0.39809523809523806
1.2291492210060824,2.5553846153846154,2.1750183150183147,0.39809523809523806
1.2293873939997866,2.245128205128205,2.7004395604395603,3.3
1.234123542002635,2.245128205128205,2.7004395604395603,3.3
1.2342429070049548,1.6157509157509156,1.1765567765567766,1.858315018315018
1.2387245249992702,1.6157509157509156,1.1765567765567766,1.858315018315018
1.2396289490061463,1.6157509157509156,1.1765567765567766,1.858315018315018
1.2411530950048473,1.6157509157509156,1.1765567765567766,1.858315018315018
1.2456557350014918,0.713992673992674,0.24175824175824176,0.49399267399267394
1.245898742999998,0.713992673992674,0.24175824175824176,0.49399267399267394
1.2512749980014632,0.713992673992674,0.24175824175824176,0.49399267399267394
1.2536615499993786,0.713992673992674,0.24175824175824176,0.49399267399267394
1.2538759290036978,0.713992673992674,0.24175824175824176,0.49399267399267394
1.259026049003296,0.713992673992674,0.24175824175824176,0.49399267399267394
1.2633956839999883,0.713992673992674,0.24175824175824176,0.49399267399267394
1.265029793001304,1.008937728937729,0.9057875457875458,0.7583150183150182
1.269413505004195,1.008937728937729,0.9057875457875458,0.7583150183150182
1.2702591060005943,1.6093040293040293,2.313626373626373,1.0774358974358973
1.2719180600033724,1.6093040293040293,2.313626373626373,1.0774358974358973
1.2750069860048825,1.6093040293040293,2.313626373626373,1.0774358974358973
1.2779699050006457,1.1435164835164835,0.47465201465201456,1.9115018315018315
1.2803046590051963,1.1435164835164835,0.47465201465201456,1.9115018315018315
1.2806040690047666,1.1435164835164835,0.47465201465201456,1.9115018315018315
1.2850691760031623,1.1435164835164835,0.47465201465201456,1.9115018315018315
1.2866056980055873,1.1821978021978021,1.4739194139194138,1.1032234432234431
1.2905047520034714,2.1975824175824172,2.5005860805860802,3.3
1.29493417100457,0.14908424908424908,2.075897435897436,2.8535531135531134
1.2952722500049276,0.14908424908424908,2.075897435897436,2.8535531135531134
1.2997718149999855,0.14908424908424908,2.075897435897436,2.8535531135531134
1.3006398630022886,0.14908424908424908,2.075897435897436,2.8535531135531134
1.3022318660005112,0.14908424908424908,2.075897435897436,2.8535531135531134
1.3066332380039967,0.14908424908424908,2.075897435897436,2.8535531135531134
1.3074510030055535,0.14908424908424908,2.075897435897436,2.8535531135531134
1.3091430880012922,0.14908424908424908,2.075897435897436,2.8535531135531134
1.312229188006313,0.14908424908424908,2.075897435897436,2.8535531135531134
1.3152024180017179,0.14908424908424908,2.075897435897436,2.8535531135531134
1.3174628790002316,0.14908424908424908,2.075897435897436,2.8535531135531134
1.3177529400054482,0.14908424908424908,2.075897435897436,2.8535531135531134
1.3232758459998877,0.14908424908424908,2.075897435897436,2.8535531135531134
1.3242647770020994,0.14908424908424908,2.075897435897436,2.8535531135531134
1.325101213005837,0.14908424908424908,2.075897435897436,2.8535531135531134
1.326709238004696,0.14908424908424908,2.075897435897436,2.8535531135531134
1.3305591590033146,1.1725274725274726,1.116923076923077,2.677069597069597
1.3358908750014962,1.1725274725274726,1.116923076923077,2.677069597069597
1.3381739360047504,1.1725274725274726,1.116923076923077,2.677069597069597
1.3384849300055066,2.141978021978022,2.5247619047619043,3.3
1.3431656780012418,2.141978021978022,2.5247619047619043,3.3
1.3434481940057594,2.141978021978022,2.5247619047619043,3.3
1.3481844550042297,2.141978021978022,2.5247619047619043,3.3
1.3534925710046082,1.8744322344322342,2.2684981684981684,0.7212454212454212
1.3558951640006853,1.8744322344322342,2.2684981684981684,0.7212454212454212
1.3613549540023087,1.8744322344322342,2.2684981684981684,0.7212454212454212
1.3636298250057735,1.8744322344322342,2.2684981684981684,0.7212454212454212
1.363887033003266,1.8744322344322342,2.2684981684981684,0.7212454212454212
1.3684627340044244,1.8744322344322342,2.2684981684981684,0.7212454212454212
1.3687560710022808,1.8744322344322342,2.2684981684981684,0.7212454212454212
1.3740960100039956,1.8744322344322342,2.2684981684981684,0.7212454212454212
1.376650903999689,1.8744322344322342,2.2684981684981684,0.7212454212454212
1.3820798310043756,1.8744322344322342,2.2684981684981684,0.7212454212454212
1.3844926599995233,1.8744322344322342,2.2684981684981684,0.7212454212454212
1.3846313690009993,1.8744322344322342,2.2684981684981684,0.7212454212454212
1.389790527005971,1.8744322344322342,2.2684981684981684,0.7212454212454212
1.3927496989999781,2.7125274725274724,1.9606593406593404,1.087106227106227
1.3962356080010068,1.5593406593406591,0.726080586080586,2.0356043956043957
1.3964456250032526,1.5593406593406591,0.726080586080586,2.0356043956043957
1.4012093340061256,1.5593406593406591,0.726080586080586,2.0356043956043957
1.4014220900062355,1.9397069597069596,0.381978021978022,1.2523076923076921
1.4062232330034021,1.9397069597069596,0.381978021978022,1.2523076923076921
1.411126430000877,1.9397069597069596,0.381978021978022,1.2523076923076921
1.415975273004733,2.032380952380952,2.323296703296703,0.42065934065934063
1.4210337370022899,2.032380952380952,2.323296703296703,0.42065934065934063
1.4254049290029798,0.9984615384615383,0.1095970695970696,0.5560439560439561
1.426190795005823,0.9984615384615383,0.1095970695970696,0.5560439560439561
1.4283001430012519,0.9984615384615383,0.1095970695970696,0.5560439560439561
1.4291635760018835,0.7373626373626374,2.2483516483516484,2.0686446886446883
1.4306841360012186,0.7373626373626374,2.2483516483516484,2.0686446886446883
1.434868300006201,0.7373626373626374,2.2483516483516484,2.0686446886446883
1.4376474910022807,1.6947252747252746,0.929157509157509,1.9977289377289376
1.4419999310048297,1.6947252747252746,0.929157509157509,1.9977289377289376
1.4435014900009264,1.6947252747252746,0.929157509157509,1.9977289377289376
1.4476173170041875,1.6947252747252746,0.929157509157509,1.9977289377289376
1.4504579510030453,1.6947252747252746,0.929157509157509,1.9977289377289376
1.4539984940056456,2.378095238095238,2.1395604395604395,0.415018315018315
1.4541814350013738,2.613406593406593,1.739047619047619,1.9437362637362636
1.4584485400046105,2.613406593406593,1.739047619047619,1.9437362637362636
1.4606147960003,2.613406593406593,1.739047619047619,1.9437362637362636
1.4621278250051546,0.9041758241758242,0.35135531135531134,0.4810989010989011
1.4662692109995987,0.9041758241758242,0.35135531135531134,0.4810989010989011
1.4690264340024441,0.9041758241758242,0.35135531135531134,0.4810989010989011
1.4731014460048755,0.9041758241758242,0.35135531135531134,0.4810989010989011
1.4765245220041834,0.9041758241758242,0.35135531135531134,0.4810989010989011
1.477287426001567,0.9041758241758242,0.35135531135531134,0.4810989010989011
1.4794128080029623,0.9041758241758242,0.35135531135531134,0.4810989010989011
1.4809288320029736,0.9041758241758242,0.35135531135531134,0.4810989010989011
1.4851059720022022,0.9041758241758242,0.35135531135531134,0.4810989010989011
1.487835598003585,0.9041758241758242,0.35135531135531134,0.4810989010989011
1.4919641300002695,0.9041758241758242,0.35135531135531134,0.4810989010989011
1.4947607170033734,0.9041758241758242,0.35135531135531134,0.4810989010989011
1.4989539590023924,0.9041758241758242,0.35135531135531134,0.4810989010989011
1.501175712000986,0.9041758241758242,0.35135531135531134,0.4810989010989011
1.502017839004111,0.9041758241758242,0.35135531135531134,0.4810989010989011
1.5034760550042847,0.9041758241758242,0.35135531135531134,0.4810989010989011
1.508337682003912,3.3,1.5214652014652015,3.3
1.5131373300027917,1.456190476190476,1.8567032967032966,3.3
1.5132679420057684,2.2596336996336994,1.2716483516483517,2.017069597069597
1.5180194530039444,2.2596336996336994,1.2716483516483517,2.017069597069597
1.5181798250050633,2.2596336996336994,1.2716483516483517,2.017069597069597
1.5238633430053596,2.2596336996336994,1.2716483516483517,2.017069597069597
1.5240187520030304,2.2596336996336994,1.2716483516483517,2.017069597069597
1.529644548005308,2.2596336996336994,1.2716483516483517,2.017069597069597
1.5298642870038748,2.2596336996336994,1.2716483516483517,2.017069597069597
1.5343876090046251,2.2596336996336994,1.2716483516483517,2.017069597069597
1.5352702730015153,2.2596336996336994,1.2716483516483517,2.017069597069597
1.5367264930027886,2.2596336996336994,1.2716483516483517,2.017069597069597
1.5409956720031914,2.2596336996336994,1.2716483516483517,2.017069597069597
1.5433506240005954,2.2596336996336994,1.2716483516483517,2.017069597069597
1.5435882160018082,2.445787545787546,2.909157509157509,2.273333333333333
1.5479703580058413,3.3,1.4739194139194138,3.3
1.549491386002046,3.3,1.4739194139194138,3.3
1.553849509000429,3.3,1.4739194139194138,3.3
1.5547670520027168,3.3,1.4739194139194138,3.3
1.5563854400024866,3.3,1.4739194139194138,3.3
1.5611687320051715,3.3,1.4739194139194138,3.3
1.5666535760028637,1.6778021978021975,0.23208791208791207,0.8356776556776556
1.5683406500029378,1.6778021978021975,0.23208791208791207,0.8356776556776556
1.5722814070031745,1.6778021978021975,0.23208791208791207,0.8356776556776556
1.5770392250051373,1.6778021978021975,0.23208791208791207,0.8356776556776556
1.5828276230022311,1.6778021978021975,0.23208791208791207,0.8356776556776556
1.588486054999521,1.6778021978021975,0.23208791208791207,0.8356776556776556
1.5894807720032986,1.6778021978021975,0.23208791208791207,0.8356776556776556
1.590422719003982,1.6778021978021975,0.23208791208791207,0.8356776556776556
1.5913541710033314,1.6778021978021975,0.23208791208791207,0.8356776556776556
1.5923758280041511,1.6778021978021975,0.23208791208791207,0.8356776556776556
1.5933688830045867,1.6778021978021975,0.23208791208791207,0.8356776556776556
1.5943547280039638,1.6778021978021975,0.23208791208791207,0.8356776556776556
1.5953050270036329,1.6778021978021975,0.23208791208791207,0.8356776556776556
1.5962520940011018,1.6778021978021975,0.23208791208791207,0.8356776556776556
1.5971736530045746,1.6778021978021975,0.23208791208791207,0.8356776556776556
1.5987809250000282,1.6778021978021975,0.23208791208791207,0.8356776556776556
1.602674941001169,1.983223443223443,0.31347985347985347,1.2877655677655677
1.6067562150055892,3.2419780219780217,2.9986080586080583,2.625494505494505
1.6092993480051518,3.2419780219780217,2.9986080586080583,2.625494505494505
1.6145266270032153,3.2419780219780217,2.9986080586080583,2.625494505494505
1.6167761010001414,3.2419780219780217,2.9986080586080583,2.625494505494505
1.6175582060022862,3.2419780219780217,2.9986080586080583,2.625494505494505
1.6191010850016028,1.987252747252747,0.2651282051282051,1.1588278388278386
1.624567005004792,1.987252747252747,0.2651282051282051,1.1588278388278386
1.6263291130017024,1.987252747252747,0.2651282051282051,1.1588278388278386
1.6296700170059921,1.987252747252747,0.2651282051282051,1.1588278388278386
1.6306334719993174,0.2594871794871795,2.241098901098901,2.8060073260073257
1.631482977005362,0.2594871794871795,2.241098901098901,2.8060073260073257
1.6331863950035768,0.2594871794871795,2.241098901098901,2.8060073260073257
1.6363448910051375,0.7204395604395604,0.4528937728937729,1.7720879120879118
1.6394117189993267,1.2660073260073261,0.5334798534798535,2.15003663003663
1.640972982000676,1.2660073260073261,0.5334798534798535,2.15003663003663
1.645582306999131,1.2660073260073261,0.5334798534798535,2.15003663003663
1.6458416860041325,1.2660073260073261,0.5334798534798535,2.15003663003663
1.6505482170032337,1.2660073260073261,0.5334798534798535,2.15003663003663
1.6508390540038818,1.2660073260073261,0.5334798534798535,2.15003663003663
1.6561936390062328,1.2660073260073261,0.5334798534798535,2.15003663003663
1.6585171740007354,1.2660073260073261,0.5334798534798535,2.15003663003663
1.6587569559997064,1.9389010989010989,0.30542124542124544,1.0838827838827838
1.6642534530037665,1.9389010989010989,0.30542124542124544,1.0838827838827838
1.6658819090007455,1.9389010989010989,0.30542124542124544,1.0838827838827838
1.669481157005066,1.9389010989010989,0.30542124542124544,1.0838827838827838
1.6702465990019846,1.9389010989010989,0.30542124542124544,1.0838827838827838
1.672386208003445,1.9389010989010989,0.30542124542124544,1.0838827838827838
1.673196307005128,1.9389010989010989,0.30542124542124544,1.0838827838827838
1.6754395140014822,1.9389010989010989,0.30542124542124544,1.0838827838827838
1.6757558450044598,1.9389010989010989,0.30542124542124544,1.0838827838827838
1.6803572390053887,1.9389010989010989,0.30542124542124544,1.0838827838827838
1.6806283250043634,1.062930402930403,0.2756043956043956,0.5641025641025641
1.6859953770035645,1.062930402930403,0.2756043956043956,0.5641025641025641
1.6882607440056745,1.5287179487179487,1.834945054945055,3.3
1.688563094001438,1.5287179487179487,1.834945054945055,3.3
1.6930775660002837,1.5287179487179487,1.834945054945055,3.3
1.6939362350021838,1.6745787545787545,0.909010989010989,1.9856410256410255
1.6954659770053695,1.6745787545787545,0.909010989010989,1.9856410256410255
1.7001438030056306,1.4569963369963368,0.6728937728937728,2.1830769230769227
1.7004569330019876,1.4569963369963368,0.6728937728937728,2.1830769230769227
1.7051060800004052,1.4569963369963368,0.6728937728937728,2.1830769230769227
1.705426445005287,1.4569963369963368,0.6728937728937728,2.1830769230769227
1.710549807001371,1.4569963369963368,0.6728937728937728,2.1830769230769227
1.7136369130021194,1.4569963369963368,0.6728937728937728,2.1830769230769227
1.715933022001991,2.038021978021978,1.0983882783882783,1.9501831501831501
1.716190044004179,2.038021978021978,1.0983882783882783,1.9501831501831501
1.7211032660052297,2.038021978021978,1.0983882783882783,1.9501831501831501
1.7261298459998216,2.038021978021978,1.0983882783882783,1.9501831501831501
1.730736698002147,2.038021978021978,1.0983882783882783,1.9501831501831501
1.7309726880048402,2.038021978021978,1.0983882783882783,1.9501831501831501
1.736559816999943,2.038021978021978,1.0983882783882783,1.9501831501831501
1.7374210680063698,2.038021978021978,1.0983882783882783,1.9501831501831501
1.7390651060050004,2.038021978021978,1.0983882783882783,1.9501831501831501
1.7429497960038134,2.038021978021978,1.0983882783882783,1.9501831501831501
1.7467042930002208,2.038021978021978,1.0983882783882783,1.9501831501831501
1.7519767949997913,2.038021978021978,1.0983882783882783,1.9501831501831501
1.7549536600054125,2.038021978021978,1.0983882783882783,1.9501831501831501
1.7572982679994311,1.6157509157509156,0.8211721611721612,2.1637362637362636
1.7575359380061855,1.6157509157509156,0.8211721611721612,2.1637362637362636
1.7619934270041995,1.6157509157509156,0.8211721611721612,2.1637362637362636
1.7628887560058502,1.6157509157509156,0.8211721611721612,2.1637362637362636
1.7644243989998358,1.6157509157509156,0.8211721611721612,2.1637362637362636
1.7688575310021406,1.6157509157509156,0.8211721611721612,2.1637362637362636
1.7697415040020132,1.6157509157509156,0.8211721611721612,2.1637362637362636
1.7713133190045482,1.6157509157509156,0.8211721611721612,2.1637362637362636
1.7762978820028366,1.6157509157509156,0.8211721611721612,2.1637362637362636
1.7800163790016086,1.6157509157509156,0.8211721611721612,2.1637362637362636
1.7845760220006923,0.958974358974359,0.2651282051282051,0.5173626373626373
1.7847827389996382,0.958974358974359,0.2651282051282051,0.5173626373626373
1.7902570600053878,0.958974358974359,0.2651282051282051,0.5173626373626373
1.792599300002621,2.1766300366300366,2.759267399267399,2.552967032967033
1.7928114740061574,2.1766300366300366,2.759267399267399,2.552967032967033
1.7974000820031506,2.1766300366300366,2.759267399267399,2.552967032967033
1.7976915540057234,2.1766300366300366,2.759267399267399,2.552967032967033
1.8023865520008258,2.1766300366300366,2.759267399267399,2.552967032967033
1.8026191419994575,2.1766300366300366,2.759267399267399,2.552967032967033
1.8071845140002551,2.1766300366300366,2.759267399267399,2.552967032967033
1.8074331660027383,2.1766300366300366,2.759267399267399,2.552967032967033
1.8121830720047,2.1766300366300366,2.759267399267399,2.552967032967033
1.8123079430006328,2.2193406593406593,1.2515018315018314,1.9437362637362636
1.8167099060010514,2.2193406593406593,1.2515018315018314,1.9437362637362636
1.8176064409999526,1.4723076923076923,2.1137728937728935,3.3
1.819215035000525,1.4723076923076923,2.1137728937728935,3.3
1.8238677789995563,1.4723076923076923,2.1137728937728935,3.3
1.823998443003802,1.4723076923076923,2.1137728937728935,3.3
1.8292204570025206,1.4723076923076923,2.1137728937728935,3.3
1.8322324610053329,1.4723076923076923,2.1137728937728935,3.3
1.8344711660029134,1.4723076923076923,2.1137728937728935,3.3
1.8347168740001507,1.4723076923076923,2.1137728937728935,3.3
1.8392436170033761,1.4723076923076923,2.1137728937728935,3.3
1.8408208670007298,1.4723076923076923,2.1137728937728935,3.3
1.844715286999417,1.4723076923076923,2.1137728937728935,3.3
1.8487220000024536,1.4723076923076923,2.1137728937728935,3.3
1.851791929002502,1.4723076923076923,2.1137728937728935,3.3
1.8540914230034105,1.4723076923076923,2.1137728937728935,3.3
1.8543718729997636,0.7921611721611721,0.3731135531135531,1.8051282051282052
1.8596830440001213,0.7921611721611721,0.3731135531135531,1.8051282051282052
1.861311063003086,1.1983150183150182,1.1193406593406594,2.8366300366300368
1.865064967001672,1.1983150183150182,1.1193406593406594,2.8366300366300368
1.870585889002541,1.1983150183150182,1.1193406593406594,2.8366300366300368
1.8722950650044368,1.1983150183150182,1.1193406593406594,2.8366300366300368
1.8753331610059831,1.1983150183150182,1.1193406593406594,2.8366300366300368
1.8775986200053012,1.1983150183150182,1.1193406593406594,2.8366300366300368
1.877877188999264,1.1983150183150182,1.1193406593406594,2.8366300366300368
1.882726524003374,1.1983150183150182,1.1193406593406594,2.8366300366300368
1.88805687900458,1.1983150183150182,1.1193406593406594,2.8366300366300368
1.890512950005359,1.1983150183150182,1.1193406593406594,2.8366300366300368
1.8958355880022282,1.1983150183150182,1.1193406593406594,2.8366300366300368
1.8983044620035798,1.1983150183150182,1.1193406593406594,2.8366300366300368
1.89846681200288,1.1983150183150182,1.1193406593406594,2.8366300366300368
1.9031049110053573,1.1983150183150182,1.1193406593406594,2.8366300366300368
1.9033845770027256,1.1983150183150182,1.1193406593406594,2.8366300366300368
1.9080326790062827,1.1983150183150182,1.1193406593406594,2.8366300366300368
1.908257303002756,1.1983150183150182,1.1193406593406594,2.8366300366300368
1.9127739120012848,1.1983150183150182,1.1193406593406594,2.8366300366300368
1.9136113910062704,1.1983150183150182,1.1193406593406594,2.8366300366300368
1.9151654620000045,1.1983150183150182,1.1193406593406594,2.8366300366300368
1.920396243003779,1.1983150183150182,1.1193406593406594,2.8366300366300368
1.9236085700031254,1.1983150183150182,1.1193406593406594,2.8366300366300368
1.9244676189991878,1.1983150183150182,1.1193406593406594,2.8366300366300368
1.9261855150034535,1.1983150183150182,1.1193406593406594,2.8366300366300368
1.9300342820060905,1.1983150183150182,1.1193406593406594,2.8366300366300368
1.9338858030023403,1.1983150183150182,1.1193406593406594,2.8366300366300368
1.9379405569998198,0.9259340659340659,0.3626373626373626,1.8808791208791207
1.9411824850030825,1.7011721611721609,0.24417582417582417,0.9404395604395603
1.9422109549996094,1.7011721611721609,0.24417582417582417,0.9404395604395603
1.9431153050027206,1.7011721611721609,0.24417582417582417,0.9404395604395603
1.9446429849995184,1.7011721611721609,0.24417582417582417,0.9404395604395603
1.9484089950055932,1.7011721611721609,0.24417582417582417,0.9404395604395603
1.9530896870055585,2.0057875457875456,2.374871794871795,0.4222710622710622
1.9533282010015682,2.0057875457875456,2.374871794871795,0.4222710622710622
1.9585369430060382,2.0057875457875456,2.374871794871795,0.4222710622710622
1.9615181990011479,2.0057875457875456,2.374871794871795,0.4222710622710622
1.9638543530018069,2.0057875457875456,2.374871794871795,0.4222710622710622
1.9640423310047481,2.0057875457875456,2.374871794871795,0.4222710622710622
1.9693933590024244,2.0057875457875456,2.374871794871795,0.4222710622710622
1.9723146800024551,2.0057875457875456,2.374871794871795,0.4222710622710622
1.9752735900037806,1.58996336996337,0.7857142857142856,2.1024908424908424
1.9782575050048763,1.58996336996337,0.7857142857142856,2.1024908424908424
1.9813045140035683,1.58996336996337,0.7857142857142856,2.1024908424908424
1.9836107720038854,1.120952380952381,0.2377289377289377,0.585054945054945
1.9838354530002107,1.120952380952381,0.2377289377289377,0.585054945054945
1.9890035670032375,1.120952380952381,0.2377289377289377,0.585054945054945
1.9929346839999198,1.307106227106227,2.2136996336996333,1.1958974358974357
1.9958861980048823,1.307106227106227,2.2136996336996333,1.1958974358974357
1.9982449740055017,1.6157509157509156,0.8042490842490841,2.283003663003663
1.9985130410059355,1.6157509157509156,0.8042490842490841,2.283003663003663
2.003151965000143,1.6157509157509156,0.8042490842490841,2.283003663003663
2.00339780899958,1.6157509157509156,0.8042490842490841,2.283003663003663
2.0086449520022143,1.6157509157509156,0.8042490842490841,2.283003663003663
2.011059117001423,1.6157509157509156,0.8042490842490841,2.283003663003663
2.01123626500339,1.6157509157509156,0.8042490842490841,2.283003663003663
2.0164853200039943,1.6157509157509156,0.8042490842490841,2.283003663003663
2.018751809002424,1.6157509157509156,0.8042490842490841,2.283003663003663
2.0190378520055674,1.6157509157509156,0.8042490842490841,2.283003663003663
2.024423895003565,1.6157509157509156,0.8042490842490841,2.283003663003663
2.0269006400048966,3.3,2.9744322344322343,2.6883516483516483
2.032256602004054,3.3,2.9744322344322343,2.6883516483516483
2.034747944002447,3.3,2.9744322344322343,2.6883516483516483
2.0400115310039837,3.3,2.9744322344322343,2.6883516483516483
2.043241063001915,2.291062271062271,2.4667399267399266,3.1904029304029304
2.0441563230051543,2.291062271062271,2.4667399267399266,3.1904029304029304
2.045759660002659,2.291062271062271,2.4667399267399266,3.1904029304029304
2.0494541650041356,1.1427106227106225,0.9904029304029303,2.618241758241758
2.0547226519993274,1.1427106227106225,0.9904029304029303,2.618241758241758
2.057776190005825,1.1427106227106225,0.9904029304029303,2.618241758241758
2.059474715999386,1.1427106227106225,0.9904029304029303,2.618241758241758
2.062663032003911,1.3433699633699634,0.31509157509157504,0.7002930402930403
2.0641955680039246,0.8582417582417583,0.27318681318681315,0.5802197802197803
2.0686439170021913,0.8582417582417583,0.27318681318681315,0.5802197802197803
2.0702861530007794,0.8582417582417583,0.27318681318681315,0.5802197802197803
2.074140795004496,0.8582417582417583,0.27318681318681315,0.5802197802197803
2.078781971002172,2.116996336996337,1.2901831501831502,2.3087912087912086
2.084280764000141,2.116996336996337,1.2901831501831502,2.3087912087912086
2.0858175239991397,2.116996336996337,1.2901831501831502,2.3087912087912086
2.0897056920002797,2.116996336996337,1.2901831501831502,2.3087912087912086
2.0936651560041355,2.423223443223443,1.6407326007326006,1.577875457875458
2.0967066290031653,1.216849816849817,0.5238095238095237,2.0597802197802197
2.099160262005171,2.283003663003663,2.626300366300366,3.2516483516483516
2.0992881690035574,2.145201465201465,0.3183150183150183,1.1612454212454213
2.1044801130046835,2.145201465201465,0.3183150183150183,1.1612454212454213
2.1074259470042307,1.016996336996337,1.4916483516483516,1.2079853479853477
2.109885646001203,1.016996336996337,1.4916483516483516,1.2079853479853477
2.115192614000989,1.016996336996337,1.4916483516483516,1.2079853479853477
2.1182050150018767,2.0509157509157507,1.24021978021978,2.3200732600732596
2.1212147520054714,2.0509157509157507,1.24021978021978,2.3200732600732596
2.124278185001458,1.5045421245421244,2.021098901098901,1.7197069597069596
2.126601264004421,1.9719413919413917,2.6069597069597066,2.145201465201465
2.126788514004147,1.9719413919413917,2.6069597069597066,2.145201465201465
2.1313832180021564,1.9719413919413917,2.6069597069597066,2.145201465201465
2.1316615489995456,1.9719413919413917,2.6069597069597066,2.145201465201465
2.1362469070008956,1.9719413919413917,2.6069597069597066,2.145201465201465
2.1371195770043414,1.9719413919413917,2.6069597069597066,2.145201465201465
2.1386631060013315,1.8704029304029302,0.5673260073260072,1.4763369963369963
2.1424770490048104,1.8873260073260072,0.2772161172161172,1.1419047619047618
2.1469313630004763,1.8873260073260072,0.2772161172161172,1.1419047619047618
2.147270332003245,1.228937728937729,1.4223443223443224,2.984908424908425
2.151753185004054,1.228937728937729,1.4223443223443224,2.984908424908425
2.1527817620008136,1.228937728937729,1.4223443223443224,2.984908424908425
2.1536130380045506,1.228937728937729,1.4223443223443224,2.984908424908425
2.1553139930038014,1.228937728937729,1.4223443223443224,2.984908424908425
2.159260466003616,1.228937728937729,1.4223443223443224,2.984908424908425
2.1631160899996758,1.8704029304029302,0.3167032967032967,1.0693772893772893
2.166837814002065,1.8704029304029302,0.3167032967032967,1.0693772893772893
2.1721712540020235,1.8704029304029302,0.3167032967032967,1.0693772893772893
2.1753037740054424,2.9518681318681317,2.1186080586080585,2.032380952380952
2.176911968002969,2.9518681318681317,2.1186080586080585,2.032380952380952
2.1813606950017856,2.403076923076923,2.8197069597069593,3.3
2.182257576001575,2.403076923076923,2.8197069597069593,3.3
2.1831442180045997,3.098534798534798,2.843882783882784,2.609377289377289
2.1847714300020016,3.098534798534798,2.843882783882784,2.609377289377289
2.1884705770062283,3.098534798534798,2.843882783882784,2.609377289377289
2.193839345003653,3.098534798534798,2.843882783882784,2.609377289377289
2.1954516490004607,3.098534798534798,2.843882783882784,2.609377289377289
2.199275839004258,3.098534798534798,2.843882783882784,2.609377289377289
2.2037110200035386,3.098534798534798,2.843882783882784,2.609377289377289
2.2046180370016373,3.098534798534798,2.843882783882784,2.609377289377289
2.2062322900019353,3.098534798534798,2.843882783882784,2.609377289377289
2.210622313003114,3.098534798534798,2.843882783882784,2.609377289377289
2.21146291000332,3.098534798534798,2.843882783882784,2.609377289377289
2.2130199410021305,3.098534798534798,2.843882783882784,2.609377289377289
2.217486467001436,3.098534798534798,2.843882783882784,2.609377289377289
2.219012785004452,1.2692307692307692,0.5471794871794872,2.2918681318681315
2.2234792029994424,1.2692307692307692,0.5471794871794872,2.2918681318681315
2.224352926001302,0.8534065934065934,0.303003663003663,0.5350915750915751
2.2266797379998025,3.3,1.543223443223443,3.3
2.226893017999828,3.3,1.543223443223443,3.3
2.231570198004192,3.3,1.543223443223443,3.3
2.231742451003811,3.3,1.543223443223443,3.3
2.2365248140049516,3.3,1.543223443223443,3.3
2.2419392430019798,3.3,1.543223443223443,3.3
2.243561019000481,3.3,1.543223443223443,3.3
2.2472665070017683,3.3,1.543223443223443,3.3
2.252505132004444,3.3,1.543223443223443,3.3
2.2546842610026943,3.3,1.543223443223443,3.3
2.2555422730001737,3.3,1.543223443223443,3.3
2.2570880910061533,3.3,1.543223443223443,3.3
2.2612567050018697,3.3,1.543223443223443,3.3
2.2640788620046806,3.3,1.543223443223443,3.3
2.2674672070061206,3.3,1.543223443223443,3.3
2.2682982250044006,3.3,1.543223443223443,3.3
2.2703762400051346,3.3,1.543223443223443,3.3
2.2719118320019334,2.390989010989011,1.838168498168498,1.0363369963369962
2.2761669770043227,2.390989010989011,1.838168498168498,1.0363369963369962
2.278304115003266,2.390989010989011,1.838168498168498,1.0363369963369962
2.2798060100030852,2.390989010989011,1.838168498168498,1.0363369963369962
2.2839738960028626,2.390989010989011,1.838168498168498,1.0363369963369962
2.28614487300365,2.390989010989011,1.838168498168498,1.0363369963369962
2.2869867330009583,2.390989010989011,1.838168498168498,1.0363369963369962
2.2891521390047274,2.390989010989011,1.838168498168498,1.0363369963369962
2.289933705003932,2.390989010989011,1.838168498168498,1.0363369963369962
2.2914372430022922,2.390989010989011,1.838168498168498,1.0363369963369962
2.2955907420036965,2.390989010989011,1.838168498168498,1.0363369963369962
2.298460835001606,2.390989010989011,1.838168498168498,1.0363369963369962
2.3025389649992576,2.390989010989011,1.838168498168498,1.0363369963369962
2.3054074090032373,2.390989010989011,1.838168498168498,1.0363369963369962
2.3082274420012254,2.390989010989011,1.838168498168498,1.0363369963369962
2.3123543790061376,2.390989010989011,1.838168498168498,1.0363369963369962
2.31455251800071,2.390989010989011,1.838168498168498,1.0363369963369962
2.3153897459997097,2.390989010989011,1.838168498168498,1.0363369963369962
2.316854147000413,2.390989010989011,1.838168498168498,1.0363369963369962
2.3232200820057187,2.390989010989011,1.838168498168498,1.0363369963369962
2.3263311050031916,2.390989010989011,1.838168498168498,1.0363369963369962
2.3286445800040383,2.390989010989011,1.838168498168498,1.0363369963369962
2.3288502950017573,2.390989010989011,1.838168498168498,1.0363369963369962
2.3337226520015975,2.390989010989011,1.838168498168498,1.0363369963369962
2.3383943000008003,2.1105494505494504,1.4223443223443224,2.161318681318681
2.338525163999293,1.9316483516483516,0.32717948717948714,1.2176556776556777
2.3441974410015973,1.9316483516483516,0.32717948717948714,1.2176556776556777
2.3450014050031314,1.9316483516483516,0.32717948717948714,1.2176556776556777
2.3466906899993774,1.9316483516483516,0.32717948717948714,1.2176556776556777
2.3504858920059633,1.9316483516483516,0.32717948717948714,1.2176556776556777
2.3549774370039813,2.017875457875458,1.1153113553113554,1.991282051282051
2.3558873610018054,2.017875457875458,1.1153113553113554,1.991282051282051
2.35743312699924,2.017875457875458,1.1153113553113554,1.991282051282051
2.3620122650027042,2.017875457875458,1.1153113553113554,1.991282051282051
2.362326070004201,1.3619047619047617,0.2224175824175824,0.7478388278388278
2.3668564570034505,3.008278388278388,3.1009523809523807,2.6698168498168497
2.367133677005768,3.008278388278388,3.1009523809523807,2.6698168498168497
2.3716249680001056,3.008278388278388,3.1009523809523807,2.6698168498168497
2.372601408002083,3.008278388278388,3.1009523809523807,2.6698168498168497
2.3735151610017056,3.008278388278388,3.1009523809523807,2.6698168498168497
2.3750711899992893,3.008278388278388,3.1009523809523807,2.6698168498168497
2.3796029160002945,3.008278388278388,3.1009523809523807,2.6698168498168497
2.379866318005952,3.008278388278388,3.1009523809523807,2.6698168498168497
2.384436356005608,3.008278388278388,3.1009523809523807,2.6698168498168497
2.385245859004499,3.008278388278388,3.1009523809523807,2.6698168498168497
2.3867805160043645,3.008278388278388,3.1009523809523807,2.6698168498168497
2.3912440679996507,0.32073260073260074,2.274945054945055,2.398241758241758
2.391557384005864,2.644029304029304,1.9663003663003662,1.4876190476190476
2.396170799001993,1.6689377289377287,0.8517948717948718,2.1008791208791204
2.396999067001161,1.6689377289377287,0.8517948717948718,2.1008791208791204
2.398606266004208,1.6689377289377287,0.8517948717948718,2.1008791208791204
2.4025482819997706,1.6689377289377287,0.8517948717948718,2.1008791208791204
2.406250184001692,0.929157509157509,0.29333333333333333,0.5383150183150183
2.406395561003592,0.929157509157509,0.29333333333333333,0.5383150183150183
2.411660843004938,0.929157509157509,0.29333333333333333,0.5383150183150183
2.4138942140052677,0.929157509157509,0.29333333333333333,0.5383150183150183
2.414174895005999,0.929157509157509,0.29333333333333333,0.5383150183150183
2.4194576290028635,0.929157509157509,0.29333333333333333,0.5383150183150183
2.4217759410021245,0.9936263736263735,0.2925274725274725,0.5842490842490843
2.422040329001902,0.9936263736263735,0.2925274725274725,0.5842490842490843
2.4273305280003115,3.3,2.7898901098901097,2.8326007326007323
2.430324972003291,3.3,2.7898901098901097,2.8326007326007323
2.432672111004649,2.149230769230769,2.178241758241758,0.2594871794871795
2.4328121569997165,2.149230769230769,2.178241758241758,0.2594871794871795
2.437333705005585,2.149230769230769,2.178241758241758,0.2594871794871795
2.4382043900041026,2.149230769230769,2.178241758241758,0.2594871794871795
2.439873728006205,2.149230769230769,2.178241758241758,0.2594871794871795
2.443042429003981,2.149230769230769,2.178241758241758,0.2594871794871795
2.4446118220002973,0.8364835164835164,0.3690842490842491,0.5778021978021978
2.4483488490004675,2.3813186813186813,0.5858608058608058,3.3
2.4539846910047345,2.3813186813186813,0.5858608058608058,3.3
2.4550092760036932,2.3813186813186813,0.5858608058608058,3.3
2.4552969340002164,2.3813186813186813,0.5858608058608058,3.3
2.4598215560035896,2.3813186813186813,0.5858608058608058,3.3
2.4601826110010734,2.3813186813186813,0.5858608058608058,3.3
2.464691414999834,2.3813186813186813,0.5858608058608058,3.3
2.4655666670005303,2.3813186813186813,0.5858608058608058,3.3
2.467115608000313,2.3813186813186813,0.5858608058608058,3.3
2.4716847730014706,0.8324542124542124,2.241098901098901,1.8156043956043957
2.4718469770014053,2.5948717948717945,1.93003663003663,1.498901098901099
2.4764010150029208,2.5948717948717945,1.93003663003663,1.498901098901099
2.4772561880017747,2.5948717948717945,1.93003663003663,1.498901098901099
2.478994312004943,2.5948717948717945,1.93003663003663,1.498901098901099
2.482914776002872,2.5948717948717945,1.93003663003663,1.498901098901099
2.4866434979994665,2.5948717948717945,1.93003663003663,1.498901098901099
2.4920164750001277,2.5948717948717945,1.93003663003663,1.498901098901099
2.494321882004442,2.5948717948717945,1.93003663003663,1.498901098901099
2.494565455002885,2.5948717948717945,1.93003663003663,1.498901098901099
2.4987733450034284,2.5948717948717945,1.93003663003663,1.498901098901099
2.5009241940060747,1.2515018315018314,0.2804395604395604,0.6986813186813187
2.501780543003406,1.2515018315018314,0.2804395604395604,0.6986813186813187
2.5032759820023784,1.2515018315018314,0.2804395604395604,0.6986813186813187
2.5080768580010044,3.3,2.3652014652014652,3.187985347985348
2.5081735710045905,2.4747985347985346,0.6753113553113552,3.3
2.512859129004937,2.4747985347985346,0.6753113553113552,3.3
2.5130407020042185,1.4626373626373625,0.6519413919413919,2.095238095238095
2.517960495002626,1.4626373626373625,0.6519413919413919,2.095238095238095
2.5228424920060206,1.5883516483516482,0.73010989010989,2.3297435897435896
2.527499729003466,1.5883516483516482,0.73010989010989,2.3297435897435896
2.527771323999332,1.5883516483516482,0.73010989010989,2.3297435897435896
2.5325795250028023,1.5883516483516482,0.73010989010989,2.3297435897435896
2.5327189930030727,2.013846153846154,1.4030036630036629,1.7487179487179487
2.537460995001311,2.013846153846154,1.4030036630036629,1.7487179487179487
2.5375886380061274,2.013846153846154,1.4030036630036629,1.7487179487179487
2.5423206520063104,2.013846153846154,1.4030036630036629,1.7487179487179487
2.542504707002081,2.013846153846154,1.4030036630036629,1.7487179487179487
2.547090872001718,2.013846153846154,1.4030036630036629,1.7487179487179487
2.547327291002148,2.1443956043956045,2.4627106227106226,3.3
2.5519291810051072,2.1443956043956045,2.4627106227106226,3.3
2.5522414869992645,2.726227106227106,2.4876923076923076,1.1112820512820514
2.5569817190043977,2.726227106227106,2.4876923076923076,1.1112820512820514
2.5622413240052992,1.7487179487179487,1.361098901098901,2.287032967032967
2.565363294001145,3.3,2.763296703296703,2.6383882783882786
2.5669890270000906,3.3,2.763296703296703,2.6383882783882786
2.57156180000311,3.3,2.763296703296703,2.6383882783882786
2.5718531310049,3.3,2.763296703296703,2.6383882783882786
2.576600704000157,3.3,2.763296703296703,2.6383882783882786
2.5767145860008895,3.3,2.763296703296703,2.6383882783882786
2.581650123000145,3.3,2.763296703296703,2.6383882783882786
2.581858335004654,0.7325274725274724,0.22967032967032966,0.5463736263736263
2.586430678005854,3.3,2.8785347985347984,2.7334798534798534
2.587279211002169,3.3,2.8624175824175824,3.0397069597069595
2.588889601000119,3.3,2.8624175824175824,3.0397069597069595
2.592907758000365,1.9767765567765565,2.2684981684981684,0.2683516483516483
2.5961175930060563,1.9767765567765565,2.2684981684981684,0.2683516483516483
2.597656416000973,1.9767765567765565,2.2684981684981684,0.2683516483516483
2.601999844999227,1.9767765567765565,2.2684981684981684,0.2683516483516483
2.603665747999912,1.9767765567765565,2.2684981684981684,0.2683516483516483
2.6067191130059655,1.9767765567765565,2.2684981684981684,0.2683516483516483
2.609188570000697,1.361098901098901,1.7132600732600733,3.3
2.6144342830011738,1.361098901098901,1.7132600732600733,3.3
2.617523101005645,1.361098901098901,1.7132600732600733,3.3
2.6199559689994203,1.361098901098901,1.7132600732600733,3.3
2.625400017001084,1.361098901098901,1.7132600732600733,3.3
2.6270113909995416,1.361098901098901,1.7132600732600733,3.3
2.630799760001537,1.361098901098901,1.7132600732600733,3.3
2.6362453010005993,1.361098901098901,1.7132600732600733,3.3
2.638614330004202,1.361098901098901,1.7132600732600733,3.3
2.643979553002282,1.1386813186813185,0.2224175824175824,0.6616117216117217
2.646398394004791,1.1386813186813185,0.2224175824175824,0.6616117216117217
2.651849054003833,1.1386813186813185,0.2224175824175824,0.6616117216117217
2.653375682006299,1.1386813186813185,0.2224175824175824,0.6616117216117217
2.657147297002666,1.1386813186813185,0.2224175824175824,0.6616117216117217
2.6624484970016056,2.116996336996337,0.28930402930402926,1.4908424908424909
2.6653724780044286,2.116996336996337,0.28930402930402926,1.4908424908424909
2.668241987004876,2.116996336996337,0.28930402930402926,1.4908424908424909
2.6710564110035193,2.116996336996337,0.28930402930402926,1.4908424908424909
2.67510811300599,2.116996336996337,0.28930402930402926,1.4908424908424909
2.6785891740000807,2.116996336996337,0.28930402930402926,1.4908424908424909
2.6787755440018373,1.5851282051282052,0.24739926739926738,0.9098168498168498
2.6834793580055702,1.5851282051282052,0.24739926739926738,0.9098168498168498
2.6837589370043133,3.3,2.702857142857143,2.7504029304029305
2.6898935140052345,3.3,2.702857142857143,2.7504029304029305
2.6937964750031824,3.3,2.702857142857143,2.7504029304029305
2.698201445004088,3.3,2.702857142857143,2.7504029304029305
2.699756084002729,3.3,2.702857142857143,2.7504029304029305
2.7034529600059614,3.3,2.702857142857143,2.7504029304029305
2.708707713005424,3.3,2.702857142857143,2.7504029304029305
2.711005772005592,3.3,2.702857142857143,2.7504029304029305
2.7113256380034727,2.432893772893773,2.3853479853479853,0.8477655677655677
2.715820003002591,2.432893772893773,2.3853479853479853,0.8477655677655677
2.716187002006336,2.432893772893773,2.3853479853479853,0.8477655677655677
2.7207468890046584,2.432893772893773,2.3853479853479853,0.8477655677655677
2.7210261920045014,2.432893772893773,2.3853479853479853,0.8477655677655677
2.7265287390036974,1.016996336996337,1.0073260073260073,0.846153846153846
2.7273679790014285,1.016996336996337,1.0073260073260073,0.846153846153846
2.7290831730060745,1.016996336996337,1.0073260073260073,0.846153846153846
2.733075068004837,1.016996336996337,1.0073260073260073,0.846153846153846
2.737309083000582,2.27010989010989,1.3312820512820513,1.8969963369963367
2.73898351599928,2.374871794871795,2.7125274725274724,3.3
2.7422462739996263,2.374871794871795,2.7125274725274724,3.3
2.743104768000194,2.374871794871795,2.7125274725274724,3.3
2.7447447040030966,2.374871794871795,2.7125274725274724,3.3
2.7484997720021056,2.374871794871795,2.7125274725274724,3.3
2.7532843310036696,2.374871794871795,2.7125274725274724,3.3
2.758598015003372,1.9574358974358974,1.0331135531135531,2.1234432234432234
2.7608600160019705,1.9574358974358974,1.0331135531135531,2.1234432234432234
2.7611351490049856,1.9574358974358974,1.0331135531135531,2.1234432234432234
2.7657391680040746,1.9574358974358974,1.0331135531135531,2.1234432234432234
2.7666543560044374,1.9574358974358974,1.0331135531135531,2.1234432234432234
2.767601008999918,1.9574358974358974,1.0331135531135531,2.1234432234432234
2.769246424002631,1.9574358974358974,1.0331135531135531,2.1234432234432234
2.7730876030036598,1.9574358974358974,1.0331135531135531,2.1234432234432234
2.7780806260052486,2.6085714285714285,1.8252747252747252,1.801098901098901
2.7818298880010843,2.6085714285714285,1.8252747252747252,1.801098901098901
2.787776613004098,1.7978754578754577,2.3563369963369962,1.983223443223443
2.794572106002306,1.1161172161172161,1.2861538461538462,3.075164835164835
2.7990490369993495,1.1564102564102563,0.855018315018315,1.8695970695970694
2.800603798001248,1.1564102564102563,0.855018315018315,1.8695970695970694
2.8050184980020276,1.1564102564102563,0.855018315018315,1.8695970695970694
2.805903403001139,3.3,2.932527472527472,3.1904029304029304
2.80685674000415,3.3,2.932527472527472,3.1904029304029304
2.808420250999916,3.3,2.932527472527472,3.1904029304029304
2.812177434003388,3.3,2.932527472527472,3.1904029304029304
2.8166688390047057,3.3,2.932527472527472,3.1904029304029304
2.8169398520039977,0.9573626373626374,0.7212454212454212,2.378095238095238
2.8217294339992804,1.846227106227106,0.27238095238095233,0.9984615384615383
2.8218672319999314,1.846227106227106,0.27238095238095233,0.9984615384615383
2.8267442600044888,1.846227106227106,0.27238095238095233,0.9984615384615383
2.8321069170051487,1.846227106227106,0.27238095238095233,0.9984615384615383
2.8344025810001767,1.846227106227106,0.27238095238095233,0.9984615384615383
2.834692125004949,2.028351648351648,1.1749450549450549,2.107326007326007
2.8394531600060873,2.028351648351648,1.1749450549450549,2.107326007326007
2.8396404160012025,1.543223443223443,0.25868131868131866,0.8252014652014652
2.8471191880016704,1.543223443223443,0.25868131868131866,0.8252014652014652
2.8509834700016654,3.3,2.9728205128205127,2.9397802197802196
2.856815461003862,3.3,2.9728205128205127,2.9397802197802196
2.8647031740038074,3.3,2.9728205128205127,2.9397802197802196
2.8734529170033056,2.5521611721611723,2.9808791208791208,2.311208791208791
2.879003105001175,2.2684981684981684,1.6157509157509156,1.2668131868131869
2.8791424010050832,2.2684981684981684,1.6157509157509156,1.2668131868131869
2.8856979010015493,2.2684981684981684,1.6157509157509156,1.2668131868131869
2.8895037450056407,2.2684981684981684,1.6157509157509156,1.2668131868131869
2.894280685002741,2.2684981684981684,1.6157509157509156,1.2668131868131869
2.8944061040019733,1.448131868131868,0.6793406593406592,2.1403663003663005
2.900093629999901,1.448131868131868,0.6793406593406592,2.1403663003663005
2.9005058130060206,2.4997802197802197,2.8551648351648353,3.3
2.9052873350010486,2.4997802197802197,2.8551648351648353,3.3
2.9098429690056946,2.103296703296703,2.8422710622710623,2.1194139194139194
2.910022984004172,2.103296703296703,2.8422710622710623,2.1194139194139194
2.9161570810028934,2.103296703296703,2.8422710622710623,2.1194139194139194
2.9227273470023647,2.103296703296703,2.8422710622710623,2.1194139194139194
2.926909269001044,2.103296703296703,2.8422710622710623,2.1194139194139194
2.9296049870026764,2.103296703296703,2.8422710622710623,2.1194139194139194
2.9355147810056224,2.103296703296703,2.8422710622710623,2.1194139194139194
2.9408162760009873,2.103296703296703,2.8422710622710623,2.1194139194139194
2.9416496890044073,2.103296703296703,2.8422710622710623,2.1194139194139194
2.9427033750034752,2.103296703296703,2.8422710622710623,2.1194139194139194
2.9435596280018217,2.103296703296703,2.8422710622710623,2.1194139194139194
2.945262809000269,2.103296703296703,2.8422710622710623,2.1194139194139194
2.9485714360052953,2.103296703296703,2.8422710622710623,2.1194139194139194
2.951156063005328,2.103296703296703,2.8422710622710623,2.1194139194139194
2.9563581480033463,2.103296703296703,2.8422710622710623,2.1194139194139194
2.957936755999981,2.103296703296703,2.8422710622710623,2.1194139194139194
2.962058771001466,2.103296703296703,2.8422710622710623,2.1194139194139194
2.9645655330023146,2.103296703296703,2.8422710622710623,2.1194139194139194
2.970920276005927,3.3,2.2088644688644687,3.071135531135531
2.974707532004686,0.16197802197802197,2.2201465201465203,3.1533333333333333
2.9799383860008675,0.16197802197802197,2.2201465201465203,3.1533333333333333
2.9823124160029693,1.0339194139194139,0.26593406593406593,0.5544322344322344
2.982515168005193,1.0339194139194139,0.26593406593406593,0.5544322344322344
2.989615408005193,1.0339194139194139,0.26593406593406593,0.5544322344322344
2.993366054004582,1.9429304029304029,0.4254945054945055,3.3
2.99873204400501,1.9429304029304029,0.4254945054945055,3.3
3.0022159190048114,1.9429304029304029,0.4254945054945055,3.3
3.0083424520053086,1.9429304029304029,0.4254945054945055,3.3
3.0121315850046813,1.9429304029304029,0.4254945054945055,3.3
3.0204294600043795,1.9429304029304029,0.4254945054945055,3.3
3.026386829005787,1.9429304029304029,0.4254945054945055,3.3
3.0302308870013803,1.1967032967032967,1.3063003663003663,2.925274725274725
3.0367122840034426,1.1967032967032967,1.3063003663003663,2.925274725274725
3.0398267970012967,1.494871794871795,0.7397802197802198,2.2040293040293037
3.0420669410013943,0.7091575091575092,0.26109890109890105,0.4835164835164835
3.0429175940007553,0.7091575091575092,0.26109890109890105,0.4835164835164835
3.0441349480024655,3.3,3.032454212454212,3.3
3.0449645510016126,3.3,3.032454212454212,3.3
3.0465420610053116,3.3,3.032454212454212,3.3
3.0507121740010916,1.295018315018315,2.3200732600732596,3.3
3.0536034579999978,1.295018315018315,2.3200732600732596,3.3
3.0560009770051693,1.295018315018315,2.3200732600732596,3.3
3.0561861349997343,1.295018315018315,2.3200732600732596,3.3
3.0607510760019068,1.295018315018315,2.3200732600732596,3.3
3.0610086590022547,1.295018315018315,2.3200732600732596,3.3
3.067527594001149,1.295018315018315,2.3200732600732596,3.3
3.0715902100055246,1.295018315018315,2.3200732600732596,3.3
3.0739076669997303,2.003369963369963,1.3836630036630035,1.8325274725274725
3.07413995800016,2.003369963369963,1.3836630036630035,1.8325274725274725
3.078941899999336,2.003369963369963,1.3836630036630035,1.8325274725274725
3.0874051749997307,2.003369963369963,1.3836630036630035,1.8325274725274725
3.094421872003295,2.003369963369963,1.3836630036630035,1.8325274725274725
3.100107612001011,2.003369963369963,1.3836630036630035,1.8325274725274725
3.100365325000894,2.003369963369963,1.3836630036630035,1.8325274725274725
3.106157494999934,2.003369963369963,1.3836630036630035,1.8325274725274725
3.1103572490028455,2.9647619047619047,0.9944322344322343,3.3
3.112653215001046,2.9647619047619047,0.9944322344322343,3.3
3.1128477650054265,2.9647619047619047,0.9944322344322343,3.3
3.1191835480058216,2.9647619047619047,0.9944322344322343,3.3
3.1223193520054338,1.822857142857143,0.27802197802197803,1.0371428571428571
3.1246804850015906,1.822857142857143,0.27802197802197803,1.0371428571428571
3.124914712003374,1.822857142857143,0.27802197802197803,1.0371428571428571
3.132011367000814,1.822857142857143,0.27802197802197803,1.0371428571428571
3.139380370004801,1.822857142857143,0.27802197802197803,1.0371428571428571
3.1435438460030127,1.822857142857143,0.27802197802197803,1.0371428571428571
3.145980897003028,1.822857142857143,0.27802197802197803,1.0371428571428571
3.1461568200029433,1.822857142857143,0.27802197802197803,1.0371428571428571
3.1543525570014026,1.822857142857143,0.27802197802197803,1.0371428571428571
3.1610810500060325,2.349084249084249,2.2032234432234428,0.4383882783882784
3.1684021430046414,1.228937728937729,1.5496703296703296,1.3659340659340657
3.174784451002779,2.1435897435897435,2.5441025641025643,3.3
3.1812204910020228,2.1435897435897435,2.5441025641025643,3.3
3.1876668559998507,2.1435897435897435,2.5441025641025643,3.3
3.1946061350026866,2.1435897435897435,2.5441025641025643,3.3
3.200452879005752,2.1089377289377285,1.5456410256410256,2.02029304029304
3.2043738720021793,2.1089377289377285,1.5456410256410256,2.02029304029304
3.2073761819992797,2.1089377289377285,1.5456410256410256,2.02029304029304
3.2096514670047327,2.1089377289377285,1.5456410256410256,2.02029304029304
3.2099465950013837,2.1089377289377285,1.5456410256410256,2.02029304029304
3.2144131310051307,2.1089377289377285,1.5456410256410256,2.02029304029304
3.2156735850003315,2.1089377289377285,1.5456410256410256,2.02029304029304
3.215885249002895,2.1089377289377285,1.5456410256410256,2.02029304029304
3.2225872410053853,2.1089377289377285,1.5456410256410256,2.02029304029304
3.2267466129997047,2.1089377289377285,1.5456410256410256,2.02029304029304
3.229225420000148,2.0734798534798533,2.864835164835165,2.5521611721611723
3.236519705002138,2.0734798534798533,2.864835164835165,2.5521611721611723
3.240364875004161,2.0734798534798533,2.864835164835165,2.5521611721611723
3.245892688006279,2.0734798534798533,2.864835164835165,2.5521611721611723
3.2468415460025426,2.0734798534798533,2.864835164835165,2.5521611721611723
3.2476973130033002,2.0734798534798533,2.864835164835165,2.5521611721611723
3.249909950005531,2.0734798534798533,2.864835164835165,2.5521611721611723
3.250334221003868,2.0734798534798533,2.864835164835165,2.5521611721611723
3.255188666000322,2.0734798534798533,2.864835164835165,2.5521611721611723
3.2597809780054376,2.0734798534798533,2.864835164835165,2.5521611721611723
3.2653166279997095,2.0734798534798533,2.864835164835165,2.5521611721611723
3.2682962300023064,2.0734798534798533,2.864835164835165,2.5521611721611723
3.271192753003561,2.0734798534798533,2.864835164835165,2.5521611721611723
3.273558667002362,2.0734798534798533,2.864835164835165,2.5521611721611723
3.285141960004694,2.0734798534798533,2.864835164835165,2.5521611721611723
3.2903582580038346,2.0734798534798533,2.864835164835165,2.5521611721611723
3.2936660250052228,2.0734798534798533,2.864835164835165,2.5521611721611723
3.2939123140022275,2.0734798534798533,2.864835164835165,2.5521611721611723
3.299351507004758,2.0734798534798533,2.864835164835165,2.5521611721611723
3.3035250370012363,2.0734798534798533,2.864835164835165,2.5521611721611723
3.3037288150007953,2.0734798534798533,2.864835164835165,2.5521611721611723
3.3092658870009473,2.0734798534798533,2.864835164835165,2.5521611721611723
3.3096417960041435,2.0734798534798533,2.864835164835165,2.5521611721611723
3.3197176630055765,2.0734798534798533,2.864835164835165,2.5521611721611723
3.324883724002575,2.0734798534798533,2.864835164835165,2.5521611721611723
3.327211193005496,2.0734798534798533,2.864835164835165,2.5521611721611723
3.3274588250060333,2.0734798534798533,2.864835164835165,2.5521611721611723
3.3321664030008833,2.0734798534798533,2.864835164835165,2.5521611721611723
3.3343413910042727,2.0734798534798533,2.864835164835165,2.5521611721611723
3.3345525980039383,2.0734798534798533,2.864835164835165,2.5521611721611723
3.3425860310017015,2.0734798534798533,2.864835164835165,2.5521611721611723
3.349496636001277,2.0734798534798533,2.864835164835165,2.5521611721611723
3.356079461002082,2.0734798534798533,2.864835164835165,2.5521611721611723
3.3612602790017263,2.0734798534798533,2.864835164835165,2.5521611721611723
3.3642097520059906,2.0734798534798533,2.864835164835165,2.5521611721611723
3.3670306320054806,2.0734798534798533,2.864835164835165,2.5521611721611723
3.3715984580048826,2.0734798534798533,2.864835164835165,2.5521611721611723
3.3788094780029496,2.0734798534798533,2.864835164835165,2.5521611721611723
3.385778849005874,1.7978754578754577,1.5287179487179487,2.428864468864469
3.3915235480017145,1.7978754578754577,1.5287179487179487,2.428864468864469
3.3965458660022705,1.7978754578754577,1.5287179487179487,2.428864468864469
3.4036109410008066,1.6850549450549448,0.8034432234432234,2.317655677655677
3.407304150001437,1.6850549450549448,0.8034432234432234,2.317655677655677
3.412618182002916,1.6850549450549448,0.8034432234432234,2.317655677655677
3.4151991920007276,1.6205860805860803,0.8042490842490841,2.1065201465201464
3.4219779150007525,1.6205860805860803,0.8042490842490841,2.1065201465201464
3.426087842002744,0.9235164835164835,0.24256410256410255,0.6116483516483516
3.4292400340054883,0.9235164835164835,0.24256410256410255,0.6116483516483516
3.430868392002594,0.9235164835164835,0.24256410256410255,0.6116483516483516
3.4375438100032625,0.9235164835164835,0.24256410256410255,0.6116483516483516
3.4414128920034273,0.9235164835164835,0.24256410256410255,0.6116483516483516
3.447116831004678,0.9235164835164835,0.24256410256410255,0.6116483516483516
3.447235264000483,0.9235164835164835,0.24256410256410255,0.6116483516483516
3.4551509550001356,0.9235164835164835,0.24256410256410255,0.6116483516483516
3.4598617750016274,0.9235164835164835,0.24256410256410255,0.6116483516483516
3.4599614840044524,0.9235164835164835,0.24256410256410255,0.6116483516483516
3.465976406005211,0.9235164835164835,0.24256410256410255,0.6116483516483516
3.466172094005742,0.9235164835164835,0.24256410256410255,0.6116483516483516
3.4720531740022125,0.9235164835164835,0.24256410256410255,0.6116483516483516
3.4765460130001884,0.9823443223443222,0.4142124542124542,2.0509157509157507
3.4773495870031184,0.9823443223443222,0.4142124542124542,2.0509157509157507
3.4790899280051235,1.7011721611721609,0.2232234432234432,0.9775091575091575
3.4834805840000627,1.7011721611721609,0.2232234432234432,0.9775091575091575
3.484803761006333,0.7607326007326007,0.4424175824175824,0.6535531135531135
3.4898196030044346,0.7607326007326007,0.4424175824175824,0.6535531135531135
3.4943775270003243,0.22805860805860806,2.1089377289377285,2.9599267399267397
3.4953241940020234,1.5528937728937728,0.7615384615384615,2.457069597069597
3.4969013959998847,1.5528937728937728,0.7615384615384615,2.457069597069597
3.503959464003856,1.5528937728937728,0.7615384615384615,2.457069597069597
3.507883773003414,1.5528937728937728,0.7615384615384615,2.457069597069597
3.5117632640030934,1.5528937728937728,0.7615384615384615,2.457069597069597
3.5180882770000608,1.5528937728937728,0.7615384615384615,2.457069597069597
3.5215244940045523,1.3345054945054944,1.2474725274725273,3.104175824175824
3.5217293750029057,1.3345054945054944,1.2474725274725273,3.104175824175824
3.526401317001728,1.3345054945054944,1.2474725274725273,3.104175824175824
3.5266416570011643,1.3345054945054944,1.2474725274725273,3.104175824175824
3.5314757810047013,1.3345054945054944,1.2474725274725273,3.104175824175824
3.531658570005675,1.3345054945054944,1.2474725274725273,3.104175824175824
3.5385023830021964,1.3345054945054944,1.2474725274725273,3.104175824175824
3.543028469001001,1.3345054945054944,1.2474725274725273,3.104175824175824
3.5438681860032375,3.3,2.7786080586080586,2.9478388278388277
3.5454286570020486,3.3,2.7786080586080586,2.9478388278388277
3.5508619910033303,3.3,2.7786080586080586,2.9478388278388277
3.552386335002666,3.3,2.7786080586080586,2.9478388278388277
3.5593259830056923,3.3,2.7786080586080586,2.9478388278388277
3.5654302110051503,3.3,2.7786080586080586,2.9478388278388277
3.5693434109998634,3.3,2.7786080586080586,2.9478388278388277
3.5717769940019934,0.1789010989010989,2.1145787545787544,2.9784615384615383
3.5771594180041575,1.5528937728937728,1.1846153846153846,2.258021978021978
3.5797952790017007,2.087179487179487,1.3296703296703296,2.448205128205128
3.5858515569998417,1.3167765567765568,0.2345054945054945,0.921098901098901
3.589040051003394,1.3167765567765568,0.2345054945054945,0.921098901098901
3.590665922005428,0.6535531135531135,1.8768498168498167,3.012307692307692
3.594440504006343,0.6535531135531135,1.8768498168498167,3.012307692307692
3.600175351006328,0.6535531135531135,1.8768498168498167,3.012307692307692
3.6005677270004526,0.6535531135531135,1.8768498168498167,3.012307692307692
3.6050569270009873,1.8212454212454212,2.4627106227106226,2.182271062271062
3.605304419004824,1.8212454212454212,2.4627106227106226,2.182271062271062
3.6101688830021885,1.8212454212454212,2.4627106227106226,2.182271062271062
3.615840039004979,2.1234432234432234,1.1773626373626374,2.485274725274725
3.6162820440003998,0.6986813186813187,0.3972893772893773,2.103296703296703
3.6205832660052693,2.1830769230769227,2.8422710622710623,3.3
3.6214166960053262,2.1830769230769227,2.8422710622710623,3.3
3.6230269110019435,2.1830769230769227,2.8422710622710623,3.3
3.6277467969994177,2.1830769230769227,2.8422710622710623,3.3
3.6344864630009397,2.1830769230769227,2.8422710622710623,3.3
3.6383152720009093,2.1830769230769227,2.8422710622710623,3.3
3.6420586070016725,2.1830769230769227,2.8422710622710623,3.3
3.6476326810006867,2.1830769230769227,2.8422710622710623,3.3
3.6478912890015636,2.1830769230769227,2.8422710622710623,3.3
3.6555784049996873,2.1830769230769227,2.8422710622710623,3.3
3.660039096001128,2.1830769230769227,2.8422710622710623,3.3
3.6615876400028355,2.1830769230769227,2.8422710622710623,3.3
3.6670895620045485,2.1830769230769227,2.8422710622710623,3.3
3.667372776006232,0.5528205128205127,1.9526007326007324,2.992161172161172
3.6726095780031756,0.5528205128205127,1.9526007326007324,2.992161172161172
3.6748776480017113,2.0621978021978022,1.1273992673992674,2.5948717948717945
3.6753728820040124,2.0621978021978022,1.1273992673992674,2.5948717948717945
3.678414182999404,2.0621978021978022,1.1273992673992674,2.5948717948717945
3.6808053250060766,2.0621978021978022,1.1273992673992674,2.5948717948717945
3.680942909006262,2.0621978021978022,1.1273992673992674,2.5948717948717945
3.688177790005284,2.298315018315018,2.868058608058608,2.656117216117216
3.692801741002768,2.298315018315018,2.868058608058608,2.656117216117216
3.6930352769995807,2.298315018315018,2.868058608058608,2.656117216117216
3.6976272980027716,2.298315018315018,2.868058608058608,2.656117216117216
3.6979721960015013,2.298315018315018,2.868058608058608,2.656117216117216
3.70486233200063,2.298315018315018,2.868058608058608,2.656117216117216
3.708627243999217,0.7430036630036629,0.25787545787545785,0.7107692307692308
3.7140596880053636,0.4021245421245421,2.313626373626373,2.237069597069597
3.7181025620011496,0.4021245421245421,2.313626373626373,2.237069597069597
3.7208584420004627,0.4021245421245421,2.313626373626373,2.237069597069597
3.7238465510017704,0.846153846153846,0.21999999999999997,0.7534798534798535
3.7271934340024018,0.846153846153846,0.21999999999999997,0.7534798534798535
3.7280906130035874,0.846153846153846,0.21999999999999997,0.7534798534798535
3.7299008750051144,1.7398534798534797,2.332161172161172,0.28769230769230764
3.7333881730010035,2.6504761904761907,2.249157509157509,1.6495970695970694
3.7338445030036382,2.6504761904761907,2.249157509157509,1.6495970695970694
3.7395348000063677,2.6504761904761907,2.249157509157509,1.6495970695970694
3.747137512000336,1.141098901098901,0.26754578754578756,0.8864468864468864
3.754061735002324,1.141098901098901,0.26754578754578756,0.8864468864468864
3.7578933500044513,2.146007326007326,1.1580219780219778,2.756849816849817
3.7630956140055787,2.146007326007326,1.1580219780219778,2.756849816849817
3.768729796000116,3.029230769230769,2.8857875457875455,3.1259340659340658
3.7744096080059535,3.029230769230769,2.8857875457875455,3.1259340659340658
3.7746060520003084,3.029230769230769,2.8857875457875455,3.1259340659340658
3.7798873589999857,3.029230769230769,2.8857875457875455,3.1259340659340658
3.7835968530052924,3.029230769230769,2.8857875457875455,3.1259340659340658
3.7881298909996985,3.029230769230769,2.8857875457875455,3.1259340659340658
3.7883891580058844,3.029230769230769,2.8857875457875455,3.1259340659340658
3.7929131390046678,3.029230769230769,2.8857875457875455,3.1259340659340658
3.7931866590006393,3.029230769230769,2.8857875457875455,3.1259340659340658
3.7976807320010266,3.029230769230769,2.8857875457875455,3.1259340659340658
3.79866038000182,1.9123076923076923,1.6302564102564103,2.694798534798535
3.8002351940012886,1.9123076923076923,1.6302564102564103,2.694798534798535
3.804915606000577,1.9123076923076923,1.6302564102564103,2.694798534798535
3.8101347330011777,1.9123076923076923,1.6302564102564103,2.694798534798535
3.8132112700041034,1.9123076923076923,1.6302564102564103,2.694798534798535
3.8149576080031693,1.913919413919414,0.9895970695970695,2.809230769230769
3.8201505280012498,1.913919413919414,0.9895970695970695,2.809230769230769
3.822457241003576,1.913919413919414,0.9895970695970695,2.809230769230769
3.822623318999831,1.913919413919414,0.9895970695970695,2.809230769230769
3.8272927190046175,1.913919413919414,0.9895970695970695,2.809230769230769
3.8274850900052115,1.913919413919414,0.9895970695970695,2.809230769230769
3.833111877000192,1.913919413919414,0.9895970695970695,2.809230769230769
3.833598883000377,2.2523809523809524,1.3095238095238093,2.8164835164835162
3.8375601280058618,2.2523809523809524,1.3095238095238093,2.8164835164835162
3.839884050001274,2.2523809523809524,1.3095238095238093,2.8164835164835162
3.840051613005926,2.2523809523809524,1.3095238095238093,2.8164835164835162
3.8455796530033695,2.2523809523809524,1.3095238095238093,2.8164835164835162
3.845868144002452,1.801098901098901,2.2999267399267396,2.249157509157509
3.8540172680004616,1.801098901098901,2.2999267399267396,2.249157509157509
3.859982182002568,0.9468864468864467,0.3739194139194139,2.635164835164835
3.8670311530004255,0.896117216117216,0.2191941391941392,0.9283516483516483
3.87119446300494,0.896117216117216,0.2191941391941392,0.9283516483516483
3.872129686002154,2.241098901098901,1.2797069597069597,2.840659340659341
3.8739235130051384,2.241098901098901,1.2797069597069597,2.840659340659341
3.8766358440043405,2.241098901098901,1.2797069597069597,2.840659340659341
3.8833412590029184,2.241098901098901,1.2797069597069597,2.840659340659341
3.8898310069998843,1.1821978021978021,0.253040293040293,1.1112820512820514
3.8956214400022873,0.9750915750915751,1.2257142857142858,3.0155311355311354
3.904004624004301,0.9750915750915751,1.2257142857142858,3.0155311355311354
3.908216583004105,1.3369230769230769,0.25545787545787546,1.1886446886446886
3.9106422960030613,1.3369230769230769,0.25545787545787546,1.1886446886446886
3.917821107999771,1.3369230769230769,0.25545787545787546,1.1886446886446886
3.9229795030041714,1.3369230769230769,0.25545787545787546,1.1886446886446886
3.9245739500038326,1.3369230769230769,0.25545787545787546,1.1886446886446886
3.928497827000683,1.3369230769230769,0.25545787545787546,1.1886446886446886
3.933924389006279,1.9429304029304029,2.1137728937728935,0.7446153846153846
3.9345107690023724,1.855091575091575,1.0854945054945053,2.805201465201465
3.939771498000482,1.855091575091575,1.0854945054945053,2.805201465201465
3.9401435690015205,1.855091575091575,1.0854945054945053,2.805201465201465
3.9447047190042213,1.855091575091575,1.0854945054945053,2.805201465201465
3.9455988120025722,2.032380952380952,0.3884249084249084,3.3
3.9464695150018088,2.212087912087912,2.581172161172161,3.3
3.9499632840015693,2.212087912087912,2.581172161172161,3.3
3.9574423220037716,2.212087912087912,2.581172161172161,3.3
3.962002840002242,2.318461538461538,2.690769230769231,3.3
3.9629057070051203,2.318461538461538,2.690769230769231,3.3
3.964635812000779,2.318461538461538,2.690769230769231,3.3
3.9720822279996355,2.318461538461538,2.690769230769231,3.3
3.9768116699997336,2.318461538461538,2.690769230769231,3.3
3.9824476210051216,2.318461538461538,2.690769230769231,3.3
3.98269443600293,2.318461538461538,2.690769230769231,3.3
3.9904762440055492,2.318461538461538,2.690769230769231,3.3
3.9950047400052426,2.318461538461538,2.690769230769231,3.3
3.9960902349994285,2.318461538461538,2.690769230769231,3.3
3.9964436139998725,2.318461538461538,2.690769230769231,3.3
4.003172386001097,2.318461538461538,2.690769230769231,3.3
4.006975485004659,2.318461538461538,2.690769230769231,3.3
4.011552521005797,2.318461538461538,2.690769230769231,3.3
4.0118827690021135,2.318461538461538,2.690769230769231,3.3
4.018220600999484,2.318461538461538,2.690769230769231,3.3
4.021045989000413,2.318461538461538,2.690769230769231,3.3
4.02414754700294,2.318461538461538,2.690769230769231,3.3
4.025996986005339,2.318461538461538,2.690769230769231,3.3
4.028285186002904,2.318461538461538,2.690769230769231,3.3
4.028701875002298,1.1386813186813185,2.1629304029304026,0.9025641025641026
4.03369633800321,1.1386813186813185,2.1629304029304026,0.9025641025641026
4.0398119630044675,1.1386813186813185,2.1629304029304026,0.9025641025641026
4.045519719002186,1.1386813186813185,2.1629304029304026,0.9025641025641026
4.053586573005305,1.6173626373626373,1.9155311355311355,3.3
4.057407457003137,1.9961172161172158,1.008131868131868,2.44981684981685
4.061867812000855,2.0968498168498164,0.28285714285714286,1.5496703296703296
4.064120737006306,2.0968498168498164,0.28285714285714286,1.5496703296703296
4.064281213999493,2.0968498168498164,0.28285714285714286,1.5496703296703296
4.0723091430045315,2.0968498168498164,0.28285714285714286,1.5496703296703296
4.0776818150043255,2.0968498168498164,0.28285714285714286,1.5496703296703296
4.079378515001736,2.0968498168498164,0.28285714285714286,1.5496703296703296
4.085670284999651,2.0968498168498164,0.28285714285714286,1.5496703296703296
4.08952271900489,2.0968498168498164,0.28285714285714286,1.5496703296703296
4.0936414360039635,2.0968498168498164,0.28285714285714286,1.5496703296703296
4.096671955005149,2.0968498168498164,0.28285714285714286,1.5496703296703296
4.099862802999269,2.253992673992674,2.8672527472527474,3.3
4.102064270002302,2.253992673992674,2.8672527472527474,3.3
4.102395530004287,2.253992673992674,2.8672527472527474,3.3
4.107547511004668,2.253992673992674,2.8672527472527474,3.3
4.109309203005978,2.253992673992674,2.8672527472527474,3.3
4.112417323005502,2.253992673992674,2.8672527472527474,3.3
4.114091126000858,2.253992673992674,2.8672527472527474,3.3
4.12201542800176,2.253992673992674,2.8672527472527474,3.3
4.12602256500395,2.253992673992674,2.8672527472527474,3.3
4.129780695999216,2.253992673992674,2.8672527472527474,3.3
4.137248248000105,2.253992673992674,2.8672527472527474,3.3
4.141811214001791,2.253992673992674,2.8672527472527474,3.3
4.142683059006231,2.253992673992674,2.8672527472527474,3.3
4.143594612003653,2.253992673992674,2.8672527472527474,3.3
4.145244525003363,2.253992673992674,2.8672527472527474,3.3
4.149543670006096,2.253992673992674,2.8672527472527474,3.3
4.151170691999141,2.253992673992674,2.8672527472527474,3.3
4.157236566003121,2.253992673992674,2.8672527472527474,3.3
4.162939858004393,2.253992673992674,2.8672527472527474,3.3
4.170780461005052,2.253992673992674,2.8672527472527474,3.3
4.177667499003292,2.253992673992674,2.8672527472527474,3.3
4.183180397005344,2.253992673992674,2.8672527472527474,3.3
4.183459694999328,2.253992673992674,2.8672527472527474,3.3
4.188787955004955,2.253992673992674,2.8672527472527474,3.3
4.1903785380054615,2.253992673992674,2.8672527472527474,3.3
4.194179864003672,2.253992673992674,2.8672527472527474,3.3
4.201578958003665,1.120952380952381,0.8034432234432234,1.818827838827839
4.2060570510002435,1.0339194139194139,0.3038095238095238,0.921098901098901
4.2076384570027585,1.0339194139194139,0.3038095238095238,0.921098901098901
4.211410035000881,1.0339194139194139,0.3038095238095238,0.921098901098901
4.220035220001591,1.0339194139194139,0.3038095238095238,0.921098901098901
4.22423335500207,2.0702564102564103,0.31186813186813184,1.6302564102564103
4.227165786003752,2.0702564102564103,0.31186813186813184,1.6302564102564103
4.229491026002506,2.0702564102564103,0.31186813186813184,1.6302564102564103
4.2296776120056165,1.834945054945055,2.0436630036630037,0.3449084249084249
4.2362705300038215,1.834945054945055,2.0436630036630037,0.3449084249084249
4.23960883700056,2.3007326007326006,2.6230769230769226,3.3
4.240502714004833,0.7131868131868132,0.24578754578754577,0.7430036630036629
4.242167061005603,0.7131868131868132,0.24578754578754577,0.7430036630036629
4.246339981000347,0.7131868131868132,0.24578754578754577,0.7430036630036629
4.249772341005155,0.7131868131868132,0.24578754578754577,0.7430036630036629
4.250085462001152,0.7131868131868132,0.24578754578754577,0.7430036630036629
4.257895840004494,0.7131868131868132,0.24578754578754577,0.7430036630036629
4.264516991002893,1.1564102564102563,1.2547252747252746,2.6883516483516483
4.272167745002662,0.7486446886446886,0.22886446886446887,0.6825641025641025
4.27597485500155,0.7486446886446886,0.22886446886446887,0.6825641025641025
4.281438731006347,0.7486446886446886,0.22886446886446887,0.6825641025641025
4.283850883002742,0.7486446886446886,0.22886446886446887,0.6825641025641025
4.290468304003298,0.7486446886446886,0.22886446886446887,0.6825641025641025
4.294205313002749,0.7486446886446886,0.22886446886446887,0.6825641025641025
4.301195902000472,0.7486446886446886,0.22886446886446887,0.6825641025641025
4.307507308003551,0.6511355311355311,0.2868864468864469,0.6342124542124542
4.312246945002698,0.6511355311355311,0.2868864468864469,0.6342124542124542
4.319881588999124,0.6511355311355311,0.2868864468864469,0.6342124542124542
4.325405006005894,0.6511355311355311,0.2868864468864469,0.6342124542124542
4.325598439005262,0.6511355311355311,0.2868864468864469,0.6342124542124542
4.330806338002731,0.6511355311355311,0.2868864468864469,0.6342124542124542
4.337019202001102,1.9429304029304029,1.1346520146520145,1.792234432234432
4.340230931004044,1.9429304029304029,1.1346520146520145,1.792234432234432
4.341769390004629,0.4545054945054945,0.2506227106227106,0.506080586080586
4.346528261005005,1.3659340659340657,1.826080586080586,1.6439560439560439
4.346711913000036,1.3659340659340657,1.826080586080586,1.6439560439560439
4.354166910001368,1.3659340659340657,1.826080586080586,1.6439560439560439
4.358032241005276,1.3659340659340657,1.826080586080586,1.6439560439560439
4.362489494000329,1.3659340659340657,1.826080586080586,1.6439560439560439
4.3640059730023495,1.3659340659340657,1.826080586080586,1.6439560439560439
4.372543043005862,1.3659340659340657,1.826080586080586,1.6439560439560439
4.377245158000733,1.3659340659340657,1.826080586080586,1.6439560439560439
4.377387005006312,1.3659340659340657,1.826080586080586,1.6439560439560439
4.382435496001563,1.3659340659340657,1.826080586080586,1.6439560439560439
4.389211011999578,1.3659340659340657,1.826080586080586,1.6439560439560439
4.393126864000806,1.3659340659340657,1.826080586080586,1.6439560439560439
4.397045777004678,1.0572893772893772,0.6366300366300366,1.8945787545787542
4.403209206000611,1.0572893772893772,0.6366300366300366,1.8945787545787542
4.407132329004526,1.0572893772893772,0.6366300366300366,1.8945787545787542
4.412188058005995,0.36747252747252745,2.2088644688644687,2.0638095238095238
4.419346863003739,0.36747252747252745,2.2088644688644687,2.0638095238095238
4.425400775005983,0.36747252747252745,2.2088644688644687,2.0638095238095238
4.428465815006348,3.1742857142857144,1.120952380952381,3.3
4.432120634002786,3.1742857142857144,1.120952380952381,3.3
4.441389092004101,2.17018315018315,1.5915750915750915,1.4497435897435897
4.447103433005395,2.17018315018315,1.5915750915750915,1.4497435897435897
4.447411774999637,2.3587545787545787,2.6665934065934067,3.3
4.456355497000914,2.3587545787545787,2.6665934065934067,3.3
4.463455880002584,1.0967765567765566,0.48432234432234433,1.93003663003663
4.4713009240003885,1.0967765567765566,0.48432234432234433,1.93003663003663
4.476916739004082,1.7978754578754577,1.5786813186813187,1.9703296703296702
4.485898412000097,2.4054945054945054,2.7423443223443225,3.3
4.490108850004617,2.764102564102564,2.5360439560439563,2.8205128205128203
4.492445237003267,2.764102564102564,2.5360439560439563,2.8205128205128203
4.492591052003263,2.764102564102564,2.5360439560439563,2.8205128205128203
4.497282010001072,2.764102564102564,2.5360439560439563,2.8205128205128203
4.4974671349991695,1.6592673992673992,1.1564102564102563,2.063003663003663
4.505933873006143,0.9275457875457875,0.24417582417582417,0.796996336996337
4.511312639006064,0.9275457875457875,0.24417582417582417,0.796996336996337
4.5149982500006445,0.9275457875457875,0.24417582417582417,0.796996336996337
4.522361429000739,0.9275457875457875,0.24417582417582417,0.796996336996337
4.527579961999436,0.9275457875457875,0.24417582417582417,0.796996336996337
4.530576990000554,0.9275457875457875,0.24417582417582417,0.796996336996337
4.535563860001275,0.9275457875457875,0.24417582417582417,0.796996336996337
4.5381462600053055,0.9275457875457875,0.24417582417582417,0.796996336996337
4.544973636999202,0.9275457875457875,0.24417582417582417,0.796996336996337
4.5511690600033035,0.9275457875457875,0.24417582417582417,0.796996336996337
4.55671760700352,1.593992673992674,1.2547252747252746,2.032380952380952
4.556972474005306,0.7655677655677655,0.3497435897435897,1.9082783882783882
4.564309020002838,0.7655677655677655,0.3497435897435897,1.9082783882783882
4.570525971001189,0.7655677655677655,0.3497435897435897,1.9082783882783882
4.575572772002488,0.7655677655677655,0.3497435897435897,1.9082783882783882
4.581283083003655,0.8308424908424907,0.7083516483516483,2.157289377289377
4.590890998006216,2.0734798534798533,0.25787545787545785,1.7277655677655677
4.597308660006092,2.0734798534798533,0.25787545787545785,1.7277655677655677
4.6047237450038665,2.0734798534798533,0.25787545787545785,1.7277655677655677
4.61007707400131,2.0734798534798533,0.25787545787545785,1.7277655677655677
4.612395349002327,2.0734798534798533,0.25787545787545785,1.7277655677655677
4.624087693999172,1.6705494505494505,0.7712087912087912,2.2757509157509155
4.635389727001893,1.2144322344322345,0.28285714285714286,1.1024175824175824
4.643246478000947,1.2144322344322345,0.28285714285714286,1.1024175824175824
4.650581252004486,1.2144322344322345,0.28285714285714286,1.1024175824175824
4.654289304002305,2.045274725274725,1.8671794871794871,1.004102564102564
4.65892888000235,2.045274725274725,1.8671794871794871,1.004102564102564
4.659246658004122,1.0242490842490841,0.2989743589743589,0.9122344322344322
4.663696184004948,1.0242490842490841,0.2989743589743589,0.9122344322344322
4.665542116003053,1.0242490842490841,0.2989743589743589,0.9122344322344322
4.668497484999534,1.0242490842490841,0.2989743589743589,0.9122344322344322
4.670244143999298,1.0242490842490841,0.2989743589743589,0.9122344322344322
4.673425152002892,1.0242490842490841,0.2989743589743589,0.9122344322344322
4.675038546003634,1.0242490842490841,0.2989743589743589,0.9122344322344322
4.679789209003502,1.0242490842490841,0.2989743589743589,0.9122344322344322
4.687100032999297,1.1781684981684981,0.25787545787545785,1.0242490842490841
4.6917339409992564,1.1781684981684981,0.25787545787545785,1.0242490842490841
4.701801893002994,1.1781684981684981,0.25787545787545785,1.0242490842490841
4.710494783001195,1.1781684981684981,0.25787545787545785,1.0242490842490841
4.718919413004187,1.1781684981684981,0.25787545787545785,1.0242490842490841
4.723855632000777,0.8082783882783882,0.307032967032967,1.975164835164835
4.7283815940027125,3.20007326007326,1.145128205128205,3.3
4.729347541004245,0.4867399267399267,1.843003663003663,2.328937728937729
4.730318441004783,0.4867399267399267,1.843003663003663,2.328937728937729
4.733003045002988,0.4867399267399267,1.843003663003663,2.328937728937729
4.73800286900223,0.4867399267399267,1.843003663003663,2.328937728937729
4.74106069499976,1.7849816849816849,0.29333333333333333,1.4843956043956044
4.745313945000817,1.7849816849816849,0.29333333333333333,1.4843956043956044
4.745541210002557,1.7849816849816849,0.29333333333333333,1.4843956043956044
4.753126176001388,1.7849816849816849,0.29333333333333333,1.4843956043956044
4.75699056799931,1.7849816849816849,0.29333333333333333,1.4843956043956044
4.761523416003911,2.212087912087912,0.3344322344322344,2.024322344322344
4.762459685000067,1.7221245421245421,2.182271062271062,2.146007326007326
4.763338593002118,1.7221245421245421,2.182271062271062,2.146007326007326
4.765090152002813,1.7221245421245421,2.182271062271062,2.146007326007326
4.770065821001481,1.7221245421245421,2.182271062271062,2.146007326007326
4.772481384003186,1.7221245421245421,2.182271062271062,2.146007326007326
4.772646208999504,1.7221245421245421,2.182271062271062,2.146007326007326
4.777374887002225,1.7221245421245421,2.182271062271062,2.146007326007326
4.777493070003402,1.7221245421245421,2.182271062271062,2.146007326007326
4.78341877800267,1.7221245421245421,2.182271062271062,2.146007326007326
4.789036991001922,1.7221245421245421,2.182271062271062,2.146007326007326
4.789194832999783,1.7221245421245421,2.182271062271062,2.146007326007326
4.79466188600054,1.7221245421245421,2.182271062271062,2.146007326007326
4.795566683002107,1.5246886446886447,1.9211721611721613,3.1243223443223442
4.797131673003605,1.5246886446886447,1.9211721611721613,3.1243223443223442
4.8044198700008565,1.7688644688644688,1.0306959706959706,2.0863736263736263
4.8088576330046635,1.7688644688644688,1.0306959706959706,2.0863736263736263
4.810424545001297,1.3353113553113554,2.01062271062271,0.3489377289377289
4.81581186800031,1.3353113553113554,2.01062271062271,0.3489377289377289
4.81817821200093,1.3353113553113554,2.01062271062271,0.3489377289377289
4.823781985003734,1.0347252747252746,0.28205128205128205,0.9372161172161171
4.824037934005901,1.0347252747252746,0.28205128205128205,0.9372161172161171
4.829518188002112,1.0347252747252746,0.28205128205128205,0.9372161172161171
4.830367015005322,1.0347252747252746,0.28205128205128205,0.9372161172161171
4.83211793400551,1.0347252747252746,0.28205128205128205,0.9372161172161171
4.838592987005541,1.7043956043956046,0.9799267399267398,2.063003663003663
4.844205205001344,1.7043956043956046,0.9799267399267398,2.063003663003663
4.844318105999264,1.7043956043956046,0.9799267399267398,2.063003663003663
4.850356733004446,1.7043956043956046,0.9799267399267398,2.063003663003663
4.854916120006237,1.7043956043956046,0.9799267399267398,2.063003663003663
4.860658549005166,1.5722344322344322,1.8687912087912086,2.9953846153846153
4.860886097005277,0.7083516483516483,0.21677655677655677,0.8268131868131867
4.8672895300042,0.7083516483516483,0.21677655677655677,0.8268131868131867
4.872858024005836,0.7083516483516483,0.21677655677655677,0.8268131868131867
4.873033278003277,0.7083516483516483,0.21677655677655677,0.8268131868131867
4.881667002002359,0.7083516483516483,0.21677655677655677,0.8268131868131867
4.887442298000678,1.7382417582417582,0.24336996336996336,1.3989743589743588
4.893132166005671,1.7382417582417582,0.24336996336996336,1.3989743589743588
4.8948789600035525,2.522344322344322,1.7849816849816849,2.1105494505494504
4.898761452001054,2.522344322344322,1.7849816849816849,2.1105494505494504
4.903627792002226,2.522344322344322,1.7849816849816849,2.1105494505494504
4.906641016001231,2.258827838827839,0.701098901098901,3.3
4.908967818002566,2.258827838827839,0.701098901098901,3.3
4.90916940200259,1.804322344322344,2.02996336996337,0.29978021978021974
4.9137844140059315,1.804322344322344,2.02996336996337,0.29978021978021974
4.914042597003572,1.804322344322344,2.02996336996337,0.29978021978021974
4.9246175220032455,1.804322344322344,2.02996336996337,0.29978021978021974
4.933349019003799,0.6132600732600733,0.20227106227106226,0.751062271062271
4.9386757259999285,0.6132600732600733,0.20227106227106226,0.751062271062271
4.940305738004099,0.6132600732600733,0.20227106227106226,0.751062271062271
4.944226320003509,0.6132600732600733,0.20227106227106226,0.751062271062271
4.950566277002508,0.6132600732600733,0.20227106227106226,0.751062271062271
4.9545499100058805,2.1427838827838825,1.959047619047619,0.7381684981684982
4.956909145999816,2.1427838827838825,1.959047619047619,0.7381684981684982
4.957052329002181,2.1427838827838825,1.959047619047619,0.7381684981684982
4.9623868460039375,2.1427838827838825,1.959047619047619,0.7381684981684982
4.966557473002467,2.1427838827838825,1.959047619047619,0.7381684981684982
4.967898429000343,2.6037362637362635,0.7663736263736264,3.3
4.9732052750041476,2.6037362637362635,0.7663736263736264,3.3
4.976269710001361,2.1685714285714286,1.44007326007326,1.7253479853479854
4.978559840004891,1.7656410256410255,0.3416849816849817,1.2998534798534798
4.97876360599912,1.7656410256410255,0.3416849816849817,1.2998534798534798
4.983993753005052,1.7656410256410255,0.3416849816849817,1.2998534798534798
4.987852265003312,1.7656410256410255,0.3416849816849817,1.2998534798534798
4.990936573005456,1.7656410256410255,0.3416849816849817,1.2998534798534798
4.993214389003697,1.7656410256410255,0.3416849816849817,1.2998534798534798
4.993468362001295,1.7656410256410255,0.3416849816849817,1.2998534798534798
4.999372755002696,1.7656410256410255,0.3416849816849817,1.2998534798534798
5.0077855020063,1.7656410256410255,0.3416849816849817,1.2998534798534798
5.013144807999197,1.7656410256410255,0.3416849816849817,1.2998534798534798
5.0168135370040545,1.7656410256410255,0.3416849816849817,1.2998534798534798
5.024900901000365,1.7656410256410255,0.3416849816849817,1.2998534798534798
5.030351900000824,1.7656410256410255,0.3416849816849817,1.2998534798534798
5.032180720001634,1.062930402930403,2.036410256410256,0.7623443223443224
5.037164764005865,1.062930402930403,2.036410256410256,0.7623443223443224
5.039290085005632,1.062930402930403,2.036410256410256,0.7623443223443224
5.0396055200035335,0.9194871794871795,0.2369230769230769,0.9267399267399267
5.044781486001739,0.9194871794871795,0.2369230769230769,0.9267399267399267
5.049421813004301,2.1202197802197804,2.46996336996337,2.4272527472527474
5.055369812005665,2.1202197802197804,2.46996336996337,2.4272527472527474
5.059173385001486,2.1202197802197804,2.46996336996337,2.4272527472527474
5.064409322003485,0.9009523809523808,0.2498168498168498,0.7857142857142856
5.06800409599964,0.9009523809523808,0.2498168498168498,0.7857142857142856
5.072468074002245,0.9009523809523808,0.2498168498168498,0.7857142857142856
5.073312810003699,1.5827106227106227,0.826007326007326,2.0194871794871796
5.0749272989996825,1.5827106227106227,0.826007326007326,2.0194871794871796
5.078699663004954,1.5827106227106227,0.826007326007326,2.0194871794871796
5.083250773001055,1.5827106227106227,0.826007326007326,2.0194871794871796
5.084122655003739,2.709304029304029,0.7905494505494506,3.3
5.0858316350058885,1.4062271062271061,0.4287179487179487,3.1501098901098903
5.088857750000898,1.4062271062271061,0.4287179487179487,3.1501098901098903
5.091904216002149,2.1637362637362636,1.9356776556776556,1.0024908424908423
5.0943986190031865,2.1637362637362636,1.9356776556776556,1.0024908424908423
5.099845729004301,2.1637362637362636,1.9356776556776556,1.0024908424908423
5.102151159000641,2.1637362637362636,1.9356776556776556,1.0024908424908423
5.102407051999762,2.1637362637362636,1.9356776556776556,1.0024908424908423
5.107960331006325,2.1637362637362636,1.9356776556776556,1.0024908424908423
5.108281184002408,2.1637362637362636,1.9356776556776556,1.0024908424908423
5.116702375002205,2.1637362637362636,1.9356776556776556,1.0024908424908423
5.122447494999506,2.1637362637362636,1.9356776556776556,1.0024908424908423
5.127104275001329,2.1637362637362636,1.9356776556776556,1.0024908424908423
5.134725741001603,2.1637362637362636,1.9356776556776556,1.0024908424908423
5.1388257760045235,2.1637362637362636,1.9356776556776556,1.0024908424908423
5.14257796700258,2.1637362637362636,1.9356776556776556,1.0024908424908423
5.147410782999941,2.1637362637362636,1.9356776556776556,1.0024908424908423
5.152132933006214,1.9526007326007324,1.8478388278388278,0.5818315018315018
5.152287413002341,0.3642490842490842,0.22886446886446887,1.6834432234432233
5.157422972006316,0.3642490842490842,0.22886446886446887,1.6834432234432233
5.161086432999582,0.3642490842490842,0.22886446886446887,1.6834432234432233
5.1663743870012695,0.3642490842490842,0.22886446886446887,1.6834432234432233
5.170385650999378,0.3642490842490842,0.22886446886446887,1.6834432234432233
5.174279764003586,0.3642490842490842,0.22886446886446887,1.6834432234432233
5.178841177003051,0.3642490842490842,0.22886446886446887,1.6834432234432233
5.17910562200268,0.3642490842490842,0.22886446886446887,1.6834432234432233
5.184716025003581,0.3642490842490842,0.22886446886446887,1.6834432234432233
5.185020072000043,0.3642490842490842,0.22886446886446887,1.6834432234432233
5.190229208004894,0.3642490842490842,0.22886446886446887,1.6834432234432233
5.193328696004755,2.0396336996336997,1.7656410256410255,1.0403663003663002
5.19497878599941,2.0396336996336997,1.7656410256410255,1.0403663003663002
5.198756095000135,2.0396336996336997,1.7656410256410255,1.0403663003663002
5.20399309899949,2.0396336996336997,1.7656410256410255,1.0403663003663002
5.206462993002788,0.8638827838827838,0.967032967032967,2.4199999999999995
5.206787091003207,1.3627106227106225,1.7841758241758239,3.3
5.212176070999703,1.3627106227106225,1.7841758241758239,3.3
5.213712938006211,1.3627106227106225,1.7841758241758239,3.3
5.217514080002729,0.6116483516483516,0.47465201465201456,2.083956043956044
5.222269583005982,1.1225641025641024,0.24901098901098898,0.9912087912087911
5.222389942005975,0.6205128205128204,0.2063003663003663,0.7575091575091575
5.227695590001531,0.6205128205128204,0.2063003663003663,0.7575091575091575
5.230096832005074,0.6205128205128204,0.2063003663003663,0.7575091575091575
5.230285379002453,2.1556776556776556,1.5657875457875456,1.4715018315018316
5.234719390005921,2.1556776556776556,1.5657875457875456,1.4715018315018316
5.2363001670019,2.1556776556776556,1.5657875457875456,1.4715018315018316
5.240202894005051,2.253992673992674,2.5787545787545785,3.3
5.244689083003323,2.253992673992674,2.5787545787545785,3.3
5.2455106870038435,2.253992673992674,2.5787545787545785,3.3
5.247057732005487,2.253992673992674,2.5787545787545785,3.3
5.251728406001348,2.253992673992674,2.5787545787545785,3.3
5.257075501001964,2.253992673992674,2.5787545787545785,3.3
5.2603524180012755,2.253992673992674,2.5787545787545785,3.3
5.261309841000184,2.253992673992674,2.5787545787545785,3.3
5.2622569000013755,2.253992673992674,2.5787545787545785,3.3
5.263212041005318,3.195238095238095,2.6037362637362635,3.3
5.2648024130030535,2.5586080586080584,0.726080586080586,3.3
5.268754364005872,0.759120879120879,0.8791941391941391,2.5682783882783884
5.272664185002213,0.759120879120879,0.8791941391941391,2.5682783882783884
5.276561259001028,1.261978021978022,0.5512087912087912,2.0654212454212453
5.281043404000229,1.261978021978022,0.5512087912087912,2.0654212454212453
5.281943169000442,1.261978021978022,0.5512087912087912,2.0654212454212453
5.282912439004576,1.261978021978022,0.5512087912087912,2.0654212454212453
5.284455506000086,1.261978021978022,0.5512087912087912,2.0654212454212453
5.289196982004796,1.261978021978022,0.5512087912087912,2.0654212454212453
5.2945977990020765,1.261978021978022,0.5512087912087912,2.0654212454212453
5.29619834299956,1.261978021978022,0.5512087912087912,2.0654212454212453
5.300620510002773,1.261978021978022,0.5512087912087912,2.0654212454212453
5.3014638390013715,1.261978021978022,0.5512087912087912,2.0654212454212453
5.303026333000162,1.261978021978022,0.5512087912087912,2.0654212454212453
5.30740342700301,1.261978021978022,0.5512087912087912,2.0654212454212453
5.3083683290024055,1.261978021978022,0.5512087912087912,2.0654212454212453
5.310050256004615,1.261978021978022,0.5512087912087912,2.0654212454212453
5.31485692300339,1.261978021978022,0.5512087912087912,2.0654212454212453
5.3224780290038325,1.261978021978022,0.5512087912087912,2.0654212454212453
5.327956521003216,1.261978021978022,0.5512087912087912,2.0654212454212453
5.330214502006129,1.261978021978022,0.5512087912087912,2.0654212454212453
5.3304567340019275,1.261978021978022,0.5512087912087912,2.0654212454212453
5.335227173003659,1.261978021978022,0.5512087912087912,2.0654212454212453
5.335531044001982,1.68021978021978,0.9178754578754579,2.1105494505494504
5.340210712005501,1.68021978021978,0.9178754578754579,2.1105494505494504
5.340398631000426,0.6567765567765567,0.21999999999999997,0.7736263736263735
5.345663071006129,0.6567765567765567,0.21999999999999997,0.7736263736263735
5.3486614970024675,0.6567765567765567,0.21999999999999997,0.7736263736263735
5.3517668600034085,0.6567765567765567,0.21999999999999997,0.7736263736263735
5.3534659020006075,0.3763369963369963,0.18615384615384614,1.6689377289377287
5.356506608004565,0.3763369963369963,0.18615384615384614,1.6689377289377287
5.3589005270041525,0.3763369963369963,0.18615384615384614,1.6689377289377287
5.364623834000668,0.5931135531135531,0.29816849816849816,0.6503296703296703
5.364884385999176,0.5931135531135531,0.29816849816849816,0.6503296703296703
5.371573469004943,1.9654945054945054,2.8454945054945053,3.3
5.376471675001085,1.9654945054945054,2.8454945054945053,3.3
5.387179572004243,2.1830769230769227,0.26109890109890105,1.7124542124542126
5.3927095570034,2.215311355311355,2.537655677655678,3.3
5.393003994999162,2.215311355311355,2.537655677655678,3.3
5.403012683003908,2.215311355311355,2.537655677655678,3.3
5.407957452000119,0.8663003663003663,1.0484249084249082,2.411135531135531
5.411756667999725,0.8663003663003663,1.0484249084249082,2.411135531135531
5.416438470005232,0.8663003663003663,1.0484249084249082,2.411135531135531
5.416650966006273,0.8663003663003663,1.0484249084249082,2.411135531135531
5.421447322005406,0.8663003663003663,1.0484249084249082,2.411135531135531
5.427026699006092,0.8663003663003663,1.0484249084249082,2.411135531135531
5.427897666006174,1.7978754578754577,0.4496703296703296,3.3
5.428866692003794,1.7978754578754577,0.4496703296703296,3.3
5.430544131006172,1.7978754578754577,0.4496703296703296,3.3
5.435190833006345,1.7978754578754577,0.4496703296703296,3.3
5.441625637002289,1.7978754578754577,0.4496703296703296,3.3
5.445568663002632,1.7978754578754577,0.4496703296703296,3.3
5.451491744002851,1.7978754578754577,0.4496703296703296,3.3
5.4553919110039715,0.8372893772893772,0.6390476190476191,1.7559706959706958
5.459146187000442,0.8372893772893772,0.6390476190476191,1.7559706959706958
5.464759499001957,0.8372893772893772,0.6390476190476191,1.7559706959706958
5.465053081003134,0.8372893772893772,0.6390476190476191,1.7559706959706958
5.471662088006269,0.8372893772893772,0.6390476190476191,1.7559706959706958
5.4755506990040885,0.8703296703296703,2.0928205128205124,1.3417582417582417
5.479474612002377,0.6261538461538461,0.5286446886446886,1.9961172161172158
5.4860845990042435,0.6261538461538461,0.5286446886446886,1.9961172161172158
5.489869847006048,0.6261538461538461,0.5286446886446886,1.9961172161172158
5.494503876005183,0.6261538461538461,0.5286446886446886,1.9961172161172158
5.494762137001089,0.6261538461538461,0.5286446886446886,1.9961172161172158
5.504609922005329,0.6261538461538461,0.5286446886446886,1.9961172161172158
5.50920903700171,0.6261538461538461,0.5286446886446886,1.9961172161172158
5.510047440002381,1.3175824175824176,1.9574358974358974,0.4778754578754579
5.51164375400549,1.3175824175824176,1.9574358974358974,0.4778754578754579
5.517363651000778,1.3175824175824176,1.9574358974358974,0.4778754578754579
5.523571092002385,1.3175824175824176,1.9574358974358974,0.4778754578754579
5.527746334999392,1.8558974358974358,2.2556043956043954,2.216117216117216
5.529332425001485,1.8558974358974358,2.2556043956043954,2.216117216117216
5.5366868620039895,1.8558974358974358,2.2556043956043954,2.216117216117216
5.540520563001337,1.8558974358974358,2.2556043956043954,2.216117216117216
5.545060967000609,1.1024175824175824,1.3417582417582417,1.4658608058608058
5.545916349001345,1.1024175824175824,1.3417582417582417,1.4658608058608058
5.546907916002965,1.1024175824175824,1.3417582417582417,1.4658608058608058
5.548510835003981,1.1024175824175824,1.3417582417582417,1.4658608058608058
5.555705175000185,1.1024175824175824,1.3417582417582417,1.4658608058608058
5.559751283006335,1.1024175824175824,1.3417582417582417,1.4658608058608058
5.563369134004461,1.3401465201465201,0.24256410256410255,1.0065201465201465
5.570683532001567,2.306373626373626,0.6076190476190476,3.3
5.574600259002182,2.174212454212454,1.9574358974358974,0.7881318681318681
5.57834847200138,2.174212454212454,1.9574358974358974,0.7881318681318681
5.586466345004737,1.7334065934065934,0.2369230769230769,1.2893772893772892
5.591562678004266,1.7334065934065934,0.2369230769230769,1.2893772893772892
5.594783846005157,2.518315018315018,1.735018315018315,1.7084249084249086
5.596378113004903,2.518315018315018,1.735018315018315,1.7084249084249086
5.602043014005176,2.518315018315018,1.735018315018315,1.7084249084249086
5.602187313001195,0.8276190476190476,0.2345054945054945,0.8058608058608058
5.606647032000183,0.8276190476190476,0.2345054945054945,0.8058608058608058
5.607594084001903,0.8276190476190476,0.2345054945054945,0.8058608058608058
5.609142552006233,0.8276190476190476,0.2345054945054945,0.8058608058608058
5.615636195005209,0.8276190476190476,0.2345054945054945,0.8058608058608058
5.621019415004412,0.8276190476190476,0.2345054945054945,0.8058608058608058
5.62135761200625,0.8276190476190476,0.2345054945054945,0.8058608058608058
5.629452474000573,0.8276190476190476,0.2345054945054945,0.8058608058608058
5.637254218003363,0.8276190476190476,0.2345054945054945,0.8058608058608058
5.6414417550040525,0.8276190476190476,0.2345054945054945,0.8058608058608058
5.6440805480015115,0.8276190476190476,0.2345054945054945,0.8058608058608058
5.652931554999668,0.8276190476190476,0.2345054945054945,0.8058608058608058
5.66033798600256,0.8276190476190476,0.2345054945054945,0.8058608058608058
5.6687663800039445,0.8276190476190476,0.2345054945054945,0.8058608058608058
5.6729425600060495,0.8276190476190476,0.2345054945054945,0.8058608058608058
5.6753478050013655,0.8276190476190476,0.2345054945054945,0.8058608058608058
5.675641916001041,2.0928205128205124,2.7318681318681315,3.3
5.68044559500413,2.0928205128205124,2.7318681318681315,3.3
5.690609545003099,2.0928205128205124,2.7318681318681315,3.3
5.6990612740046345,3.163003663003663,2.597289377289377,3.3
5.706291468006384,3.163003663003663,2.597289377289377,3.3
5.711809505999554,3.163003663003663,2.597289377289377,3.3
5.712004364999302,3.163003663003663,2.597289377289377,3.3
5.719750641001156,3.163003663003663,2.597289377289377,3.3
5.723494566002046,3.163003663003663,2.597289377289377,3.3
5.7287934820051305,3.163003663003663,2.597289377289377,3.3
5.731728726001165,3.163003663003663,2.597289377289377,3.3
5.735728708001261,1.0726007326007325,0.40695970695970696,1.9961172161172158
5.737335817000712,1.0726007326007325,0.40695970695970696,1.9961172161172158
5.741415428004984,0.9887912087912087,0.23934065934065935,0.7647619047619048
5.744421492003312,0.9887912087912087,0.23934065934065935,0.7647619047619048
5.747534299000108,0.9887912087912087,0.23934065934065935,0.7647619047619048
5.7494659870062605,0.9887912087912087,0.23934065934065935,0.7647619047619048
5.752968213004351,0.9887912087912087,0.23934065934065935,0.7647619047619048
5.757542737999756,0.9887912087912087,0.23934065934065935,0.7647619047619048
5.758393812000577,0.9887912087912087,0.23934065934065935,0.7647619047619048
5.759991315004299,0.9887912087912087,0.23934065934065935,0.7647619047619048
5.763924273000157,0.9887912087912087,0.23934065934065935,0.7647619047619048
5.77129560100002,0.9887912087912087,0.23934065934065935,0.7647619047619048
5.776004174003901,2.577948717948718,2.178241758241758,1.8978021978021975
5.786169689003145,2.577948717948718,2.178241758241758,1.8978021978021975
5.791212098003598,1.211208791208791,2.01062271062271,0.909010989010989
5.79578929800482,1.211208791208791,2.01062271062271,0.909010989010989
5.796051883000473,1.211208791208791,2.01062271062271,0.909010989010989
5.8037566380007775,1.211208791208791,2.01062271062271,0.909010989010989
5.808234600001015,1.211208791208791,2.01062271062271,0.909010989010989
5.8098715279993485,1.211208791208791,2.01062271062271,0.909010989010989
5.813220481999451,1.211208791208791,2.01062271062271,0.909010989010989
5.814430173006258,1.211208791208791,2.01062271062271,0.909010989010989
5.814628366999386,1.211208791208791,2.01062271062271,0.909010989010989
5.821086531002948,1.211208791208791,2.01062271062271,0.909010989010989
5.824898345003021,1.211208791208791,2.01062271062271,0.909010989010989
5.83046041399939,3.3,1.3312820512820513,3.3
5.831429472003947,3.3,1.3312820512820513,3.3
5.833683917000599,3.3,1.3312820512820513,3.3
5.833946103004564,3.3,1.3312820512820513,3.3
5.838696215003438,3.3,1.3312820512820513,3.3
5.844134019003832,2.0984615384615384,0.28849816849816845,1.4432967032967032
5.845929044000513,2.2636630036630034,0.5898901098901098,3.3
5.851452019000135,2.2636630036630034,0.5898901098901098,3.3
5.857987650000723,2.2636630036630034,0.5898901098901098,3.3
5.862115025003732,1.1821978021978021,0.49802197802197795,1.9727472527472525
5.867103887001576,1.1821978021978021,0.49802197802197795,1.9727472527472525
5.87064466800075,1.1821978021978021,0.49802197802197795,1.9727472527472525
5.875160144001711,1.7527472527472527,0.834065934065934,2.087179487179487
5.876044854005158,1.7527472527472527,0.834065934065934,2.087179487179487
5.877678538003238,1.7527472527472527,0.834065934065934,2.087179487179487
5.882133964005334,1.7527472527472527,0.834065934065934,2.087179487179487
5.882391594001092,1.7527472527472527,0.834065934065934,2.087179487179487
5.888114191002387,2.1476190476190475,0.527032967032967,3.3
5.893537449002906,2.4909157509157507,1.6415384615384614,1.5923809523809522
5.8958123510019504,2.4909157509157507,1.6415384615384614,1.5923809523809522
5.896136871000635,2.4909157509157507,1.6415384615384614,1.5923809523809522
5.90151327100466,2.4909157509157507,1.6415384615384614,1.5923809523809522
5.902446461004729,2.4909157509157507,1.6415384615384614,1.5923809523809522
5.904062478999549,2.4909157509157507,1.6415384615384614,1.5923809523809522
5.907924924002145,2.4909157509157507,1.6415384615384614,1.5923809523809522
5.912008199004049,2.4909157509157507,1.6415384615384614,1.5923809523809522
5.91529494200222,2.4909157509157507,1.6415384615384614,1.5923809523809522
5.91561235300469,2.4909157509157507,1.6415384615384614,1.5923809523809522
5.920577062999655,2.4909157509157507,1.6415384615384614,1.5923809523809522
5.924354565002432,2.4909157509157507,1.6415384615384614,1.5923809523809522
5.9297422130039195,2.4909157509157507,1.6415384615384614,1.5923809523809522
5.930635105003603,1.8776556776556774,1.3256410256410256,1.510989010989011
5.93355238600634,1.8776556776556774,1.3256410256410256,1.510989010989011
5.9359778510042815,1.8776556776556774,1.3256410256410256,1.510989010989011
5.941655710004852,1.8776556776556774,1.3256410256410256,1.510989010989011
5.94187063100253,1.8776556776556774,1.3256410256410256,1.510989010989011
5.947164008000982,1.8776556776556774,1.3256410256410256,1.510989010989011
5.951686213003995,3.084029304029304,1.9106959706959707,0.5528205128205127
5.957604129005631,3.084029304029304,1.9106959706959707,0.5528205128205127
5.962787346004916,3.084029304029304,1.9106959706959707,0.5528205128205127
5.967573680005444,3.084029304029304,1.9106959706959707,0.5528205128205127
5.972984296000504,0.8147252747252747,1.8567032967032966,1.3127472527472526
5.973323943006108,0.8147252747252747,1.8567032967032966,1.3127472527472526
5.97861906500475,0.8147252747252747,1.8567032967032966,1.3127472527472526
5.980453647003742,0.8147252747252747,1.8567032967032966,1.3127472527472526
5.983977080999466,0.8147252747252747,1.8567032967032966,1.3127472527472526
5.990969204001885,0.8147252747252747,1.8567032967032966,1.3127472527472526
5.996000557002844,0.8147252747252747,1.8567032967032966,1.3127472527472526
6.001521758000308,1.9292307692307693,0.36666666666666664,1.3917216117216116
6.001681890003965,1.9292307692307693,0.36666666666666664,1.3917216117216116
6.006748525003786,1.9292307692307693,0.36666666666666664,1.3917216117216116
6.011257389000093,1.9292307692307693,0.36666666666666664,1.3917216117216116
6.011554712000361,0.6269597069597069,0.5415384615384615,1.6673260073260072
6.019407178006077,0.6269597069597069,0.5415384615384615,1.6673260073260072
6.023153264999564,1.0983882783882783,0.4867399267399267,1.9018315018315015
6.028680825002084,1.0983882783882783,0.4867399267399267,1.9018315018315015
6.03026576400589,1.373992673992674,2.3619780219780218,3.154945054945055
6.035720715000934,1.373992673992674,2.3619780219780218,3.154945054945055
6.035927101002017,1.373992673992674,2.3619780219780218,3.154945054945055
6.0408939810004085,1.373992673992674,2.3619780219780218,3.154945054945055
6.045413961001032,1.373992673992674,2.3619780219780218,3.154945054945055
6.0456455380044645,1.373992673992674,2.3619780219780218,3.154945054945055
6.053283100001863,1.373992673992674,2.3619780219780218,3.154945054945055
6.057112867005344,1.373992673992674,2.3619780219780218,3.154945054945055
6.061933615004818,1.373992673992674,2.3619780219780218,3.154945054945055
6.068948234002164,0.9404395604395603,0.24014652014652016,0.6551648351648351
6.072312803000386,0.32153846153846155,1.991282051282051,2.705274725274725
6.073879128001863,0.32153846153846155,1.991282051282051,2.705274725274725
6.078214031003881,0.32153846153846155,1.991282051282051,2.705274725274725
6.079881896999723,1.3659340659340657,0.3545787545787546,1.0717948717948718
6.084599304005678,1.3659340659340657,0.3545787545787546,1.0717948717948718
6.089317824000318,1.3659340659340657,0.3545787545787546,1.0717948717948718
6.089433821005514,1.3659340659340657,0.3545787545787546,1.0717948717948718
6.094215080003778,2.021904761904762,0.9605860805860806,1.8083516483516484
6.102309400004742,2.021904761904762,0.9605860805860806,1.8083516483516484
6.1074526160009555,2.021904761904762,0.9605860805860806,1.8083516483516484
6.109905156001332,2.021904761904762,0.9605860805860806,1.8083516483516484
