time,emg1,emg2,emg3
0.006904867994308006,1.091135531135531,0.4698168498168498,1.6850549450549448
0.022969555997406133,1.091135531135531,0.4698168498168498,1.6850549450549448
0.03911790299753193,0.8671062271062271,0.17406593406593407,0.3078388278388278
0.050177129996882286,0.8671062271062271,0.17406593406593407,0.3078388278388278
0.057485580997308716,0.8671062271062271,0.17406593406593407,0.3078388278388278
0.06213547399966046,0.8671062271062271,0.17406593406593407,0.3078388278388278
0.06229685799917206,0.8671062271062271,0.17406593406593407,0.3078388278388278
0.06769431899738265,0.8671062271062271,0.17406593406593407,0.3078388278388278
0.06872789000044577,0.9791208791208791,0.6277655677655677,1.0008791208791208
0.06905375999485841,0.9791208791208791,0.6277655677655677,1.0008791208791208
0.07516195900097955,0.9791208791208791,0.6277655677655677,1.0008791208791208
0.08032313299918314,2.428864468864469,2.1589010989010986,1.6423443223443224
0.08287866599857807,2.428864468864469,2.1589010989010986,1.6423443223443224
0.08807604199682828,2.428864468864469,2.1589010989010986,1.6423443223443224
0.09355064400006086,2.428864468864469,2.1589010989010986,1.6423443223443224
0.09377604499604786,2.428864468864469,2.1589010989010986,1.6423443223443224
0.0993499280011747,2.428864468864469,2.1589010989010986,1.6423443223443224
0.09959850699669914,2.6746520146520147,2.1685714285714286,1.6826373626373625
0.10445224100112682,2.6746520146520147,2.1685714285714286,1.6826373626373625
0.11000066899578087,2.6746520146520147,2.1685714285714286,1.6826373626373625
0.11030994699831354,2.6746520146520147,2.1685714285714286,1.6826373626373625
0.114913154997339,2.6746520146520147,2.1685714285714286,1.6826373626373625
0.11521350799739594,2.6746520146520147,2.1685714285714286,1.6826373626373625
0.11972323800000595,2.6746520146520147,2.1685714285714286,1.6826373626373625
0.12007695200009039,2.6746520146520147,2.1685714285714286,1.6826373626373625
0.1252970790010295,2.6746520146520147,2.1685714285714286,1.6826373626373625
0.12834121199557558,1.8156043956043957,1.4884249084249084,0.20227106227106226
0.1306748700008029,1.8156043956043957,1.4884249084249084,0.20227106227106226
0.13097174099675613,1.3659340659340657,1.4610256410256408,3.3
0.13600727100129006,1.3659340659340657,1.4610256410256408,3.3
0.13995833799708635,1.3659340659340657,1.4610256410256408,3.3
0.1446122400011518,1.3659340659340657,1.4610256410256408,3.3
0.15576299999520415,1.3659340659340657,1.4610256410256408,3.3
0.1647293729984085,2.5956776556776555,1.2337728937728938,2.331355311355311
0.17209560699848225,2.5956776556776555,1.2337728937728938,2.331355311355311
0.1780234499965445,1.1854212454212454,0.24175824175824176,0.24014652014652016
0.18178344899934018,1.1854212454212454,0.24175824175824176,0.24014652014652016
0.18710242900124285,1.1854212454212454,0.24175824175824176,0.24014652014652016
0.190806138998596,1.494871794871795,0.9742857142857142,0.8397069597069596
0.19534878199920058,1.494871794871795,0.9742857142857142,0.8397069597069596
0.19566496599873062,1.494871794871795,0.9742857142857142,0.8397069597069596
0.2014777519943891,1.494871794871795,0.9742857142857142,0.8397069597069596
0.2015936019961373,1.494871794871795,0.9742857142857142,0.8397069597069596
0.20665478899900336,1.494871794871795,0.9742857142857142,0.8397069597069596
0.21298180899611907,1.494871794871795,0.9742857142857142,0.8397069597069596
0.2169380739942426,1.3304761904761904,0.20388278388278389,0.2328937728937729
0.2204769249947276,1.3304761904761904,0.20388278388278389,0.2328937728937729
0.22061302899965085,1.2531135531135529,1.5464468864468863,3.129157509157509
0.2255572489957558,1.2531135531135529,1.5464468864468863,3.129157509157509
0.23388360099488636,1.2531135531135529,1.5464468864468863,3.129157509157509
0.2420539739978267,0.8139194139194139,0.16842490842490843,0.31750915750915754
0.24918908700055908,1.810769230769231,1.2893772893772892,0.31347985347985347
0.2531924059949233,1.810769230769231,1.2893772893772892,0.31347985347985347
0.2579419199973927,1.810769230769231,1.2893772893772892,0.31347985347985347
0.2684844709947356,1.810769230769231,1.2893772893772892,0.31347985347985347
0.27649058099632384,1.810769230769231,1.2893772893772892,0.31347985347985347
0.2830242569980328,1.203150183150183,0.3465201465201465,2.4949450549450547
0.2869739509987994,1.203150183150183,0.3465201465201465,2.4949450549450547
0.2909253229954629,1.203150183150183,0.3465201465201465,2.4949450549450547
0.30015217199979816,1.203150183150183,0.3465201465201465,2.4949450549450547
0.3049292189971311,1.203150183150183,0.3465201465201465,2.4949450549450547
0.3104977529947064,2.038021978021978,1.502930402930403,0.1789010989010989
0.31179963799513644,2.038021978021978,1.502930402930403,0.1789010989010989
0.31209004599804757,2.038021978021978,1.502930402930403,0.1789010989010989
0.3205397220008308,2.038021978021978,1.502930402930403,0.1789010989010989
0.3254355349999969,0.6245421245421244,0.6680586080586081,2.1024908424908424
0.3359096829954069,2.2523809523809524,1.6834432234432233,0.5399267399267399
0.34181670199905057,2.2523809523809524,1.6834432234432233,0.5399267399267399
0.34198133400059305,2.2523809523809524,1.6834432234432233,0.5399267399267399
0.3509855219963356,2.2523809523809524,1.6834432234432233,0.5399267399267399
0.3599209659951157,2.2523809523809524,1.6834432234432233,0.5399267399267399
0.3657918509998126,2.2523809523809524,1.6834432234432233,0.5399267399267399
0.37071264399855863,2.2523809523809524,1.6834432234432233,0.5399267399267399
0.3753764919965761,1.423956043956044,1.7624175824175823,3.3
0.3755795959950774,1.423956043956044,1.7624175824175823,3.3
0.38103632199636195,1.423956043956044,1.7624175824175823,3.3
0.38198473199736327,1.423956043956044,1.7624175824175823,3.3
0.38234551799541805,1.423956043956044,1.7624175824175823,3.3
0.38800234999507666,1.423956043956044,1.7624175824175823,3.3
0.3882143480004743,0.7808791208791208,0.8977289377289376,2.7076923076923074
0.39307651499984786,0.7808791208791208,0.8977289377289376,2.7076923076923074
0.3996028729961836,0.7808791208791208,0.8977289377289376,2.7076923076923074
0.4037166139969486,2.8068131868131867,1.3401465201465201,2.318461538461538
0.4068497150001349,2.8068131868131867,1.3401465201465201,2.318461538461538
0.4086408349976409,2.8068131868131867,1.3401465201465201,2.318461538461538
0.4123123749959632,2.8068131868131867,1.3401465201465201,2.318461538461538
0.41714743500051554,2.8068131868131867,1.3401465201465201,2.318461538461538
0.4227903700011666,2.8068131868131867,1.3401465201465201,2.318461538461538
0.42297012099879794,2.8068131868131867,1.3401465201465201,2.318461538461538
0.4289081149981939,1.5883516483516482,1.0274725274725274,0.7607326007326007
0.4336822699988261,0.4416117216117216,0.29978021978021974,1.1539926739926738
0.4338712159951683,0.4416117216117216,0.29978021978021974,1.1539926739926738
0.4385191869951086,0.4416117216117216,0.29978021978021974,1.1539926739926738
0.4386592209993978,0.4416117216117216,0.29978021978021974,1.1539926739926738
0.44508953399781603,0.4416117216117216,0.29978021978021974,1.1539926739926738
0.44889880499977153,0.4416117216117216,0.29978021978021974,1.1539926739926738
0.4524089209953672,0.4416117216117216,0.29978021978021974,1.1539926739926738
0.45274655200046254,1.2652014652014651,0.20307692307692307,0.224029304029304
0.45753790299932007,0.7035164835164834,0.253040293040293,0.3352380952380952
0.457647534996795,0.7035164835164834,0.253040293040293,0.3352380952380952
0.46439966400066623,0.7373626373626374,0.9436630036630036,2.581172161172161
0.4686539559988887,1.2724542124542124,1.6093040293040293,1.373992673992674
0.47034450699720765,1.2724542124542124,1.6093040293040293,1.373992673992674
0.4742292669980088,1.2724542124542124,1.6093040293040293,1.373992673992674
0.48073966299853055,0.7002930402930403,0.1652014652014652,0.303003663003663
0.4842046619960456,1.4594139194139193,1.5198534798534797,3.3
0.48444484599895077,1.4594139194139193,1.5198534798534797,3.3
0.4894150109976181,1.4594139194139193,1.5198534798534797,3.3
0.4940674149984261,1.4594139194139193,1.5198534798534797,3.3
0.49424392500077374,1.4594139194139193,1.5198534798534797,3.3
0.4993847379955696,1.4594139194139193,1.5198534798534797,3.3
0.5026696329950937,1.4594139194139193,1.5198534798534797,3.3
0.5029472059977707,1.4594139194139193,1.5198534798534797,3.3
0.5077366559999064,1.4594139194139193,1.5198534798534797,3.3
0.5146955939999316,1.4594139194139193,1.5198534798534797,3.3
0.5189683999997214,0.7212454212454212,0.1772893772893773,0.2957509157509157
0.5207517119997647,1.6302564102564103,1.722930402930403,3.3
0.5247410029987805,1.6302564102564103,1.722930402930403,3.3
0.5288369089976186,1.6302564102564103,1.722930402930403,3.3
0.5316314999945462,1.6302564102564103,1.722930402930403,3.3
0.5349606029994902,1.6302564102564103,1.722930402930403,3.3
0.5353154080003151,1.6302564102564103,1.722930402930403,3.3
0.5401457459956873,1.6302564102564103,1.722930402930403,3.3
0.5478471519963932,1.6302564102564103,1.722930402930403,3.3
0.5528743139948347,1.6302564102564103,1.722930402930403,3.3
0.5568962159959483,1.6302564102564103,1.722930402930403,3.3
0.5611759349994827,1.6302564102564103,1.722930402930403,3.3
0.5622871949963155,1.6302564102564103,1.722930402930403,3.3
0.5625606760004302,1.6302564102564103,1.722930402930403,3.3
0.5697420009964844,1.6302564102564103,1.722930402930403,3.3
0.573316090994922,1.6302564102564103,1.722930402930403,3.3
0.5812488339943229,1.6302564102564103,1.722930402930403,3.3
0.5862782089971006,2.5521611721611723,1.0943589743589743,2.353113553113553
0.5902648669944028,1.5335531135531135,1.0218315018315018,0.6446886446886446
0.5947317609970924,1.5335531135531135,1.0218315018315018,0.6446886446886446
0.5950565870007267,1.5335531135531135,1.0218315018315018,0.6446886446886446
0.6003809489993728,1.5335531135531135,1.0218315018315018,0.6446886446886446
0.6014336999942316,0.5471794871794872,0.5721611721611721,2.0484981684981682
0.6023923530010507,0.5471794871794872,0.5721611721611721,2.0484981684981682
0.6033094029990025,0.5471794871794872,0.5721611721611721,2.0484981684981682
0.604995374000282,0.5471794871794872,0.5721611721611721,2.0484981684981682
0.6081976779969409,0.5471794871794872,0.5721611721611721,2.0484981684981682
0.6105161079976824,0.767985347985348,0.3771428571428571,1.5166300366300365
0.610794675994839,0.767985347985348,0.3771428571428571,1.5166300366300365
0.6165043199944193,0.767985347985348,0.3771428571428571,1.5166300366300365
0.6168293059963617,0.767985347985348,0.3771428571428571,1.5166300366300365
0.6208849149988964,0.767985347985348,0.3771428571428571,1.5166300366300365
0.6239713699978893,1.6028571428571428,1.692307692307692,1.0266666666666666
0.6272053759967093,2.046080586080586,1.4457142857142857,0.6156776556776556
0.6284033759948215,2.046080586080586,1.4457142857142857,0.6156776556776556
0.6286099329954595,2.046080586080586,1.4457142857142857,0.6156776556776556
0.6337734129992896,2.046080586080586,1.4457142857142857,0.6156776556776556
0.637172794995422,2.046080586080586,1.4457142857142857,0.6156776556776556
0.6375571489988943,2.046080586080586,1.4457142857142857,0.6156776556776556
0.6428451429965207,2.046080586080586,1.4457142857142857,0.6156776556776556
0.6450240779959131,2.046080586080586,1.4457142857142857,0.6156776556776556
0.6462017689991626,2.046080586080586,1.4457142857142857,0.6156776556776556
0.6463684089976596,2.046080586080586,1.4457142857142857,0.6156776556776556
0.6516755330012529,2.046080586080586,1.4457142857142857,0.6156776556776556
0.6533439499980886,2.046080586080586,1.4457142857142857,0.6156776556776556
0.6572612749951077,2.046080586080586,1.4457142857142857,0.6156776556776556
0.6637452459981432,2.046080586080586,1.4457142857142857,0.6156776556776556
0.6686515740002505,2.046080586080586,1.4457142857142857,0.6156776556776556
0.673567888996331,2.046080586080586,1.4457142857142857,0.6156776556776556
0.6786708439976792,2.046080586080586,1.4457142857142857,0.6156776556776556
0.68016579200048,2.046080586080586,1.4457142857142857,0.6156776556776556
0.6842404389972216,2.046080586080586,1.4457142857142857,0.6156776556776556
0.6875784169969847,2.046080586080586,1.4457142857142857,0.6156776556776556
0.6878212179944967,2.046080586080586,1.4457142857142857,0.6156776556776556
0.6943674829963129,2.046080586080586,1.4457142857142857,0.6156776556776556
0.6982194009979139,2.046080586080586,1.4457142857142857,0.6156776556776556
0.7024076899979264,2.046080586080586,1.4457142857142857,0.6156776556776556
0.7048569559992757,2.046080586080586,1.4457142857142857,0.6156776556776556
0.7114378769983887,2.046080586080586,1.4457142857142857,0.6156776556776556
0.7177615239997976,0.7421978021978022,0.24095238095238095,0.2909157509157509
0.7218153619978693,0.7421978021978022,0.24095238095238095,0.2909157509157509
0.7249812899972312,0.7421978021978022,0.24095238095238095,0.2909157509157509
0.7265423529970576,0.7421978021978022,0.24095238095238095,0.2909157509157509
0.7320163740005228,0.7421978021978022,0.24095238095238095,0.2909157509157509
0.732203818995913,0.7421978021978022,0.24095238095238095,0.2909157509157509
0.7377384930005064,0.7421978021978022,0.24095238095238095,0.2909157509157509
0.7386469519988168,0.7421978021978022,0.24095238095238095,0.2909157509157509
0.7402884559996892,0.7421978021978022,0.24095238095238095,0.2909157509157509
0.7463255779948668,0.801025641025641,1.502124542124542,2.0347985347985347
0.7495915089966729,0.801025641025641,1.502124542124542,2.0347985347985347
0.7505454019992612,0.801025641025641,1.502124542124542,2.0347985347985347
0.751481020997744,0.801025641025641,1.502124542124542,2.0347985347985347
0.7532287549984176,0.801025641025641,1.502124542124542,2.0347985347985347
0.7557135319948429,0.801025641025641,1.502124542124542,2.0347985347985347
0.7633488979990943,0.801025641025641,1.502124542124542,2.0347985347985347
0.7692553349988884,0.801025641025641,1.502124542124542,2.0347985347985347
0.7750537839965546,0.6825641025641025,0.6632234432234432,2.344249084249084
0.7815152189941728,0.5681318681318681,0.18695970695970696,0.34087912087912087
0.7855309669976123,0.5681318681318681,0.18695970695970696,0.34087912087912087
0.7894685430001118,0.5681318681318681,0.18695970695970696,0.34087912087912087
0.7931737059989246,0.5681318681318681,0.18695970695970696,0.34087912087912087
0.8011730149955838,0.5681318681318681,0.18695970695970696,0.34087912087912087
0.8072406020000926,0.5681318681318681,0.18695970695970696,0.34087912087912087
0.8153622659956454,0.5681318681318681,0.18695970695970696,0.34087912087912087
0.8226540179966833,2.8068131868131867,1.4295970695970697,2.1798534798534797
0.8299229979966185,2.8068131868131867,1.4295970695970697,2.1798534798534797
0.8339970289962366,2.8068131868131867,1.4295970695970697,2.1798534798534797
0.8372063499991782,2.8068131868131867,1.4295970695970697,2.1798534798534797
0.8387965849979082,2.8068131868131867,1.4295970695970697,2.1798534798534797
0.8430041989995516,2.8068131868131867,1.4295970695970697,2.1798534798534797
0.8450835999974515,2.8068131868131867,1.4295970695970697,2.1798534798534797
0.8460486909971223,0.423076923076923,0.25868131868131866,1.1177289377289377
0.8470137769982102,0.423076923076923,0.25868131868131866,1.1177289377289377
0.8479425459954655,0.423076923076923,0.25868131868131866,1.1177289377289377
0.8496149619968492,0.423076923076923,0.25868131868131866,1.1177289377289377
0.8535552159955841,0.423076923076923,0.25868131868131866,1.1177289377289377
0.8574083519997657,1.1273992673992674,1.261172161172161,0.9654212454212454
0.862100061000092,2.6279120879120876,2.1443956043956045,1.6979487179487176
0.8679358009976568,1.6431501831501831,1.6294505494505493,3.3
0.8736641319992486,1.6431501831501831,1.6294505494505493,3.3
0.873824557995249,1.6431501831501831,1.6294505494505493,3.3
0.8810900749958819,1.6431501831501831,1.6294505494505493,3.3
0.8871787120006047,1.6431501831501831,1.6294505494505493,3.3
0.8924523889945704,1.6544322344322344,1.1596336996336996,0.614065934065934
0.8937294249990373,1.6544322344322344,1.1596336996336996,0.614065934065934
0.9039844939979957,2.453040293040293,2.1879120879120877,1.6318681318681318
0.912687673997425,2.453040293040293,2.1879120879120877,1.6318681318681318
0.9166952269952162,2.453040293040293,2.1879120879120877,1.6318681318681318
0.9205222870004945,2.9905494505494503,2.1806593406593406,2.133919413919414
0.9264053379956749,2.9905494505494503,2.1806593406593406,2.133919413919414
0.9347850689955521,2.9905494505494503,2.1806593406593406,2.133919413919414
0.9421677899954375,2.9905494505494503,2.1806593406593406,2.133919413919414
0.9484149419949972,2.9905494505494503,2.1806593406593406,2.133919413919414
0.9543613909991109,1.6987545787545786,1.1306227106227105,0.6777289377289377
0.9600695059998543,1.6987545787545786,1.1306227106227105,0.6777289377289377
0.9682666759981657,1.6987545787545786,1.1306227106227105,0.6777289377289377
0.9783681469998555,0.7768498168498168,0.701098901098901,1.1402930402930402
0.9838274249996175,1.1435164835164835,0.2063003663003663,0.2498168498168498
0.9847728999957326,0.3602197802197802,1.1217582417582417,2.3627838827838827
0.9863284899984137,0.3602197802197802,1.1217582417582417,2.3627838827838827
0.9900928229981218,0.3602197802197802,1.1217582417582417,2.3627838827838827
0.9980646449985215,0.3602197802197802,1.1217582417582417,2.3627838827838827
1.004467245998967,0.3602197802197802,1.1217582417582417,2.3627838827838827
1.007579626995721,0.3602197802197802,1.1217582417582417,2.3627838827838827
1.0109937419983908,0.3602197802197802,1.1217582417582417,2.3627838827838827
1.0112876790008158,0.3602197802197802,1.1217582417582417,2.3627838827838827
1.0166564259998268,0.3602197802197802,1.1217582417582417,2.3627838827838827
1.0190659169966239,2.9865201465201463,1.6173626373626373,2.0484981684981682
1.0245567089950782,0.7430036630036629,1.569010989010989,2.1145787545787544
1.0281997919955757,0.7430036630036629,1.569010989010989,2.1145787545787544
1.0330142050006543,0.7430036630036629,1.569010989010989,2.1145787545787544
1.0370536589980475,1.2345787545787545,0.19904761904761903,0.2087179487179487
1.0401922370001557,1.2345787545787545,0.19904761904761903,0.2087179487179487
1.0421544319979148,1.2345787545787545,0.19904761904761903,0.2087179487179487
1.0447954880000907,1.2345787545787545,0.19904761904761903,0.2087179487179487
1.0527681179955835,1.2345787545787545,0.19904761904761903,0.2087179487179487
1.0591437979965121,1.2345787545787545,0.19904761904761903,0.2087179487179487
1.0637225479949848,1.2345787545787545,0.19904761904761903,0.2087179487179487
1.0638654089998454,1.2345787545787545,0.19904761904761903,0.2087179487179487
1.068763121998927,1.2345787545787545,0.19904761904761903,0.2087179487179487
1.0744202669957303,1.2345787545787545,0.19904761904761903,0.2087179487179487
1.0747360530003789,1.2345787545787545,0.19904761904761903,0.2087179487179487
1.0832909439996001,1.2345787545787545,0.19904761904761903,0.2087179487179487
1.0904354879967286,0.963003663003663,1.514212454212454,3.0614652014652015
1.096447165000427,0.963003663003663,1.514212454212454,3.0614652014652015
1.1016268609964754,0.963003663003663,1.514212454212454,3.0614652014652015
1.1045666669961065,1.647985347985348,1.7253479853479854,0.7397802197802198
1.1060545389991603,1.1934798534798534,0.767985347985348,1.0484249084249082
1.11293215600017,1.1934798534798534,0.767985347985348,1.0484249084249082
1.11910714199621,1.1934798534798534,0.767985347985348,1.0484249084249082
1.1238781719948747,1.1934798534798534,0.767985347985348,1.0484249084249082
1.1307142410005326,1.1934798534798534,0.767985347985348,1.0484249084249082
1.135486408995348,1.1934798534798534,0.767985347985348,1.0484249084249082
1.1435036350012524,0.6124542124542125,0.1378021978021978,0.2756043956043956
1.150490808999166,1.468278388278388,1.5464468864468863,3.3
1.1548144449989195,1.468278388278388,1.5464468864468863,3.3
1.1553796699954546,1.468278388278388,1.5464468864468863,3.3
1.1622420009953203,1.468278388278388,1.5464468864468863,3.3
1.167762336001033,1.468278388278388,1.5464468864468863,3.3
1.1680015120000462,1.0605128205128205,0.618095238095238,1.4634432234432233
1.1772143509952002,1.0605128205128205,0.618095238095238,1.4634432234432233
1.1838880899958895,1.0605128205128205,0.618095238095238,1.4634432234432233
1.1892035939963534,1.0605128205128205,0.618095238095238,1.4634432234432233
1.190772564994404,1.0605128205128205,0.618095238095238,1.4634432234432233
1.1965139849999105,1.0605128205128205,0.618095238095238,1.4634432234432233
1.2031660539942095,1.0605128205128205,0.618095238095238,1.4634432234432233
1.2081484419977642,1.0605128205128205,0.618095238095238,1.4634432234432233
1.2128835139956209,1.0605128205128205,0.618095238095238,1.4634432234432233
1.2175494959956268,1.0605128205128205,0.618095238095238,1.4634432234432233
1.2232808099943213,1.0605128205128205,0.618095238095238,1.4634432234432233
1.2234927120007342,1.6254212454212453,1.7261538461538461,3.3
1.2286303829969256,1.6254212454212453,1.7261538461538461,3.3
1.231802301001153,1.6254212454212453,1.7261538461538461,3.3
1.2327281280013267,1.6254212454212453,1.7261538461538461,3.3
1.2344142199945054,1.6254212454212453,1.7261538461538461,3.3
1.237549544996,1.6254212454212453,1.7261538461538461,3.3
1.2391937759966822,1.6254212454212453,1.7261538461538461,3.3
1.2429769099981058,1.6254212454212453,1.7261538461538461,3.3
1.248642980994191,1.851062271062271,1.3345054945054944,0.5415384615384615
1.248940819001291,1.851062271062271,1.3345054945054944,0.5415384615384615
1.2535658109991346,1.851062271062271,1.3345054945054944,0.5415384615384615
1.2543982659990434,1.851062271062271,1.3345054945054944,0.5415384615384615
1.2559758489951491,1.851062271062271,1.3345054945054944,0.5415384615384615
1.2596906719991239,2.71010989010989,2.0581684981684982,1.6713553113553112
1.2598374000008334,2.71010989010989,2.0581684981684982,1.6713553113553112
1.2645759980005096,2.71010989010989,2.0581684981684982,1.6713553113553112
1.2647152529971208,0.6769230769230768,0.39487179487179486,1.1177289377289377
1.2693531029945007,0.6769230769230768,0.39487179487179486,1.1177289377289377
1.2696186959947227,1.4328205128205127,1.6947252747252746,3.3
1.2744807439958095,1.4328205128205127,1.6947252747252746,3.3
1.2797833809963777,0.6664468864468864,0.25223443223443226,0.307032967032967
1.2830020059991512,0.6664468864468864,0.25223443223443226,0.307032967032967
1.28484077599569,1.921978021978022,1.5013186813186812,0.13054945054945052
1.287156739999773,1.921978021978022,1.5013186813186812,0.13054945054945052
1.2874346349999541,1.921978021978022,1.5013186813186812,0.13054945054945052
1.2918468639982166,1.921978021978022,1.5013186813186812,0.13054945054945052
1.2926885039996705,1.921978021978022,1.5013186813186812,0.13054945054945052
1.2942649190008524,1.921978021978022,1.5013186813186812,0.13054945054945052
1.2986846249987138,1.921978021978022,1.5013186813186812,0.13054945054945052
1.300278996997804,1.921978021978022,1.5013186813186812,0.13054945054945052
1.3037337099958677,1.921978021978022,1.5013186813186812,0.13054945054945052
1.3045885889951023,1.921978021978022,1.5013186813186812,0.13054945054945052
1.3067008770012762,1.921978021978022,1.5013186813186812,0.13054945054945052
1.3081317429969204,1.921978021978022,1.5013186813186812,0.13054945054945052
1.312949214996479,1.921978021978022,1.5013186813186812,0.13054945054945052
1.3178596759971697,1.921978021978022,1.5013186813186812,0.13054945054945052
1.3227004389991635,1.921978021978022,1.5013186813186812,0.13054945054945052
1.322801497997716,0.6479120879120879,1.5335531135531135,2.2564102564102564
1.327723899994453,0.6479120879120879,1.5335531135531135,2.2564102564102564
1.3326971269998467,1.1378754578754577,0.7228571428571429,1.0363369963369962
1.3375762789946748,0.5383150183150183,0.18615384615384614,0.31509157509157504
1.3377494649976143,1.3465934065934064,0.29413919413919415,2.659340659340659
1.3426376459974563,1.3465934065934064,0.29413919413919415,2.659340659340659
1.3475025309962803,1.3465934065934064,0.29413919413919415,2.659340659340659
1.347603951995552,1.3465934065934064,0.29413919413919415,2.659340659340659
1.3524632299959194,1.3465934065934064,0.29413919413919415,2.659340659340659
1.3525913539997418,0.842124542124542,0.22805860805860806,0.2836630036630036
1.3576712699941709,0.842124542124542,0.22805860805860806,0.2836630036630036
1.360558961998322,0.842124542124542,0.22805860805860806,0.2836630036630036
1.3640594639946357,0.842124542124542,0.22805860805860806,0.2836630036630036
1.3642574789992068,0.842124542124542,0.22805860805860806,0.2836630036630036
1.3696660249988781,0.842124542124542,0.22805860805860806,0.2836630036630036
1.3705582309994497,0.842124542124542,0.22805860805860806,0.2836630036630036
1.3721726939984364,0.842124542124542,0.22805860805860806,0.2836630036630036
1.3760262669966323,0.842124542124542,0.22805860805860806,0.2836630036630036
1.3816045749990735,0.842124542124542,0.22805860805860806,0.2836630036630036
1.381887215997267,0.842124542124542,0.22805860805860806,0.2836630036630036
1.3865507999944384,0.842124542124542,0.22805860805860806,0.2836630036630036
1.38670718800131,0.842124542124542,0.22805860805860806,0.2836630036630036
1.3918758079962572,0.842124542124542,0.22805860805860806,0.2836630036630036
1.3955179159966065,0.842124542124542,0.22805860805860806,0.2836630036630036
1.3956707929974073,0.842124542124542,0.22805860805860806,0.2836630036630036
1.4009855289987172,0.842124542124542,0.22805860805860806,0.2836630036630036
1.4033100039960118,0.842124542124542,0.22805860805860806,0.2836630036630036
1.40357924199634,1.8808791208791207,1.2821245421245422,0.5052747252747253
1.4079916499977116,1.8808791208791207,1.2821245421245422,0.5052747252747253
1.410274773996207,1.8808791208791207,1.2821245421245422,0.5052747252747253
1.4105569039966213,1.4578021978021978,1.6133333333333333,3.249230769230769
1.4149890459957533,1.4578021978021978,1.6133333333333333,3.249230769230769
1.4159713219996775,1.4578021978021978,1.6133333333333333,3.249230769230769
1.4169274070009124,1.4578021978021978,1.6133333333333333,3.249230769230769
1.417870323995885,1.4578021978021978,1.6133333333333333,3.249230769230769
1.4194130879986915,1.4578021978021978,1.6133333333333333,3.249230769230769
1.423772996997286,1.4578021978021978,1.6133333333333333,3.249230769230769
1.424638418997347,1.4578021978021978,1.6133333333333333,3.249230769230769
1.426245968999865,1.4578021978021978,1.6133333333333333,3.249230769230769
1.4309801589988638,1.4578021978021978,1.6133333333333333,3.249230769230769
1.4311500269977842,0.618095238095238,0.7816849816849816,2.5884249084249085
1.436502896998718,0.618095238095238,0.7816849816849816,2.5884249084249085
1.4382242930005305,0.618095238095238,0.7816849816849816,2.5884249084249085
1.4414283449950744,0.618095238095238,0.7816849816849816,2.5884249084249085
1.4430342849955196,1.7479120879120877,1.5343589743589743,0.4810989010989011
1.4475350319989957,1.7479120879120877,1.5343589743589743,0.4810989010989011
1.4484503619969473,1.7479120879120877,1.5343589743589743,0.4810989010989011
1.45014344399533,1.7479120879120877,1.5343589743589743,0.4810989010989011
1.4532720529969083,1.7479120879120877,1.5343589743589743,0.4810989010989011
1.4549214689977816,1.7479120879120877,1.5343589743589743,0.4810989010989011
1.4587378629948944,1.7479120879120877,1.5343589743589743,0.4810989010989011
1.462555344995053,1.7479120879120877,1.5343589743589743,0.4810989010989011
1.4680275110004004,1.2942124542124542,1.6197802197802196,1.502930402930403
1.4689179819979472,1.0661538461538462,0.6438827838827839,1.4126739926739926
1.4704744859991479,1.0661538461538462,0.6438827838827839,1.4126739926739926
1.4751282020006329,1.0435897435897434,0.1523076923076923,0.30058608058608055
1.475392780994298,1.0435897435897434,0.1523076923076923,0.30058608058608055
1.480796208998072,1.0435897435897434,0.1523076923076923,0.30058608058608055
1.4816901160011184,1.0435897435897434,0.1523076923076923,0.30058608058608055
1.483238505999907,1.0435897435897434,0.1523076923076923,0.30058608058608055
1.4877039439961663,1.0435897435897434,0.1523076923076923,0.30058608058608055
1.4885958199956804,1.0435897435897434,0.1523076923076923,0.30058608058608055
1.4902128559988341,1.0435897435897434,0.1523076923076923,0.30058608058608055
1.493962032996933,1.0435897435897434,0.1523076923076923,0.30058608058608055
1.5007275069947354,1.0435897435897434,0.1523076923076923,0.30058608058608055
1.505432063000626,0.7599267399267399,1.58996336996337,2.1677655677655676
1.51426325400098,1.3594871794871795,1.0258608058608059,1.079047619047619
1.519230988000345,1.3594871794871795,1.0258608058608059,1.079047619047619
1.5240888080006698,1.3594871794871795,1.0258608058608059,1.079047619047619
1.5285376280007767,1.3594871794871795,1.0258608058608059,1.079047619047619
1.5288144099977217,1.3594871794871795,1.0258608058608059,1.079047619047619
1.5333552149968455,1.3594871794871795,1.0258608058608059,1.079047619047619
1.5342303599973093,0.7019047619047618,0.17487179487179486,0.27802197802197803
1.5358597409940558,0.7019047619047618,0.17487179487179486,0.27802197802197803
1.539656806999119,0.7019047619047618,0.17487179487179486,0.27802197802197803
1.5451158079958986,0.6334065934065934,0.5375091575091575,2.108131868131868
1.5474903479989734,0.7558974358974359,0.5794139194139193,1.2563369963369961
1.5476541870011715,0.7558974358974359,0.5794139194139193,1.2563369963369961
1.553067036998982,0.7558974358974359,0.5794139194139193,1.2563369963369961
1.555292463999649,0.7558974358974359,0.5794139194139193,1.2563369963369961
1.5555516149979667,0.7558974358974359,0.5794139194139193,1.2563369963369961
1.5606660150006064,0.7558974358974359,0.5794139194139193,1.2563369963369961
1.5643841169949155,0.7558974358974359,0.5794139194139193,1.2563369963369961
1.569677927000157,0.7558974358974359,0.5794139194139193,1.2563369963369961
1.5726574469954357,0.7558974358974359,0.5794139194139193,1.2563369963369961
1.5749597459944198,0.8348717948717947,0.21838827838827837,0.32798534798534795
1.5753163769986713,0.8348717948717947,0.21838827838827837,0.32798534798534795
1.5807381679987884,0.8348717948717947,0.21838827838827837,0.32798534798534795
1.5822873559955042,0.8348717948717947,0.21838827838827837,0.32798534798534795
1.5868022770009702,0.8348717948717947,0.21838827838827837,0.32798534798534795
1.5872080179979093,0.8348717948717947,0.21838827838827837,0.32798534798534795
1.5916896479975549,0.8348717948717947,0.21838827838827837,0.32798534798534795
1.592540467994695,0.8348717948717947,0.21838827838827837,0.32798534798534795
1.5941235089994734,0.8348717948717947,0.21838827838827837,0.32798534798534795
1.5981088749977062,1.8752380952380951,1.9348717948717948,1.6391208791208791
1.6020169029943645,1.8752380952380951,1.9348717948717948,1.6391208791208791
1.6067000469993218,1.8752380952380951,1.9348717948717948,1.6391208791208791
1.60691208299977,1.494871794871795,1.0331135531135531,1.51018315018315
1.6114412149981945,1.494871794871795,1.0331135531135531,1.51018315018315
1.612350252995384,1.494871794871795,1.0331135531135531,1.51018315018315
1.614093847994809,1.494871794871795,1.0331135531135531,1.51018315018315
1.6171788799983915,1.494871794871795,1.0331135531135531,1.51018315018315
1.6187746939976932,1.494871794871795,1.0331135531135531,1.51018315018315
1.62266081499547,1.494871794871795,1.0331135531135531,1.51018315018315
1.6272633150001639,1.494871794871795,1.0331135531135531,1.51018315018315
1.627477921996615,1.1644688644688646,0.9323809523809523,1.4626373626373625
1.6321303180011455,1.1644688644688646,0.9323809523809523,1.4626373626373625
1.6323028039987548,1.1644688644688646,0.9323809523809523,1.4626373626373625
1.6369783740010462,1.1644688644688646,0.9323809523809523,1.4626373626373625
1.6371623079976416,1.1644688644688646,0.9323809523809523,1.4626373626373625
1.641843927995069,1.1644688644688646,0.9323809523809523,1.4626373626373625
1.6419930529955309,1.1644688644688646,0.9323809523809523,1.4626373626373625
1.6475627309991978,1.1644688644688646,0.9323809523809523,1.4626373626373625
1.6485088289991836,1.1644688644688646,0.9323809523809523,1.4626373626373625
1.6494392300010077,1.1644688644688646,0.9323809523809523,1.4626373626373625
1.6503413559985347,1.1644688644688646,0.9323809523809523,1.4626373626373625
1.65209705199959,1.1644688644688646,0.9323809523809523,1.4626373626373625
1.6550988429953577,1.1644688644688646,0.9323809523809523,1.4626373626373625
1.6582307619974017,1.1644688644688646,0.9323809523809523,1.4626373626373625
1.6598654269982944,2.0678388278388278,0.8711355311355311,2.799560439560439
1.663939534999372,2.0678388278388278,0.8711355311355311,2.799560439560439
1.666368981001142,2.0678388278388278,0.8711355311355311,2.799560439560439
1.666549738998583,2.0678388278388278,0.8711355311355311,2.799560439560439
1.6715102779999143,2.0678388278388278,0.8711355311355311,2.799560439560439
1.6761101570009487,2.0678388278388278,0.8711355311355311,2.799560439560439
1.6763512229954358,2.0678388278388278,0.8711355311355311,2.799560439560439
1.6810670739941997,2.0678388278388278,0.8711355311355311,2.799560439560439
1.6812145709991455,2.0678388278388278,0.8711355311355311,2.799560439560439
1.6858504169940716,2.0678388278388278,0.8711355311355311,2.799560439560439
1.6860493429994676,2.0678388278388278,0.8711355311355311,2.799560439560439
1.6924860009967233,2.0678388278388278,0.8711355311355311,2.799560439560439
1.698355171996809,2.0678388278388278,0.8711355311355311,2.799560439560439
1.7040103479957907,2.0678388278388278,0.8711355311355311,2.799560439560439
1.7139548349950928,2.0678388278388278,0.8711355311355311,2.799560439560439
1.7249217989956378,2.0678388278388278,0.8711355311355311,2.799560439560439
1.7336751039983938,2.0678388278388278,0.8711355311355311,2.799560439560439
1.7396424359976663,2.0678388278388278,0.8711355311355311,2.799560439560439
1.7442214490001788,2.0678388278388278,0.8711355311355311,2.799560439560439
1.7444050139965839,2.0678388278388278,0.8711355311355311,2.799560439560439
1.7517756890010787,2.0678388278388278,0.8711355311355311,2.799560439560439
1.757389124999463,2.0678388278388278,0.8711355311355311,2.799560439560439
1.7575727539951913,2.0678388278388278,0.8711355311355311,2.799560439560439
1.7647962379996898,0.713992673992674,0.8912820512820512,2.548937728937729
1.7690842969968799,1.9018315018315015,1.6898901098901096,0.23531135531135527
1.7703470479973475,0.7558974358974359,0.8558241758241758,2.7076923076923074
1.7797812680000789,0.805054945054945,0.19179487179487179,0.30945054945054945
1.7871106359962141,0.805054945054945,0.19179487179487179,0.30945054945054945
1.7928361049998784,0.805054945054945,0.19179487179487179,0.30945054945054945
1.8018455799974618,0.805054945054945,0.19179487179487179,0.30945054945054945
1.8089858319945051,0.805054945054945,0.19179487179487179,0.30945054945054945
1.8142705879945424,0.805054945054945,0.19179487179487179,0.30945054945054945
1.8146001619970775,0.805054945054945,0.19179487179487179,0.30945054945054945
1.8234624990000157,0.805054945054945,0.19179487179487179,0.30945054945054945
1.829471545999695,3.0614652014652015,1.7366300366300367,2.0186813186813186
1.8360703119979007,3.0614652014652015,1.7366300366300367,2.0186813186813186
1.841920876999211,3.0614652014652015,1.7366300366300367,2.0186813186813186
1.8490995669999393,3.0614652014652015,1.7366300366300367,2.0186813186813186
1.8562727850003284,3.0614652014652015,1.7366300366300367,2.0186813186813186
1.8619170210004086,0.9847619047619047,0.22725274725274724,0.2208058608058608
1.8718099079997046,1.6076923076923075,1.1257875457875457,0.4391941391941392
1.8829713809973327,1.6076923076923075,1.1257875457875457,0.4391941391941392
1.8924007280002115,0.46175824175824176,0.18373626373626373,0.3078388278388278
1.9015947230000165,0.46175824175824176,0.18373626373626373,0.3078388278388278
1.9087191069993423,0.46175824175824176,0.18373626373626373,0.3078388278388278
1.9145863089943305,0.46175824175824176,0.18373626373626373,0.3078388278388278
1.9216187579950201,0.46175824175824176,0.18373626373626373,0.3078388278388278
1.928801409994776,1.3957509157509156,0.33926739926739924,2.718168498168498
1.9346962989948224,0.6696703296703297,0.4464468864468864,1.1668864468864468
1.9394864969945047,0.6696703296703297,0.4464468864468864,1.1668864468864468
1.9396560399982263,0.6696703296703297,0.4464468864468864,1.1668864468864468
1.946135009995487,0.6696703296703297,0.4464468864468864,1.1668864468864468
1.9520932609957526,1.3965567765567766,0.9468864468864467,1.411062271062271
1.957755941999494,1.3965567765567766,0.9468864468864467,1.411062271062271
1.967528618995857,1.3965567765567766,0.9468864468864467,1.411062271062271
1.9788485370008857,0.9428571428571427,1.6447619047619046,1.7535531135531135
1.989649933995679,0.6841758241758242,1.1547985347985346,2.9035164835164835
2.00052780599799,0.6841758241758242,1.1547985347985346,2.9035164835164835
2.0100362059965846,1.635091575091575,1.6834432234432233,0.518974358974359
2.0187283099949127,0.47062271062271055,0.34007326007326005,1.4013919413919413
2.0282933639973635,0.47062271062271055,0.34007326007326005,1.4013919413919413
2.0356720429990673,1.7575824175824175,1.8075457875457877,0.24659340659340656
2.0435021689991117,1.7575824175824175,1.8075457875457877,0.24659340659340656
2.0495121569983894,1.7575824175824175,1.8075457875457877,0.24659340659340656
2.0551515049955924,1.7575824175824175,1.8075457875457877,0.24659340659340656
2.055381676997058,0.5592673992673992,0.18857142857142856,0.5173626373626373
2.0637547799997265,0.5592673992673992,0.18857142857142856,0.5173626373626373
2.0709089189986116,0.5592673992673992,0.18857142857142856,0.5173626373626373
2.075749274001282,0.5592673992673992,0.18857142857142856,0.5173626373626373
2.080505367994192,1.5891575091575092,1.9453479853479854,1.8986080586080583
2.0868767450010637,1.5891575091575092,1.9453479853479854,1.8986080586080583
2.091369304995169,1.5891575091575092,1.9453479853479854,1.8986080586080583
2.091751789994305,1.5891575091575092,1.9453479853479854,1.8986080586080583
2.0996648779982934,1.5891575091575092,1.9453479853479854,1.8986080586080583
2.1053432259941474,1.5891575091575092,1.9453479853479854,1.8986080586080583
2.114219005998166,1.5464468864468863,1.099194139194139,2.1597069597069596
2.1231978309951955,1.5464468864468863,1.099194139194139,2.1597069597069596
2.1319378429980134,1.0468131868131867,1.6592673992673992,1.3208058608058608
2.1404979939979967,0.9613919413919414,0.26190476190476186,0.5600732600732601
2.1488661849944037,0.9613919413919414,0.26190476190476186,0.5600732600732601
2.156497675998253,0.9613919413919414,0.26190476190476186,0.5600732600732601
2.1618849109945586,1.0468131868131867,0.2836630036630036,0.4827106227106227
2.163129337997816,1.0468131868131867,0.2836630036630036,0.4827106227106227
2.1632903999998234,1.0468131868131867,0.2836630036630036,0.4827106227106227
2.172640628996305,1.0468131868131867,0.2836630036630036,0.4827106227106227
2.180288493997068,1.0468131868131867,0.2836630036630036,0.4827106227106227
2.185972649996984,1.0468131868131867,0.2836630036630036,0.4827106227106227
2.1959656749968417,1.0468131868131867,0.2836630036630036,0.4827106227106227
2.203337147999264,1.3586813186813185,1.3772161172161173,2.856776556776557
2.2073647049983265,1.3586813186813185,1.3772161172161173,2.856776556776557
2.2109446369940997,1.3586813186813185,1.3772161172161173,2.856776556776557
2.218137388001196,1.3586813186813185,1.3772161172161173,2.856776556776557
2.2239505629986525,1.8752380952380951,2.0621978021978022,1.7946520146520144
2.2285377899970626,1.8752380952380951,2.0621978021978022,1.7946520146520144
2.2286669349996373,1.8752380952380951,2.0621978021978022,1.7946520146520144
2.2334634169965284,1.8752380952380951,2.0621978021978022,1.7946520146520144
2.233672073998605,1.8752380952380951,2.0621978021978022,1.7946520146520144
2.2383874820006895,1.8752380952380951,2.0621978021978022,1.7946520146520144
2.2386814649944426,1.8752380952380951,2.0621978021978022,1.7946520146520144
2.2436398419959005,1.8752380952380951,2.0621978021978022,1.7946520146520144
2.2526435069958097,2.2676923076923075,1.872014652014652,0.3384615384615384
2.2620094809972215,2.2676923076923075,1.872014652014652,0.3384615384615384
2.271074462994875,2.2676923076923075,1.872014652014652,0.3384615384615384
2.2777499959993293,0.6019780219780219,0.5028571428571429,1.585934065934066
2.2819304340009694,0.7534798534798535,0.2715750915750916,0.37150183150183147
2.2852741639944725,0.7599267399267399,1.6173626373626373,2.390989010989011
2.28550059999543,0.7599267399267399,1.6173626373626373,2.390989010989011
2.2933349759987323,0.7599267399267399,1.6173626373626373,2.390989010989011
2.300271508000151,0.7599267399267399,1.6173626373626373,2.390989010989011
2.3062487709976267,0.7599267399267399,1.6173626373626373,2.390989010989011
2.310779557999922,1.8397802197802198,1.244249084249084,1.220879120879121
2.3110359079946647,0.6414652014652015,0.523003663003663,2.4473992673992675
2.3201251379941823,0.6414652014652015,0.523003663003663,2.4473992673992675
2.3268095319945132,0.6414652014652015,0.523003663003663,2.4473992673992675
2.3327334860005067,1.843003663003663,1.4271794871794872,1.3852747252747253
2.3392569159987033,1.843003663003663,1.4271794871794872,1.3852747252747253
2.344140985995182,0.8816117216117215,0.36827838827838827,3.3
2.348486981994938,0.8816117216117215,0.36827838827838827,3.3
2.3488076899957377,0.8816117216117215,0.36827838827838827,3.3
2.357324020995293,0.8816117216117215,0.36827838827838827,3.3
2.363006850995589,1.365128205128205,0.28849816849816845,0.32073260073260074
2.372855889996572,1.365128205128205,0.28849816849816845,0.32073260073260074
2.378671282000141,1.365128205128205,0.28849816849816845,0.32073260073260074
2.3788896589976503,1.365128205128205,0.28849816849816845,0.32073260073260074
2.387864680997154,0.6882051282051282,1.1282051282051282,2.2886446886446885
2.3957784550002543,0.6882051282051282,1.1282051282051282,2.2886446886446885
2.403478089996497,1.311135531135531,1.49003663003663,1.2982417582417582
2.410529210996174,1.311135531135531,1.49003663003663,1.2982417582417582
2.416433202997723,1.332087912087912,0.24336996336996336,0.3795604395604395
2.422103218996199,1.332087912087912,0.24336996336996336,0.3795604395604395
2.4302932399950805,1.187032967032967,1.6995604395604393,1.5706227106227104
2.4365643269993598,1.187032967032967,1.6995604395604393,1.5706227106227104
2.4420949689956615,1.187032967032967,1.6995604395604393,1.5706227106227104
2.442285933000676,1.382051282051282,1.6898901098901096,1.4304029304029304
2.4501726769958623,1.382051282051282,1.6898901098901096,1.4304029304029304
2.4566759359950083,1.382051282051282,1.6898901098901096,1.4304029304029304
2.4616365719994064,2.0638095238095238,2.0863736263736263,1.7785347985347983
2.4655220009954064,2.0638095238095238,2.0863736263736263,1.7785347985347983
2.4727714429973275,2.0638095238095238,2.0863736263736263,1.7785347985347983
2.4771041389976745,1.2627838827838826,1.4610256410256408,3.3
2.478455986994959,1.2627838827838826,1.4610256410256408,3.3
2.4859283299956587,1.6753846153846153,1.8824908424908422,3.3
2.4925506799991126,2.0573626373626372,1.5802930402930402,0.697069597069597
2.497701299995242,2.0573626373626372,1.5802930402930402,0.697069597069597
2.50170823699591,0.7567032967032966,0.36827838827838827,3.088058608058608
2.5043226499983575,0.7567032967032966,0.36827838827838827,3.088058608058608
2.5111382889954257,0.7567032967032966,0.36827838827838827,3.088058608058608
2.5162689790013246,0.7567032967032966,0.36827838827838827,3.088058608058608
2.5200028010003734,0.7567032967032966,0.36827838827838827,3.088058608058608
2.5264727879985003,0.7567032967032966,0.36827838827838827,3.088058608058608
2.5318437019959674,0.7567032967032966,0.36827838827838827,3.088058608058608
2.53206945599959,1.2007326007326007,0.2949450549450549,0.415018315018315
2.539444285997888,1.2007326007326007,0.2949450549450549,0.415018315018315
2.5437857039942173,1.2007326007326007,0.2949450549450549,0.415018315018315
2.5442201449986896,1.2007326007326007,0.2949450549450549,0.415018315018315
2.551924653998867,1.2007326007326007,0.2949450549450549,0.415018315018315
2.5579292789989267,1.2007326007326007,0.2949450549450549,0.415018315018315
2.56350521499553,2.7544322344322345,1.1556043956043955,3.3
2.5638027979948674,2.1234432234432234,1.6632967032967032,0.4867399267399267
2.5722376919948147,2.1234432234432234,1.6632967032967032,0.4867399267399267
2.579119914997136,0.6132600732600733,0.7599267399267399,3.046959706959707
2.58347492699977,0.6132600732600733,0.7599267399267399,3.046959706959707
2.583833972996217,0.6132600732600733,0.7599267399267399,3.046959706959707
2.5920452239952283,0.805054945054945,0.5052747252747253,1.7930402930402929
2.5992139059962938,0.6841758241758242,0.3489377289377289,2.0815384615384613
2.6061184749996755,2.5956776556776555,2.1468131868131866,2.0509157509157507
2.6116409379974357,2.5956776556776555,2.1468131868131866,2.0509157509157507
2.6119580559970927,2.5956776556776555,2.1468131868131866,2.0509157509157507
2.620889833997353,2.5956776556776555,2.1468131868131866,2.0509157509157507
2.6257268539993674,2.5956776556776555,2.1468131868131866,2.0509157509157507
2.634675563997007,2.5956776556776555,2.1468131868131866,2.0509157509157507
2.6420007729975623,2.5956776556776555,2.1468131868131866,2.0509157509157507
2.647720919994754,2.5956776556776555,2.1468131868131866,2.0509157509157507
2.656208215994411,2.5956776556776555,2.1468131868131866,2.0509157509157507
2.66285421000066,2.5956776556776555,2.1468131868131866,2.0509157509157507
2.6677531550012645,2.5956776556776555,2.1468131868131866,2.0509157509157507
2.6750943869992625,0.9968498168498168,0.6019780219780219,1.7583882783882783
2.6808658969966928,0.9968498168498168,0.6019780219780219,1.7583882783882783
2.687560669000959,0.9968498168498168,0.6019780219780219,1.7583882783882783
2.6927352839993546,1.4578021978021978,0.8977289377289376,1.854285714285714
2.6956762849949882,1.4578021978021978,0.8977289377289376,1.854285714285714
2.697216683998704,1.4578021978021978,0.8977289377289376,1.854285714285714
2.704237298996304,1.4578021978021978,0.8977289377289376,1.854285714285714
2.709574504995544,1.4578021978021978,0.8977289377289376,1.854285714285714
2.7099224150006194,1.4578021978021978,0.8977289377289376,1.854285714285714
2.7179844939964823,1.4578021978021978,0.8977289377289376,1.854285714285714
2.7254504390002694,1.4578021978021978,0.8977289377289376,1.854285714285714
2.730978661995323,1.4578021978021978,0.8977289377289376,1.854285714285714
2.7408800829944084,1.4578021978021978,0.8977289377289376,1.854285714285714
2.7497540659969673,3.0453479853479855,2.1129670329670325,2.153260073260073
2.7556210969996755,1.6318681318681318,1.0903296703296703,1.8083516483516484
2.7623203029943397,1.5770695970695972,1.6906959706959706,1.4457142857142857
2.7673849659986445,1.5770695970695972,1.6906959706959706,1.4457142857142857
2.7713983489957172,1.5770695970695972,1.6906959706959706,1.4457142857142857
2.777892118996533,1.5770695970695972,1.6906959706959706,1.4457142857142857
2.7821591059982893,1.5770695970695972,1.6906959706959706,1.4457142857142857
2.7837581249987124,1.5770695970695972,1.6906959706959706,1.4457142857142857
2.789492808995419,1.5770695970695972,1.6906959706959706,1.4457142857142857
2.7972622019951814,0.8912820512820512,0.5012454212454212,1.9074725274725273
2.8010717930010287,0.8912820512820512,0.5012454212454212,1.9074725274725273
2.8063211259941454,0.8912820512820512,0.5012454212454212,1.9074725274725273
2.8093076399964048,0.8912820512820512,0.5012454212454212,1.9074725274725273
2.811557412998809,0.8912820512820512,0.5012454212454212,1.9074725274725273
2.811821000999771,0.8912820512820512,0.5012454212454212,1.9074725274725273
2.8168435849947855,0.917069597069597,0.29333333333333333,0.6317948717948718
2.8203295249986695,0.917069597069597,0.29333333333333333,0.6317948717948718
2.820680699995137,0.9936263736263735,1.7213186813186814,1.7986813186813184
2.825629710998328,0.9936263736263735,1.7213186813186814,1.7986813186813184
2.8315302999981213,0.9936263736263735,1.7213186813186814,1.7986813186813184
2.8367778649990214,0.9936263736263735,1.7213186813186814,1.7986813186813184
2.840227929998946,0.9936263736263735,1.7213186813186814,1.7986813186813184
2.8403654749999987,0.9936263736263735,1.7213186813186814,1.7986813186813184
2.847095213001012,0.9936263736263735,1.7213186813186814,1.7986813186813184
2.8504152140012593,0.9936263736263735,1.7213186813186814,1.7986813186813184
2.8514465669941274,0.9936263736263735,1.7213186813186814,1.7986813186813184
2.8528979399998207,0.8324542124542124,0.27238095238095233,0.41098901098901097
2.8576108329943963,0.8324542124542124,0.27238095238095233,0.41098901098901097
2.857841446995735,1.6383150183150184,1.6358974358974359,1.4698901098901098
2.8669526929952553,1.6383150183150184,1.6358974358974359,1.4698901098901098
2.8715301519987406,2.1008791208791204,1.627032967032967,1.0927472527472526
2.872372361998714,2.1008791208791204,1.627032967032967,1.0927472527472526
2.8748937389973435,2.1008791208791204,1.627032967032967,1.0927472527472526
2.882500768995669,2.1008791208791204,1.627032967032967,1.0927472527472526
2.88708836499427,2.1008791208791204,1.627032967032967,1.0927472527472526
2.8879485279976507,1.6898901098901096,0.9968498168498168,1.4054212454212454
2.889527856001223,1.6898901098901096,0.9968498168498168,1.4054212454212454
2.895181337997201,1.6898901098901096,0.9968498168498168,1.4054212454212454
2.8953434729992296,1.6898901098901096,0.9968498168498168,1.4054212454212454
2.900161277000734,1.6898901098901096,0.9968498168498168,1.4054212454212454
2.9059804969947436,1.6898901098901096,0.9968498168498168,1.4054212454212454
2.914438991996576,1.6898901098901096,0.9968498168498168,1.4054212454212454
2.9191859849961475,1.6898901098901096,0.9968498168498168,1.4054212454212454
2.9194921429952956,3.3,2.3458608058608057,2.5175091575091573
2.9254607100010617,3.3,2.3458608058608057,2.5175091575091573
2.9338303900003666,3.3,2.3458608058608057,2.5175091575091573
2.940018951994716,2.8253479853479853,2.27010989010989,2.0734798534798533
2.9458885669955635,3.042124542124542,2.2169230769230768,2.1645421245421246
2.9490636109985644,3.042124542124542,2.2169230769230768,2.1645421245421246
2.9513521539993235,3.042124542124542,2.2169230769230768,2.1645421245421246
2.9515393039982882,3.042124542124542,2.2169230769230768,2.1645421245421246
2.9562777819955954,3.042124542124542,2.2169230769230768,2.1645421245421246
2.956588549001026,3.3,2.242710622710623,2.561831501831502
2.9628389989957213,3.3,2.242710622710623,2.561831501831502
2.966042998996272,3.3,2.242710622710623,2.561831501831502
2.9677128240000457,1.514212454212454,0.9025641025641026,1.6955311355311353
2.9717246849977528,1.514212454212454,0.9025641025641026,1.6955311355311353
2.9749040289971163,0.9065934065934066,0.25787545787545785,0.6269597069597069
2.977946683000482,0.9065934065934066,0.25787545787545785,0.6269597069597069
2.9783295819943305,0.9065934065934066,0.25787545787545785,0.6269597069597069
2.9830796479946002,0.9065934065934066,0.25787545787545785,0.6269597069597069
2.9832126019973657,0.9065934065934066,0.25787545787545785,0.6269597069597069
2.988520904997131,0.9065934065934066,0.25787545787545785,0.6269597069597069
2.991124469997885,0.9065934065934066,0.25787545787545785,0.6269597069597069
2.998641959995439,0.9065934065934066,0.25787545787545785,0.6269597069597069
3.0034149549974245,0.6914285714285714,0.1813186813186813,0.5955311355311355
3.0035772080009338,0.6914285714285714,0.1813186813186813,0.5955311355311355
3.011076356000558,0.6914285714285714,0.1813186813186813,0.5955311355311355
3.014727806999872,0.6914285714285714,0.1813186813186813,0.5955311355311355
3.019256553998275,0.6914285714285714,0.1813186813186813,0.5955311355311355
3.020112184996833,0.6914285714285714,0.1813186813186813,0.5955311355311355
3.021725755999796,1.1725274725274726,1.6044688644688643,1.2450549450549449
3.0277736089992686,1.1725274725274726,1.6044688644688643,1.2450549450549449
3.0310014029964805,1.1725274725274726,1.6044688644688643,1.2450549450549449
3.0334386760005145,1.1725274725274726,1.6044688644688643,1.2450549450549449
3.0336266739977873,1.1725274725274726,1.6044688644688643,1.2450549450549449
3.0384070239961147,1.1725274725274726,1.6044688644688643,1.2450549450549449
3.038515579995874,1.1725274725274726,1.6044688644688643,1.2450549450549449
3.0442121239975677,1.46021978021978,1.8236630036630037,3.3
3.044393552998372,1.46021978021978,1.8236630036630037,3.3
3.0506098179976107,1.46021978021978,1.8236630036630037,3.3
3.054478553000081,1.46021978021978,1.8236630036630037,3.3
3.060741937995772,1.46021978021978,1.8236630036630037,3.3
3.0648833489976823,1.46021978021978,1.8236630036630037,3.3
3.0665289440003107,1.46021978021978,1.8236630036630037,3.3
3.070513837999897,1.46021978021978,1.8236630036630037,3.3
3.0734742220010958,1.46021978021978,1.8236630036630037,3.3
3.077508811998996,1.46021978021978,1.8236630036630037,3.3
3.080170385001111,1.46021978021978,1.8236630036630037,3.3
3.083348100000876,1.46021978021978,1.8236630036630037,3.3
3.085706455000036,2.6246886446886446,1.627032967032967,1.1161172161172161
3.0858569400006672,2.6246886446886446,1.627032967032967,1.1161172161172161
3.090261119999923,2.6246886446886446,1.627032967032967,1.1161172161172161
3.0948512269969797,2.6246886446886446,1.627032967032967,1.1161172161172161
3.100938887000666,2.6246886446886446,1.627032967032967,1.1161172161172161
3.1047561499945004,2.6246886446886446,1.627032967032967,1.1161172161172161
3.112381828999787,0.6277655677655677,0.3038095238095238,1.22007326007326
3.1181803819999914,0.6277655677655677,0.3038095238095238,1.22007326007326
3.125708487998054,0.6277655677655677,0.3038095238095238,1.22007326007326
3.134046503000718,1.211208791208791,0.6358241758241758,1.1427106227106225
3.1411907989968313,1.211208791208791,0.6358241758241758,1.1427106227106225
3.1467671759965015,1.211208791208791,0.6358241758241758,1.1427106227106225
3.1469715060011367,1.211208791208791,0.6358241758241758,1.1427106227106225
3.1556167629969423,1.211208791208791,0.6358241758241758,1.1427106227106225
3.1648798899987014,1.211208791208791,0.6358241758241758,1.1427106227106225
3.171313724000356,1.211208791208791,0.6358241758241758,1.1427106227106225
3.177395056998648,1.211208791208791,0.6358241758241758,1.1427106227106225
3.1842901859999984,1.211208791208791,0.6358241758241758,1.1427106227106225
3.1881157620009617,1.211208791208791,0.6358241758241758,1.1427106227106225
3.1945546380011365,1.211208791208791,0.6358241758241758,1.1427106227106225
3.1983554830003413,1.211208791208791,0.6358241758241758,1.1427106227106225
3.2021616679994622,3.3,2.0646153846153843,1.9638827838827837
3.207742906997737,3.3,2.0646153846153843,1.9638827838827837
3.208305117994314,0.5802197802197803,0.6664468864468864,2.2193406593406593
3.2125799089990323,0.5802197802197803,0.6664468864468864,2.2193406593406593
3.2135294010004145,1.3216117216117216,0.29816849816849816,0.4722344322344322
3.214413556001091,1.3216117216117216,0.29816849816849816,0.4722344322344322
3.2160104279973893,1.3216117216117216,0.29816849816849816,0.4722344322344322
3.220037956998567,1.3216117216117216,0.29816849816849816,0.4722344322344322
3.2240213059994858,1.6850549450549448,0.4698168498168498,2.1830769230769227
3.228010032995371,0.4899633699633699,0.29333333333333333,0.9783150183150182
3.2306381439993856,0.6253479853479853,0.4416117216117216,0.9283516483516483
3.2351466769978288,0.6253479853479853,0.4416117216117216,0.9283516483516483
3.236030774998653,1.6947252747252746,1.614139194139194,1.207179487179487
3.2377190759943915,1.6947252747252746,1.614139194139194,1.207179487179487
3.2418359410003177,1.6947252747252746,1.614139194139194,1.207179487179487
3.2445740170005593,1.6947252747252746,1.614139194139194,1.207179487179487
3.247776921998593,1.6947252747252746,1.614139194139194,1.207179487179487
3.2494036110001616,1.6947252747252746,1.614139194139194,1.207179487179487
3.253624201999628,1.6947252747252746,1.614139194139194,1.207179487179487
3.256166856001073,1.6947252747252746,1.614139194139194,1.207179487179487
3.2639706789996126,1.6947252747252746,1.614139194139194,1.207179487179487
3.2690029039949877,1.6947252747252746,1.614139194139194,1.207179487179487
3.2720480680000037,1.2434432234432233,0.925128205128205,1.1322344322344322
3.2753733069985174,1.2434432234432233,0.925128205128205,1.1322344322344322
3.2756265369971516,1.2434432234432233,0.925128205128205,1.1322344322344322
3.2820042530001956,1.2434432234432233,0.925128205128205,1.1322344322344322
3.285903267998947,1.2434432234432233,0.925128205128205,1.1322344322344322
3.289680771995336,1.2434432234432233,0.925128205128205,1.1322344322344322
3.2994530930009205,1.2434432234432233,0.925128205128205,1.1322344322344322
3.306834119000996,1.2434432234432233,0.925128205128205,1.1322344322344322
3.3155670229971292,1.2305494505494505,0.7349450549450549,1.4690842490842488
3.321644652998657,0.7712087912087912,0.195018315018315,0.43032967032967034
3.3260877809952945,0.7712087912087912,0.195018315018315,0.43032967032967034
3.327416075997462,0.7712087912087912,0.195018315018315,0.43032967032967034
3.3358826539988513,0.7712087912087912,0.195018315018315,0.43032967032967034
3.343008273994201,0.6519413919413919,0.18776556776556774,0.4126007326007326
3.3472082869993756,0.6519413919413919,0.18776556776556774,0.4126007326007326
3.348099923998234,0.6519413919413919,0.18776556776556774,0.4126007326007326
3.3497355449944735,0.6519413919413919,0.18776556776556774,0.4126007326007326
3.353766223001003,0.6519413919413919,0.18776556776556774,0.4126007326007326
3.359220859994821,1.664102564102564,1.6504029304029304,1.4118681318681316
3.3595196009991923,1.664102564102564,1.6504029304029304,1.4118681318681316
3.3664391499987687,1.664102564102564,1.6504029304029304,1.4118681318681316
3.3711060579953482,1.991282051282051,1.2700366300366301,0.8082783882783882
3.3719584669961478,1.991282051282051,1.2700366300366301,0.8082783882783882
3.373007238995342,1.991282051282051,1.2700366300366301,0.8082783882783882
3.3747087989977445,1.991282051282051,1.2700366300366301,0.8082783882783882
3.3789566329942318,1.2627838827838826,1.248278388278388,1.0572893772893772
3.3792389959999127,0.49479853479853475,0.6342124542124542,2.0275457875457876
3.383955255994806,0.49479853479853475,0.6342124542124542,2.0275457875457876
3.384246866997273,0.49479853479853475,0.6342124542124542,2.0275457875457876
3.3888698359951377,0.49479853479853475,0.6342124542124542,2.0275457875457876
3.3892038209960447,0.49479853479853475,0.6342124542124542,2.0275457875457876
3.3967905129975406,0.49479853479853475,0.6342124542124542,2.0275457875457876
3.4013455210006214,0.49479853479853475,0.6342124542124542,2.0275457875457876
3.402198022995435,0.49479853479853475,0.6342124542124542,2.0275457875457876
3.403821893996792,0.49479853479853475,0.6342124542124542,2.0275457875457876
3.4075996190003934,0.49479853479853475,0.6342124542124542,2.0275457875457876
3.414517496996268,0.49479853479853475,0.6342124542124542,2.0275457875457876
3.418336153998098,0.938021978021978,0.6390476190476191,0.6648351648351648
3.422973668995837,0.938021978021978,0.6390476190476191,0.6648351648351648
3.4231715429996257,0.938021978021978,0.6390476190476191,0.6648351648351648
3.4314115899978788,0.938021978021978,0.6390476190476191,0.6648351648351648
3.4368527909973636,0.938021978021978,0.6390476190476191,0.6648351648351648
3.4384433399973204,0.938021978021978,0.6390476190476191,0.6648351648351648
3.443357494994416,0.938021978021978,0.6390476190476191,0.6648351648351648
3.4497418019964243,0.938021978021978,0.6390476190476191,0.6648351648351648
3.4554743059998145,0.5641025641025641,0.29978021978021974,1.5851282051282052
3.464938388999144,0.5641025641025641,0.29978021978021974,1.5851282051282052
3.4727250919968355,1.7043956043956046,1.6818315018315015,0.42710622710622714
3.4784655769981327,1.7043956043956046,1.6818315018315015,0.42710622710622714
3.4841546729949187,0.4778754578754579,0.8082783882783882,2.266886446886447
3.4845233779997216,1.2410256410256408,0.6632234432234432,1.4215384615384616
3.489012284997443,1.2410256410256408,0.6632234432234432,1.4215384615384616
3.4898870100005297,1.2917948717948717,1.6818315018315015,3.3
3.4908585129960557,1.2917948717948717,1.6818315018315015,3.3
3.4919609089993173,1.2917948717948717,1.6818315018315015,3.3
3.4923185119987465,1.2917948717948717,1.6818315018315015,3.3
3.497954774000391,1.2917948717948717,1.6818315018315015,3.3
3.4981630920010502,1.2917948717948717,1.6818315018315015,3.3
3.5029417959958664,1.2917948717948717,1.6818315018315015,3.3
3.5095555750012863,1.2917948717948717,1.6818315018315015,3.3
3.5134211139957188,1.2917948717948717,1.6818315018315015,3.3
3.5168104379990837,1.2595604395604394,0.23128205128205126,0.5818315018315018
3.5176394279988017,1.2595604395604394,0.23128205128205126,0.5818315018315018
3.5192412299948046,1.2595604395604394,0.23128205128205126,0.5818315018315018
3.5245757779994165,1.7656410256410255,1.822051282051282,3.3
3.526914706999378,1.7656410256410255,1.822051282051282,3.3
3.52706739599671,1.7656410256410255,1.822051282051282,3.3
3.532221673995082,1.7656410256410255,1.822051282051282,3.3
3.5360674929979723,1.7656410256410255,1.822051282051282,3.3
3.5407045539977844,1.7656410256410255,1.822051282051282,3.3
3.5408274979999987,1.7656410256410255,1.822051282051282,3.3
3.545983874995727,1.7656410256410255,1.822051282051282,3.3
3.5490637920011068,1.3079120879120878,0.734139194139194,1.4505494505494505
3.551347155997064,1.3079120879120878,0.734139194139194,1.4505494505494505
3.5515795149985934,1.3079120879120878,0.734139194139194,1.4505494505494505
3.556863867001084,1.3079120879120878,0.734139194139194,1.4505494505494505
3.5595432959962636,1.3079120879120878,0.734139194139194,1.4505494505494505
3.5643401019988232,1.6278388278388278,1.7817582417582416,3.3
3.568207379001251,1.6278388278388278,1.7817582417582416,3.3
3.574560090994055,1.6278388278388278,1.7817582417582416,3.3
3.579915588001313,1.6278388278388278,1.7817582417582416,3.3
3.580305753996072,1.6278388278388278,1.7817582417582416,3.3
3.588938759996381,1.6278388278388278,1.7817582417582416,3.3
3.5956108379978104,1.1483516483516483,0.5874725274725274,1.344981684981685
3.598741682995751,2.8616117216117214,1.0347252747252746,2.4135531135531134
3.6011635859977105,2.8616117216117214,1.0347252747252746,2.4135531135531134
3.601346691000799,2.8616117216117214,1.0347252747252746,2.4135531135531134
3.6064143689945922,2.8616117216117214,1.0347252747252746,2.4135531135531134
3.613673908999772,2.8616117216117214,1.0347252747252746,2.4135531135531134
3.6197873769997386,2.8616117216117214,1.0347252747252746,2.4135531135531134
3.625374227995053,2.8616117216117214,1.0347252747252746,2.4135531135531134
3.6254866649978794,2.0557509157509157,1.1838095238095236,0.6672527472527472
3.6316279120001127,2.0557509157509157,1.1838095238095236,0.6672527472527472
3.635675789999368,2.0557509157509157,1.1838095238095236,0.6672527472527472
3.6381887559982715,2.0557509157509157,1.1838095238095236,0.6672527472527472
3.6382907459992566,2.0557509157509157,1.1838095238095236,0.6672527472527472
3.64701976699871,2.0557509157509157,1.1838095238095236,0.6672527472527472
3.6520364559983136,0.5149450549450549,0.36747252747252745,1.54
3.658328559999063,0.5149450549450549,0.36747252747252745,1.54
3.6630255299969576,2.2878388278388275,0.8268131868131867,2.121831501831502
3.6679577979957685,2.079120879120879,1.4964835164835164,0.3352380952380952
3.6734294689958915,2.079120879120879,1.4964835164835164,0.3352380952380952
3.676389014995948,2.079120879120879,1.4964835164835164,0.3352380952380952
3.6790753839959507,2.079120879120879,1.4964835164835164,0.3352380952380952
3.683836161995714,2.079120879120879,1.4964835164835164,0.3352380952380952
3.688307516997156,2.079120879120879,1.4964835164835164,0.3352380952380952
3.6886188959979336,1.0524542124542122,0.5778021978021978,1.1362637362637362
3.6965295059999335,1.0524542124542122,0.5778021978021978,1.1362637362637362
3.700521642997046,0.8783882783882784,0.2216117216117216,0.3618315018315018
3.7042388319969177,0.9904029304029303,1.2434432234432233,2.681904761904762
3.711048100994958,0.9904029304029303,1.2434432234432233,2.681904761904762
3.7143669669967494,0.7558974358974359,0.3529670329670329,1.216849816849817
3.7146552779959165,0.7558974358974359,0.3529670329670329,1.216849816849817
3.719298011994397,0.7558974358974359,0.3529670329670329,1.216849816849817
3.719605556994793,0.7558974358974359,0.3529670329670329,1.216849816849817
3.7263159089998226,0.7558974358974359,0.3529670329670329,1.216849816849817
3.7298408759961603,1.1402930402930402,0.7002930402930403,0.7937728937728937
3.7299752850012737,1.1402930402930402,0.7002930402930403,0.7937728937728937
3.735177999995358,1.1402930402930402,0.7002930402930403,0.7937728937728937
3.7390872089963523,1.1402930402930402,0.7002930402930403,0.7937728937728937
3.7452304049947998,1.1402930402930402,0.7002930402930403,0.7937728937728937
3.7490981219962123,2.165347985347985,1.5794871794871794,0.40695970695970696
3.752938045996416,2.165347985347985,1.5794871794871794,0.40695970695970696
3.7610182860007626,2.165347985347985,1.5794871794871794,0.40695970695970696
3.7643229569948744,2.440952380952381,1.7172893772893774,0.3739194139194139
3.7651703550000093,2.440952380952381,1.7172893772893774,0.3739194139194139
3.7667395109965582,2.440952380952381,1.7172893772893774,0.3739194139194139
3.7711781929974677,2.440952380952381,1.7172893772893774,0.3739194139194139
3.7727284539942048,2.440952380952381,1.7172893772893774,0.3739194139194139
3.7794787639941205,2.440952380952381,1.7172893772893774,0.3739194139194139
3.783431099000154,1.9735531135531135,1.792234432234432,1.3522344322344322
3.7876440069958335,1.9735531135531135,1.792234432234432,1.3522344322344322
3.789260307996301,1.9735531135531135,1.792234432234432,1.3522344322344322
3.7947572839984787,1.9735531135531135,1.792234432234432,1.3522344322344322
3.794929997995496,1.9735531135531135,1.792234432234432,1.3522344322344322
3.799785761999374,1.9735531135531135,1.792234432234432,1.3522344322344322
3.7999217489996227,1.9735531135531135,1.792234432234432,1.3522344322344322
3.8048237369948765,1.9735531135531135,1.792234432234432,1.3522344322344322
3.812469122996845,1.9735531135531135,1.792234432234432,1.3522344322344322
3.8163178760005394,1.9735531135531135,1.792234432234432,1.3522344322344322
3.8210625869978685,1.9735531135531135,1.792234432234432,1.3522344322344322
3.821176082994498,1.9735531135531135,1.792234432234432,1.3522344322344322
3.8275937199941836,1.9735531135531135,1.792234432234432,1.3522344322344322
3.830773292997037,1.9735531135531135,1.792234432234432,1.3522344322344322
3.832359563995851,1.9735531135531135,1.792234432234432,1.3522344322344322
3.836373829995864,1.9735531135531135,1.792234432234432,1.3522344322344322
3.8397132940008305,1.9735531135531135,1.792234432234432,1.3522344322344322
3.840069425998081,1.9735531135531135,1.792234432234432,1.3522344322344322
3.846215571000357,1.9735531135531135,1.792234432234432,1.3522344322344322
3.8501161269959994,1.9735531135531135,1.792234432234432,1.3522344322344322
3.854670750995865,1.9735531135531135,1.792234432234432,1.3522344322344322
3.855523963997257,1.9735531135531135,1.792234432234432,1.3522344322344322
3.8566250379954,1.9735531135531135,1.792234432234432,1.3522344322344322
3.8575324369958253,1.9735531135531135,1.792234432234432,1.3522344322344322
3.858817779000674,1.527106227106227,0.3295970695970696,2.432893772893773
3.859074052001233,1.527106227106227,0.3295970695970696,2.432893772893773
3.864232085994445,1.527106227106227,0.3295970695970696,2.432893772893773
3.8666374089953024,1.527106227106227,0.3295970695970696,2.432893772893773
3.8668673129941453,1.527106227106227,0.3295970695970696,2.432893772893773
3.8712748990001273,1.527106227106227,0.3295970695970696,2.432893772893773
3.8730877909983974,1.527106227106227,0.3295970695970696,2.432893772893773
3.876248079999641,1.527106227106227,0.3295970695970696,2.432893772893773
3.8775825439952314,3.2097435897435895,1.921978021978022,1.9775824175824175
3.883218663999287,1.5496703296703296,0.3449084249084249,2.4627106227106226
3.8834859970011166,1.166080586080586,1.5802930402930402,1.569010989010989
3.8891824429956614,1.166080586080586,1.5802930402930402,1.569010989010989
3.8894636549957795,1.095164835164835,0.958974358974359,1.83010989010989
3.8955252849991666,1.095164835164835,0.958974358974359,1.83010989010989
3.898621649997949,1.095164835164835,0.958974358974359,1.83010989010989
3.9009631160006393,1.095164835164835,0.958974358974359,1.83010989010989
3.901216393998766,1.095164835164835,0.958974358974359,1.83010989010989
3.9057301659995574,1.095164835164835,0.958974358974359,1.83010989010989
3.90663442100049,1.216043956043956,0.6495238095238095,1.2039560439560437
3.9084769420005614,1.216043956043956,0.6495238095238095,1.2039560439560437
3.9116842269941117,1.216043956043956,0.6495238095238095,1.2039560439560437
3.9119961760006845,0.7841025641025641,0.16036630036630037,0.5173626373626373
3.9166978229986853,0.7841025641025641,0.16036630036630037,0.5173626373626373
3.9169282859948,0.7841025641025641,0.16036630036630037,0.5173626373626373
3.922153505998722,0.7841025641025641,0.16036630036630037,0.5173626373626373
3.9269755569985136,0.7841025641025641,0.16036630036630037,0.5173626373626373
3.9318425390010816,0.73010989010989,0.29978021978021974,1.4078388278388276
3.9319597909998265,1.137069597069597,0.22967032967032966,0.6003663003663003
3.9371106269973097,1.137069597069597,0.22967032967032966,0.6003663003663003
3.9410726809946937,1.137069597069597,0.22967032967032966,0.6003663003663003
3.945771442995465,1.137069597069597,0.22967032967032966,0.6003663003663003
3.9510458980003023,1.0049084249084248,0.6736996336996337,1.2780952380952382
3.9540651479983353,1.0049084249084248,0.6736996336996337,1.2780952380952382
3.957736627999111,2.3498901098901097,1.975164835164835,1.8712087912087911
3.9639245199941797,2.3498901098901097,1.975164835164835,1.8712087912087911
3.9678011079959106,2.3498901098901097,1.975164835164835,1.8712087912087911
3.9725666029989952,2.3498901098901097,1.975164835164835,1.8712087912087911
3.9727980089955963,2.3498901098901097,1.975164835164835,1.8712087912087911
3.983228862998658,2.3498901098901097,1.975164835164835,1.8712087912087911
3.9894169149993104,1.2152380952380952,1.5464468864468863,2.880952380952381
3.9953290919947904,1.2152380952380952,1.5464468864468863,2.880952380952381
3.999397002000478,1.7865934065934064,1.6624908424908424,1.5375824175824175
4.001714159996482,1.3377289377289376,0.27238095238095233,2.523150183150183
4.001891243999125,1.3377289377289376,0.27238095238095233,2.523150183150183
4.009814564000408,1.3377289377289376,0.27238095238095233,2.523150183150183
4.016181879000214,1.3377289377289376,0.27238095238095233,2.523150183150183
4.019327766996867,0.9146520146520146,0.23208791208791207,0.5391208791208791
4.020985349998227,0.8074725274725274,1.0854945054945053,1.9904761904761903
4.02607900199655,0.8074725274725274,1.0854945054945053,1.9904761904761903
4.032570720999502,0.8074725274725274,1.0854945054945053,1.9904761904761903
4.037839669996174,0.8074725274725274,1.0854945054945053,1.9904761904761903
4.038946818996919,0.8074725274725274,1.0854945054945053,1.9904761904761903
4.039215699995111,0.8074725274725274,1.0854945054945053,1.9904761904761903
4.047636495997722,0.8074725274725274,1.0854945054945053,1.9904761904761903
4.053389487999084,0.8074725274725274,1.0854945054945053,1.9904761904761903
4.053633316994819,0.5939194139194138,0.18615384615384614,0.4512820512820513
4.060037622999516,0.5939194139194138,0.18615384615384614,0.4512820512820513
4.063577483000699,1.1838095238095236,1.5416117216117216,1.514212454212454
4.069054799998412,1.1838095238095236,1.5416117216117216,1.514212454212454
4.070880815001146,1.1838095238095236,1.5416117216117216,1.514212454212454
4.072479106995161,1.1838095238095236,1.5416117216117216,1.514212454212454
4.080164695995336,1.1838095238095236,1.5416117216117216,1.514212454212454
4.084753938994254,1.1838095238095236,1.5416117216117216,1.514212454212454
4.084996010999021,1.510989010989011,0.904981684981685,0.8034432234432234
4.090700137996464,1.510989010989011,0.904981684981685,0.8034432234432234
4.092208967995248,1.510989010989011,0.904981684981685,0.8034432234432234
4.097645508998539,1.510989010989011,0.904981684981685,0.8034432234432234
4.09789571899455,1.598021978021978,1.444102564102564,1.3312820512820513
4.10244161299488,1.598021978021978,1.444102564102564,1.3312820512820513
4.1032774729974335,1.598021978021978,1.444102564102564,1.3312820512820513
4.10484839000128,1.598021978021978,1.444102564102564,1.3312820512820513
4.109239482000703,1.598021978021978,1.444102564102564,1.3312820512820513
4.110427088999131,1.598021978021978,1.444102564102564,1.3312820512820513
4.110746293001284,1.598021978021978,1.444102564102564,1.3312820512820513
4.114663891996315,1.598021978021978,1.444102564102564,1.3312820512820513
4.118502295001235,1.598021978021978,1.444102564102564,1.3312820512820513
4.123167490994092,1.598021978021978,1.444102564102564,1.3312820512820513
4.123365820996696,1.598021978021978,1.444102564102564,1.3312820512820513
4.13086378499429,1.668131868131868,1.046007326007326,0.958974358974359
4.135442926999531,1.0242490842490841,0.5358974358974359,1.2547252747252746
4.136285912994936,1.0242490842490841,0.5358974358974359,1.2547252747252746
4.138046764994215,1.0242490842490841,0.5358974358974359,1.2547252747252746
4.1424078839991125,1.0242490842490841,0.5358974358974359,1.2547252747252746
4.144459632996586,1.0242490842490841,0.5358974358974359,1.2547252747252746
4.145793452000362,1.0242490842490841,0.5358974358974359,1.2547252747252746
4.150696724995214,1.0242490842490841,0.5358974358974359,1.2547252747252746
4.1543889319946175,1.0242490842490841,0.5358974358974359,1.2547252747252746
4.163869133000844,1.0242490842490841,0.5358974358974359,1.2547252747252746
4.168449031996715,2.075091575091575,1.7414652014652015,0.5560439560439561
4.1687390160004725,2.075091575091575,1.7414652014652015,0.5560439560439561
4.17633466499683,2.075091575091575,1.7414652014652015,0.5560439560439561
4.1818175410007825,2.075091575091575,1.7414652014652015,0.5560439560439561
4.181998239000677,2.075091575091575,1.7414652014652015,0.5560439560439561
4.187646696998854,2.075091575091575,1.7414652014652015,0.5560439560439561
4.187966562996735,2.075091575091575,1.7414652014652015,0.5560439560439561
4.196781661994464,2.075091575091575,1.7414652014652015,0.5560439560439561
4.20193234999897,2.075091575091575,1.7414652014652015,0.5560439560439561
4.2053629259971785,2.075091575091575,1.7414652014652015,0.5560439560439561
4.205510437997873,2.075091575091575,1.7414652014652015,0.5560439560439561
4.213856980997662,2.075091575091575,1.7414652014652015,0.5560439560439561
4.218401828999049,2.075091575091575,1.7414652014652015,0.5560439560439561
4.219277539996256,2.075091575091575,1.7414652014652015,0.5560439560439561
4.221578356999089,2.075091575091575,1.7414652014652015,0.5560439560439561
4.221687972996733,2.075091575091575,1.7414652014652015,0.5560439560439561
4.229899850994116,2.075091575091575,1.7414652014652015,0.5560439560439561
4.234487769994303,1.4287912087912087,0.7816849816849816,0.8848351648351648
4.234762490996218,1.4287912087912087,0.7816849816849816,0.8848351648351648
4.240053598994564,3.0775824175824176,2.0267399267399266,1.818021978021978
4.24589749200095,3.0775824175824176,2.0267399267399266,1.818021978021978
4.249156302998017,3.0775824175824176,2.0267399267399266,1.818021978021978
4.250752848995035,3.0775824175824176,2.0267399267399266,1.818021978021978
4.254498039997998,3.0775824175824176,2.0267399267399266,1.818021978021978
4.262746066997352,3.0775824175824176,2.0267399267399266,1.818021978021978
4.268547227999079,2.8873992673992674,1.0677655677655677,2.2024175824175822
4.275638529994467,2.8873992673992674,1.0677655677655677,2.2024175824175822
4.280591513001127,2.4876923076923076,0.8735531135531135,2.253186813186813
4.284362140999292,2.4876923076923076,0.8735531135531135,2.253186813186813
4.288735616995837,0.3924542124542124,0.2248351648351648,0.9581684981684981
4.289626535995922,0.3924542124542124,0.2248351648351648,0.9581684981684981
4.290559326000221,0.3924542124542124,0.2248351648351648,0.9581684981684981
4.292925510999339,0.3924542124542124,0.2248351648351648,0.9581684981684981
4.293035381000664,0.3924542124542124,0.2248351648351648,0.9581684981684981
4.299482568996609,0.3924542124542124,0.2248351648351648,0.9581684981684981
4.304688456999429,1.515018315018315,1.5770695970695972,3.0493772893772895
4.306210695998743,1.515018315018315,1.5770695970695972,3.0493772893772895
4.312123170995619,1.515018315018315,1.5770695970695972,3.0493772893772895
4.318781392001256,1.515018315018315,1.5770695970695972,3.0493772893772895
4.323072718994808,3.179120879120879,1.9445421245421244,1.975164835164835
4.326152727997396,2.2684981684981684,1.4505494505494505,0.5197802197802197
4.328111880997312,1.6947252747252746,0.9605860805860806,1.2716483516483517
4.3292598519983585,1.6947252747252746,0.9605860805860806,1.2716483516483517
4.329481495995424,1.6947252747252746,0.9605860805860806,1.2716483516483517
4.336762633996841,1.6947252747252746,0.9605860805860806,1.2716483516483517
4.343502497998998,1.6947252747252746,0.9605860805860806,1.2716483516483517
4.348582451995753,1.9203663003663003,1.2273260073260073,0.5504029304029303
4.350973988999613,1.9203663003663003,1.2273260073260073,0.5504029304029303
4.361130598001182,1.4062271062271061,0.25787545787545785,0.4593406593406593
4.366123996995157,1.4062271062271061,0.25787545787545785,0.4593406593406593
4.369964350000373,0.9364102564102563,0.4472527472527472,1.2756776556776557
4.376219311998284,1.3643223443223442,0.26754578754578756,0.4996336996336996
4.380474576995766,2.8390476190476193,2.0976556776556774,1.7825641025641024
4.380792124000436,2.8390476190476193,2.0976556776556774,1.7825641025641024
4.3852773449980305,2.8390476190476193,2.0976556776556774,1.7825641025641024
4.387124135995691,2.8390476190476193,2.0976556776556774,1.7825641025641024
4.389585507997253,2.8390476190476193,2.0976556776556774,1.7825641025641024
4.3988486059970455,2.8390476190476193,2.0976556776556774,1.7825641025641024
4.405589842994232,2.561831501831502,1.9356776556776556,1.751135531135531
4.411770484999579,2.561831501831502,1.9356776556776556,1.751135531135531
4.415207455997006,0.5923076923076923,0.7373626373626374,2.0815384615384613
4.4154705709952395,0.5923076923076923,0.7373626373626374,2.0815384615384613
4.421547574995202,0.5923076923076923,0.7373626373626374,2.0815384615384613
4.429984989998047,0.5923076923076923,0.7373626373626374,2.0815384615384613
4.437399399001151,0.5923076923076923,0.7373626373626374,2.0815384615384613
4.444019584996568,3.154945054945055,1.3884981684981685,2.002564102564102
4.450011852997704,3.154945054945055,1.3884981684981685,2.002564102564102
4.454548519999662,3.154945054945055,1.3884981684981685,2.002564102564102
4.454716066997207,3.154945054945055,1.3884981684981685,2.002564102564102
4.461621587994159,3.154945054945055,1.3884981684981685,2.002564102564102
4.465584808000131,0.6446886446886446,1.0242490842490841,2.3466666666666667
4.470207534999645,0.6446886446886446,1.0242490842490841,2.3466666666666667
4.47044210400054,0.6446886446886446,1.0242490842490841,2.3466666666666667
4.476880144000461,0.6446886446886446,1.0242490842490841,2.3466666666666667
4.4809534099986195,0.6446886446886446,1.0242490842490841,2.3466666666666667
4.484141353001178,0.6446886446886446,1.0242490842490841,2.3466666666666667
4.485710305998509,0.6446886446886446,1.0242490842490841,2.3466666666666667
4.489431173999037,0.6446886446886446,1.0242490842490841,2.3466666666666667
4.498874208999041,1.3917216117216116,0.25223443223443226,0.46095238095238095
4.508893352998712,2.34021978021978,1.983223443223443,1.6044688644688643
4.514669705997221,1.290989010989011,0.7212454212454212,1.0742124542124543
4.520065723998414,1.290989010989011,0.7212454212454212,1.0742124542124543
4.522304799997073,1.290989010989011,0.7212454212454212,1.0742124542124543
4.522589231994061,1.290989010989011,0.7212454212454212,1.0742124542124543
4.531945597998856,1.290989010989011,0.7212454212454212,1.0742124542124543
4.5377382259976,1.290989010989011,0.7212454212454212,1.0742124542124543
4.547615480994864,1.290989010989011,0.7212454212454212,1.0742124542124543
4.5559860069988645,1.290989010989011,0.7212454212454212,1.0742124542124543
4.563524838995363,0.842124542124542,0.21274725274725276,0.4254945054945055
4.56908778900106,0.842124542124542,0.21274725274725276,0.4254945054945055
4.569287817001168,0.842124542124542,0.21274725274725276,0.4254945054945055
4.575825410996913,0.842124542124542,0.21274725274725276,0.4254945054945055
4.5826921759944526,3.032454212454212,2.1637362637362636,1.6769963369963368
4.587815824001154,3.032454212454212,2.1637362637362636,1.6769963369963368
4.590719120998983,3.032454212454212,2.1637362637362636,1.6769963369963368
4.593609937997826,3.032454212454212,2.1637362637362636,1.6769963369963368
4.5974089480005205,3.032454212454212,2.1637362637362636,1.6769963369963368
4.601558195994585,3.032454212454212,2.1637362637362636,1.6769963369963368
4.602580610997393,1.5931868131868132,1.6044688644688643,1.1749450549450549
4.6040925329944,1.5931868131868132,1.6044688644688643,1.1749450549450549
4.61357646399847,1.5931868131868132,1.6044688644688643,1.1749450549450549
4.620982669999648,1.5931868131868132,1.6044688644688643,1.1749450549450549
4.628806228996837,1.5931868131868132,1.6044688644688643,1.1749450549450549
4.634829345995968,1.2410256410256408,0.6616117216117217,0.7446153846153846
4.639839523995761,1.2410256410256408,0.6616117216117217,0.7446153846153846
4.645689934994152,1.4416849816849817,1.8615384615384614,3.3
4.649711951999052,1.4416849816849817,1.8615384615384614,3.3
4.652499007999722,1.4416849816849817,1.8615384615384614,3.3
4.656296422996093,0.6519413919413919,0.21032967032967032,0.3473260073260073
4.6633782209974015,0.6519413919413919,0.21032967032967032,0.3473260073260073
4.6687269440008095,1.2458608058608058,1.5851282051282052,1.6342857142857143
4.669006507996528,1.2458608058608058,1.5851282051282052,1.6342857142857143
4.679751044997829,1.2458608058608058,1.5851282051282052,1.6342857142857143
4.688157233998936,1.003296703296703,0.21677655677655677,0.40534798534798533
4.697145938996982,1.9123076923076923,1.3022710622710623,0.6092307692307692
4.702203657994687,1.9123076923076923,1.3022710622710623,0.6092307692307692
4.707357934996253,2.497362637362637,1.6576556776556775,0.13377289377289378
4.71081544199842,2.497362637362637,1.6576556776556775,0.13377289377289378
4.720485073994496,1.468278388278388,0.24659340659340656,0.5093040293040293
4.730325431999518,2.177435897435897,1.917948717948718,1.4827838827838828
4.738987598000676,2.177435897435897,1.917948717948718,1.4827838827838828
4.746258840001246,2.9776556776556777,2.165347985347985,1.8027106227106224
4.7503187589973095,0.8002197802197801,0.381978021978022,1.1354578754578755
4.75475111099513,0.8002197802197801,0.381978021978022,1.1354578754578755
4.754928703994665,0.8002197802197801,0.381978021978022,1.1354578754578755
4.764398494997295,0.8002197802197801,0.381978021978022,1.1354578754578755
4.773279910994461,0.8002197802197801,0.381978021978022,1.1354578754578755
4.781632537997211,0.8002197802197801,0.381978021978022,1.1354578754578755
4.787948311997752,2.8954578754578755,1.120952380952381,2.2282051282051283
4.795835391996661,2.8954578754578755,1.120952380952381,2.2282051282051283
4.799686856997141,0.5753846153846153,0.21355311355311357,0.48432234432234433
4.804149924995727,0.5665201465201465,0.9146520146520146,2.1798534798534797
4.805656630996964,0.5665201465201465,0.9146520146520146,2.1798534798534797
4.812809921000735,0.5665201465201465,0.9146520146520146,2.1798534798534797
4.816194166000059,0.5455677655677655,0.7317216117216117,2.258021978021978
4.817088381998474,0.5455677655677655,0.7317216117216117,2.258021978021978
4.81865418599773,0.5455677655677655,0.7317216117216117,2.258021978021978
4.823063810996246,0.5455677655677655,0.7317216117216117,2.258021978021978
4.824785240998608,0.5455677655677655,0.7317216117216117,2.258021978021978
4.828906992996053,0.5455677655677655,0.7317216117216117,2.258021978021978
4.831186279996473,0.4416117216117216,0.43999999999999995,1.6133333333333333
4.831512135999219,0.4416117216117216,0.43999999999999995,1.6133333333333333
4.83599423099804,0.8566300366300367,0.1958241758241758,0.4762637362637362
4.837572876000195,0.7172161172161172,0.22805860805860806,0.4835164835164835
4.84327963800024,0.7172161172161172,0.22805860805860806,0.4835164835164835
4.843672026996501,1.9977289377289376,1.2692307692307692,0.6350183150183151
4.848522132000653,1.9977289377289376,1.2692307692307692,0.6350183150183151
4.8536377159980475,1.9977289377289376,1.2692307692307692,0.6350183150183151
4.857659746994614,1.9977289377289376,1.2692307692307692,0.6350183150183151
4.8629712909969385,1.9977289377289376,1.2692307692307692,0.6350183150183151
4.863260932994308,1.9977289377289376,1.2692307692307692,0.6350183150183151
4.867780946995481,1.9977289377289376,1.2692307692307692,0.6350183150183151
4.868043817994476,1.9977289377289376,1.2692307692307692,0.6350183150183151
4.874632057995768,0.7244688644688644,0.9928205128205128,2.3724542124542123
4.879001727000286,0.7244688644688644,0.9928205128205128,2.3724542124542123
4.879342934000306,0.7244688644688644,0.9928205128205128,2.3724542124542123
4.883992684997793,0.7244688644688644,0.9928205128205128,2.3724542124542123
4.884257377998438,1.506153846153846,1.6157509157509156,0.8671062271062271
4.893906874996901,1.506153846153846,1.6157509157509156,0.8671062271062271
4.898248293997312,1.506153846153846,1.6157509157509156,0.8671062271062271
4.900624317997426,1.506153846153846,1.6157509157509156,0.8671062271062271
4.90082295499451,1.506153846153846,1.6157509157509156,0.8671062271062271
4.905340782999701,1.506153846153846,1.6157509157509156,0.8671062271062271
4.9063241469993955,1.506153846153846,1.6157509157509156,0.8671062271062271
4.907205700001214,1.506153846153846,1.6157509157509156,0.8671062271062271
4.909203654999146,0.8445421245421244,0.36666666666666664,1.17010989010989
4.910826544000884,0.8445421245421244,0.36666666666666664,1.17010989010989
4.914272354995774,0.8445421245421244,0.36666666666666664,1.17010989010989
4.91442742000072,0.8445421245421244,0.36666666666666664,1.17010989010989
4.919602577996557,0.8445421245421244,0.36666666666666664,1.17010989010989
4.923523557001317,2.826153846153846,1.016996336996337,2.153260073260073
4.928205153999443,1.3949450549450548,0.7615384615384615,0.8469597069597068
4.935675814995193,1.3949450549450548,0.7615384615384615,0.8469597069597068
4.939561186998617,1.5416117216117216,1.4545787545787545,1.2378021978021978
4.944887343997834,1.5416117216117216,1.4545787545787545,1.2378021978021978
4.947991818000446,1.5416117216117216,1.4545787545787545,1.2378021978021978
4.950385471995105,1.6794139194139193,1.0693772893772893,1.1886446886446886
4.950610804000462,1.6794139194139193,1.0693772893772893,1.1886446886446886
4.955086272995686,1.6794139194139193,1.0693772893772893,1.1886446886446886
4.956724497998948,0.618095238095238,0.18534798534798536,0.4391941391941392
4.961550096995779,1.9203663003663003,0.6261538461538461,2.1605128205128206
4.96750781499577,1.9203663003663003,0.6261538461538461,2.1605128205128206
4.972215376001259,1.9203663003663003,0.6261538461538461,2.1605128205128206
4.982295691996114,1.9203663003663003,0.6261538461538461,2.1605128205128206
4.991083765999065,2.2644688644688644,1.3812454212454213,0.5407326007326007
4.99550178500067,2.2644688644688644,1.3812454212454213,0.5407326007326007
4.995703884997056,2.2644688644688644,1.3812454212454213,0.5407326007326007
5.00171882599534,2.2644688644688644,1.3812454212454213,0.5407326007326007
5.009352668996144,1.1394871794871795,1.5947985347985347,1.4690842490842488
5.015515314997174,1.7608058608058608,1.0290842490842491,0.7824908424908424
5.019180208997568,0.7849084249084248,0.24498168498168496,0.4625641025641025
5.024767554001301,2.1758241758241756,0.7647619047619048,2.165347985347985
5.025765754995518,2.1758241758241756,0.7647619047619048,2.165347985347985
5.026600075994793,1.6495970695970694,1.0814652014652013,1.1467399267399265
5.029245471996546,1.6495970695970694,1.0814652014652013,1.1467399267399265
5.032866484994884,1.4126739926739926,0.2683516483516483,0.5173626373626373
5.038429101994552,1.4126739926739926,0.2683516483516483,0.5173626373626373
5.040169957996113,1.6262271062271063,0.4391941391941392,2.15003663003663
5.043287672000588,1.6262271062271063,0.4391941391941392,2.15003663003663
5.0456837589954375,1.6262271062271063,0.4391941391941392,2.15003663003663
5.0458606659958605,1.6262271062271063,0.4391941391941392,2.15003663003663
5.0510180499986745,1.6262271062271063,0.4391941391941392,2.15003663003663
5.0549752570004785,1.6262271062271063,0.4391941391941392,2.15003663003663
5.0587985909951385,1.6262271062271063,0.4391941391941392,2.15003663003663
5.06261330399866,1.6262271062271063,0.4391941391941392,2.15003663003663
5.067466239001078,1.6262271062271063,0.4391941391941392,2.15003663003663
5.074782488998608,0.9114285714285715,0.6430769230769231,0.9726739926739927
5.081657233000442,0.9114285714285715,0.6430769230769231,0.9726739926739927
5.086657625994121,0.9114285714285715,0.6430769230769231,0.9726739926739927
5.092405755996879,1.6858608058608056,1.0113553113553113,1.1120879120879121
5.099879636996775,1.2643956043956044,0.26754578754578756,0.46820512820512816
5.106290395000542,1.2643956043956044,0.26754578754578756,0.46820512820512816
5.11355749899667,0.4126007326007326,0.2925274725274725,0.8663003663003663
5.120671372998913,0.4126007326007326,0.2925274725274725,0.8663003663003663
5.124417391998577,2.245128205128205,0.855018315018315,2.1161904761904764
5.128811504997429,2.245128205128205,0.855018315018315,2.1161904761904764
5.13035919599497,2.245128205128205,0.855018315018315,2.1161904761904764
5.135113551994436,2.245128205128205,0.855018315018315,2.1161904761904764
5.140615106996847,2.245128205128205,0.855018315018315,2.1161904761904764
5.142231786994671,2.245128205128205,0.855018315018315,2.1161904761904764
5.146092540999234,2.245128205128205,0.855018315018315,2.1161904761904764
5.150539921000018,2.245128205128205,0.855018315018315,2.1161904761904764
5.150855034997221,2.245128205128205,0.855018315018315,2.1161904761904764
5.1554570910011535,2.245128205128205,0.855018315018315,2.1161904761904764
5.155747056000109,0.7752380952380952,0.2377289377289377,0.43274725274725273
5.16108269799588,0.7752380952380952,0.2377289377289377,0.43274725274725273
5.162961212998198,2.01062271062271,1.7108424908424908,0.4561172161172161
5.164802171995689,2.01062271062271,1.7108424908424908,0.4561172161172161
5.1678873549972195,1.2885714285714285,0.747032967032967,0.838095238095238
5.170222085995192,1.357069597069597,1.6689377289377287,3.3
5.171180019999156,1.4626373626373625,0.24256410256410255,0.618095238095238
5.172071281995159,1.4626373626373625,0.24256410256410255,0.618095238095238
5.173721243998443,0.801025641025641,0.24498168498168496,0.4738461538461538
5.177534204995027,0.801025641025641,0.24498168498168496,0.4738461538461538
5.1827283579987125,0.801025641025641,0.24498168498168496,0.4738461538461538
5.187427119999484,0.801025641025641,0.24498168498168496,0.4738461538461538
5.192760311998427,0.801025641025641,0.24498168498168496,0.4738461538461538
5.195936354997684,0.801025641025641,0.24498168498168496,0.4738461538461538
5.197637206998479,0.801025641025641,0.24498168498168496,0.4738461538461538
5.200736923994555,0.801025641025641,0.24498168498168496,0.4738461538461538
5.202317609000602,0.801025641025641,0.24498168498168496,0.4738461538461538
5.207492429995909,0.801025641025641,0.24498168498168496,0.4738461538461538
5.211268649996782,0.5471794871794872,0.3690842490842491,1.3731868131868132
5.216240707995894,0.5471794871794872,0.3690842490842491,1.3731868131868132
5.221141377995082,1.1225641025641024,1.0186080586080586,0.8324542124542124
5.225839250997524,1.1225641025641024,1.0186080586080586,0.8324542124542124
5.2314306189946365,1.307106227106227,0.7986080586080586,0.9823443223443222
5.232464313994569,1.307106227106227,0.7986080586080586,0.9823443223443222
5.233385797000665,1.307106227106227,0.7986080586080586,0.9823443223443222
5.235110386995075,1.307106227106227,0.7986080586080586,0.9823443223443222
5.238289537999663,1.307106227106227,0.7986080586080586,0.9823443223443222
5.240741516994603,1.307106227106227,0.7986080586080586,0.9823443223443222
5.246904028994322,1.307106227106227,0.7986080586080586,0.9823443223443222
5.251029642000503,1.307106227106227,0.7986080586080586,0.9823443223443222
5.254954195996106,1.307106227106227,0.7986080586080586,0.9823443223443222
5.25819763400068,1.307106227106227,0.7986080586080586,0.9823443223443222
5.259914147995005,1.307106227106227,0.7986080586080586,0.9823443223443222
5.262933851998241,1.307106227106227,0.7986080586080586,0.9823443223443222
5.2646670549947885,2.1605128205128206,1.353040293040293,0.6777289377289377
5.267994698995608,2.1605128205128206,1.353040293040293,0.6777289377289377
5.2696550499968,2.1605128205128206,1.353040293040293,0.6777289377289377
5.273134258997743,2.1605128205128206,1.353040293040293,0.6777289377289377
5.273344004999672,2.1605128205128206,1.353040293040293,0.6777289377289377
5.278516294994915,2.1605128205128206,1.353040293040293,0.6777289377289377
5.281572643994878,3.3,2.249157509157509,2.2564102564102564
5.283846385995275,3.3,2.249157509157509,2.2564102564102564
5.284215068997582,3.3,2.249157509157509,2.2564102564102564
5.2888262269989355,3.3,2.249157509157509,2.2564102564102564
5.2891679530002875,3.3,2.249157509157509,2.2564102564102564
5.299291944997094,3.3,2.249157509157509,2.2564102564102564
5.3033531209948706,3.3,2.249157509157509,2.2564102564102564
5.30647507699905,3.3,2.249157509157509,2.2564102564102564
5.3088869269995485,3.3,2.249157509157509,2.2564102564102564
5.314156215994444,3.3,2.249157509157509,2.2564102564102564
5.317940057000669,3.3,2.249157509157509,2.2564102564102564
5.321882138996443,3.3,2.249157509157509,2.2564102564102564
5.325599824995152,1.2095970695970695,1.6383150183150184,1.3643223443223442
5.33019940599479,1.2095970695970695,1.6383150183150184,1.3643223443223442
5.3310265299951425,1.2885714285714285,0.2224175824175824,0.4545054945054945
5.33258795599977,1.2885714285714285,0.2224175824175824,0.4545054945054945
5.336285485995177,0.7647619047619048,0.1813186813186813,0.44080586080586076
5.341667925000365,2.3966300366300364,2.1105494505494504,1.7801465201465199
5.343566399998963,2.3966300366300364,2.1105494505494504,1.7801465201465199
5.345992876995297,2.3966300366300364,2.1105494505494504,1.7801465201465199
5.353325652999047,2.3966300366300364,2.1105494505494504,1.7801465201465199
5.358375500996772,2.3966300366300364,2.1105494505494504,1.7801465201465199
5.364287495998724,2.3966300366300364,2.1105494505494504,1.7801465201465199
5.370689047995256,1.6850549450549448,1.6826373626373625,0.8703296703296703
5.377882071996282,1.3514285714285714,0.2111355311355311,0.5447619047619047
5.383764089994656,2.0976556776556774,0.7397802197802198,2.1556776556776556
5.3875440470001195,1.991282051282051,1.49003663003663,0.10315018315018315
5.394990000997495,1.991282051282051,1.49003663003663,0.10315018315018315
5.398869960001321,1.991282051282051,1.49003663003663,0.10315018315018315
5.403653805995418,1.991282051282051,1.49003663003663,0.10315018315018315
5.403782082998077,1.5956043956043955,0.938021978021978,0.767985347985348
5.410387873998843,1.5956043956043955,0.938021978021978,0.767985347985348
5.413523750998138,1.5956043956043955,0.938021978021978,0.767985347985348
5.415896353995777,0.8139194139194139,0.2224175824175824,0.4585347985347985
5.416160210996168,0.8139194139194139,0.2224175824175824,0.4585347985347985
5.420991929997399,0.8139194139194139,0.2224175824175824,0.4585347985347985
5.421231676999014,0.8139194139194139,0.2224175824175824,0.4585347985347985
5.427889897997375,0.8139194139194139,0.2224175824175824,0.4585347985347985
5.431001047996688,0.8139194139194139,0.2224175824175824,0.4585347985347985
5.4332645059985225,0.8663003663003663,0.2063003663003663,0.4279120879120879
5.433526572996925,0.8928937728937728,0.24095238095238095,0.4964102564102564
5.4386728440003935,0.8928937728937728,0.24095238095238095,0.4964102564102564
5.447349602000031,0.8928937728937728,0.24095238095238095,0.4964102564102564
5.454938507995394,0.6052014652014651,0.502051282051282,1.6197802197802196
5.462081646001025,0.6052014652014651,0.502051282051282,1.6197802197802196
5.4677770669950405,0.6052014652014651,0.502051282051282,1.6197802197802196
5.478232901994488,0.826007326007326,1.236996336996337,2.908351648351648
5.484833757996967,0.826007326007326,1.236996336996337,2.908351648351648
5.492045440994843,0.826007326007326,1.236996336996337,2.908351648351648
5.498535371996695,0.826007326007326,1.236996336996337,2.908351648351648
5.504334306999226,0.6189010989010989,1.1757509157509156,2.61018315018315
5.513190259996918,0.6189010989010989,1.1757509157509156,2.61018315018315
5.517181472998345,0.6189010989010989,1.1757509157509156,2.61018315018315
5.5209620379973785,0.6189010989010989,1.1757509157509156,2.61018315018315
5.5281029699981445,1.0097435897435898,1.5673992673992672,2.880952380952381
5.53118325399555,1.0097435897435898,1.5673992673992672,2.880952380952381
5.533514527000079,1.0097435897435898,1.5673992673992672,2.880952380952381
5.533673338999506,1.0395604395604394,0.9065934065934066,0.7784615384615384
5.541761283995584,1.0395604395604394,0.9065934065934066,0.7784615384615384
5.5485453979999875,1.0395604395604394,0.9065934065934066,0.7784615384615384
5.552358808999998,1.0395604395604394,0.9065934065934066,0.7784615384615384
5.558015251997858,1.0395604395604394,0.9065934065934066,0.7784615384615384
5.558315624999523,3.3,2.0621978021978022,2.02996336996337
5.5653225159985595,3.3,2.0621978021978022,2.02996336996337
5.569948428994394,3.3,2.0621978021978022,2.02996336996337
5.571085709998442,1.464249084249084,0.23208791208791207,0.6237362637362637
5.5712459139977,1.464249084249084,0.23208791208791207,0.6237362637362637
5.577860956000222,1.464249084249084,0.23208791208791207,0.6237362637362637
5.581708893994801,1.464249084249084,0.23208791208791207,0.6237362637362637
5.586254369998642,1.464249084249084,0.23208791208791207,0.6237362637362637
5.587115221998829,1.464249084249084,0.23208791208791207,0.6237362637362637
5.588777798999217,1.464249084249084,0.23208791208791207,0.6237362637362637
5.593803758994909,1.2426373626373626,1.3868864468864468,3.1904029304029304
5.596217676000379,1.2426373626373626,1.3868864468864468,3.1904029304029304
5.5964018189988565,1.2426373626373626,1.3868864468864468,3.1904029304029304
5.6012458149998565,1.2426373626373626,1.3868864468864468,3.1904029304029304
5.606624707994342,1.2426373626373626,1.3868864468864468,3.1904029304029304
5.60877597599756,1.2426373626373626,1.3868864468864468,3.1904029304029304
5.609140112996101,0.5471794871794872,0.30542124542124544,1.1676923076923076
5.614430900001025,0.5471794871794872,0.30542124542124544,1.1676923076923076
5.617385401994397,2.7778021978021976,2.2024175824175822,1.806739926739927
5.619689264000044,2.7778021978021976,2.2024175824175822,1.806739926739927
5.620103853994806,2.7778021978021976,2.2024175824175822,1.806739926739927
5.626910770995892,2.7778021978021976,2.2024175824175822,1.806739926739927
5.630949820995738,2.7778021978021976,2.2024175824175822,1.806739926739927
5.6333242889959365,2.7778021978021976,2.2024175824175822,1.806739926739927
5.633519593000528,2.7778021978021976,2.2024175824175822,1.806739926739927
5.6386767820004025,2.7778021978021976,2.2024175824175822,1.806739926739927
5.644036501995288,2.7778021978021976,2.2024175824175822,1.806739926739927
5.64417257799505,2.7778021978021976,2.2024175824175822,1.806739926739927
5.6494474049977725,2.7778021978021976,2.2024175824175822,1.806739926739927
5.651833912997972,2.7778021978021976,2.2024175824175822,1.806739926739927
5.657330385998648,2.7778021978021976,2.2024175824175822,1.806739926739927
5.660635184998682,0.5294505494505495,0.7421978021978022,1.9501831501831501
5.660870668994903,0.5294505494505495,0.7421978021978022,1.9501831501831501
5.666205026995158,0.5294505494505495,0.7421978021978022,1.9501831501831501
5.668569246998231,0.5294505494505495,0.7421978021978022,1.9501831501831501
5.668810202994791,0.5294505494505495,0.7421978021978022,1.9501831501831501
5.674531289994775,0.5294505494505495,0.7421978021978022,1.9501831501831501
5.674778879998485,0.5294505494505495,0.7421978021978022,1.9501831501831501
5.681556767995062,3.042124542124542,2.1919413919413917,1.7769230769230768
5.685971009996138,3.042124542124542,2.1919413919413917,1.7769230769230768
5.687666767000337,3.042124542124542,2.1919413919413917,1.7769230769230768
5.6945610149996355,3.042124542124542,2.1919413919413917,1.7769230769230768
5.6984380680005415,0.9307692307692307,0.7212454212454212,0.5737728937728938
5.704037297997274,0.6438827838827839,1.0516483516483515,2.428864468864469
5.716012694996607,0.6438827838827839,1.0516483516483515,2.428864468864469
5.726347137999255,1.3578754578754577,0.7752380952380952,1.0443956043956042
5.7355181479942985,1.3578754578754577,0.7752380952380952,1.0443956043956042
5.743292847997509,1.3578754578754577,0.7752380952380952,1.0443956043956042
5.74818253400008,1.3578754578754577,0.7752380952380952,1.0443956043956042
5.752143377998436,1.3578754578754577,0.7752380952380952,1.0443956043956042
5.759812799995416,1.3578754578754577,0.7752380952380952,1.0443956043956042
5.765122364995477,1.3578754578754577,0.7752380952380952,1.0443956043956042
5.765995179994206,1.3578754578754577,0.7752380952380952,1.0443956043956042
5.767085389998101,1.6318681318681318,1.0274725274725274,1.0323076923076921
5.767989034000493,1.6318681318681318,1.0274725274725274,1.0323076923076921
5.769634352000139,1.6318681318681318,1.0274725274725274,1.0323076923076921
5.774472987999616,1.6318681318681318,1.0274725274725274,1.0323076923076921
5.7808544779982185,1.6318681318681318,1.0274725274725274,1.0323076923076921
5.784759987996949,0.49882783882783877,0.6720879120879121,1.7745054945054943
5.789266685998882,0.49882783882783877,0.6720879120879121,1.7745054945054943
5.791067296995607,0.49882783882783877,0.6720879120879121,1.7745054945054943
5.794945493995328,1.3038827838827838,0.25142857142857145,0.45692307692307693
5.799099175994343,3.028424908424908,2.0557509157509157,1.7245421245421246
5.8006023400012054,3.028424908424908,2.0557509157509157,1.7245421245421246
5.805947718996322,3.028424908424908,2.0557509157509157,1.7245421245421246
5.806294784000784,0.5238095238095237,0.311062271062271,0.8203663003663003
5.816965186000743,0.5238095238095237,0.311062271062271,0.8203663003663003
5.82190210599947,1.1515750915750915,0.25223443223443226,0.46820512820512816
5.8332213389949175,1.1515750915750915,0.25223443223443226,0.46820512820512816
5.838569090999954,1.5673992673992672,0.9339926739926739,0.6205128205128204
5.841662915998313,0.9468864468864467,0.28849816849816845,1.843003663003663
5.844592466994072,0.9468864468864467,0.28849816849816845,1.843003663003663
5.847023406000517,0.9468864468864467,0.28849816849816845,1.843003663003663
5.85799536799459,0.9468864468864467,0.28849816849816845,1.843003663003663
5.864549926998734,0.9468864468864467,0.28849816849816845,1.843003663003663
5.868313954997575,1.191062271062271,1.585934065934066,1.622197802197802
5.8750862480010255,0.49076923076923074,0.6446886446886446,1.8832967032967032
5.879487202997552,0.49076923076923074,0.6446886446886446,1.8832967032967032
5.879823192997719,0.49076923076923074,0.6446886446886446,1.8832967032967032
5.884378121998452,0.49076923076923074,0.6446886446886446,1.8832967032967032
5.885289177997038,0.49076923076923074,0.6446886446886446,1.8832967032967032
5.886929545995372,0.49076923076923074,0.6446886446886446,1.8832967032967032
5.89221244899818,0.49076923076923074,0.6446886446886446,1.8832967032967032
5.894894541997928,0.8348717948717947,0.2224175824175824,0.3811721611721612
5.898759033996612,0.8348717948717947,0.2224175824175824,0.3811721611721612
5.902481343997351,1.49003663003663,1.796263736263736,3.3
5.909669641994697,1.4578021978021978,1.7172893772893774,1.3473992673992674
5.915264415998536,0.473040293040293,0.7147985347985348,2.125860805860806
5.915518980000343,0.473040293040293,0.7147985347985348,2.125860805860806
5.922219858999597,0.473040293040293,0.7147985347985348,2.125860805860806
5.92759894199844,0.473040293040293,0.7147985347985348,2.125860805860806
5.9291135409948765,0.473040293040293,0.7147985347985348,2.125860805860806
5.934837738001079,1.008131868131868,1.4223443223443224,3.3
5.934948467998765,1.008131868131868,1.4223443223443224,3.3
5.939474000995688,1.008131868131868,1.4223443223443224,3.3
5.9404755139985355,1.008131868131868,1.4223443223443224,3.3
5.941518053994514,1.008131868131868,1.4223443223443224,3.3
5.9425772949980455,1.008131868131868,1.4223443223443224,3.3
5.942870384998969,1.008131868131868,1.4223443223443224,3.3
5.947918371995911,1.008131868131868,1.4223443223443224,3.3
5.951637113001198,1.008131868131868,1.4223443223443224,3.3
5.95664645999932,1.008131868131868,1.4223443223443224,3.3
5.962109264997707,1.008131868131868,1.4223443223443224,3.3
5.963299539995205,1.008131868131868,1.4223443223443224,3.3
5.963515439994808,1.008131868131868,1.4223443223443224,3.3
5.967932585997914,1.008131868131868,1.4223443223443224,3.3
5.9687621889970615,1.008131868131868,1.4223443223443224,3.3
5.970344909001142,1.008131868131868,1.4223443223443224,3.3
5.977904952997051,1.0298901098901099,0.5358974358974359,1.0057142857142858
5.982381539994094,1.0298901098901099,0.5358974358974359,1.0057142857142858
5.982702178996988,1.0298901098901099,0.5358974358974359,1.0057142857142858
5.99114464000013,2.241904761904762,1.514212454212454,0.4045421245421245
5.999449137998454,0.7953846153846154,0.42710622710622714,1.0637362637362637
6.007327989995247,2.6335531135531136,2.339413919413919,1.6673260073260072
6.014446301996941,2.6335531135531136,2.339413919413919,1.6673260073260072
6.020091253994906,0.8727472527472527,0.28124542124542123,0.386007326007326
6.02878932999738,0.8727472527472527,0.28124542124542123,0.386007326007326
6.033470532995125,1.3514285714285714,0.842124542124542,0.7333333333333333
6.033688944997266,1.3514285714285714,0.842124542124542,0.7333333333333333
6.03995608099649,1.3514285714285714,0.842124542124542,0.7333333333333333
6.043877327996597,3.167838827838828,2.225787545787546,1.7052014652014653
6.047363820995088,3.167838827838828,2.225787545787546,1.7052014652014653
6.047666526996181,3.167838827838828,2.225787545787546,1.7052014652014653
6.052677422994748,3.167838827838828,2.225787545787546,1.7052014652014653
6.05580473900045,3.167838827838828,2.225787545787546,1.7052014652014653
6.057671402995766,3.167838827838828,2.225787545787546,1.7052014652014653
6.060688314995787,3.167838827838828,2.225787545787546,1.7052014652014653
6.061661808998906,3.167838827838828,2.225787545787546,1.7052014652014653
6.0632394529966405,3.167838827838828,2.225787545787546,1.7052014652014653
6.067722029998549,3.167838827838828,2.225787545787546,1.7052014652014653
6.068594059994211,3.167838827838828,2.225787545787546,1.7052014652014653
6.0702191419986775,3.167838827838828,2.225787545787546,1.7052014652014653
6.074907482994604,3.167838827838828,2.225787545787546,1.7052014652014653
6.085101158998441,3.167838827838828,2.225787545787546,1.7052014652014653
6.094709730998147,1.8236630036630037,1.8478388278388278,1.1346520146520145
6.099416630000633,1.8236630036630037,1.8478388278388278,1.1346520146520145
6.104940919998626,1.5166300366300365,1.7906227106227104,3.3
6.107819375996769,1.5166300366300365,1.7906227106227104,3.3
6.111300229000335,1.5166300366300365,1.7906227106227104,3.3
6.1169952919954085,1.5166300366300365,1.7906227106227104,3.3
6.124563656994724,1.5166300366300365,1.7906227106227104,3.3
6.130532887997106,1.5166300366300365,1.7906227106227104,3.3
6.133821960997011,1.5166300366300365,1.7906227106227104,3.3
6.134770564000064,1.0266666666666666,0.7284981684981684,0.423076923076923
6.1364017839950975,3.0928937728937727,2.3764835164835163,1.4030036630036629
6.1430961359947105,3.3,2.2217582417582418,1.6826373626373625
6.1467056249966845,0.8163369963369963,1.1830036630036629,2.1919413919413917
6.146864828995604,0.8163369963369963,1.1830036630036629,2.1919413919413917
6.15136504000111,0.8163369963369963,1.1830036630036629,2.1919413919413917
6.152293524995912,0.8163369963369963,1.1830036630036629,2.1919413919413917
6.153252828997211,0.8163369963369963,1.1830036630036629,2.1919413919413917
6.155277489000582,0.8163369963369963,1.1830036630036629,2.1919413919413917
6.155725878001249,0.8163369963369963,1.1830036630036629,2.1919413919413917
6.160589494000305,0.8163369963369963,1.1830036630036629,2.1919413919413917
6.165411176996713,0.8163369963369963,1.1830036630036629,2.1919413919413917
6.170754191996821,0.8163369963369963,1.1830036630036629,2.1919413919413917
6.172592682996765,0.8485714285714284,1.2426373626373626,3.3
6.1750599359947955,0.8485714285714284,1.2426373626373626,3.3
6.175222441001097,3.067912087912088,2.565054945054945,1.3764102564102565
6.1801035699973,3.067912087912088,2.565054945054945,1.3764102564102565
6.185633531000349,0.618095238095238,1.1475457875457875,2.617435897435897
6.186491324995586,1.464249084249084,1.0661538461538462,0.5729670329670329
6.1881713420007145,1.1483516483516483,0.8252014652014652,0.6785347985347985
6.192739735997748,1.1483516483516483,0.8252014652014652,0.6785347985347985
6.192978948995005,0.5052747252747253,0.30622710622710625,0.2063003663003663
6.198046764999162,0.5052747252747253,0.30622710622710625,0.2063003663003663
6.202693328996247,0.5052747252747253,0.30622710622710625,0.2063003663003663
6.202882356999908,0.5052747252747253,0.30622710622710625,0.2063003663003663
6.208733397994365,0.5052747252747253,0.30622710622710625,0.2063003663003663
6.208879747995525,0.5052747252747253,0.30622710622710625,0.2063003663003663
6.215212981995137,0.5052747252747253,0.30622710622710625,0.2063003663003663
6.220690401998581,0.5052747252747253,0.30622710622710625,0.2063003663003663
6.232026127996505,0.5052747252747253,0.30622710622710625,0.2063003663003663
6.243120653998631,1.606080586080586,1.2885714285714285,0.17809523809523808
6.2490604349950445,1.606080586080586,1.2885714285714285,0.17809523809523808
6.249168297996221,1.606080586080586,1.2885714285714285,0.17809523809523808
6.25449225599732,1.606080586080586,1.2885714285714285,0.17809523809523808
6.256128813998657,3.029230769230769,2.448205128205128,1.5206593406593405
6.259783440997126,3.029230769230769,2.448205128205128,1.5206593406593405
6.2647921859970666,3.029230769230769,2.448205128205128,1.5206593406593405
6.269626825000159,3.029230769230769,2.448205128205128,1.5206593406593405
6.274731840996537,3.029230769230769,2.448205128205128,1.5206593406593405
6.278247779999219,3.029230769230769,2.448205128205128,1.5206593406593405
6.278428249999706,3.029230769230769,2.448205128205128,1.5206593406593405
6.283408830000553,3.029230769230769,2.448205128205128,1.5206593406593405
6.287527880995185,3.029230769230769,2.448205128205128,1.5206593406593405
6.290015698999923,3.029230769230769,2.448205128205128,1.5206593406593405
6.295956017995195,3.029230769230769,2.448205128205128,1.5206593406593405
6.300471894996008,3.029230769230769,2.448205128205128,1.5206593406593405
6.301328532994376,3.029230769230769,2.448205128205128,1.5206593406593405
6.302947208998376,3.029230769230769,2.448205128205128,1.5206593406593405
6.307314751997183,3.029230769230769,2.448205128205128,1.5206593406593405
6.308469550000154,3.029230769230769,2.448205128205128,1.5206593406593405
6.308749247000378,3.029230769230769,2.448205128205128,1.5206593406593405
6.313783836994844,3.029230769230769,2.448205128205128,1.5206593406593405
6.317825903999619,3.029230769230769,2.448205128205128,1.5206593406593405
6.321177621997776,3.029230769230769,2.448205128205128,1.5206593406593405
6.322268873998837,3.029230769230769,2.448205128205128,1.5206593406593405
6.322488965000957,3.029230769230769,2.448205128205128,1.5206593406593405
6.327491835996625,3.029230769230769,2.448205128205128,1.5206593406593405
6.333129623999412,3.029230769230769,2.448205128205128,1.5206593406593405
6.333347144995059,1.0806593406593406,0.2361172161172161,0.2506227106227106
6.337917323995498,1.0806593406593406,0.2361172161172161,0.2506227106227106
6.338153079996118,1.0806593406593406,0.2361172161172161,0.2506227106227106
6.343514307998703,1.0806593406593406,0.2361172161172161,0.2506227106227106
6.345131777998176,1.0806593406593406,0.2361172161172161,0.2506227106227106
6.348848913999973,1.0806593406593406,0.2361172161172161,0.2506227106227106
6.34895815699565,1.0806593406593406,0.2361172161172161,0.2506227106227106
6.354077405994758,1.0806593406593406,0.2361172161172161,0.2506227106227106
6.358435485999507,1.0806593406593406,0.2361172161172161,0.2506227106227106
6.360268623997399,1.0806593406593406,0.2361172161172161,0.2506227106227106
6.365725974996167,1.0806593406593406,0.2361172161172161,0.2506227106227106
6.365901623001264,1.0806593406593406,0.2361172161172161,0.2506227106227106
6.370491850997496,1.0806593406593406,0.2361172161172161,0.2506227106227106
6.370739954996679,1.0806593406593406,0.2361172161172161,0.2506227106227106
6.376345102995401,1.0806593406593406,0.2361172161172161,0.2506227106227106
6.376661980997596,1.0806593406593406,0.2361172161172161,0.2506227106227106
6.381786300997192,0.5697435897435897,0.5826373626373627,1.4231501831501832
6.385415537995868,1.3731868131868132,2.1589010989010986,3.3
6.385562028001004,1.3731868131868132,2.1589010989010986,3.3
6.390024158994493,1.3731868131868132,2.1589010989010986,3.3
6.390989260995411,1.3731868131868132,2.1589010989010986,3.3
6.391919561996474,1.3731868131868132,2.1589010989010986,3.3
6.39286813599756,1.3731868131868132,2.1589010989010986,3.3
6.394412026995269,1.3731868131868132,2.1589010989010986,3.3
6.398888449999504,1.3731868131868132,2.1589010989010986,3.3
6.3992147620010655,1.3731868131868132,2.1589010989010986,3.3
6.403795250997064,1.3731868131868132,2.1589010989010986,3.3
6.4040530049969675,1.3731868131868132,2.1589010989010986,3.3
6.409380584998871,1.3731868131868132,2.1589010989010986,3.3
6.411855276994174,1.3731868131868132,2.1589010989010986,3.3
6.417018580999866,1.3731868131868132,2.1589010989010986,3.3
6.420529962997534,0.7849084249084248,0.5713553113553113,1.1999267399267397
6.420759052998619,1.4553846153846153,1.0065201465201465,2.3934065934065933
6.4255484039968,1.4553846153846153,1.0065201465201465,2.3934065934065933
6.425764491999871,1.4553846153846153,1.0065201465201465,2.3934065934065933
6.430582194996532,1.4553846153846153,1.0065201465201465,2.3934065934065933
6.435417175998737,0.909010989010989,1.2821245421245422,3.0066666666666664
6.435554859999684,0.909010989010989,1.2821245421245422,3.0066666666666664
6.440334417995473,0.909010989010989,1.2821245421245422,3.0066666666666664
6.445174694999878,0.909010989010989,1.2821245421245422,3.0066666666666664
6.445430054998724,0.909010989010989,1.2821245421245422,3.0066666666666664
6.4500951189984335,0.909010989010989,1.2821245421245422,3.0066666666666664
6.4502847679978,0.9259340659340659,0.3457142857142857,0.9235164835164835
6.455109012000321,0.6898168498168498,0.17245421245421244,0.20065934065934066
6.4553050129979965,0.6898168498168498,0.17245421245421244,0.20065934065934066
6.460007335001137,0.6898168498168498,0.17245421245421244,0.20065934065934066
6.460255173995392,0.6898168498168498,0.17245421245421244,0.20065934065934066
6.465077987995755,0.6898168498168498,0.17245421245421244,0.20065934065934066
6.465191680996213,0.6898168498168498,0.17245421245421244,0.20065934065934066
6.470039609994274,0.6898168498168498,0.17245421245421244,0.20065934065934066
6.470139849996485,0.6898168498168498,0.17245421245421244,0.20065934065934066
6.475514494995878,0.6898168498168498,0.17245421245421244,0.20065934065934066
6.47779348900076,0.6898168498168498,0.17245421245421244,0.20065934065934066
6.478152799994859,0.6898168498168498,0.17245421245421244,0.20065934065934066
6.483277244995406,0.6898168498168498,0.17245421245421244,0.20065934065934066
6.487014553000336,0.6898168498168498,0.17245421245421244,0.20065934065934066
6.487147114996333,0.6898168498168498,0.17245421245421244,0.20065934065934066
6.4923029450001195,0.6898168498168498,0.17245421245421244,0.20065934065934066
6.495799184995121,0.6898168498168498,0.17245421245421244,0.20065934065934066
6.49614072899567,0.6898168498168498,0.17245421245421244,0.20065934065934066
6.500973293994321,0.6898168498168498,0.17245421245421244,0.20065934065934066
6.501154701996711,0.6898168498168498,0.17245421245421244,0.20065934065934066
6.505930455998168,0.6898168498168498,0.17245421245421244,0.20065934065934066
6.506140243996924,0.6898168498168498,0.17245421245421244,0.20065934065934066
6.510878036999202,0.6898168498168498,0.17245421245421244,0.20065934065934066
6.511044667997339,1.4884249084249084,0.2224175824175824,0.2602930402930403
6.5158852729946375,1.4884249084249084,0.2224175824175824,0.2602930402930403
6.520666664997407,1.4884249084249084,0.2224175824175824,0.2602930402930403
6.520944695999788,0.6632234432234432,0.5342857142857143,1.2780952380952382
6.5256591859943,0.6632234432234432,0.5342857142857143,1.2780952380952382
6.52645250599744,0.6632234432234432,0.5342857142857143,1.2780952380952382
6.528501509994385,0.6632234432234432,0.5342857142857143,1.2780952380952382
6.529894373001298,0.6632234432234432,0.5342857142857143,1.2780952380952382
6.534679405995121,0.6632234432234432,0.5342857142857143,1.2780952380952382
6.534824103000574,0.6632234432234432,0.5342857142857143,1.2780952380952382
6.53960764400108,0.6632234432234432,0.5342857142857143,1.2780952380952382
6.539872225999716,0.6632234432234432,0.5342857142857143,1.2780952380952382
6.54465410499688,0.6632234432234432,0.5342857142857143,1.2780952380952382
6.544851318998553,2.3587545787545787,1.9147252747252748,2.4981684981684977
6.549504374997923,2.3587545787545787,1.9147252747252748,2.4981684981684977
6.549719197995728,2.3587545787545787,1.9147252747252748,2.4981684981684977
6.554343022995454,2.3587545787545787,1.9147252747252748,2.4981684981684977
6.554611364001175,2.3587545787545787,1.9147252747252748,2.4981684981684977
6.559312553996278,2.3587545787545787,1.9147252747252748,2.4981684981684977
6.5646979230004945,1.5867399267399267,1.8164102564102564,3.3
6.5669547159996,1.5867399267399267,1.8164102564102564,3.3
6.567251569998916,1.5867399267399267,1.8164102564102564,3.3
6.571670157994959,1.5867399267399267,1.8164102564102564,3.3
6.572536626998044,1.5867399267399267,1.8164102564102564,3.3
6.574146471000859,1.5867399267399267,1.8164102564102564,3.3
6.57797463699535,1.5867399267399267,1.8164102564102564,3.3
6.581916401999479,1.5867399267399267,1.8164102564102564,3.3
6.585868860995106,1.5867399267399267,1.8164102564102564,3.3
6.589501440001186,1.5867399267399267,1.8164102564102564,3.3
6.594328448998567,1.5867399267399267,1.8164102564102564,3.3
6.594431475998135,1.5867399267399267,1.8164102564102564,3.3
6.59917593299906,1.5867399267399267,1.8164102564102564,3.3
6.599431119997462,2.655311355311355,2.2394871794871793,2.635970695970696
6.604233256999578,2.655311355311355,2.2394871794871793,2.635970695970696
6.604401231998054,2.655311355311355,2.2394871794871793,2.635970695970696
6.608567809998931,2.655311355311355,2.2394871794871793,2.635970695970696
6.611325426994881,2.655311355311355,2.2394871794871793,2.635970695970696
6.614938594000705,2.655311355311355,2.2394871794871793,2.635970695970696
