time,emg1,emg2,emg3
0.002333500000531785,0.7953846153846154,0.0,3.0936996336996336
0.033966416005569045,0.43113553113553116,0.0,3.3
0.03433557000244036,0.43113553113553116,0.0,3.3
0.044105372006015386,0.43113553113553116,0.0,3.3
0.051784556002530735,0.5697435897435897,0.0,3.3
0.05700392000289867,0.5697435897435897,0.0,3.3
0.059740056000009645,0.5697435897435897,0.0,3.3
0.06417700000019977,0.46014652014652013,0.0,3.3
0.06514979799976572,0.46014652014652013,0.0,3.3
0.06547038500139024,0.46014652014652013,0.0,3.3
0.07166280400269898,0.46014652014652013,0.0,3.3
0.0759725910029374,0.7615384615384615,0.0,3.3
0.07699352500640089,0.39406593406593404,0.0,2.5384615384615383
0.07793449100427097,0.39406593406593404,0.0,2.5384615384615383
0.0789557340031024,0.39406593406593404,0.0,2.5384615384615383
0.07991270800266648,0.39406593406593404,0.0,2.5384615384615383
0.08090363500377862,0.39406593406593404,0.0,2.5384615384615383
0.08185385400429368,0.39406593406593404,0.0,2.5384615384615383
0.08284193600411527,0.39406593406593404,0.0,2.5384615384615383
0.08384527800080832,0.39406593406593404,0.0,2.5384615384615383
0.08484369600046193,0.1652014652014652,0.0,0.3908424908424908
0.0858485999997356,0.1652014652014652,0.0,0.3908424908424908
0.08675307200610405,0.1652014652014652,0.0,0.3908424908424908
0.0884736950029037,0.1652014652014652,0.0,0.3908424908424908
0.09204549400601536,0.1652014652014652,0.0,0.3908424908424908
0.09833912600151962,0.27318681318681315,0.0,0.8945054945054944
0.10243097500642762,0.27318681318681315,0.0,0.8945054945054944
0.10570558600011282,0.8405128205128204,0.0,2.916410256410256
0.10733285100286594,0.8405128205128204,0.0,2.916410256410256
0.11044715400203131,0.8405128205128204,0.0,2.916410256410256
0.1128310420026537,0.8405128205128204,0.0,2.916410256410256
0.11302015800174559,0.8405128205128204,0.0,2.916410256410256
0.11827410800469806,0.8405128205128204,0.0,2.916410256410256
0.12125462800031528,0.8405128205128204,0.0,2.916410256410256
0.12424772100348491,0.8405128205128204,0.0,2.916410256410256
0.12727019400335848,0.8405128205128204,0.0,2.916410256410256
0.12966447500366485,0.8405128205128204,0.0,2.916410256410256
0.12997141100640874,0.8405128205128204,0.0,2.916410256410256
0.1354048160064849,0.8405128205128204,0.0,2.916410256410256
0.1369746800046414,0.7244688644688644,0.0,3.3
0.1416400970047107,0.7244688644688644,0.0,3.3
0.14186760799930198,0.7244688644688644,0.0,3.3
0.15119037300610216,0.7244688644688644,0.0,3.3
0.1557264680013759,0.7244688644688644,0.0,3.3
0.15658843900018837,0.7244688644688644,0.0,3.3
0.15816611600166652,0.7244688644688644,0.0,3.3
0.16264663100446342,0.7244688644688644,0.0,3.3
0.16419444600614952,0.7244688644688644,0.0,3.3
0.16796333000093,0.7244688644688644,0.0,3.3
0.17343558400170878,0.7244688644688644,0.0,3.3
0.17495870200218633,0.7244688644688644,0.0,3.3
0.17951041800552048,0.7357509157509158,0.0,3.17992673992674
0.17973184900620254,0.7357509157509158,0.0,3.17992673992674
0.18496106100064935,0.7357509157509158,0.0,3.17992673992674
0.18726083700312302,0.7357509157509158,0.0,3.17992673992674
0.18752818500070134,0.7357509157509158,0.0,3.17992673992674
0.19279954100056784,0.7357509157509158,0.0,3.17992673992674
0.19619157900160644,0.7357509157509158,0.0,3.17992673992674
0.19647268400149187,0.7357509157509158,0.0,3.17992673992674
0.20187190400611144,0.7357509157509158,0.0,3.17992673992674
0.20348268700035987,0.7357509157509158,0.0,3.17992673992674
0.20921772500150837,0.42630036630036633,0.0,0.4512820512820513
0.2094534170028055,1.851062271062271,0.0,2.5747252747252745
0.21546128000045428,1.851062271062271,0.0,2.5747252747252745
0.223900348006282,0.13296703296703297,0.0,2.0114285714285716
0.22798933100420982,1.4223443223443224,0.0,2.5424908424908423
0.23093049700401025,1.4223443223443224,0.0,2.5424908424908423
0.23410254400369013,1.4223443223443224,0.0,2.5424908424908423
0.23608894900098676,1.4223443223443224,0.0,2.5424908424908423
0.2387502210040111,1.4223443223443224,0.0,2.5424908424908423
0.2427615449996665,1.4223443223443224,0.0,2.5424908424908423
0.24594581500423374,1.4223443223443224,0.0,2.5424908424908423
0.247588470003393,1.4223443223443224,0.0,2.5424908424908423
0.2514997920006863,1.4223443223443224,0.0,2.5424908424908423
0.25718576900544576,1.4223443223443224,0.0,2.5424908424908423
0.25742820400046185,1.4223443223443224,0.0,2.5424908424908423
0.2627441170043312,1.4223443223443224,0.0,2.5424908424908423
0.2657350360022974,1.4223443223443224,0.0,2.5424908424908423
0.26880716700543417,1.4223443223443224,0.0,2.5424908424908423
0.2712953430018388,1.4223443223443224,0.0,2.5424908424908423
0.2783675120008411,1.4223443223443224,0.0,2.5424908424908423
0.2822119520060369,1.3498168498168497,0.0,2.5561904761904763
0.28731338000216056,1.3498168498168497,0.0,2.5561904761904763
0.291358170004969,1.3498168498168497,0.0,2.5561904761904763
0.2937417680004728,1.6399267399267399,0.0,2.5642490842490844
0.2940071710036136,1.6399267399267399,0.0,2.5642490842490844
0.29962395199981984,1.6399267399267399,0.0,2.5642490842490844
0.29984369900193997,1.3224175824175823,0.0,2.5594139194139194
0.306903806005721,1.3224175824175823,0.0,2.5594139194139194
0.31101145000138786,1.3224175824175823,0.0,2.5594139194139194
0.3141178950027097,1.3224175824175823,0.0,2.5594139194139194
0.31653933400230017,1.3224175824175823,0.0,2.5594139194139194
0.3166970530000981,1.3224175824175823,0.0,2.5594139194139194
0.325070864004374,1.3224175824175823,0.0,2.5594139194139194
0.33218672200018773,1.3224175824175823,0.0,2.5594139194139194
0.3374442960048327,1.3224175824175823,0.0,2.5594139194139194
0.3409047420063871,1.3224175824175823,0.0,2.5594139194139194
0.34659862400440034,1.3224175824175823,0.0,2.5594139194139194
0.3474147050001193,0.4794871794871795,0.0,0.689010989010989
0.3489622380002402,0.4794871794871795,0.0,0.689010989010989
0.3551392330045928,0.4794871794871795,0.0,0.689010989010989
0.35934816200460773,2.4312820512820514,0.0,2.541684981684982
0.36119007100205636,1.4674725274725273,0.0,2.5626373626373624
0.3636268720001681,1.4674725274725273,0.0,2.5626373626373624
0.36376853700494394,1.4674725274725273,0.0,2.5626373626373624
0.36938878200453473,1.4674725274725273,0.0,2.5626373626373624
0.37105996400350705,1.4674725274725273,0.0,2.5626373626373624
0.3746492540012696,1.4674725274725273,0.0,2.5626373626373624
0.38047637400450185,1.0597069597069597,0.0,3.3
0.3806311389998882,1.0597069597069597,0.0,3.3
0.3866052209996269,1.0597069597069597,0.0,3.3
0.3868631420045858,1.0597069597069597,0.0,3.3
0.39084828100021696,1.0597069597069597,0.0,3.3
0.3943171950013493,1.0597069597069597,0.0,3.3
0.39459079100197414,1.0597069597069597,0.0,3.3
0.3994962150027277,1.0597069597069597,0.0,3.3
0.40623127900471445,1.0597069597069597,0.0,3.3
0.4120942900044611,1.0597069597069597,0.0,3.3
0.4207856930006528,1.0597069597069597,0.0,3.3
0.42794810100167524,1.0597069597069597,0.0,3.3
0.43501720300264424,1.8075457875457877,0.0,2.552967032967033
0.44082910400175024,1.8075457875457877,0.0,2.552967032967033
0.44653884000581456,1.696336996336996,0.0,2.54974358974359
0.44737598999927286,0.2506227106227106,0.0,0.3755311355311355
0.4484090610058047,0.2506227106227106,0.0,0.3755311355311355
0.44927943700167816,0.2506227106227106,0.0,0.3755311355311355
0.4502124560021912,0.2506227106227106,0.0,0.3755311355311355
0.45178600100189215,0.2506227106227106,0.0,0.3755311355311355
0.4593690530018648,0.2506227106227106,0.0,0.3755311355311355
0.46345481800381094,1.1435164835164835,0.0,2.5465201465201464
0.4659934420051286,1.1435164835164835,0.0,2.5465201465201464
0.4661613580028643,1.1435164835164835,0.0,2.5465201465201464
0.47229157500260044,1.1435164835164835,0.0,2.5465201465201464
0.4767562650013133,1.1435164835164835,0.0,2.5465201465201464
0.47773495000001276,1.1435164835164835,0.0,2.5465201465201464
0.47874015200068243,1.1435164835164835,0.0,2.5465201465201464
0.47969111900602,1.1435164835164835,0.0,2.5465201465201464
0.48143133100529667,1.1435164835164835,0.0,2.5465201465201464
0.48414979000517633,1.1435164835164835,0.0,2.5465201465201464
0.4923631000056048,1.1435164835164835,0.0,2.5465201465201464
0.4992705480035511,1.1435164835164835,0.0,2.5465201465201464
0.5047436660024687,1.1435164835164835,0.0,2.5465201465201464
0.5050312280000071,1.1435164835164835,0.0,2.5465201465201464
0.5110530330057372,1.1435164835164835,0.0,2.5465201465201464
0.5158136200043373,1.1435164835164835,0.0,2.5465201465201464
0.523773502005497,1.3385347985347984,0.0,2.5553846153846154
0.5278315920004388,1.3385347985347984,0.0,2.5553846153846154
0.5317239140058518,1.5496703296703296,0.0,3.3
0.5374018140064436,1.5496703296703296,0.0,3.3
0.5376433480050764,1.432014652014652,0.0,2.5553846153846154
0.5471073570006411,1.432014652014652,0.0,2.5553846153846154
0.5559861050060135,1.432014652014652,0.0,2.5553846153846154
0.5603267520054942,0.24095238095238095,0.0,2.3603663003663002
0.5612737890041899,0.8856410256410255,0.0,2.556996336996337
0.5630096140012029,0.8856410256410255,0.0,2.556996336996337
0.5654739670062554,0.8856410256410255,0.0,2.556996336996337
0.5656155860051513,0.17809523809523808,0.0,0.9283516483516483
0.5726161030033836,0.17809523809523808,0.0,0.9283516483516483
0.5769584820009186,0.17809523809523808,0.0,0.9283516483516483
0.5778589360052138,1.4432967032967032,0.0,2.5432967032967033
0.5795207010014565,1.4432967032967032,0.0,2.5432967032967033
0.5833582270061015,1.4287912087912087,0.0,2.5594139194139194
0.5892918320023455,1.4287912087912087,0.0,2.5594139194139194
0.5944124000016018,1.4287912087912087,0.0,2.5594139194139194
0.5983168590028072,1.4287912087912087,0.0,2.5594139194139194
0.6024000410034205,1.6415384615384614,0.0,2.5634432234432234
0.6097281350012054,1.6415384615384614,0.0,2.5634432234432234
0.6134785050016944,1.6415384615384614,0.0,2.5634432234432234
0.6179741810046835,1.6415384615384614,0.0,2.5634432234432234
0.6182894480007235,1.6415384615384614,0.0,2.5634432234432234
0.6260970319999615,1.6415384615384614,0.0,2.5634432234432234
0.630055669003923,1.6415384615384614,0.0,2.5634432234432234
0.6338911769998958,1.6415384615384614,0.0,2.5634432234432234
0.6419431150061428,1.6415384615384614,0.0,2.5634432234432234
0.645760623003298,1.6415384615384614,0.0,2.5634432234432234
0.6502752100059297,1.6415384615384614,0.0,2.5634432234432234
0.6506276330037508,1.6415384615384614,0.0,2.5634432234432234
0.657907653003349,1.6415384615384614,0.0,2.5634432234432234
0.6622758600060479,1.6415384615384614,0.0,2.5634432234432234
0.6638242789995275,1.6415384615384614,0.0,2.5634432234432234
0.6685963830022956,1.6415384615384614,0.0,2.5634432234432234
0.6771667070061085,1.6415384615384614,0.0,2.5634432234432234
0.682592305005528,1.6415384615384614,0.0,2.5634432234432234
0.6849176160030765,1.5996336996336995,0.0,2.561025641025641
0.6851722240025993,0.2957509157509157,0.0,0.22805860805860806
0.6929612830062979,0.2957509157509157,0.0,0.22805860805860806
0.6978872770050657,0.2957509157509157,0.0,0.22805860805860806
0.701830231002532,0.2957509157509157,0.0,0.22805860805860806
0.7082585210009711,1.4271794871794872,0.0,2.5594139194139194
0.7122192450042348,1.4271794871794872,0.0,2.5594139194139194
0.7161315600023954,1.4271794871794872,0.0,2.5594139194139194
0.721180953005387,1.4271794871794872,0.0,2.5594139194139194
0.7283755600001314,1.041978021978022,0.0,2.5561904761904763
0.7327707860022201,2.3716483516483513,0.0,2.5602197802197804
0.7335985960016842,2.3716483516483513,0.0,2.5602197802197804
0.7355075480008963,2.3716483516483513,0.0,2.5602197802197804
0.7392809360026149,2.3716483516483513,0.0,2.5602197802197804
0.7443520400047419,1.7495238095238095,0.0,2.5594139194139194
0.7467296760005411,0.48754578754578753,0.0,0.6511355311355311
0.7469239070051117,0.48754578754578753,0.0,0.6511355311355311
0.7537502730046981,0.48754578754578753,0.0,0.6511355311355311
0.7574914300057571,0.6390476190476191,0.0,0.33604395604395604
0.762107371003367,0.6390476190476191,0.0,0.33604395604395604
0.762269846003619,1.6753846153846153,0.0,2.5602197802197804
0.7668370890023652,1.6753846153846153,0.0,2.5602197802197804
0.7671267990008346,1.6753846153846153,0.0,2.5602197802197804
0.7741106880057487,3.1356043956043953,0.0,2.56989010989011
0.7780435349995969,2.739120879120879,0.0,3.3
0.7837653900060104,2.739120879120879,0.0,3.3
0.7929502610058989,2.739120879120879,0.0,3.3
0.7996943870020914,2.739120879120879,0.0,3.3
0.8069185600033961,2.739120879120879,0.0,3.3
0.8122743100029766,0.8646886446886447,0.0,1.2853479853479852
0.8131272220052779,0.8646886446886447,0.0,1.2853479853479852
0.8140729650040157,0.8646886446886447,0.0,1.2853479853479852
0.8157123560013133,1.1515750915750915,0.0,2.2846153846153845
0.820148129001609,1.1515750915750915,0.0,2.2846153846153845
0.8204606780054746,1.1515750915750915,0.0,2.2846153846153845
0.827110119003919,1.1515750915750915,0.0,2.2846153846153845
0.8323680920002516,1.1515750915750915,0.0,2.2846153846153845
0.8327508950023912,1.1515750915750915,0.0,2.2846153846153845
0.8421625260016299,1.1515750915750915,0.0,2.2846153846153845
0.8469661980052479,1.1515750915750915,0.0,2.2846153846153845
0.8470605520051322,1.1515750915750915,0.0,2.2846153846153845
0.8524066480022157,1.1515750915750915,0.0,2.2846153846153845
0.8560263630060945,2.1830769230769227,0.0,2.552967032967033
0.8608789130012156,2.1830769230769227,0.0,2.552967032967033
0.8609754429999157,2.1830769230769227,0.0,2.552967032967033
0.8663508280005772,2.1830769230769227,0.0,2.552967032967033
0.8687500939995516,2.1830769230769227,0.0,2.552967032967033
0.8689673740009312,2.1830769230769227,0.0,2.552967032967033
0.8774963620016933,2.1830769230769227,0.0,2.552967032967033
0.8839816850013449,2.1830769230769227,0.0,2.552967032967033
0.8921350080054253,2.1830769230769227,0.0,2.552967032967033
0.8974732810020214,2.1830769230769227,0.0,2.552967032967033
0.8984209340051166,1.1322344322344322,0.0,2.9599267399267397
0.8999983550020261,1.6028571428571428,0.0,2.5545787545787544
0.9042581870016875,1.6028571428571428,0.0,2.5545787545787544
0.9076070380033343,1.6028571428571428,0.0,2.5545787545787544
0.9078878860018449,1.6028571428571428,0.0,2.5545787545787544
0.9127634480028064,1.6028571428571428,0.0,2.5545787545787544
0.9182793040017714,1.6028571428571428,0.0,2.5545787545787544
0.9218089370042435,1.6028571428571428,0.0,2.5545787545787544
0.9280200650027837,1.6028571428571428,0.0,2.5545787545787544
0.932045701003517,1.6028571428571428,0.0,2.5545787545787544
0.9352861840015976,0.43435897435897436,0.0,0.9557509157509158
0.9377249980025226,0.43435897435897436,0.0,0.9557509157509158
0.9470061150059337,0.43435897435897436,0.0,0.9557509157509158
0.952401781003573,0.43435897435897436,0.0,0.9557509157509158
0.9560836689997814,0.43435897435897436,0.0,0.9557509157509158
0.9603811859997222,0.43435897435897436,0.0,0.9557509157509158
0.9626617009998881,0.43435897435897436,0.0,0.9557509157509158
0.9629368120004074,0.43435897435897436,0.0,0.9557509157509158
0.9675971140022739,0.43435897435897436,0.0,0.9557509157509158
0.9678449790008017,0.43435897435897436,0.0,0.9557509157509158
0.9755131320052897,0.43435897435897436,0.0,0.9557509157509158
0.9801679990050616,0.43435897435897436,0.0,0.9557509157509158
0.9804153580043931,0.43435897435897436,0.0,0.9557509157509158
0.9866540940056439,0.43435897435897436,0.0,0.9557509157509158
0.992739753004571,0.43435897435897436,0.0,0.9557509157509158
0.9959731220005779,2.5134798534798533,0.0,2.56989010989011
0.9975303340033861,2.5134798534798533,0.0,2.56989010989011
1.002090940004564,2.5134798534798533,0.0,2.56989010989011
1.003838345000986,2.5134798534798533,0.0,2.56989010989011
1.0072244809998665,2.5134798534798533,0.0,2.56989010989011
1.0073897969996324,2.382930402930403,0.0,2.573919413919414
1.012032213002385,2.382930402930403,0.0,2.573919413919414
1.0128412170015508,2.382930402930403,0.0,2.573919413919414
1.0145143830013694,2.382930402930403,0.0,2.573919413919414
1.0175253890047316,2.382930402930403,0.0,2.573919413919414
1.020826138999837,2.382930402930403,0.0,2.573919413919414
1.0220445950035355,2.382930402930403,0.0,2.573919413919414
1.0222577410022495,2.382930402930403,0.0,2.573919413919414
1.0269792690014583,2.382930402930403,0.0,2.573919413919414
1.0271253290047753,2.382930402930403,0.0,2.573919413919414
1.0324680760022602,2.382930402930403,0.0,2.573919413919414
1.036267780000344,2.382930402930403,0.0,2.573919413919414
1.0425285460005398,0.8936996336996336,0.0,1.9767765567765565
1.0466562580040772,0.8936996336996336,0.0,1.9767765567765565
1.0490879460048745,0.25223443223443226,0.0,0.25142857142857145
1.055421221004508,0.25223443223443226,0.0,0.25142857142857145
1.05968655700417,0.25223443223443226,0.0,0.25142857142857145
1.0612615470017772,0.25223443223443226,0.0,0.25142857142857145
1.0650229950042558,0.25223443223443226,0.0,0.25142857142857145
1.0726217160045053,0.8888644688644688,0.0,1.3659340659340657
1.0765597589997924,2.041245421245421,0.0,2.569084249084249
1.081022603000747,2.041245421245421,0.0,2.569084249084249
1.0819188460009173,2.041245421245421,0.0,2.569084249084249
1.083522314002039,2.041245421245421,0.0,2.569084249084249
1.0902296400017804,2.041245421245421,0.0,2.569084249084249
1.0952584180049598,2.041245421245421,0.0,2.569084249084249
1.0985244559997227,2.041245421245421,0.0,2.569084249084249
1.1000525530034793,2.041245421245421,0.0,2.569084249084249
1.107218859004206,1.1934798534798534,0.0,2.5634432234432234
1.1125464970027679,0.5697435897435897,0.0,0.7623443223443224
1.1140221850000671,2.278168498168498,0.0,2.5706959706959704
1.1207776370065403,2.278168498168498,0.0,2.5706959706959704
1.126549952001369,2.278168498168498,0.0,2.5706959706959704
1.1318004030035809,0.7792673992673992,0.0,1.4167032967032966
1.1335680070042145,0.7792673992673992,0.0,1.4167032967032966
1.1374390450000647,0.7792673992673992,0.0,1.4167032967032966
1.1415215600063675,0.7792673992673992,0.0,1.4167032967032966
1.144732886001293,1.286959706959707,0.0,2.54974358974359
1.1464257010011352,1.286959706959707,0.0,2.54974358974359
1.1519803940027487,1.286959706959707,0.0,2.54974358974359
1.1522948790006922,1.286959706959707,0.0,2.54974358974359
1.1602459700006875,1.286959706959707,0.0,2.54974358974359
1.164096303000406,1.286959706959707,0.0,2.54974358974359
1.1706678620030289,1.286959706959707,0.0,2.54974358974359
1.1760361330016167,0.09428571428571428,0.0,0.31347985347985347
1.1762012210019748,1.248278388278388,0.0,2.5594139194139194
1.1814861340026255,1.248278388278388,0.0,2.5594139194139194
1.1848397970024962,1.1193406593406594,0.0,2.561831501831502
1.1870075660044677,0.4279120879120879,0.0,0.43597069597069593
1.1871321040016483,0.4279120879120879,0.0,0.43597069597069593
1.1953936610007077,0.4279120879120879,0.0,0.43597069597069593
1.204482827000902,2.0589743589743588,0.0,2.5594139194139194
1.2092658490000758,2.0589743589743588,0.0,2.5594139194139194
1.2094034410038148,1.751135531135531,0.0,2.56989010989011
1.2147905310048372,1.751135531135531,0.0,2.56989010989011
1.2173020430054748,1.751135531135531,0.0,2.56989010989011
1.2228189110028325,1.751135531135531,0.0,2.56989010989011
1.2236945100012235,1.751135531135531,0.0,2.56989010989011
1.2259928769999533,1.751135531135531,0.0,2.56989010989011
1.2262024990050122,1.751135531135531,0.0,2.56989010989011
1.2313884520044667,1.751135531135531,0.0,2.56989010989011
1.2351673640005174,1.751135531135531,0.0,2.56989010989011
1.2407705389996408,1.751135531135531,0.0,2.56989010989011
1.242389502003789,1.751135531135531,0.0,2.56989010989011
1.2462241820030613,1.751135531135531,0.0,2.56989010989011
1.2507734960017842,0.17809523809523808,0.0,0.2909157509157509
1.251682399000856,0.17809523809523808,0.0,0.2909157509157509
1.2532121980038937,0.17809523809523808,0.0,0.2909157509157509
1.2568919340046705,0.17809523809523808,0.0,0.2909157509157509
1.2570096220006235,0.17809523809523808,0.0,0.2909157509157509
1.2628230129994336,0.17809523809523808,0.0,0.2909157509157509
1.2688109000009717,1.6286446886446886,0.0,2.5441025641025643
1.2732370570010971,1.5657875457875456,0.0,2.573919413919414
1.2740434620063752,1.5657875457875456,0.0,2.573919413919414
1.2762813730005291,1.5657875457875456,0.0,2.573919413919414
1.2766202000057092,1.3208058608058608,0.0,2.561025641025641
1.2816250430041691,1.3208058608058608,0.0,2.561025641025641
1.2857587150065228,1.3208058608058608,0.0,2.561025641025641
1.2892697830029647,1.3208058608058608,0.0,2.561025641025641
1.2894989910055301,1.3208058608058608,0.0,2.561025641025641
1.2944724350018078,1.3208058608058608,0.0,2.561025641025641
1.2987297120052972,0.9758974358974358,0.0,3.3
1.301558005005063,0.9758974358974358,0.0,3.3
1.306514732001233,0.9758974358974358,0.0,3.3
1.3118908840042423,0.9758974358974358,0.0,3.3
1.312855774005584,2.0573626373626372,0.0,2.5706959706959704
1.3138067969994154,2.0573626373626372,0.0,2.5706959706959704
1.3147904569996172,2.0573626373626372,0.0,2.5706959706959704
1.3157533350022277,2.0573626373626372,0.0,2.5706959706959704
1.3166764820052776,2.0573626373626372,0.0,2.5706959706959704
1.3183708750002552,2.0573626373626372,0.0,2.5706959706959704
1.3215764950000448,2.0573626373626372,0.0,2.5706959706959704
1.3239308250049362,2.0573626373626372,0.0,2.5706959706959704
1.3241079300059937,2.0573626373626372,0.0,2.5706959706959704
1.330010770005174,2.0573626373626372,0.0,2.5706959706959704
1.3352455550048035,2.0573626373626372,0.0,2.5706959706959704
1.3384128290053923,2.0573626373626372,0.0,2.5706959706959704
1.340765986002225,2.0573626373626372,0.0,2.5706959706959704
1.340985772003478,2.0573626373626372,0.0,2.5706959706959704
1.3464936840027804,2.0573626373626372,0.0,2.5706959706959704
1.3482010620064102,2.0573626373626372,0.0,2.5706959706959704
1.3519584330060752,2.0573626373626372,0.0,2.5706959706959704
1.357616223001969,2.0573626373626372,0.0,2.5706959706959704
1.3593055660021491,2.0573626373626372,0.0,2.5706959706959704
1.3624436680038343,2.0573626373626372,0.0,2.5706959706959704
1.3646817300032126,2.0573626373626372,0.0,2.5706959706959704
1.3656591590042808,2.0573626373626372,0.0,2.5706959706959704
1.3664895670008264,2.0573626373626372,0.0,2.5706959706959704
1.368136601005972,1.2353846153846153,0.0,3.3
1.3721353850050946,1.2353846153846153,0.0,3.3
1.3766483690051246,1.2353846153846153,0.0,3.3
1.377483864001988,0.9726739926739927,0.0,2.5424908424908423
1.3791025259997696,0.9726739926739927,0.0,2.5424908424908423
1.3836487820008188,1.216043956043956,0.0,2.565054945054945
1.384488934003457,0.8292307692307692,0.0,1.4158974358974357
1.3862499210008536,0.8292307692307692,0.0,1.4158974358974357
1.389404020002985,0.8292307692307692,0.0,1.4158974358974357
1.3916509820046485,1.8849084249084247,0.0,2.56989010989011
1.3925340190035058,1.9799999999999998,0.0,2.5602197802197804
1.3940860650036484,1.9799999999999998,0.0,2.5602197802197804
1.3986979090041132,1.9799999999999998,0.0,2.5602197802197804
1.3989971400005743,1.9799999999999998,0.0,2.5602197802197804
1.4042938810016494,1.9799999999999998,0.0,2.5602197802197804
1.4074038920007297,1.9799999999999998,0.0,2.5602197802197804
1.4096926990023348,1.9799999999999998,0.0,2.5602197802197804
1.4100225860020146,1.9799999999999998,0.0,2.5602197802197804
1.4153373980007018,1.9799999999999998,0.0,2.5602197802197804
1.4178060090052895,1.9799999999999998,0.0,2.5602197802197804
1.418023689002439,1.9799999999999998,0.0,2.5602197802197804
1.423345294999308,1.9799999999999998,0.0,2.5602197802197804
1.425901940005133,1.9799999999999998,0.0,2.5602197802197804
1.431436492006469,1.9799999999999998,0.0,2.5602197802197804
1.4317370140051935,1.9799999999999998,0.0,2.5602197802197804
1.4369388400009484,1.9799999999999998,0.0,2.5602197802197804
1.4398961280021467,1.9799999999999998,0.0,2.5602197802197804
1.4430661000005784,1.9799999999999998,0.0,2.5602197802197804
1.4446570820000488,1.9799999999999998,0.0,2.5602197802197804
1.4490443260001484,1.9799999999999998,0.0,2.5602197802197804
1.45067716199992,1.9799999999999998,0.0,2.5602197802197804
1.455244617005519,1.9799999999999998,0.0,2.5602197802197804
1.4561070480049239,1.9799999999999998,0.0,2.5602197802197804
1.4576811350052594,1.9799999999999998,0.0,2.5602197802197804
1.4622747950052144,1.9799999999999998,0.0,2.5602197802197804
1.4626206419998198,1.9799999999999998,0.0,2.5602197802197804
1.4681007210019743,1.9799999999999998,0.0,2.5602197802197804
1.469755307000014,1.9799999999999998,0.0,2.5602197802197804
1.4736387110024225,1.6367032967032966,0.0,2.5723076923076924
1.478105524001876,0.689010989010989,0.0,2.436923076923077
1.4796527970029274,0.689010989010989,0.0,2.436923076923077
1.4840855580041534,0.689010989010989,0.0,2.436923076923077
1.4850755869993009,0.689010989010989,0.0,2.436923076923077
1.4866145780033548,0.689010989010989,0.0,2.436923076923077
1.4911540650064126,0.689010989010989,0.0,2.436923076923077
1.4913530090052518,0.689010989010989,0.0,2.436923076923077
1.4968953839997994,0.689010989010989,0.0,2.436923076923077
1.4985727140010567,0.689010989010989,0.0,2.436923076923077
1.502428667001368,0.689010989010989,0.0,2.436923076923077
1.5056531139998697,1.9171428571428573,0.0,2.5465201465201464
1.5079129780060612,0.33926739926739924,0.0,0.39890109890109887
1.5082168170047225,0.33926739926739924,0.0,0.39890109890109887
1.512918811000418,0.33926739926739924,0.0,0.39890109890109887
1.5131025390001014,0.33926739926739924,0.0,0.39890109890109887
1.5187153970036888,0.33926739926739924,0.0,0.39890109890109887
1.5196480300000985,1.2595604395604394,0.0,2.5561904761904763
1.520488688001933,1.2595604395604394,0.0,2.5561904761904763
1.5220988510045572,1.2595604395604394,0.0,2.5561904761904763
1.5267044600041118,1.2595604395604394,0.0,2.5561904761904763
1.5269046090033953,1.232161172161172,0.0,3.3
1.5324268260010285,1.232161172161172,0.0,3.3
1.5341021550048026,2.0815384615384613,0.0,2.5634432234432234
1.5380322670025635,2.0815384615384613,0.0,2.5634432234432234
1.5425634269995498,2.0815384615384613,0.0,2.5634432234432234
1.543388367004809,2.0815384615384613,0.0,2.5634432234432234
1.5449417760028155,2.0815384615384613,0.0,2.5634432234432234
1.5499333800034947,2.0815384615384613,0.0,2.5634432234432234
1.5548385260044597,2.0815384615384613,0.0,2.5634432234432234
1.5597445290040923,2.0815384615384613,0.0,2.5634432234432234
1.559913213000982,2.0815384615384613,0.0,2.5634432234432234
1.5646178259994485,2.0815384615384613,0.0,2.5634432234432234
1.5653716590022668,2.0815384615384613,0.0,2.5634432234432234
1.56692188600573,2.0815384615384613,0.0,2.5634432234432234
1.5710398630035343,2.0815384615384613,0.0,2.5634432234432234
1.5744906890031416,2.0815384615384613,0.0,2.5634432234432234
1.5753291030050605,2.0815384615384613,0.0,2.5634432234432234
1.5768162900058087,2.0815384615384613,0.0,2.5634432234432234
1.5817554610039224,2.0815384615384613,0.0,2.5634432234432234
1.5819088460048079,2.0815384615384613,0.0,2.5634432234432234
1.5865987090001,2.0815384615384613,0.0,2.5634432234432234
1.586888051002461,2.0815384615384613,0.0,2.5634432234432234
1.591623829001037,2.0815384615384613,0.0,2.5634432234432234
1.5919107060035458,2.0815384615384613,0.0,2.5634432234432234
1.596648055005062,2.0815384615384613,0.0,2.5634432234432234
1.5968767090016627,2.0815384615384613,0.0,2.5634432234432234
1.6016078790053143,2.0815384615384613,0.0,2.5634432234432234
1.6019222820032155,2.0815384615384613,0.0,2.5634432234432234
1.6066489790027845,2.0815384615384613,0.0,2.5634432234432234
1.606887343004928,2.0815384615384613,0.0,2.5634432234432234
1.6116239510010928,2.0815384615384613,0.0,2.5634432234432234
1.6119094370005769,2.0815384615384613,0.0,2.5634432234432234
1.6166340890049469,2.0815384615384613,0.0,2.5634432234432234
1.6168839140009368,1.303076923076923,0.0,2.5586080586080584
1.6216320130042732,1.303076923076923,0.0,2.5586080586080584
1.6219146190051106,1.303076923076923,0.0,2.5586080586080584
1.6266002630000003,1.303076923076923,0.0,2.5586080586080584
1.626887935999548,1.303076923076923,0.0,2.5586080586080584
1.6315374510013498,1.303076923076923,0.0,2.5586080586080584
1.6324041610059794,1.303076923076923,0.0,2.5586080586080584
1.6338869530009106,1.303076923076923,0.0,2.5586080586080584
1.6386255710021942,1.303076923076923,0.0,2.5586080586080584
1.638888859000872,1.1580219780219778,0.0,2.552967032967033
1.6435964580014115,1.1580219780219778,0.0,2.552967032967033
1.6439085279998835,0.9082051282051282,0.0,1.2305494505494505
1.6486014160036575,0.9082051282051282,0.0,1.2305494505494505
1.6489079919992946,0.9082051282051282,0.0,1.2305494505494505
1.653691722000076,0.9082051282051282,0.0,1.2305494505494505
1.6538405710016377,0.9082051282051282,0.0,1.2305494505494505
1.6586697480015573,0.9082051282051282,0.0,1.2305494505494505
1.6634137760047452,0.9082051282051282,0.0,1.2305494505494505
1.6636918650037842,1.4997069597069597,0.0,3.3
1.6678232410049532,1.4997069597069597,0.0,3.3
1.671258656999271,1.4997069597069597,0.0,3.3
1.671615049999673,1.4997069597069597,0.0,3.3
1.6763787920062896,1.4997069597069597,0.0,3.3
1.6766136580044986,1.4997069597069597,0.0,3.3
1.681995133003511,1.4997069597069597,0.0,3.3
1.684447955005453,1.4997069597069597,0.0,3.3
1.6846382570001879,1.4997069597069597,0.0,3.3
1.6899719970024307,1.4997069597069597,0.0,3.3
1.6924919480006793,1.4997069597069597,0.0,3.3
1.6926191930033383,1.4997069597069597,0.0,3.3
1.6978000689996406,1.4997069597069597,0.0,3.3
1.7009936190006556,1.4997069597069597,0.0,3.3
1.7025627360053477,1.4997069597069597,0.0,3.3
1.7071281660028035,1.4997069597069597,0.0,3.3
1.70799594699929,1.4997069597069597,0.0,3.3
1.7096639450028306,1.4997069597069597,0.0,3.3
1.7135939560030238,1.4997069597069597,0.0,3.3
1.7182929200062063,1.4997069597069597,0.0,3.3
1.718472977001511,1.145128205128205,0.0,2.544908424908425
1.7232036780042108,1.145128205128205,0.0,2.544908424908425
1.7234475990044302,1.145128205128205,0.0,2.544908424908425
1.7282436960013001,1.145128205128205,0.0,2.544908424908425
1.728483798004163,1.145128205128205,0.0,2.544908424908425
1.7332837620051578,1.145128205128205,0.0,2.544908424908425
1.733420185999421,1.145128205128205,0.0,2.544908424908425
1.738124453004275,1.0693772893772893,0.0,3.3
1.7384141940055997,1.0693772893772893,0.0,3.3
1.7431013980021817,1.0693772893772893,0.0,3.3
1.7434148920001462,0.9146520146520146,0.0,1.0879120879120878
1.748086494000745,0.9146520146520146,0.0,1.0879120879120878
1.748832940000284,0.9146520146520146,0.0,1.0879120879120878
1.7509607220054022,0.9146520146520146,0.0,1.0879120879120878
1.7517894949996844,0.9146520146520146,0.0,1.0879120879120878
1.7541838570032269,0.9146520146520146,0.0,1.0879120879120878
1.7543757160019595,0.9146520146520146,0.0,1.0879120879120878
1.7599809530001949,0.9146520146520146,0.0,1.0879120879120878
1.7608647390006809,1.5641758241758241,0.0,2.5602197802197804
1.7624662350062863,1.5641758241758241,0.0,2.5602197802197804
1.7668891060020542,0.5584615384615385,0.0,0.5657142857142857
1.768594840003061,0.5584615384615385,0.0,0.5657142857142857
1.7717600899995887,0.5584615384615385,0.0,0.5657142857142857
1.7733197940033278,0.1942124542124542,0.0,1.9429304029304029
1.7777417300021625,0.1942124542124542,0.0,1.9429304029304029
1.7786472750012763,0.1942124542124542,0.0,1.9429304029304029
1.7802066830045078,0.1942124542124542,0.0,1.9429304029304029
1.78473658200528,0.1942124542124542,0.0,1.9429304029304029
1.78553961700527,0.1942124542124542,0.0,1.9429304029304029
1.7871453200059477,0.1942124542124542,0.0,1.9429304029304029
1.791033616005734,0.1942124542124542,0.0,1.9429304029304029
1.7961471240050741,2.8583882783882784,0.0,2.56989010989011
1.7996025669999653,1.5254945054945055,0.0,2.5465201465201464
1.800429979004548,1.5254945054945055,0.0,2.5465201465201464
1.801974178000819,1.5254945054945055,0.0,2.5465201465201464
1.8074660700003733,1.5254945054945055,0.0,2.5465201465201464
1.808474349003518,0.4810989010989011,0.0,0.3263736263736263
1.8087706410005921,0.4810989010989011,0.0,0.3263736263736263
1.8139795060051256,0.4810989010989011,0.0,0.3263736263736263
1.816995682005654,0.4810989010989011,0.0,0.3263736263736263
1.8194729690003442,0.4810989010989011,0.0,0.3263736263736263
1.8196608610014664,0.4810989010989011,0.0,0.3263736263736263
1.8249603330041282,0.4810989010989011,0.0,0.3263736263736263
1.8272386040043784,0.4810989010989011,0.0,0.3263736263736263
1.8274730980047025,0.4810989010989011,0.0,0.3263736263736263
1.8326935130025959,0.4810989010989011,0.0,0.3263736263736263
1.8364074950004579,2.6005128205128205,0.0,2.5723076923076924
1.8416422310037888,2.6005128205128205,0.0,2.5723076923076924
1.8453330060001463,2.6005128205128205,0.0,2.5723076923076924
1.8506113149996963,2.6005128205128205,0.0,2.5723076923076924
1.8535857050010236,2.6005128205128205,0.0,2.5723076923076924
1.8566373180001392,2.6005128205128205,0.0,2.5723076923076924
1.8589709170046262,2.6005128205128205,0.0,2.5723076923076924
1.8592485879999003,2.6005128205128205,0.0,2.5723076923076924
1.8644480150032905,2.6005128205128205,0.0,2.5723076923076924
1.8677918899993529,2.6005128205128205,0.0,2.5723076923076924
1.8695146520039998,2.6005128205128205,0.0,2.5723076923076924
1.8726343529997393,2.6005128205128205,0.0,2.5723076923076924
1.874209827001323,2.6005128205128205,0.0,2.5723076923076924
1.8789745240064804,0.8469597069597068,0.0,1.5416117216117216
1.8791158860040014,0.8469597069597068,0.0,1.5416117216117216
1.8836251640022965,0.8469597069597068,0.0,1.5416117216117216
1.884433193001314,0.7051282051282051,0.0,0.8098901098901098
1.8859563610021723,0.7051282051282051,0.0,0.8098901098901098
1.8898807610021322,0.7051282051282051,0.0,0.8098901098901098
1.8936258510002517,2.1991941391941388,0.0,2.5682783882783884
1.8937359240007936,2.1991941391941388,0.0,2.5682783882783884
1.8990740310036927,2.1991941391941388,0.0,2.5682783882783884
1.901327001003665,2.1991941391941388,0.0,2.5682783882783884
1.9016720260042348,2.1991941391941388,0.0,2.5682783882783884
1.9068690970016178,2.1991941391941388,0.0,2.5682783882783884
1.9101377629995113,2.1991941391941388,0.0,2.5682783882783884
1.9117276090037194,2.1991941391941388,0.0,2.5682783882783884
1.9162164450026467,2.1991941391941388,0.0,2.5682783882783884
1.9170538630060037,2.1991941391941388,0.0,2.5682783882783884
1.9186659379993216,2.1991941391941388,0.0,2.5682783882783884
1.9231319500031532,2.1991941391941388,0.0,2.5682783882783884
1.9246661300057895,2.1991941391941388,0.0,2.5682783882783884
1.9290966000044136,2.1991941391941388,0.0,2.5682783882783884
1.9306764130014926,2.1991941391941388,0.0,2.5682783882783884
1.9352146470046137,2.1991941391941388,0.0,2.5682783882783884
1.9359934650055948,2.1991941391941388,0.0,2.5682783882783884
1.9382187360024545,2.1991941391941388,0.0,2.5682783882783884
1.9389859760049148,2.1991941391941388,0.0,2.5682783882783884
1.9411209030004102,2.1991941391941388,0.0,2.5682783882783884
1.9426112420042045,2.1991941391941388,0.0,2.5682783882783884
1.9473448360004113,2.1991941391941388,0.0,2.5682783882783884
1.9474754500042764,2.1991941391941388,0.0,2.5682783882783884
1.9523140029996284,2.1991941391941388,0.0,2.5682783882783884
1.9524269880057545,2.1991941391941388,0.0,2.5682783882783884
1.9577124300049036,2.1991941391941388,0.0,2.5682783882783884
1.9607558250063448,2.1991941391941388,0.0,2.5682783882783884
1.9630999400033033,2.1991941391941388,0.0,2.5682783882783884
1.963223751001351,0.6503296703296703,0.0,0.8936996336996336
1.9683735970029375,0.3876190476190476,0.0,0.39487179487179486
1.971326721002697,0.3876190476190476,0.0,0.39487179487179486
1.9743167440028628,2.6923809523809523,0.0,3.3
1.9773596980012371,0.7518681318681318,0.0,1.4932600732600732
1.980668432006496,0.7518681318681318,0.0,1.4932600732600732
1.9810083090051194,0.7518681318681318,0.0,1.4932600732600732
1.9857622920026188,0.7518681318681318,0.0,1.4932600732600732
1.9858852649995242,0.7534798534798535,0.0,0.9662271062271062
1.991288037999766,0.7534798534798535,0.0,0.9662271062271062
1.9937184450027416,0.7534798534798535,0.0,0.9662271062271062
1.9938568190045771,0.7534798534798535,0.0,0.9662271062271062
1.9992306980057037,0.7534798534798535,0.0,0.9662271062271062
2.0009189570046146,0.7534798534798535,0.0,0.9662271062271062
2.004738719006127,0.7534798534798535,0.0,0.9662271062271062
2.0086577239999315,0.7534798534798535,0.0,0.9662271062271062
2.0132040940006846,0.7534798534798535,0.0,0.9662271062271062
2.0140429090024554,0.7534798534798535,0.0,0.9662271062271062
2.0165403920036624,0.7534798534798535,0.0,0.9662271062271062
2.0211739080041298,0.7534798534798535,0.0,0.9662271062271062
2.02138289600407,0.7534798534798535,0.0,0.9662271062271062
2.0267832380050095,0.9259340659340659,0.0,2.0944322344322344
2.0290942270003143,0.9259340659340659,0.0,2.0944322344322344
2.0293815820041345,0.9259340659340659,0.0,2.0944322344322344
2.034487965000153,0.9259340659340659,0.0,2.0944322344322344
2.0391257320006844,0.9259340659340659,0.0,2.0944322344322344
2.03938151300099,0.9259340659340659,0.0,2.0944322344322344
2.0445415650028735,0.9259340659340659,0.0,2.0944322344322344
2.0486478990060277,0.9259340659340659,0.0,2.0944322344322344
2.05101463200117,0.9259340659340659,0.0,2.0944322344322344
2.056394518003799,0.9259340659340659,0.0,2.0944322344322344
2.0596010240042233,0.630989010989011,0.0,1.9082783882783882
2.061176516006526,0.630989010989011,0.0,1.9082783882783882
2.065108576003695,0.630989010989011,0.0,1.9082783882783882
2.0689393840002595,0.630989010989011,0.0,1.9082783882783882
2.074321903004602,1.2982417582417582,0.0,2.5715018315018314
2.0768163180036936,1.2982417582417582,0.0,2.5715018315018314
2.076981625999906,1.2982417582417582,0.0,2.5715018315018314
2.0826710160035873,0.8292307692307692,0.0,3.3
2.0829899910022505,0.8292307692307692,0.0,3.3
2.0885853729996597,0.8292307692307692,0.0,3.3
2.0901272379996954,0.8292307692307692,0.0,3.3
2.0940276670007734,0.8292307692307692,0.0,3.3
2.0987679140016553,0.2747985347985348,0.0,1.735018315018315
2.09891617300309,0.2747985347985348,0.0,1.735018315018315
2.1037522000042372,0.2747985347985348,0.0,1.735018315018315
2.103840849005792,0.2747985347985348,0.0,1.735018315018315
2.1093138650030596,0.2747985347985348,0.0,1.735018315018315
2.110984537001059,0.2747985347985348,0.0,1.735018315018315
2.114147687003424,0.2747985347985348,0.0,1.735018315018315
2.115050386004441,0.2747985347985348,0.0,1.735018315018315
2.1166564360028133,0.2747985347985348,0.0,1.735018315018315
2.1210990079998737,0.2747985347985348,0.0,1.735018315018315
2.1219997130028787,0.2747985347985348,0.0,1.735018315018315
2.123646121006459,0.2747985347985348,0.0,1.735018315018315
2.1283267550024902,0.2747985347985348,0.0,1.735018315018315
2.1285133710043738,0.2747985347985348,0.0,1.735018315018315
2.133890921002603,0.2747985347985348,0.0,1.735018315018315
2.1355775600022753,0.2747985347985348,0.0,1.735018315018315
2.1394451490050415,0.2747985347985348,0.0,1.735018315018315
2.1434079040045617,0.7228571428571429,0.0,2.5561904761904763
2.1472440650031785,0.5471794871794872,0.0,0.9831501831501831
2.1519824830029393,0.5471794871794872,0.0,0.9831501831501831
2.152177178999409,2.291062271062271,0.0,3.3
2.1577271860005567,2.291062271062271,0.0,3.3
2.1586038890018244,2.291062271062271,0.0,3.3
2.1602048100030515,2.291062271062271,0.0,3.3
2.164683524002612,2.291062271062271,0.0,3.3
2.1662167720060097,2.291062271062271,0.0,3.3
2.169937539001694,2.291062271062271,0.0,3.3
2.1700749170049676,2.291062271062271,0.0,3.3
2.1752394400027697,2.291062271062271,0.0,3.3
2.1781905940006254,2.291062271062271,0.0,3.3
2.180523865004943,2.291062271062271,0.0,3.3
2.1806969240060425,2.291062271062271,0.0,3.3
2.1860069910035236,2.291062271062271,0.0,3.3
2.188434142000915,2.291062271062271,0.0,3.3
2.188533422006003,2.291062271062271,0.0,3.3
2.193783122005698,2.291062271062271,0.0,3.3
2.197116432005714,2.291062271062271,0.0,3.3
2.1974265829994692,2.291062271062271,0.0,3.3
2.2027985509994323,1.1934798534798534,0.0,2.5642490842490844
2.2049114430046757,1.1934798534798534,0.0,2.5642490842490844
2.2063469070053543,1.1934798534798534,0.0,2.5642490842490844
2.211105711001437,1.1934798534798534,0.0,2.5642490842490844
2.211351285004639,2.3845421245421243,0.0,3.3
2.216120643999602,2.3845421245421243,0.0,3.3
2.2162221540056635,2.3845421245421243,0.0,3.3
2.2209482730031596,2.3845421245421243,0.0,3.3
2.221277854005166,2.3845421245421243,0.0,3.3
2.2259523250031634,2.3845421245421243,0.0,3.3
2.2262120920058805,0.06043956043956044,0.0,0.8985347985347985
2.231025563000003,1.3643223443223442,0.0,2.553772893772894
2.231199979003577,1.3643223443223442,0.0,2.553772893772894
2.235965773004864,1.3643223443223442,0.0,2.553772893772894
2.2362171960048727,1.3643223443223442,0.0,2.553772893772894
2.240977601999475,1.3643223443223442,0.0,2.553772893772894
2.2411975350041757,1.3643223443223442,0.0,2.553772893772894
2.2459360560023924,1.3643223443223442,0.0,2.553772893772894
2.246222667999973,1.3643223443223442,0.0,2.553772893772894
2.250969419001194,1.3643223443223442,0.0,2.553772893772894
2.2511901340039913,1.3643223443223442,0.0,2.553772893772894
2.2559294660022715,1.3643223443223442,0.0,2.553772893772894
2.2560752570061595,1.3643223443223442,0.0,2.553772893772894
2.260804529003508,1.3643223443223442,0.0,2.553772893772894
2.2610487430065405,1.3643223443223442,0.0,2.553772893772894
2.2657144230033737,1.3643223443223442,0.0,2.553772893772894
2.265947898005834,1.3643223443223442,0.0,2.553772893772894
2.2711406930029625,1.3643223443223442,0.0,2.553772893772894
2.2750733780048904,1.3643223443223442,0.0,2.553772893772894
2.2797908170032315,0.581025641025641,0.0,2.5634432234432234
2.2799431610037573,0.581025641025641,0.0,2.5634432234432234
2.2853431180046755,0.581025641025641,0.0,2.5634432234432234
2.287726463000581,0.581025641025641,0.0,2.5634432234432234
2.2878446130052907,0.581025641025641,0.0,2.5634432234432234
2.2932192040025257,0.581025641025641,0.0,2.5634432234432234
2.2953787810038193,0.581025641025641,0.0,2.5634432234432234
2.2961537260052864,0.581025641025641,0.0,2.5634432234432234
2.29824414900213,0.581025641025641,0.0,2.5634432234432234
2.2990582850034116,0.581025641025641,0.0,2.5634432234432234
2.3012683330016444,0.581025641025641,0.0,2.5634432234432234
2.3020464410001296,0.581025641025641,0.0,2.5634432234432234
2.3041865039995173,0.581025641025641,0.0,2.5634432234432234
2.3050327170058154,0.581025641025641,0.0,2.5634432234432234
2.3066484720038716,0.581025641025641,0.0,2.5634432234432234
2.3113477410006453,0.581025641025641,0.0,2.5634432234432234
2.311449316999642,0.581025641025641,0.0,2.5634432234432234
2.3168965889999527,0.581025641025641,0.0,2.5634432234432234
2.319380191001983,0.581025641025641,0.0,2.5634432234432234
2.324037509999471,0.581025641025641,0.0,2.5634432234432234
2.3243008800054668,0.581025641025641,0.0,2.5634432234432234
2.329855882002448,0.581025641025641,0.0,2.5634432234432234
2.3308336030022474,0.581025641025641,0.0,2.5634432234432234
2.3316975359994103,1.9799999999999998,0.0,3.3
2.3333513620018493,1.9799999999999998,0.0,3.3
2.336562424003205,0.3167032967032967,0.0,3.3
2.3381464129997767,0.3167032967032967,0.0,3.3
2.342666291006026,0.3167032967032967,0.0,3.3
2.3434804580028867,0.3167032967032967,0.0,3.3
2.3451883849993465,0.3167032967032967,0.0,3.3
2.3491830620041583,0.3167032967032967,0.0,3.3
2.3531780160046765,0.3167032967032967,0.0,3.3
2.3562821590021485,0.3167032967032967,0.0,3.3
2.3579359970026417,0.3167032967032967,0.0,3.3
2.363484547000553,0.3167032967032967,0.0,3.3
2.3637567500045407,0.502051282051282,0.0,2.552967032967033
2.3689940920012305,0.502051282051282,0.0,2.552967032967033
2.3719717460044194,0.502051282051282,0.0,2.552967032967033
2.3743004650023067,0.502051282051282,0.0,2.552967032967033
2.3745063030000892,0.502051282051282,0.0,2.552967032967033
2.379864479000389,0.502051282051282,0.0,2.552967032967033
2.381466923005064,0.3183150183150183,0.0,3.3
2.38589206400502,0.3183150183150183,0.0,3.3
2.3867871350012138,0.3183150183150183,0.0,3.3
2.389178786004777,0.3183150183150183,0.0,3.3
2.389269063001848,0.3183150183150183,0.0,3.3
2.3946786320011597,0.3183150183150183,0.0,3.3
2.3969090989994584,0.32153846153846155,0.0,2.1435897435897435
2.3971724410002935,0.32153846153846155,0.0,2.1435897435897435
2.4025849669997115,0.61003663003663,0.0,2.5465201465201464
2.4048309630015865,0.61003663003663,0.0,2.5465201465201464
2.4050708710055915,0.61003663003663,0.0,2.5465201465201464
2.410355274005269,0.61003663003663,0.0,2.5465201465201464
2.412768196001707,0.61003663003663,0.0,2.5465201465201464
2.412968342003296,0.61003663003663,0.0,2.5465201465201464
2.418310234003002,0.61003663003663,0.0,2.5465201465201464
2.4200137100051506,0.61003663003663,0.0,2.5465201465201464
2.423864105003304,0.61003663003663,0.0,2.5465201465201464
2.4275726780033438,0.61003663003663,0.0,2.5465201465201464
2.4328514610024286,0.61003663003663,0.0,2.5465201465201464
2.435826590000943,0.61003663003663,0.0,2.5465201465201464
2.438839677000942,0.61003663003663,0.0,2.5465201465201464
2.441821897002228,0.61003663003663,0.0,2.5465201465201464
2.4448124120026478,0.61003663003663,0.0,2.5465201465201464
2.4471100390001084,0.36344322344322344,0.0,0.5109157509157509
2.447304705005081,1.0580952380952382,0.0,3.3
2.4524549350026064,1.0580952380952382,0.0,3.3
2.457146984001156,1.0580952380952382,0.0,3.3
2.462947792002524,1.0580952380952382,0.0,3.3
2.4632399570036796,1.0580952380952382,0.0,3.3
2.4687299910001457,1.0580952380952382,0.0,3.3
2.4704330439999467,1.7317948717948717,0.0,2.5706959706959704
2.4736329480001586,2.2878388278388275,0.0,3.3
2.475377880000451,2.2878388278388275,0.0,3.3
2.4785230480047176,2.2878388278388275,0.0,3.3
2.480901717004599,2.2878388278388275,0.0,3.3
2.481096449002507,2.2878388278388275,0.0,3.3
2.486720297005377,2.2878388278388275,0.0,3.3
2.487686141001177,2.2878388278388275,0.0,3.3
2.4885914719998254,2.2878388278388275,0.0,3.3
2.4902211090011406,2.2878388278388275,0.0,3.3
2.494763561000582,2.2878388278388275,0.0,3.3
2.495022440001776,2.2878388278388275,0.0,3.3
2.5003599830015446,2.2878388278388275,0.0,3.3
2.502854409001884,0.5036630036630036,0.0,3.3
2.5029404550004983,0.5036630036630036,0.0,3.3
2.508117014003801,0.5036630036630036,0.0,3.3
2.512042558999383,0.5036630036630036,0.0,3.3
2.515751202001411,0.5036630036630036,0.0,3.3
2.5158532450004714,0.5036630036630036,0.0,3.3
2.5212747800032957,0.5036630036630036,0.0,3.3
2.522097383000073,0.5036630036630036,0.0,3.3
2.5236467880022246,0.5036630036630036,0.0,3.3
2.528117984002165,0.5036630036630036,0.0,3.3
2.5296614860053523,0.5036630036630036,0.0,3.3
2.5342644690026646,0.5036630036630036,0.0,3.3
2.5344711070065387,0.5036630036630036,0.0,3.3
2.5398735359995044,0.5036630036630036,0.0,3.3
2.542171696004516,0.5036630036630036,0.0,3.3
2.5424217820036574,0.5036630036630036,0.0,3.3
2.5476088230061578,0.5036630036630036,0.0,3.3
2.5507373830041615,1.647985347985348,0.0,2.5706959706959704
2.552979944004619,1.5077655677655677,0.0,2.5545787545787544
2.5532808390053106,1.5077655677655677,0.0,2.5545787545787544
2.5586692659999244,1.5077655677655677,0.0,2.5545787545787544
2.5602501169996685,1.5077655677655677,0.0,2.5545787545787544
2.564118337999389,1.5077655677655677,0.0,2.5545787545787544
2.568878128004144,0.45692307692307693,0.0,0.3642490842490842
2.57443935500487,0.010476190476190476,0.0,0.5205860805860806
2.575315653004509,0.010476190476190476,0.0,0.5205860805860806
2.576835678999487,0.010476190476190476,0.0,0.5205860805860806
2.581494101003045,0.5649084249084249,0.0,3.3
2.581618772004731,0.5649084249084249,0.0,3.3
2.587015927005268,0.5649084249084249,0.0,3.3
2.588781710001058,0.5649084249084249,0.0,3.3
2.591829745004361,0.5649084249084249,0.0,3.3
2.5948489910006174,0.5649084249084249,0.0,3.3
2.5972067220063764,0.5649084249084249,0.0,3.3
2.5973764180016587,0.6696703296703297,0.0,2.545714285714286
2.602919713004667,0.6696703296703297,0.0,2.545714285714286
2.6032356700015953,0.7373626373626374,0.0,2.553772893772894
2.6085462820046814,0.7373626373626374,0.0,2.553772893772894
2.6110041420033667,0.7373626373626374,0.0,2.553772893772894
2.611120444002154,0.7373626373626374,0.0,2.553772893772894
2.616510850006307,0.7373626373626374,0.0,2.553772893772894
2.6189006290005636,0.7373626373626374,0.0,2.553772893772894
2.6190432900039013,0.7373626373626374,0.0,2.553772893772894
2.6243519320050837,0.7373626373626374,0.0,2.553772893772894
2.626826361003623,0.7373626373626374,0.0,2.553772893772894
2.632127370001399,0.7373626373626374,0.0,2.553772893772894
2.635211104003247,0.7373626373626374,0.0,2.553772893772894
2.6368005820040707,0.7373626373626374,0.0,2.553772893772894
2.6412960450034006,0.7373626373626374,0.0,2.553772893772894
2.6420887040003436,0.7373626373626374,0.0,2.553772893772894
2.644297862003441,0.7373626373626374,0.0,2.553772893772894
2.645114242004638,0.7373626373626374,0.0,2.553772893772894
2.6467392440026742,0.7373626373626374,0.0,2.553772893772894
2.6505943790034507,0.7373626373626374,0.0,2.553772893772894
2.6554577230053837,0.7373626373626374,0.0,2.553772893772894
2.6610980960031156,0.7373626373626374,0.0,2.553772893772894
2.661427506005566,0.43758241758241756,0.0,2.541684981684982
2.666142353002215,0.43758241758241756,0.0,2.541684981684982
2.6663195810033358,0.43758241758241756,0.0,2.541684981684982
2.6718705340026645,0.43758241758241756,0.0,2.541684981684982
2.6735789090016624,0.43758241758241756,0.0,2.541684981684982
2.676493636005034,0.43758241758241756,0.0,2.541684981684982
2.6795907090054243,0.43758241758241756,0.0,2.541684981684982
2.681904545002908,0.43758241758241756,0.0,2.541684981684982
2.682146080005623,0.43758241758241756,0.0,2.541684981684982
2.68727763100469,0.43758241758241756,0.0,2.541684981684982
2.6910162630010745,0.43758241758241756,0.0,2.541684981684982
2.696259603006183,0.43758241758241756,0.0,2.541684981684982
2.6993454490002478,0.43758241758241756,0.0,2.541684981684982
2.701639138002065,0.13941391941391942,0.0,3.236336996336996
2.7019461700037937,1.2579487179487179,0.0,3.3
2.7070683170022676,1.2579487179487179,0.0,3.3
2.7114951070034294,1.2579487179487179,0.0,3.3
2.71304383000097,1.2579487179487179,0.0,3.3
2.7175235630056704,1.2579487179487179,0.0,3.3
2.718446340004448,1.2579487179487179,0.0,3.3
2.719355240005825,1.2579487179487179,0.0,3.3
2.7210158160014544,1.2579487179487179,0.0,3.3
2.725442697003018,1.2579487179487179,0.0,3.3
2.7263416850037174,1.2579487179487179,0.0,3.3
2.727906692001852,1.2579487179487179,0.0,3.3
2.7324055140052224,1.2579487179487179,0.0,3.3
2.733342204002838,1.1225641025641024,0.0,2.548937728937729
2.734897471003933,1.1225641025641024,0.0,2.548937728937729
2.739307114003168,1.1225641025641024,0.0,2.548937728937729
2.7408787300009863,0.43113553113553116,0.0,2.556996336996337
2.745330235004076,0.43113553113553116,0.0,2.556996336996337
2.7461723330052337,0.13457875457875457,0.0,0.4964102564102564
2.748420026000531,0.13457875457875457,0.0,0.4964102564102564
2.7486626020036056,0.13457875457875457,0.0,0.4964102564102564
2.753860340002575,0.13457875457875457,0.0,0.4964102564102564
2.756153166999866,0.1668131868131868,0.0,1.7043956043956046
2.756425361003494,0.1668131868131868,0.0,1.7043956043956046
2.761580498001422,0.11684981684981684,0.0,3.3
2.765354807001131,1.696336996336996,0.0,2.548937728937729
2.7708232540026074,1.696336996336996,0.0,2.548937728937729
2.7750327970061335,0.4810989010989011,0.0,2.5706959706959704
2.7753044180062716,0.4810989010989011,0.0,2.5706959706959704
2.7831280360042,0.4810989010989011,0.0,2.5706959706959704
2.790171505002945,0.4810989010989011,0.0,2.5706959706959704
2.7946714170029736,0.7276923076923076,0.0,2.565860805860806
2.7963356510008452,0.7276923076923076,0.0,2.565860805860806
2.799566998000955,0.7276923076923076,0.0,2.565860805860806
2.801223894006398,0.7276923076923076,0.0,2.565860805860806
2.8050220720033394,0.7276923076923076,0.0,2.565860805860806
2.8107741310013807,0.0008058608058608059,0.0,0.5520146520146519
2.8109233860013774,0.0008058608058608059,0.0,0.5520146520146519
2.816347363004752,0.0008058608058608059,0.0,0.5520146520146519
2.8173246040023514,0.0008058608058608059,0.0,0.5520146520146519
2.8182262260015705,0.09267399267399268,0.0,3.3
2.819187260000035,0.09267399267399268,0.0,3.3
2.8208211550008855,0.09267399267399268,0.0,3.3
2.824686052001198,0.09267399267399268,0.0,3.3
2.8288604310000665,0.09267399267399268,0.0,3.3
2.8320952610010863,0.09267399267399268,0.0,3.3
2.832904988004884,0.09267399267399268,0.0,3.3
2.834455976000754,0.09267399267399268,0.0,3.3
2.839821897003276,0.09267399267399268,0.0,3.3
2.8419726040010573,0.09267399267399268,0.0,3.3
2.8422952760010958,1.3336996336996336,0.0,3.3
2.8482586900063325,1.3336996336996336,0.0,3.3
2.8571134420053568,1.3336996336996336,0.0,3.3
2.8642059230041923,1.3336996336996336,0.0,3.3
2.871402662000037,1.3336996336996336,0.0,3.3
2.877661160004209,0.29736263736263735,0.0,2.569084249084249
2.8835156120039755,0.18937728937728937,0.0,2.552967032967033
2.892078684999433,0.18937728937728937,0.0,2.552967032967033
2.8995217910050997,0.3602197802197802,0.0,2.5723076923076924
2.906133372001932,0.3602197802197802,0.0,2.5723076923076924
2.910649214005389,0.3602197802197802,0.0,2.5723076923076924
2.9108700340002542,0.61003663003663,0.0,2.56989010989011
2.916494697004964,0.61003663003663,0.0,2.56989010989011
2.9174542800028576,0.61003663003663,0.0,2.56989010989011
2.918975479005894,0.61003663003663,0.0,2.56989010989011
2.9242452969992883,0.61003663003663,0.0,2.56989010989011
2.9251512860064395,0.61003663003663,0.0,2.56989010989011
2.926732116000494,0.61003663003663,0.0,2.56989010989011
2.9318131930049276,0.5858608058608058,0.0,2.569084249084249
2.9364791590051027,0.5858608058608058,0.0,2.569084249084249
2.942502076999517,0.16842490842490843,0.0,3.3
2.9470061480024015,0.5181684981684981,0.0,0.7752380952380952
2.9478132730000652,0.5181684981684981,0.0,0.7752380952380952
2.9494404710058006,0.5181684981684981,0.0,0.7752380952380952
2.953469934000168,0.5181684981684981,0.0,0.7752380952380952
2.9572697960029473,0.16036630036630037,0.0,1.427985347985348
2.9609872270011692,0.16036630036630037,0.0,1.427985347985348
2.9664428870019037,0.16036630036630037,0.0,1.427985347985348
2.9683322760029114,0.16036630036630037,0.0,1.427985347985348
2.97218689500005,0.16036630036630037,0.0,1.427985347985348
2.97667934600031,0.16036630036630037,0.0,1.427985347985348
2.9767863270026282,0.16036630036630037,0.0,1.427985347985348
2.982183022002573,0.16036630036630037,0.0,1.427985347985348
2.9837318710051477,0.16036630036630037,0.0,1.427985347985348
2.992846607005049,0.16036630036630037,0.0,1.427985347985348
2.998822357003519,0.6922344322344323,0.0,2.56989010989011
3.004449954001757,0.5842490842490843,0.0,2.556996336996337
3.0047387260055984,0.5842490842490843,0.0,2.556996336996337
3.0107391609999468,0.5842490842490843,0.0,2.556996336996337
3.0146751230058726,0.03304029304029304,0.0,1.6254212454212453
3.0223009000037564,0.3892307692307692,0.0,3.3
3.0263723640018725,0.6084249084249085,0.0,2.5642490842490844
3.0298566250057775,1.0306959706959706,0.0,2.56989010989011
3.0391478770034155,0.7921611721611721,0.0,2.573113553113553
3.044667414003925,1.6318681318681318,0.0,3.3
3.0455189630010864,0.46014652014652013,0.0,0.3892307692307692
3.0470480840012897,0.46014652014652013,0.0,0.3892307692307692
3.0530441340015386,0.46014652014652013,0.0,0.3892307692307692
3.0602683770048316,2.0444688644688642,0.0,3.3
3.064380733005237,2.0444688644688642,0.0,3.3
3.067264444005559,0.6487179487179486,0.0,1.2684249084249084
3.0714186480036005,0.6487179487179486,0.0,1.2684249084249084
3.073275825001474,0.6487179487179486,0.0,1.2684249084249084
3.076101970000309,0.3231501831501831,0.0,1.66007326007326
3.079437038002652,0.40534798534798533,0.0,2.5465201465201464
3.079828166999505,0.40534798534798533,0.0,2.5465201465201464
3.084914323000703,0.40534798534798533,0.0,2.5465201465201464
3.091151817003265,0.40534798534798533,0.0,2.5465201465201464
3.096037970004545,0.40534798534798533,0.0,2.5465201465201464
3.1008492920009303,0.40534798534798533,0.0,2.5465201465201464
3.101008012003149,0.40534798534798533,0.0,2.5465201465201464
3.1079694620057126,0.40534798534798533,0.0,2.5465201465201464
3.112006191004184,0.40534798534798533,0.0,2.5465201465201464
3.116098984006385,0.24901098901098898,0.0,2.4216117216117214
3.1201869569995324,0.24901098901098898,0.0,2.4216117216117214
3.1229905620057252,0.24901098901098898,0.0,2.4216117216117214
3.1275002530019265,0.24901098901098898,0.0,2.4216117216117214
3.1354107050065068,0.18615384615384614,0.0,0.3465201465201465
3.142684045000351,1.913919413919414,0.0,3.3
3.1471496380036115,0.46336996336996333,0.0,2.5473260073260073
3.148821554001188,0.46336996336996333,0.0,2.5473260073260073
3.154473921000317,0.46336996336996333,0.0,2.5473260073260073
3.1547015880059917,0.46336996336996333,0.0,2.5473260073260073
3.161071027003345,0.46336996336996333,0.0,2.5473260073260073
3.1650068660019315,0.46336996336996333,0.0,2.5473260073260073
3.171592213002441,0.46336996336996333,0.0,2.5473260073260073
3.1769004670059076,0.3263736263736263,0.0,2.9357509157509156
3.1784790490055457,0.3263736263736263,0.0,2.9357509157509156
3.1827731049997965,0.3263736263736263,0.0,2.9357509157509156
3.1835975960057112,0.3263736263736263,0.0,2.9357509157509156
3.186266520002391,0.3263736263736263,0.0,2.9357509157509156
3.1913317770013236,0.3263736263736263,0.0,2.9357509157509156
3.1943909950059606,0.3263736263736263,0.0,2.9357509157509156
3.197311095005716,0.3263736263736263,0.0,2.9357509157509156
3.203271546000906,0.0,0.0,3.3
3.206854674004717,0.1104029304029304,0.0,2.5521611721611723
3.2122088610049104,0.1104029304029304,0.0,2.5521611721611723
3.2138312160022906,0.1104029304029304,0.0,2.5521611721611723
3.2176604790001875,0.1104029304029304,0.0,2.5521611721611723
3.22289368800557,0.1104029304029304,0.0,2.5521611721611723
3.2252235880005173,0.11684981684981684,0.0,2.5553846153846154
3.225366746002692,0.10395604395604395,0.0,0.6946520146520146
3.230563062003057,0.10395604395604395,0.0,0.6946520146520146
3.2363706980031566,0.19743589743589743,0.0,2.5706959706959704
3.2437541830004193,0.03304029304029304,0.0,2.943003663003663
3.248763235002116,0.6583882783882784,0.0,0.7695970695970695
3.2528669940002146,0.6583882783882784,0.0,0.7695970695970695
3.2552208470006008,0.6583882783882784,0.0,0.7695970695970695
3.260716096003307,0.0,0.0,2.545714285714286
3.2623118980045547,0.0,0.0,2.545714285714286
3.2660787490021903,0.0,0.0,2.545714285714286
3.2745087540024542,0.0,0.0,2.545714285714286
3.279416493001918,0.0,0.0,2.545714285714286
3.284857267004554,0.0,0.0,2.545714285714286
3.287524580002355,0.5632967032967032,0.0,0.8558241758241758
3.2921629430056782,0.5632967032967032,0.0,0.8558241758241758
3.2966678610027884,0.1249084249084249,0.0,0.942051282051282
3.297540725005092,0.1249084249084249,0.0,0.942051282051282
3.2992933100031223,0.1249084249084249,0.0,0.942051282051282
3.3041103840005235,0.1249084249084249,0.0,0.942051282051282
3.3092683400027454,0.365054945054945,0.0,0.27802197802197803
3.310861167999974,0.365054945054945,0.0,0.27802197802197803
3.314965707999363,0.365054945054945,0.0,0.27802197802197803
3.319028199999593,0.365054945054945,0.0,0.27802197802197803
3.3229544830028317,0.1797069597069597,0.0,2.552967032967033
3.3254829620054807,0.1797069597069597,0.0,2.552967032967033
3.332684013999824,0.1797069597069597,0.0,2.552967032967033
3.3385416560049634,0.1797069597069597,0.0,2.552967032967033
3.347008299002482,0.1797069597069597,0.0,2.552967032967033
3.3531647990021156,0.4214652014652014,0.0,2.5706959706959704
3.358029979004641,0.052380952380952375,0.0,1.9501831501831501
3.3626018870054395,0.052380952380952375,0.0,1.9501831501831501
3.3627730990046985,0.052380952380952375,0.0,1.9501831501831501
3.3691485340023064,0.052380952380952375,0.0,1.9501831501831501
3.3732369700010167,0.052380952380952375,0.0,1.9501831501831501
3.374897506000707,0.052380952380952375,0.0,1.9501831501831501
3.37803627300309,0.052380952380952375,0.0,1.9501831501831501
3.381185174002894,0.052380952380952375,0.0,1.9501831501831501
3.3820206110030995,0.052380952380952375,0.0,1.9501831501831501
3.3836000010051066,0.052380952380952375,0.0,1.9501831501831501
3.3907999520015437,0.052380952380952375,0.0,1.9501831501831501
3.39506990800146,0.052380952380952375,0.0,1.9501831501831501
3.3973064880046877,0.052380952380952375,0.0,1.9501831501831501
3.3975197590043535,0.052380952380952375,0.0,1.9501831501831501
3.4046996780016343,0.052380952380952375,0.0,1.9501831501831501
3.407982280004944,0.052380952380952375,0.0,1.9501831501831501
3.4088869510014774,0.6664468864468864,0.0,2.569084249084249
3.410415025005932,0.6664468864468864,0.0,2.569084249084249
3.414961447000678,0.6664468864468864,0.0,2.569084249084249
3.4152073320001364,0.6664468864468864,0.0,2.569084249084249
3.4215924570016796,0.6664468864468864,0.0,2.569084249084249
3.4255047110054875,0.6664468864468864,0.0,2.569084249084249
3.429240010002104,0.3537728937728937,0.0,0.3489377289377289
3.429349322002963,0.3537728937728937,0.0,0.3489377289377289
3.4338934030020027,0.3537728937728937,0.0,0.3489377289377289
3.434925749003014,1.551282051282051,0.0,3.3
3.435239846003242,0.09267399267399268,0.0,2.5505494505494504
3.4418384930031607,0.10556776556776555,0.0,2.5465201465201464
3.445713297005568,0.10556776556776555,0.0,2.5465201465201464
3.4504170720028924,0.44402930402930396,0.0,0.2683516483516483
3.450709160999395,0.44402930402930396,0.0,0.2683516483516483
3.4609925680051674,0.44402930402930396,0.0,0.2683516483516483
3.4695676030023606,0.44402930402930396,0.0,0.2683516483516483
3.47566184700554,0.44402930402930396,0.0,0.2683516483516483
3.480887839003117,0.44402930402930396,0.0,0.2683516483516483
3.4824332160060294,0.2345054945054945,0.0,2.5594139194139194
3.489753670000937,0.2345054945054945,0.0,2.5594139194139194
3.493502918005106,0.2345054945054945,0.0,2.5594139194139194
3.4981002130007255,0.2345054945054945,0.0,2.5594139194139194
3.4984002180062816,0.2345054945054945,0.0,2.5594139194139194
3.505518675003259,0.22644688644688646,0.0,2.556996336996337
3.5090962530011893,0.22644688644688646,0.0,2.556996336996337
3.514435749006225,0.5794139194139193,0.0,2.5715018315018314
3.5169094480006606,0.356996336996337,0.0,2.5505494505494504
3.524794353004836,0.356996336996337,0.0,2.5505494505494504
3.5292457500036107,0.356996336996337,0.0,2.5505494505494504
3.5301004920038395,0.356996336996337,0.0,2.5505494505494504
3.5317073130063363,0.356996336996337,0.0,2.5505494505494504
3.538133760004712,0.356996336996337,0.0,2.5505494505494504
3.5417436260031536,0.356996336996337,0.0,2.5505494505494504
3.5418460460059578,0.356996336996337,0.0,2.5505494505494504
3.5473760700042476,0.356996336996337,0.0,2.5505494505494504
3.5482801190009923,0.4698168498168498,0.0,2.56989010989011
3.5498505210052826,0.4698168498168498,0.0,2.56989010989011
3.555857402003312,0.4698168498168498,0.0,2.56989010989011
3.5597060850050184,0.17326007326007326,0.0,2.5561904761904763
3.5642659710065345,0.17326007326007326,0.0,2.5561904761904763
3.564567020999675,0.17326007326007326,0.0,2.5561904761904763
3.571544468002685,0.17326007326007326,0.0,2.5561904761904763
3.576325894006004,0.17326007326007326,0.0,2.5561904761904763
3.5817909090037574,0.17326007326007326,0.0,2.5561904761904763
3.582099649000156,0.6777289377289377,0.0,2.556996336996337
3.589329277005163,0.6777289377289377,0.0,2.556996336996337
3.5946473970034276,0.6777289377289377,0.0,2.556996336996337
3.595980748999864,0.6777289377289377,0.0,2.556996336996337
3.6082512339999084,0.6777289377289377,0.0,2.556996336996337
3.6167416730022524,0.6777289377289377,0.0,2.556996336996337
3.623958288000722,0.6777289377289377,0.0,2.556996336996337
3.6284218600048916,0.6777289377289377,0.0,2.556996336996337
3.6299512810001033,0.6777289377289377,0.0,2.556996336996337
3.6344227100053104,0.6777289377289377,0.0,2.556996336996337
3.635838752001291,0.6777289377289377,0.0,2.556996336996337
3.642181786002766,0.6777289377289377,0.0,2.556996336996337
3.6459830720050377,0.6777289377289377,0.0,2.556996336996337
3.651330318003602,0.20227106227106226,0.0,0.4456410256410256
3.6544093880002038,1.6705494505494505,0.0,2.5481318681318683
3.656088231000467,1.6705494505494505,0.0,2.5481318681318683
3.659913122006401,1.6705494505494505,0.0,2.5481318681318683
3.665514558000723,1.6705494505494505,0.0,2.5481318681318683
3.6664278410025872,1.6705494505494505,0.0,2.5481318681318683
3.6680726790000335,1.6705494505494505,0.0,2.5481318681318683
3.6749043370000436,1.6705494505494505,0.0,2.5481318681318683
3.6779781020013615,1.6705494505494505,0.0,2.5481318681318683
3.6802405350026675,0.307032967032967,0.0,2.5465201465201464
3.6806217940029455,0.307032967032967,0.0,2.5465201465201464
3.6865970460057724,0.307032967032967,0.0,2.5465201465201464
3.693809146003332,0.307032967032967,0.0,2.5465201465201464
3.698559604003094,1.137069597069597,0.0,2.56989010989011
3.698790643000393,1.137069597069597,0.0,2.56989010989011
3.7063419640035136,1.137069597069597,0.0,2.56989010989011
3.7102203510003164,1.137069597069597,0.0,2.56989010989011
3.7149146650044713,1.137069597069597,0.0,2.56989010989011
3.7150986960041337,0.42630036630036633,0.0,2.541684981684982
3.7220263820054242,0.42630036630036633,0.0,2.541684981684982
3.7258571830025176,0.5278388278388277,0.0,2.54974358974359
3.730419929001073,0.5278388278388277,0.0,2.54974358974359
3.730668828000489,0.5278388278388277,0.0,2.54974358974359
3.7367416840061196,0.5278388278388277,0.0,2.54974358974359
3.743466776002606,0.5278388278388277,0.0,2.54974358974359
3.747309905003931,0.5278388278388277,0.0,2.54974358974359
3.7532132900014403,0.5278388278388277,0.0,2.54974358974359
3.7627555660001235,0.5278388278388277,0.0,2.54974358974359
3.7688530200030073,0.5278388278388277,0.0,2.54974358974359
3.774879411001166,0.5278388278388277,0.0,2.54974358974359
3.7793574210008956,0.5278388278388277,0.0,2.54974358974359
3.779668893002963,0.5278388278388277,0.0,2.54974358974359
3.7865868490043795,0.5278388278388277,0.0,2.54974358974359
3.7908120860010968,0.5278388278388277,0.0,2.54974358974359
3.7917731320048915,1.0178021978021978,0.0,2.5586080586080584
3.793383440002799,1.0178021978021978,0.0,2.5586080586080584
3.797265970999433,1.0178021978021978,0.0,2.5586080586080584
3.8028287350025494,0.4810989010989011,0.0,3.3
3.804306378006004,0.630989010989011,0.0,2.552967032967033
3.809532299004786,0.630989010989011,0.0,2.552967032967033
3.812547519002692,0.630989010989011,0.0,2.552967032967033
3.8148580769993714,0.630989010989011,0.0,2.552967032967033
3.8151182220026385,0.630989010989011,0.0,2.552967032967033
3.825104055002157,0.630989010989011,0.0,2.552967032967033
3.8314053320063977,0.630989010989011,0.0,2.552967032967033
3.8375316620004014,0.630989010989011,0.0,2.552967032967033
3.84014815500268,0.630989010989011,0.0,2.552967032967033
3.845418955999776,0.630989010989011,0.0,2.552967032967033
3.848125794000225,0.630989010989011,0.0,2.552967032967033
3.852500051005336,0.630989010989011,0.0,2.552967032967033
3.8536379750003107,0.27318681318681315,0.0,2.028351648351648
3.853896293003345,0.27318681318681315,0.0,2.028351648351648
3.861996794999868,0.27318681318681315,0.0,2.028351648351648
3.8706809940049425,0.44402930402930396,0.0,3.3
3.874672828002076,0.44402930402930396,0.0,3.3
3.8772749199997634,0.44402930402930396,0.0,3.3
3.881984403000388,0.44402930402930396,0.0,3.3
3.882173916004831,0.44402930402930396,0.0,3.3
3.889987882001151,0.44402930402930396,0.0,3.3
3.8937938950039097,0.44402930402930396,0.0,3.3
3.899135881001712,0.44402930402930396,0.0,3.3
3.9008817659996566,0.44402930402930396,0.0,3.3
3.9063062730056117,0.44402930402930396,0.0,3.3
3.906527276005363,0.7131868131868132,0.0,0.8002197802197801
3.9119783160058432,0.7131868131868132,0.0,0.8002197802197801
3.913578072999371,0.7131868131868132,0.0,0.8002197802197801
3.918619458003377,0.7567032967032966,0.0,3.3
3.923965888003295,0.734139194139194,0.0,2.5513553113553114
3.9248266730064643,0.5955311355311355,0.0,2.545714285714286
3.9265326220047427,0.5955311355311355,0.0,2.545714285714286
3.929642180002702,0.5955311355311355,0.0,2.545714285714286
3.9319982480010367,0.5955311355311355,0.0,2.545714285714286
3.9322256760060554,0.2747985347985348,0.0,3.0775824175824176
3.940495106005983,0.2747985347985348,0.0,3.0775824175824176
3.9451740850054193,0.2747985347985348,0.0,3.0775824175824176
3.945299082006386,0.2747985347985348,0.0,3.0775824175824176
3.9511825000008685,0.2747985347985348,0.0,3.0775824175824176
3.9513711130057345,2.1556776556776556,0.0,3.3
3.956915183000092,2.1556776556776556,0.0,3.3
3.9578017570020165,2.1556776556776556,0.0,3.3
3.9593967540058657,2.1556776556776556,0.0,3.3
3.9633567320051952,2.1556776556776556,0.0,3.3
3.9672519500018097,2.1556776556776556,0.0,3.3
3.9737745110032847,2.1556776556776556,0.0,3.3
3.97780376800074,2.1556776556776556,0.0,3.3
3.9810596120005357,2.1556776556776556,0.0,3.3
3.9826852950063767,1.6931135531135528,0.0,2.5473260073260073
3.987285258001066,0.4520879120879121,0.0,0.34813186813186814
3.9937447610063828,0.4520879120879121,0.0,0.34813186813186814
3.9977327119995607,0.26673992673992675,0.0,2.424029304029304
4.006107872002758,0.4585347985347985,0.0,3.3
4.012554854001792,0.7276923076923076,0.0,0.7357509157509158
4.0164288920059334,0.3376556776556776,0.0,0.6253479853479853
4.024929678002081,0.24578754578754577,0.0,3.3
4.031272545005777,0.24578754578754577,0.0,3.3
4.038468907005154,0.24578754578754577,0.0,3.3
4.044376043006196,0.24578754578754577,0.0,3.3
4.047508590003417,0.007252747252747252,0.0,0.7704029304029304
4.050858598006016,0.007252747252747252,0.0,0.7704029304029304
4.051190455000324,0.007252747252747252,0.0,0.7704029304029304
4.057551476005756,0.007252747252747252,0.0,0.7704029304029304
4.061602251000295,0.007252747252747252,0.0,0.7704029304029304
4.064004751002358,0.007252747252747252,0.0,0.7704029304029304
4.064141034003114,0.0,0.0,0.6672527472527472
4.069010554005217,0.0,0.0,0.6672527472527472
4.06920326200634,0.0,0.0,0.6672527472527472
4.074785273005546,0.0,0.0,0.6672527472527472
4.07567506399937,0.0,0.0,0.6672527472527472
4.077257744000235,0.0,0.0,0.6672527472527472
4.081173534003028,0.0,0.0,0.6672527472527472
4.086620400004904,0.0,0.0,0.6672527472527472
4.086890475002292,0.21838827838827837,0.0,0.5616849816849817
4.091870386000664,0.21838827838827837,0.0,0.5616849816849817
4.095756533002714,0.21838827838827837,0.0,0.5616849816849817
4.099599000001035,0.21838827838827837,0.0,0.5616849816849817
4.105136122001568,0.21838827838827837,0.0,0.5616849816849817
4.10541883300175,0.21838827838827837,0.0,0.5616849816849817
4.114024991002225,0.21838827838827837,0.0,0.5616849816849817
4.123506219002593,0.21838827838827837,0.0,0.5616849816849817
4.128559210999811,0.4085714285714286,0.0,2.5505494505494504
4.132301277000806,0.3747252747252747,0.0,2.253186813186813
4.142425553000066,0.3747252747252747,0.0,2.253186813186813
4.150475337002717,0.3747252747252747,0.0,2.253186813186813
4.157393701003457,0.3747252747252747,0.0,2.253186813186813
4.161541228000715,0.21838827838827837,0.0,2.1879120879120877
4.16473459500412,0.5906959706959707,0.0,2.5561904761904763
4.166325319005409,0.5906959706959707,0.0,2.5561904761904763
4.172726684002555,0.5906959706959707,0.0,2.5561904761904763
4.176854139004718,0.5906959706959707,0.0,2.5561904761904763
4.179279077005049,0.5906959706959707,0.0,2.5561904761904763
4.185768445000576,0.5906959706959707,0.0,2.5561904761904763
4.191542614003993,0.5906959706959707,0.0,2.5561904761904763
4.200024757003121,0.2989743589743589,0.0,0.6253479853479853
4.209625473005872,0.2989743589743589,0.0,0.6253479853479853
4.217161133004993,0.1813186813186813,0.0,0.48432234432234433
4.223416469001677,0.1813186813186813,0.0,0.48432234432234433
4.2267616750032175,0.1813186813186813,0.0,0.48432234432234433
4.227661693003029,0.1813186813186813,0.0,0.48432234432234433
4.229258530001971,0.1813186813186813,0.0,0.48432234432234433
4.233170449006138,0.1813186813186813,0.0,0.48432234432234433
4.2403695520042675,0.1813186813186813,0.0,0.48432234432234433
4.244308133005688,0.1813186813186813,0.0,0.48432234432234433
4.24830319800094,0.1813186813186813,0.0,0.48432234432234433
4.251547726002173,0.9887912087912087,0.0,2.569084249084249
4.254066588000569,2.02996336996337,0.0,3.3
4.262126776004152,2.02996336996337,0.0,3.3
4.268715296006121,2.02996336996337,0.0,3.3
4.274189114999899,1.1757509157509156,0.0,2.5594139194139194
4.2743931990044075,1.1757509157509156,0.0,2.5594139194139194
4.281523490004474,1.1757509157509156,0.0,2.5594139194139194
4.2899935280001955,1.1757509157509156,0.0,2.5594139194139194
4.296902872003557,1.1757509157509156,0.0,2.5594139194139194
4.303248875003192,1.1757509157509156,0.0,2.5594139194139194
4.308566678002535,0.788937728937729,0.0,2.5594139194139194
4.309459610005433,0.788937728937729,0.0,2.5594139194139194
4.311171039000328,0.788937728937729,0.0,2.5594139194139194
4.314871669004788,0.788937728937729,0.0,2.5594139194139194
4.323117258005368,0.5068864468864469,0.0,2.4997802197802197
4.327642101001402,0.47465201465201456,0.0,3.3
4.328536839006119,0.971062271062271,0.0,2.5432967032967033
4.330139226003666,0.971062271062271,0.0,2.5432967032967033
4.334934518003138,0.971062271062271,0.0,2.5432967032967033
4.3353178550023586,0.971062271062271,0.0,2.5432967032967033
4.340825365005003,0.61003663003663,0.0,2.5465201465201464
4.340948573000787,1.5657875457875456,0.0,2.5465201465201464
4.346280919002311,1.5657875457875456,0.0,2.5465201465201464
4.34995099700609,1.5657875457875456,0.0,2.5465201465201464
4.358506347001821,2.3974358974358974,0.0,2.537655677655678
4.364314417005517,2.3974358974358974,0.0,2.537655677655678
4.3645152669996605,2.3974358974358974,0.0,2.537655677655678
4.37201833200379,2.3974358974358974,0.0,2.537655677655678
4.3760277350011165,2.3974358974358974,0.0,2.537655677655678
4.37973612100177,2.3974358974358974,0.0,2.537655677655678
4.379922233005345,2.3974358974358974,0.0,2.537655677655678
4.38539705400035,2.3974358974358974,0.0,2.537655677655678
4.3872767930006376,2.3974358974358974,0.0,2.537655677655678
4.3903593930008356,1.087106227106227,0.0,2.548937728937729
4.392981413002417,1.087106227106227,0.0,2.548937728937729
4.397489863004012,0.4085714285714286,0.0,1.4715018315018316
4.398495127003116,0.4085714285714286,0.0,1.4715018315018316
4.398778358001437,0.4085714285714286,0.0,1.4715018315018316
4.406407352005772,0.4085714285714286,0.0,1.4715018315018316
4.410969308002677,0.4085714285714286,0.0,1.4715018315018316
4.411889646005875,1.2563369963369961,0.0,2.5674725274725274
4.4137916710024,1.2563369963369961,0.0,2.5674725274725274
4.416306991006422,1.2563369963369961,0.0,2.5674725274725274
4.424083873003838,1.2563369963369961,0.0,2.5674725274725274
4.428693020003266,1.2563369963369961,0.0,2.5674725274725274
4.429592157001025,1.2563369963369961,0.0,2.5674725274725274
4.431151172000682,0.9887912087912087,0.0,2.56989010989011
4.436093510004866,0.1926007326007326,0.0,3.216190476190476
4.442645562005055,0.1926007326007326,0.0,3.216190476190476
4.4465133840058115,0.1926007326007326,0.0,3.216190476190476
4.454228888003854,0.1926007326007326,0.0,3.216190476190476
4.4602517370003625,0.1926007326007326,0.0,3.216190476190476
4.464018507002038,0.1926007326007326,0.0,3.216190476190476
4.471633384004235,0.1926007326007326,0.0,3.216190476190476
4.4765246829992975,1.1177289377289377,0.0,2.5706959706959704
4.481530192999344,0.6245421245421244,0.0,2.5561904761904763
4.489022155001294,0.6245421245421244,0.0,2.5561904761904763
4.493438358003914,0.6245421245421244,0.0,2.5561904761904763
4.494255420002446,0.6245421245421244,0.0,2.5561904761904763
4.495870156999445,0.6245421245421244,0.0,2.5561904761904763
4.5004568840013235,0.6245421245421244,0.0,2.5561904761904763
4.500776190005126,0.6245421245421244,0.0,2.5561904761904763
4.507553159004601,0.6245421245421244,0.0,2.5561904761904763
4.511342861005687,0.6245421245421244,0.0,2.5561904761904763
4.516574165005295,0.6245421245421244,0.0,2.5561904761904763
4.520033199005411,0.6245421245421244,0.0,2.5561904761904763
4.5202368080063025,0.6245421245421244,0.0,2.5561904761904763
4.525659878003353,0.6245421245421244,0.0,2.5561904761904763
4.527252588006377,0.36827838827838827,0.0,2.59003663003663
4.530973698005255,0.36827838827838827,0.0,2.59003663003663
4.531072035999387,0.36827838827838827,0.0,2.59003663003663
4.537014878005721,0.36827838827838827,0.0,2.59003663003663
4.5424939900040044,0.36827838827838827,0.0,2.59003663003663
4.544334723999782,1.6028571428571428,0.0,2.5505494505494504
4.545948385006341,1.6028571428571428,0.0,2.5505494505494504
4.550935365004989,1.6028571428571428,0.0,2.5505494505494504
4.55539776700607,1.4255677655677657,0.0,2.5715018315018314
4.555711410001095,1.4255677655677657,0.0,2.5715018315018314
4.560229818001972,1.4255677655677657,0.0,2.5715018315018314
4.5610625539993634,1.4255677655677657,0.0,2.5715018315018314
4.5626686200048425,1.4255677655677657,0.0,2.5715018315018314
4.56868980100262,1.4255677655677657,0.0,2.5715018315018314
4.575039366005512,1.4255677655677657,0.0,2.5715018315018314
4.578858685999876,2.0734798534798533,0.0,2.5432967032967033
4.584759369005042,2.0734798534798533,0.0,2.5432967032967033
4.5850556880031945,0.17164835164835165,0.0,0.2909157509157509
4.590416999002628,0.17164835164835165,0.0,0.2909157509157509
4.590666092000902,0.17164835164835165,0.0,0.2909157509157509
4.595811276005406,0.17164835164835165,0.0,0.2909157509157509
4.598831120005343,0.6777289377289377,0.0,2.5586080586080584
4.602057538002555,0.8840293040293039,0.0,2.5723076923076924
4.604537431005156,0.8840293040293039,0.0,2.5723076923076924
4.610711096000159,0.8840293040293039,0.0,2.5723076923076924
4.614742631005356,0.8840293040293039,0.0,2.5723076923076924
4.618918938002025,0.7244688644688644,0.0,2.565054945054945
4.621783597001922,0.7244688644688644,0.0,2.565054945054945
4.624808471002325,0.7244688644688644,0.0,2.565054945054945
4.627100076999341,0.29736263736263735,0.0,0.2643223443223443
4.627350722999836,0.29736263736263735,0.0,0.2643223443223443
4.632447187999787,0.29736263736263735,0.0,0.2643223443223443
4.637080120002793,0.27802197802197803,0.0,2.274139194139194
4.637180426005216,0.5923076923076923,0.0,2.5505494505494504
4.641770604001067,0.9017582417582416,0.0,2.565860805860806
4.642648016000749,0.9017582417582416,0.0,2.565860805860806
4.644254844999523,0.9017582417582416,0.0,2.565860805860806
4.6486372020008275,0.9017582417582416,0.0,2.565860805860806
4.650407804001588,0.9017582417582416,0.0,2.565860805860806
4.65429650900478,0.9017582417582416,0.0,2.565860805860806
4.658901335002156,0.9017582417582416,0.0,2.565860805860806
4.659235835999425,0.9017582417582416,0.0,2.565860805860806
4.664088946999982,0.9017582417582416,0.0,2.565860805860806
4.664183438006148,1.0677655677655677,0.0,3.3
4.6713694960053544,1.0677655677655677,0.0,3.3
4.676658521006175,1.0677655677655677,0.0,3.3
4.679332229003194,1.0677655677655677,0.0,3.3
4.683289596003306,1.0677655677655677,0.0,3.3
4.689882814003795,1.0677655677655677,0.0,3.3
4.69473293700139,1.0677655677655677,0.0,3.3
4.703291163001268,1.0677655677655677,0.0,3.3
4.709840847004671,0.5536263736263736,0.0,1.0049084249084248
4.713571544001752,0.5536263736263736,0.0,1.0049084249084248
4.721465784001339,0.5536263736263736,0.0,1.0049084249084248
4.725829161005095,0.5536263736263736,0.0,1.0049084249084248
4.726687762005895,0.5536263736263736,0.0,1.0049084249084248
4.728430328003014,0.5536263736263736,0.0,1.0049084249084248
4.732378127002448,0.5536263736263736,0.0,1.0049084249084248
4.736678692002897,0.5536263736263736,0.0,1.0049084249084248
4.738337769005739,0.5536263736263736,0.0,1.0049084249084248
4.741480178003258,0.5536263736263736,0.0,1.0049084249084248
4.743719299003715,0.5536263736263736,0.0,1.0049084249084248
4.743929677999404,0.5536263736263736,0.0,1.0049084249084248
4.749476087999938,0.5536263736263736,0.0,1.0049084249084248
4.751941799004271,0.8985347985347985,0.0,3.3
4.760112543001014,0.8985347985347985,0.0,3.3
4.7646324779998395,0.8985347985347985,0.0,3.3
4.766249714004516,0.6245421245421244,0.0,1.0024908424908423
4.772227648005355,0.6245421245421244,0.0,1.0024908424908423
4.776157410000451,0.6245421245421244,0.0,1.0024908424908423
4.779370715004916,0.6245421245421244,0.0,1.0024908424908423
4.781177441000182,0.7712087912087912,0.0,2.556996336996337
4.785041429000557,1.2579487179487179,0.0,2.5545787545787544
4.789966503005417,1.2579487179487179,0.0,2.5545787545787544
4.794451420006226,1.2579487179487179,0.0,2.5545787545787544
4.795391078005196,0.31347985347985347,0.0,0.2989743589743589
4.796858177003742,0.31347985347985347,0.0,0.2989743589743589
4.804183243999432,0.31347985347985347,0.0,0.2989743589743589
4.807520275004208,0.31347985347985347,0.0,0.2989743589743589
4.808344406999822,1.3659340659340657,0.0,2.5723076923076924
4.809887449002417,1.3659340659340657,0.0,2.5723076923076924
4.817342311005632,1.3659340659340657,0.0,2.5723076923076924
4.823356765002245,1.3659340659340657,0.0,2.5723076923076924
4.826923223001359,1.3659340659340657,0.0,2.5723076923076924
4.827076849003788,1.3659340659340657,0.0,2.5723076923076924
4.8327613930014195,1.3659340659340657,0.0,2.5723076923076924
4.833114272005332,1.3659340659340657,0.0,2.5723076923076924
4.841317668004194,1.3659340659340657,0.0,2.5723076923076924
4.847472272005689,0.5890842490842491,0.0,3.3
4.850993742002174,0.5890842490842491,0.0,3.3
4.851369453004736,0.5890842490842491,0.0,3.3
4.858130587999767,0.5890842490842491,0.0,3.3
4.862581134002539,0.5890842490842491,0.0,3.3
4.8644203360017855,0.5890842490842491,0.0,3.3
4.866944418005005,0.5890842490842491,0.0,3.3
4.8747790500056,0.5890842490842491,0.0,3.3
4.8803179480019026,0.32476190476190475,0.0,0.35135531135531134
4.88267670100322,0.32476190476190475,0.0,0.35135531135531134
4.882832777002477,0.8034432234432234,0.0,1.0919413919413918
4.893840240001737,0.3892307692307692,0.0,0.31347985347985347
4.9027519049996044,0.3892307692307692,0.0,0.31347985347985347
4.908595859000343,0.3892307692307692,0.0,0.31347985347985347
4.914017240000248,0.3892307692307692,0.0,0.31347985347985347
4.915861016001145,0.3892307692307692,0.0,0.31347985347985347
4.919735940005921,0.49399267399267394,0.0,3.3
4.925251680004294,0.49399267399267394,0.0,3.3
4.931978900000104,0.49399267399267394,0.0,3.3
4.939608294000209,0.49399267399267394,0.0,3.3
4.943364647006092,0.49399267399267394,0.0,3.3
4.947788118006429,0.49399267399267394,0.0,3.3
4.949323957000161,0.49399267399267394,0.0,3.3
4.95731623100437,0.49399267399267394,0.0,3.3
4.962003967004421,0.49399267399267394,0.0,3.3
4.962157276000653,0.49399267399267394,0.0,3.3
4.966816290005227,0.49399267399267394,0.0,3.3
4.967050380000728,0.39890109890109887,0.0,0.4593406593406593
4.9745651240009465,0.39890109890109887,0.0,0.4593406593406593
4.979581700004928,0.38278388278388276,0.0,2.1709890109890106
4.986609986000985,0.5649084249084249,0.0,2.5545787545787544
4.992927851002605,0.5649084249084249,0.0,2.5545787545787544
4.99861546500324,1.0516483516483515,0.0,2.56989010989011
5.0092819730052724,0.6696703296703297,0.0,2.552967032967033
5.019944611005485,0.6696703296703297,0.0,2.552967032967033
5.031133821001276,0.25384615384615383,0.0,0.7172161172161172
5.040674408999621,0.25384615384615383,0.0,0.7172161172161172
5.048355344006268,0.3924542124542124,0.0,2.5432967032967033
5.054182033003599,0.8824175824175824,0.0,2.573919413919414
5.064221954002278,0.8824175824175824,0.0,2.573919413919414
5.074423798003409,0.8824175824175824,0.0,2.573919413919414
5.084953416000644,0.8824175824175824,0.0,2.573919413919414
5.09450668500358,0.21032967032967032,0.0,2.1226373626373625
5.103133570999489,0.7841025641025641,0.0,2.5674725274725274
5.10847180300334,0.7841025641025641,0.0,2.5674725274725274
5.109538013006386,0.7841025641025641,0.0,2.5674725274725274
5.110399460005283,0.9533333333333331,0.0,2.5706959706959704
5.112117301003309,0.9533333333333331,0.0,2.5706959706959704
5.115487508999649,0.9533333333333331,0.0,2.5706959706959704
5.116544372001954,0.9533333333333331,0.0,2.5706959706959704
5.116863883005863,0.9533333333333331,0.0,2.5706959706959704
5.125322510000842,0.9533333333333331,0.0,2.5706959706959704
5.135155989002669,0.9533333333333331,0.0,2.5706959706959704
5.143946489006339,0.9533333333333331,0.0,2.5706959706959704
5.152643786001136,0.4520879120879121,0.0,3.3
5.161673733004136,0.4520879120879121,0.0,3.3
5.1673332570062485,0.4520879120879121,0.0,3.3
5.167444793005416,0.4520879120879121,0.0,3.3
5.172337973002868,0.4520879120879121,0.0,3.3
5.177153556003759,0.4520879120879121,0.0,3.3
5.177322401003039,0.4520879120879121,0.0,3.3
5.18224742700113,0.4520879120879121,0.0,3.3
5.1823995930026285,0.4520879120879121,0.0,3.3
5.189500134001719,0.4520879120879121,0.0,3.3
5.192683001005207,0.4520879120879121,0.0,3.3
5.195017251004174,0.4520879120879121,0.0,3.3
5.195228857002803,0.4520879120879121,0.0,3.3
5.2005623479999485,0.4520879120879121,0.0,3.3
5.204191713004548,1.510989010989011,0.0,3.3
5.210861418003333,0.28769230769230764,0.0,0.4520879120879121
5.216570947006403,0.28769230769230764,0.0,0.4520879120879121
5.225653665002028,0.2602930402930403,0.0,0.805054945054945
5.233174061999307,0.7019047619047618,0.0,2.5626373626373624
5.238028220002889,0.7019047619047618,0.0,2.5626373626373624
5.2458222330024,0.7019047619047618,0.0,2.5626373626373624
5.252491788000043,0.7019047619047618,0.0,2.5626373626373624
5.258247499004938,0.7019047619047618,0.0,2.5626373626373624
5.2665127650034265,0.6390476190476191,0.0,2.5594139194139194
5.2748894870019285,0.6390476190476191,0.0,2.5594139194139194
5.281917138003337,0.6390476190476191,0.0,2.5594139194139194
5.286265918999561,1.1177289377289377,0.0,2.552967032967033
5.287117143001524,1.1177289377289377,0.0,2.552967032967033
5.288900423001905,1.1177289377289377,0.0,2.552967032967033
5.292242053001246,1.1177289377289377,0.0,2.552967032967033
5.293059356001322,1.1177289377289377,0.0,2.552967032967033
5.2956069160063635,1.1177289377289377,0.0,2.552967032967033
5.3007797520040185,1.1177289377289377,0.0,2.552967032967033
5.304644324001856,1.1177289377289377,0.0,2.552967032967033
5.309175321999646,1.1177289377289377,0.0,2.552967032967033
5.310714958002791,1.1177289377289377,0.0,2.552967032967033
5.315464983003039,1.1177289377289377,0.0,2.552967032967033
5.321010548999766,0.21677655677655677,0.0,0.3908424908424908
5.321909893005795,0.6213186813186813,0.0,2.5674725274725274
5.323467697002343,0.6213186813186813,0.0,2.5674725274725274
5.3275505830024485,0.6213186813186813,0.0,2.5674725274725274
5.330766720006068,1.2337728937728938,0.0,2.56989010989011
5.332388752001862,1.2337728937728938,0.0,2.56989010989011
5.337067540000135,1.2337728937728938,0.0,2.56989010989011
5.337278509003227,1.2337728937728938,0.0,2.56989010989011
5.3427879299997585,1.2337728937728938,0.0,2.56989010989011
5.344720042005065,1.2337728937728938,0.0,2.56989010989011
5.346063928001968,1.2337728937728938,0.0,2.56989010989011
5.35618328700366,1.2337728937728938,0.0,2.56989010989011
5.364965992004727,1.2337728937728938,0.0,2.56989010989011
5.37563313600549,1.2337728937728938,0.0,2.56989010989011
5.381239127003937,1.2337728937728938,0.0,2.56989010989011
5.3815647840019665,1.2337728937728938,0.0,2.56989010989011
5.391015599001548,0.7583150183150182,0.0,1.1942857142857142
5.400227939004253,0.7583150183150182,0.0,1.1942857142857142
5.400688974004879,0.6293772893772893,0.0,2.552967032967033
5.410594995999418,0.6293772893772893,0.0,2.552967032967033
5.42517056500219,0.6293772893772893,0.0,2.552967032967033
5.4418727310039685,0.5713553113553113,0.0,2.5586080586080584
5.459194141003536,0.5713553113553113,0.0,2.5586080586080584
5.459493189002387,0.5713553113553113,0.0,2.5586080586080584
5.465863335004542,0.5713553113553113,0.0,2.5586080586080584
5.4746902260012575,0.365054945054945,0.0,0.30622710622710625
5.4842674220053595,0.365054945054945,0.0,0.30622710622710625
5.486354981003387,0.365054945054945,0.0,0.30622710622710625
5.486821845006489,0.365054945054945,0.0,0.30622710622710625
5.491850300000806,0.365054945054945,0.0,0.30622710622710625
5.495399793006072,0.365054945054945,0.0,0.30622710622710625
5.503144975002215,0.4456410256410256,0.0,2.5553846153846154
5.510029270000814,0.7067399267399267,0.0,2.569084249084249
5.51406290900195,0.7067399267399267,0.0,2.569084249084249
5.517691541004751,0.7067399267399267,0.0,2.569084249084249
5.517939114004548,0.4810989010989011,0.0,2.5586080586080584
5.523695231000602,0.4810989010989011,0.0,2.5586080586080584
5.529599675006466,0.4810989010989011,0.0,2.5586080586080584
5.53772406400094,1.0742124542124543,0.0,2.5747252747252745
5.545259062004334,0.6019780219780219,0.0,2.5594139194139194
5.552566211001249,0.6019780219780219,0.0,2.5594139194139194
5.556308705003175,0.6019780219780219,0.0,2.5594139194139194
5.560855467003421,0.6019780219780219,0.0,2.5594139194139194
5.561752210000122,0.6019780219780219,0.0,2.5594139194139194
5.56329281500075,0.6019780219780219,0.0,2.5594139194139194
5.568425907003984,0.6019780219780219,0.0,2.5594139194139194
5.57263706500089,0.776043956043956,0.0,2.569084249084249
5.574342923006043,0.776043956043956,0.0,2.569084249084249
5.57742913000402,0.32476190476190475,0.0,3.3
5.579721780006366,0.32476190476190475,0.0,3.3
5.579990297002951,0.32476190476190475,0.0,3.3
5.585948504005501,0.32476190476190475,0.0,3.3
5.592849155000295,0.32476190476190475,0.0,3.3
5.597603612004605,1.8236630036630037,0.0,3.3
5.597754558002634,0.4762637362637362,0.0,2.561831501831502
5.605434983001032,0.4762637362637362,0.0,2.561831501831502
5.609374028004822,0.4762637362637362,0.0,2.561831501831502
5.6138760640023975,0.4762637362637362,0.0,2.561831501831502
5.614708969005733,0.26996336996336995,0.0,1.0645421245421245
5.616234822002298,0.26996336996336995,0.0,1.0645421245421245
5.623280027000874,0.26996336996336995,0.0,1.0645421245421245
5.627410312001302,0.8179487179487179,0.0,3.249230769230769
5.629992572001356,0.8179487179487179,0.0,3.249230769230769
5.639782816004299,0.8179487179487179,0.0,3.249230769230769
5.646420592005597,0.4520879120879121,0.0,2.5441025641025643
5.651617925999744,0.4520879120879121,0.0,2.5441025641025643
5.655333096001414,0.4520879120879121,0.0,2.5441025641025643
5.659569836003357,0.4520879120879121,0.0,2.5441025641025643
5.661092850001296,0.4520879120879121,0.0,2.5441025641025643
5.665329023002414,0.4520879120879121,0.0,2.5441025641025643
5.669227985999896,0.4520879120879121,0.0,2.5441025641025643
5.672744788003911,1.1934798534798534,0.0,2.569084249084249
5.6781260630014,1.1934798534798534,0.0,2.569084249084249
5.6804484029999,1.1934798534798534,0.0,2.569084249084249
5.680724063000525,1.1934798534798534,0.0,2.569084249084249
5.689039312004752,1.1934798534798534,0.0,2.569084249084249
5.693789838005614,1.1934798534798534,0.0,2.569084249084249
5.693888088004314,0.4391941391941392,0.0,3.3
5.699243303999538,0.4391941391941392,0.0,3.3
5.703019627006142,0.4391941391941392,0.0,3.3
5.707706978006172,0.4391941391941392,0.0,3.3
5.71219693000603,0.4391941391941392,0.0,3.3
5.7130673350038705,0.4391941391941392,0.0,3.3
5.71472674600227,0.4391941391941392,0.0,3.3
5.719661379000172,0.4391941391941392,0.0,3.3
5.72583121900243,0.4391941391941392,0.0,3.3
5.7313737889999175,0.4391941391941392,0.0,3.3
5.742980573006207,1.3304761904761904,0.0,3.3
5.755422720001661,0.2683516483516483,0.0,3.3
5.764397745006136,0.2683516483516483,0.0,3.3
5.772924614000658,0.14747252747252745,0.0,0.35135531135531134
5.779987404006533,0.14747252747252745,0.0,0.35135531135531134
5.785253440000815,0.14747252747252745,0.0,0.35135531135531134
5.788429701002315,0.3602197802197802,0.0,0.2949450549450549
5.788720901000488,0.3602197802197802,0.0,0.2949450549450549
5.798551562002103,0.3602197802197802,0.0,0.2949450549450549
5.805749840001226,0.3602197802197802,0.0,0.2949450549450549
5.810279431003437,0.3457142857142857,0.0,0.3529670329670329
5.810584432001633,0.3457142857142857,0.0,0.3529670329670329
5.820796400003019,0.3457142857142857,0.0,0.3529670329670329
5.826361351006199,0.3457142857142857,0.0,0.3529670329670329
5.827191054006107,0.8066666666666666,0.0,2.544908424908425
5.829802592001215,0.8066666666666666,0.0,2.544908424908425
5.835843401000602,0.8066666666666666,0.0,2.544908424908425
5.842024243000196,0.8066666666666666,0.0,2.544908424908425
5.845641083004011,0.8066666666666666,0.0,2.544908424908425
5.852271929004928,0.8066666666666666,0.0,2.544908424908425
5.856533271005901,0.8066666666666666,0.0,2.544908424908425
5.857386313000461,0.8066666666666666,0.0,2.544908424908425
5.858997451003233,0.8066666666666666,0.0,2.544908424908425
5.863760321000882,0.8066666666666666,0.0,2.544908424908425
5.863883057005296,0.8066666666666666,0.0,2.544908424908425
5.8726507570027024,0.8066666666666666,0.0,2.544908424908425
5.877622437001264,1.0306959706959706,0.0,2.56989010989011
5.881990715999564,1.0306959706959706,0.0,2.56989010989011
5.884520531006274,1.0306959706959706,0.0,2.56989010989011
5.891278752002108,0.10395604395604395,0.0,1.755164835164835
5.895250615001714,0.10395604395604395,0.0,1.755164835164835
5.90017688300577,0.10395604395604395,0.0,1.755164835164835
5.906139010003244,0.10395604395604395,0.0,1.755164835164835
5.91062762200454,0.5632967032967032,0.0,0.826007326007326
5.911499062000075,0.5632967032967032,0.0,0.826007326007326
5.913037618003727,0.5632967032967032,0.0,0.826007326007326
5.917622608001693,0.5632967032967032,0.0,0.826007326007326
5.917995416006306,0.5632967032967032,0.0,0.826007326007326
5.92357497800549,0.5632967032967032,0.0,0.826007326007326
5.923845035002159,0.5632967032967032,0.0,0.826007326007326
5.929331366001861,0.5632967032967032,0.0,0.826007326007326
5.930428408006264,0.7921611721611721,0.0,2.56989010989011
5.930857176004793,0.7921611721611721,0.0,2.56989010989011
5.938762228004634,0.7921611721611721,0.0,2.56989010989011
5.944553892004478,0.09912087912087912,0.0,2.5432967032967033
5.953646267000295,0.09912087912087912,0.0,2.5432967032967033
5.957775582006434,0.2602930402930403,0.0,1.2668131868131869
5.960438002999581,0.2087179487179487,0.0,2.5553846153846154
5.965209362002497,0.2087179487179487,0.0,2.5553846153846154
5.965303385004518,0.2087179487179487,0.0,2.5553846153846154
5.972481165001227,0.3038095238095238,0.0,3.1823443223443224
5.976320232999569,0.40534798534798533,0.0,2.5715018315018314
5.9817811570028425,0.40534798534798533,0.0,2.5715018315018314
5.984019726005499,0.40534798534798533,0.0,2.5715018315018314
5.984341366005538,0.40534798534798533,0.0,2.5715018315018314
5.990014453003823,0.40534798534798533,0.0,2.5715018315018314
5.9901866860018345,0.40534798534798533,0.0,2.5715018315018314
5.9955136720018345,0.40534798534798533,0.0,2.5715018315018314
5.997790082001302,0.40534798534798533,0.0,2.5715018315018314
5.998110689004534,0.0,0.0,3.3
6.003349515005539,0.0,0.0,3.3
6.006164909005747,0.0,0.0,3.3
6.008443401005934,0.2248351648351648,0.0,0.5157509157509157
6.008663624001201,0.2248351648351648,0.0,0.5157509157509157
6.013933874004579,0.2248351648351648,0.0,0.5157509157509157
6.0165326980059035,0.2248351648351648,0.0,0.5157509157509157
6.023971693000931,0.2248351648351648,0.0,0.5157509157509157
6.028483712005254,0.5439560439560439,0.0,0.4182417582417582
6.02933261400176,0.5439560439560439,0.0,0.4182417582417582
6.030909864006389,0.5439560439560439,0.0,0.4182417582417582
6.036180533999868,0.3731135531135531,0.0,3.3
6.038767414000176,0.3731135531135531,0.0,3.3
6.046074289006356,0.3731135531135531,0.0,3.3
6.0513225570030045,0.3731135531135531,0.0,3.3
6.0529819520015735,0.3731135531135531,0.0,3.3
6.056938011999591,0.3731135531135531,0.0,3.3
6.059403459999885,0.3731135531135531,0.0,3.3
6.064540052000666,0.3731135531135531,0.0,3.3
6.070172543004446,0.3731135531135531,0.0,3.3
6.070415173002402,0.3731135531135531,0.0,3.3
6.075363998999819,0.2651282051282051,0.0,2.714945054945055
6.079986718999862,0.047545787545787546,0.0,2.5432967032967033
6.080174693001027,0.047545787545787546,0.0,2.5432967032967033
6.087446278004791,0.047545787545787546,0.0,2.5432967032967033
6.092664861003868,0.047545787545787546,0.0,2.5432967032967033
6.093788025005779,0.047545787545787546,0.0,2.5432967032967033
6.09405076099938,0.047545787545787546,0.0,2.5432967032967033
6.102472537000722,0.047545787545787546,0.0,2.5432967032967033
6.106444064003881,0.047545787545787546,0.0,2.5432967032967033
6.110335577999649,0.047545787545787546,0.0,2.5432967032967033
6.1143815250034095,0.047545787545787546,0.0,2.5432967032967033
6.118181581005047,0.047545787545787546,0.0,2.5432967032967033
6.12326841000322,0.047545787545787546,0.0,2.5432967032967033
6.1256061240055715,0.047545787545787546,0.0,2.5432967032967033
6.125857803999679,0.047545787545787546,0.0,2.5432967032967033
6.1310011349996785,0.047545787545787546,0.0,2.5432967032967033
6.13524150900048,0.047545787545787546,0.0,2.5432967032967033
6.135541670002567,0.047545787545787546,0.0,2.5432967032967033
6.142014782002661,0.047545787545787546,0.0,2.5432967032967033
6.145800595004403,0.6793406593406592,0.0,0.5923076923076923
6.151461282999662,0.04271062271062271,0.0,1.2893772893772892
6.151621078999597,0.04271062271062271,0.0,1.2893772893772892
6.157008946000133,0.04271062271062271,0.0,1.2893772893772892
6.159401256001729,0.04271062271062271,0.0,1.2893772893772892
6.165044507004495,0.04271062271062271,0.0,1.2893772893772892
6.165267570999276,0.5036630036630036,0.0,0.6076190476190476
6.170800749001501,0.5036630036630036,0.0,0.6076190476190476
6.171674135999638,0.5036630036630036,0.0,0.6076190476190476
6.173252861000947,0.5036630036630036,0.0,0.6076190476190476
6.177109793999989,0.5036630036630036,0.0,0.6076190476190476
6.181520071004343,0.5036630036630036,0.0,0.6076190476190476
6.1830600290049915,0.5036630036630036,0.0,0.6076190476190476
6.186853184000938,0.5036630036630036,0.0,0.6076190476190476
6.1921803320001345,0.7808791208791208,0.0,2.569084249084249
6.19423745500535,0.7808791208791208,0.0,2.569084249084249
6.1950736720027635,0.7808791208791208,0.0,2.569084249084249
6.197183496005891,0.7808791208791208,0.0,2.569084249084249
6.198150269003236,0.7808791208791208,0.0,2.569084249084249
6.199042366002686,0.7808791208791208,0.0,2.569084249084249
6.201366907000192,0.7808791208791208,0.0,2.569084249084249
6.201530446000106,0.7808791208791208,0.0,2.569084249084249
6.206695640001271,0.7808791208791208,0.0,2.569084249084249
6.21022251300019,0.7808791208791208,0.0,2.569084249084249
6.210387399005413,0.7808791208791208,0.0,2.569084249084249
6.215428739000345,0.7808791208791208,0.0,2.569084249084249
6.22036820500216,0.7808791208791208,0.0,2.569084249084249
6.225282628001878,0.7808791208791208,0.0,2.569084249084249
6.229900787002407,0.3344322344322344,0.0,0.3932600732600733
6.2301392250010394,0.3344322344322344,0.0,0.3932600732600733
6.237616275000619,0.3344322344322344,0.0,0.3932600732600733
6.243365319001896,0.03948717948717949,0.0,1.4158974358974357
6.251838915006374,0.7792673992673992,0.0,0.7123809523809523
6.257140068002627,0.7792673992673992,0.0,0.7123809523809523
6.258785210004135,0.7792673992673992,0.0,0.7123809523809523
6.262466161999328,0.46820512820512816,0.0,2.552967032967033
6.26786620200437,0.49721611721611714,0.0,0.36747252747252745
6.270330690000264,0.7808791208791208,0.0,2.5715018315018314
6.275630506002926,0.7808791208791208,0.0,2.5715018315018314
6.278632430003199,0.7808791208791208,0.0,2.5715018315018314
6.281642632005969,0.7808791208791208,0.0,2.5715018315018314
6.283955048005737,0.7808791208791208,0.0,2.5715018315018314
6.284223163005663,0.7808791208791208,0.0,2.5715018315018314
6.289659518006374,0.7808791208791208,0.0,2.5715018315018314
6.291381540999282,0.7808791208791208,0.0,2.5715018315018314
6.295256410005095,0.7808791208791208,0.0,2.5715018315018314
6.298937621002551,0.15875457875457877,0.0,0.9823443223443222
6.299070799999754,0.5455677655677655,0.0,2.54974358974359
6.304332265004632,0.5455677655677655,0.0,2.54974358974359
6.307346181005414,1.6769963369963368,0.0,2.541684981684982
6.310357070004102,1.3079120879120878,0.0,2.565860805860806
6.313325696006359,1.58996336996337,0.0,2.553772893772894
6.316342383004667,1.58996336996337,0.0,2.553772893772894
6.3193180650050635,1.58996336996337,0.0,2.553772893772894
6.322357314005785,1.58996336996337,0.0,2.553772893772894
6.325327421000111,1.58996336996337,0.0,2.553772893772894
6.328389462003543,0.2715750915750916,0.0,0.3078388278388278
6.330047127004946,0.2715750915750916,0.0,0.3078388278388278
6.333949589999975,0.2715750915750916,0.0,0.3078388278388278
6.338658852000663,0.5197802197802197,0.0,3.3
6.338920450005389,0.5197802197802197,0.0,3.3
6.343431490000512,0.5197802197802197,0.0,3.3
6.343672245006019,0.5197802197802197,0.0,3.3
6.348781190004956,0.5197802197802197,0.0,3.3
6.352752036000311,1.4932600732600732,0.0,2.556996336996337
6.356476514003589,1.4932600732600732,0.0,2.556996336996337
6.356622768005764,1.4932600732600732,0.0,2.556996336996337
6.362025611000718,1.4932600732600732,0.0,2.556996336996337
6.364272990002064,1.4932600732600732,0.0,2.556996336996337
6.364651829004288,1.4932600732600732,0.0,2.556996336996337
6.369109644001583,1.4932600732600732,0.0,2.556996336996337
6.370659907006484,1.4932600732600732,0.0,2.556996336996337
6.375086870000814,1.4932600732600732,0.0,2.556996336996337
6.3766915740052355,1.4932600732600732,0.0,2.556996336996337
6.381076218000089,1.4932600732600732,0.0,2.556996336996337
6.3826550760059035,1.4932600732600732,0.0,2.556996336996337
6.387958354003786,1.4932600732600732,0.0,2.556996336996337
6.390206654999929,1.4932600732600732,0.0,2.556996336996337
6.390430371000548,1.4932600732600732,0.0,2.556996336996337
6.395543568003632,1.4932600732600732,0.0,2.556996336996337
6.399404943003901,1.4932600732600732,0.0,2.556996336996337
6.403404235003109,1.4932600732600732,0.0,2.556996336996337
6.4066454250059905,1.4932600732600732,0.0,2.556996336996337
6.408210232002602,1.4932600732600732,0.0,2.556996336996337
6.4127234290062916,1.4932600732600732,0.0,2.556996336996337
6.413590804004343,1.4932600732600732,0.0,2.556996336996337
6.4153136310051195,1.4932600732600732,0.0,2.556996336996337
6.419135495001683,1.4932600732600732,0.0,2.556996336996337
6.423696418001782,1.4932600732600732,0.0,2.556996336996337
6.42459728600079,1.4932600732600732,0.0,2.556996336996337
6.4263501440000255,1.4932600732600732,0.0,2.556996336996337
6.429488243004016,1.4932600732600732,0.0,2.556996336996337
6.431096942003933,1.4932600732600732,0.0,2.556996336996337
6.435014353002771,0.49399267399267394,0.0,3.3
6.438809828003286,0.49399267399267394,0.0,3.3
6.443424266006332,0.49399267399267394,0.0,3.3
6.4436702620005235,0.49399267399267394,0.0,3.3
6.448991835000925,0.49399267399267394,0.0,3.3
6.451364970002032,0.49399267399267394,0.0,3.3
6.451526979006303,0.49399267399267394,0.0,3.3
6.45669704300235,0.3698901098901099,0.0,0.3457142857142857
6.459916733001592,0.3698901098901099,0.0,0.3457142857142857
6.460791328005143,0.3698901098901099,0.0,0.3457142857142857
6.462553637000383,0.3698901098901099,0.0,0.3457142857142857
6.466297957005736,0.49399267399267394,0.0,0.28608058608058606
6.471724874005304,0.49399267399267394,0.0,0.28608058608058606
6.474037979001878,2.4199999999999995,0.0,2.5432967032967033
6.474281728005735,2.4199999999999995,0.0,2.5432967032967033
6.47947992200352,2.4199999999999995,0.0,2.5432967032967033
6.482526507003058,1.021025641025641,0.0,2.5634432234432234
6.485025243004202,1.9880586080586078,0.0,2.5384615384615383
6.490487798000686,1.9880586080586078,0.0,2.5384615384615383
6.492838990001474,1.9880586080586078,0.0,2.5384615384615383
6.493026727999677,1.9880586080586078,0.0,2.5384615384615383
6.49820642600389,1.9880586080586078,0.0,2.5384615384615383
6.5012402560023475,0.7776556776556776,0.0,2.552967032967033
6.504192950000288,0.7776556776556776,0.0,2.552967032967033
6.507256122000399,0.7776556776556776,0.0,2.552967032967033
6.509737429005327,0.7776556776556776,0.0,2.552967032967033
6.509873674003757,1.2434432234432233,0.0,2.5723076923076924
6.515229349002766,1.2434432234432233,0.0,2.5723076923076924
6.518512295006076,1.2434432234432233,0.0,2.5723076923076924
6.5194186240041745,1.2434432234432233,0.0,2.5723076923076924
6.520334345004812,1.2434432234432233,0.0,2.5723076923076924
6.52207515900227,1.2434432234432233,0.0,2.5723076923076924
6.525861113004794,1.2434432234432233,0.0,2.5723076923076924
6.531220324999595,1.2434432234432233,0.0,2.5723076923076924
6.534351629001321,1.079047619047619,0.0,2.573113553113553
6.535913101004553,1.079047619047619,0.0,2.573113553113553
6.540555003004556,1.079047619047619,0.0,2.573113553113553
6.541485317000479,1.079047619047619,0.0,2.573113553113553
6.542435038005351,1.079047619047619,0.0,2.573113553113553
6.5433396240041475,1.079047619047619,0.0,2.573113553113553
6.544890509001561,1.079047619047619,0.0,2.573113553113553
6.549502974005009,1.079047619047619,0.0,2.573113553113553
6.550395448000927,2.07992673992674,0.0,2.5473260073260073
6.551988298000651,2.07992673992674,0.0,2.5473260073260073
6.556452654003806,0.5213919413919413,0.0,0.5906959706959707
6.557326820002345,0.5213919413919413,0.0,0.5906959706959707
6.559012349003751,0.5213919413919413,0.0,0.5906959706959707
6.5622528930034605,0.85018315018315,0.0,2.5634432234432234
6.563109577000432,0.85018315018315,0.0,2.5634432234432234
6.56471458300075,0.85018315018315,0.0,2.5634432234432234
6.5691087860031985,0.85018315018315,0.0,2.5634432234432234
6.570666162006091,0.85018315018315,0.0,2.5634432234432234
6.575257424003212,0.85018315018315,0.0,2.5634432234432234
6.575629546001437,0.85018315018315,0.0,2.5634432234432234
6.580789079001988,0.85018315018315,0.0,2.5634432234432234
6.584774876006122,0.85018315018315,0.0,2.5634432234432234
6.588555220005219,0.85018315018315,0.0,2.5634432234432234
6.593955711003218,0.85018315018315,0.0,2.5634432234432234
6.596274816001824,0.85018315018315,0.0,2.5634432234432234
6.596481182001298,0.85018315018315,0.0,2.5634432234432234
6.6016540480050026,0.85018315018315,0.0,2.5634432234432234
6.6055421870041755,0.85018315018315,0.0,2.5634432234432234
6.61008369600313,0.85018315018315,0.0,2.5634432234432234
6.6109523930063006,0.85018315018315,0.0,2.5634432234432234
6.612522392002575,0.85018315018315,0.0,2.5634432234432234
6.617091248001088,0.85018315018315,0.0,2.5634432234432234
6.6173768950029626,0.85018315018315,0.0,2.5634432234432234
6.622681410000951,0.85018315018315,0.0,2.5634432234432234
6.6259872680020635,0.85018315018315,0.0,2.5634432234432234
6.62684937800077,0.85018315018315,0.0,2.5634432234432234
6.628516060001857,0.85018315018315,0.0,2.5634432234432234
6.63296925600298,0.85018315018315,0.0,2.5634432234432234
6.633852643004502,0.85018315018315,0.0,2.5634432234432234
6.6362306010050816,0.85018315018315,0.0,2.5634432234432234
6.636419267000747,0.7454212454212454,0.0,2.552967032967033
6.641725989000406,0.7454212454212454,0.0,2.552967032967033
6.644905777000531,0.8630769230769231,0.0,2.5626373626373624
6.646532799000852,0.8630769230769231,0.0,2.5626373626373624
6.650343908004288,0.8630769230769231,0.0,2.5626373626373624
6.654207446001237,0.8630769230769231,0.0,2.5626373626373624
6.6596629960040445,0.8630769230769231,0.0,2.5626373626373624
6.661419943004148,0.8630769230769231,0.0,2.5626373626373624
6.663758028000302,0.8630769230769231,0.0,2.5626373626373624
6.663975852003205,0.8630769230769231,0.0,2.5626373626373624
6.669310842000414,0.06205128205128205,0.0,1.0323076923076921
6.67180533100327,0.06205128205128205,0.0,1.0323076923076921
6.677033560001291,0.06205128205128205,0.0,1.0323076923076921
6.680160854004498,1.1676923076923076,0.0,2.548937728937729
6.68177904800541,1.1676923076923076,0.0,2.548937728937729
6.685892400004377,1.1676923076923076,0.0,2.548937728937729
6.689069158004713,1.1676923076923076,0.0,2.548937728937729
6.6906106140013435,1.1676923076923076,0.0,2.548937728937729
6.695226569005172,1.1676923076923076,0.0,2.548937728937729
6.695367678003095,0.22644688644688646,0.0,0.6704761904761904
6.700909372004389,0.22644688644688646,0.0,0.6704761904761904
6.701871493001818,1.8832967032967032,0.0,2.5400732600732603
6.702752007004165,1.8832967032967032,0.0,2.5400732600732603
6.704296018004243,1.8832967032967032,0.0,2.5400732600732603
6.708993394000572,1.8832967032967032,0.0,2.5400732600732603
6.709255756002676,1.8832967032967032,0.0,2.5400732600732603
6.713956874002179,1.8832967032967032,0.0,2.5400732600732603
6.714099559001625,0.1829304029304029,0.0,2.3958241758241754
6.719477274004021,0.1829304029304029,0.0,2.3958241758241754
6.722068725001009,0.1829304029304029,0.0,2.3958241758241754
6.726598941000702,0.1829304029304029,0.0,2.3958241758241754
6.727490868004679,0.1829304029304029,0.0,2.3958241758241754
6.729282787004195,0.1829304029304029,0.0,2.3958241758241754
6.731626869004685,0.1829304029304029,0.0,2.3958241758241754
6.73254420000012,0.1829304029304029,0.0,2.3958241758241754
6.733427581006254,0.1829304029304029,0.0,2.3958241758241754
6.7349973500022315,0.1829304029304029,0.0,2.3958241758241754
6.739651788004267,0.1829304029304029,0.0,2.3958241758241754
6.739862257003551,0.1829304029304029,0.0,2.3958241758241754
6.74524500300322,0.1829304029304029,0.0,2.3958241758241754
6.747627683005703,0.1829304029304029,0.0,2.3958241758241754
6.7477892490060185,1.706007326007326,0.0,2.5715018315018314
6.75316820700391,1.706007326007326,0.0,2.5715018315018314
6.754767780999828,1.706007326007326,0.0,2.5715018315018314
6.75946926400502,1.706007326007326,0.0,2.5715018315018314
6.7651211060001515,1.706007326007326,0.0,2.5715018315018314
6.765386024999316,1.706007326007326,0.0,2.5715018315018314
6.770986708004784,1.706007326007326,0.0,2.5715018315018314
6.771979765006108,1.706007326007326,0.0,2.5715018315018314
6.7728470690053655,0.1555311355311355,0.0,1.6890842490842488
6.7744454109997605,0.1555311355311355,0.0,1.6890842490842488
6.779164151004807,0.1555311355311355,0.0,1.6890842490842488
6.77929199400387,0.1571428571428571,0.0,2.545714285714286
6.78488774500147,0.1571428571428571,0.0,2.545714285714286
6.785143744004017,0.43113553113553116,0.0,0.3892307692307692
6.790453077002894,0.43113553113553116,0.0,0.3892307692307692
6.792988168002921,0.689010989010989,0.0,2.5602197802197804
6.79817843100318,0.689010989010989,0.0,2.5602197802197804
6.802110629003437,0.22805860805860806,0.0,2.5553846153846154
6.805845292001322,0.21032967032967032,0.0,0.39406593406593404
6.811046499002259,0.21032967032967032,0.0,0.39406593406593404
6.8142477569999755,0.21032967032967032,0.0,0.39406593406593404
6.815095076999569,0.21032967032967032,0.0,0.39406593406593404
6.817300279006304,0.21032967032967032,0.0,0.39406593406593404
6.817497316005756,0.21032967032967032,0.0,0.39406593406593404
6.822852437006077,0.21032967032967032,0.0,0.39406593406593404
6.825346097000875,0.21032967032967032,0.0,0.39406593406593404
6.829954012006056,0.0024175824175824176,0.0,0.29413919413919415
6.8308437850064365,1.5947985347985347,0.0,2.56989010989011
6.832612435006013,1.5947985347985347,0.0,2.56989010989011
6.835667892999481,1.5947985347985347,0.0,2.56989010989011
6.838893462001579,1.5947985347985347,0.0,2.56989010989011
6.840419476000534,1.5947985347985347,0.0,2.56989010989011
6.844314439003938,1.5947985347985347,0.0,2.56989010989011
6.847361282001657,1.5947985347985347,0.0,2.56989010989011
6.849659926003369,1.5947985347985347,0.0,2.56989010989011
6.849894557002699,1.5947985347985347,0.0,2.56989010989011
6.855141062005714,2.165347985347985,0.0,3.3
6.857868102000793,0.07978021978021978,0.0,0.6446886446886446
6.8620012490064255,0.07978021978021978,0.0,0.6446886446886446
6.86414048000006,0.5681318681318681,0.0,0.40615384615384614
6.864942497006268,0.5681318681318681,0.0,0.40615384615384614
6.866995781005244,0.5681318681318681,0.0,0.40615384615384614
6.867831481002213,0.5681318681318681,0.0,0.40615384615384614
6.8699393090064405,0.12974358974358974,0.0,2.5706959706959704
6.871336395000981,0.12974358974358974,0.0,2.5706959706959704
6.875458747002995,0.12974358974358974,0.0,2.5706959706959704
6.878898590999597,0.12974358974358974,0.0,2.5706959706959704
6.879189639999822,0.12974358974358974,0.0,2.5706959706959704
6.884044965001522,0.12974358974358974,0.0,2.5706959706959704
6.884145159005129,0.12974358974358974,0.0,2.5706959706959704
6.888969125000585,0.12974358974358974,0.0,2.5706959706959704
6.889091955999902,0.12974358974358974,0.0,2.5706959706959704
6.893846042003133,0.12974358974358974,0.0,2.5706959706959704
6.894037470003241,0.2071062271062271,0.0,2.469157509157509
6.898743763005768,0.2071062271062271,0.0,2.469157509157509
6.898990471003344,0.2071062271062271,0.0,2.469157509157509
6.903732197002682,0.6535531135531135,0.0,2.5400732600732603
6.903936857001099,0.8082783882783882,0.0,0.24417582417582417
6.908607560006203,0.8082783882783882,0.0,0.24417582417582417
6.9088804370039725,0.8082783882783882,0.0,0.24417582417582417
6.913600217005296,0.8082783882783882,0.0,0.24417582417582417
6.91383638100524,0.8082783882783882,0.0,0.24417582417582417
6.918598207004834,0.8082783882783882,0.0,0.24417582417582417
6.91877915400255,0.8082783882783882,0.0,0.24417582417582417
6.92350096500013,0.8082783882783882,0.0,0.24417582417582417
6.923658985004295,0.13296703296703297,0.0,0.5866666666666667
6.928386334002425,0.13296703296703297,0.0,0.5866666666666667
6.928473541003768,0.13296703296703297,0.0,0.5866666666666667
6.933280093006033,0.13296703296703297,0.0,0.5866666666666667
6.9334187360000215,0.7728205128205128,0.0,2.7117216117216114
6.938154892006423,0.7728205128205128,0.0,2.7117216117216114
6.938372095006343,0.7728205128205128,0.0,2.7117216117216114
6.943056407006225,0.7212454212454212,0.0,2.5441025641025643
6.943316823002533,0.7212454212454212,0.0,2.5441025641025643
6.948050576000242,0.7212454212454212,0.0,2.5441025641025643
6.948271395005577,0.7212454212454212,0.0,2.5441025641025643
6.952965884003788,0.7212454212454212,0.0,2.5441025641025643
6.953218296999694,0.7212454212454212,0.0,2.5441025641025643
6.957972852003877,0.7212454212454212,0.0,2.5441025641025643
6.958167566001066,0.7212454212454212,0.0,2.5441025641025643
6.963097195002774,0.7212454212454212,0.0,2.5441025641025643
6.967938656001934,0.7212454212454212,0.0,2.5441025641025643
6.9680632689996855,0.7212454212454212,0.0,2.5441025641025643
6.972808876002091,0.7212454212454212,0.0,2.5441025641025643
6.973008715001924,0.7212454212454212,0.0,2.5441025641025643
6.97780537300423,0.7212454212454212,0.0,2.5441025641025643
6.977967306003848,0.7212454212454212,0.0,2.5441025641025643
6.982820378005272,0.7212454212454212,0.0,2.5441025641025643
6.982907675002934,0.7212454212454212,0.0,2.5441025641025643
6.98796619100176,0.7212454212454212,0.0,2.5441025641025643
6.992645723999885,0.7212454212454212,0.0,2.5441025641025643
6.992891535999661,0.7212454212454212,0.0,2.5441025641025643
6.99775672800024,0.7212454212454212,0.0,2.5441025641025643
7.002173310000217,0.7212454212454212,0.0,2.5441025641025643
7.003022332006367,0.7212454212454212,0.0,2.5441025641025643
7.004489493003348,0.7212454212454212,0.0,2.5441025641025643
7.004651709001337,0.7212454212454212,0.0,2.5441025641025643
7.008896120001737,0.7212454212454212,0.0,2.5441025641025643
7.011036198004149,0.7212454212454212,0.0,2.5441025641025643
7.012530259002233,0.7212454212454212,0.0,2.5441025641025643
7.017330650000076,0.7212454212454212,0.0,2.5441025641025643
7.02224426700559,0.21194139194139192,0.0,2.5432967032967033
7.022326101003273,0.21194139194139192,0.0,2.5432967032967033
7.027090149000287,0.2377289377289377,0.0,0.25223443223443226
7.0272592900000745,0.2377289377289377,0.0,0.25223443223443226
7.0320887330017285,0.2377289377289377,0.0,0.25223443223443226
7.0369332160044,0.2377289377289377,0.0,0.25223443223443226
7.0370795570052,0.15875457875457877,0.0,2.5441025641025643
7.041860360004648,0.15875457875457877,0.0,2.5441025641025643
7.042018697000458,0.15875457875457877,0.0,2.5441025641025643
7.04673002200434,0.15875457875457877,0.0,2.5441025641025643
7.046961760002887,0.15875457875457877,0.0,2.5441025641025643
7.051788272001431,0.15875457875457877,0.0,2.5441025641025643
7.051914187002694,0.15875457875457877,0.0,2.5441025641025643
7.05673664000642,0.15875457875457877,0.0,2.5441025641025643
7.056845898005122,0.0,0.0,3.3
7.061592857004143,0.0,0.0,3.3
7.061763386001985,0.0,0.0,3.3
7.066498450003564,0.0,0.0,3.3
7.066603566003323,0.0,0.0,3.3
7.071375613006239,0.0,0.0,3.3
7.076818288005597,0.0,0.0,3.3
7.078561800000898,0.0,0.0,3.3
7.081787845003419,0.0,0.0,3.3
7.082601116002479,0.0,0.0,3.3
7.084132875002979,0.0,0.0,3.3
7.088026434001222,0.26673992673992675,0.0,0.2594871794871795
7.092777880003268,0.26673992673992675,0.0,0.2594871794871795
7.0984253760034335,0.26673992673992675,0.0,0.2594871794871795
7.098670621002384,0.3231501831501831,0.0,3.249230769230769
7.103933147001953,0.3231501831501831,0.0,3.249230769230769
7.107074639003258,0.3231501831501831,0.0,3.249230769230769
7.108789436999359,0.3231501831501831,0.0,3.249230769230769
7.111790187002043,0.3231501831501831,0.0,3.249230769230769
7.11482156800048,2.1750183150183147,0.0,3.3
7.117179700006091,2.1750183150183147,0.0,3.3
7.1174298059995635,2.1750183150183147,0.0,3.3
7.122883023999748,2.1750183150183147,0.0,3.3
7.124645872005203,2.1750183150183147,0.0,3.3
7.12783500700607,2.1750183150183147,0.0,3.3
7.128858914002194,0.5536263736263736,0.0,2.56989010989011
7.129699012999481,0.5536263736263736,0.0,2.56989010989011
7.131345877001877,0.5536263736263736,0.0,2.56989010989011
7.135402202002297,0.5536263736263736,0.0,2.56989010989011
7.1384041480050655,0.5536263736263736,0.0,2.56989010989011
7.140763061004691,0.5536263736263736,0.0,2.56989010989011
7.141020086004573,0.5536263736263736,0.0,2.56989010989011
7.146406862004369,0.5536263736263736,0.0,2.56989010989011
7.148638020000362,1.1386813186813185,0.0,2.5715018315018314
7.148943715001224,1.1386813186813185,0.0,2.5715018315018314
7.154109560004144,1.1386813186813185,0.0,2.5715018315018314
7.157113966000907,0.4698168498168498,0.0,0.5657142857142857
7.16006978200312,0.1829304029304029,0.0,3.3
7.162875598005485,0.1829304029304029,0.0,3.3
7.166401708003832,0.1829304029304029,0.0,3.3
7.166611719003413,0.1829304029304029,0.0,3.3
7.171369471005164,0.1829304029304029,0.0,3.3
7.171495505004714,0.1829304029304029,0.0,3.3
7.1762694510034635,0.1829304029304029,0.0,3.3
7.176450096005283,0.1829304029304029,0.0,3.3
7.181273503003467,0.1829304029304029,0.0,3.3
7.181363632000284,0.21194139194139192,0.0,0.6438827838827839
7.186334844001976,0.21194139194139192,0.0,0.6438827838827839
7.1910948360018665,0.21194139194139192,0.0,0.6438827838827839
7.191168925004604,0.21194139194139192,0.0,0.6438827838827839
7.195870542003831,0.21194139194139192,0.0,0.6438827838827839
7.196014537003066,0.17326007326007326,0.0,3.3
7.200795602002472,0.17326007326007326,0.0,3.3
7.200978332002705,0.4794871794871795,0.0,2.5441025641025643
7.205739522003569,0.4794871794871795,0.0,2.5441025641025643
7.205912219003949,0.4794871794871795,0.0,2.5441025641025643
7.210651555004006,0.4794871794871795,0.0,2.5441025641025643
7.210861775005469,0.6986813186813187,0.0,2.5747252747252745
7.2155906360058,0.11684981684981684,0.0,0.29816849816849816
7.215810298999713,0.11684981684981684,0.0,0.29816849816849816
7.220541884002159,0.11684981684981684,0.0,0.29816849816849816
7.2253593650020775,0.11684981684981684,0.0,0.29816849816849816
7.225439442001516,0.11684981684981684,0.0,0.29816849816849816
7.230220179000753,0.11684981684981684,0.0,0.29816849816849816
7.230366811003478,0.11684981684981684,0.0,0.29816849816849816
7.235147204999521,0.11684981684981684,0.0,0.29816849816849816
7.235221191003802,0.11684981684981684,0.0,0.29816849816849816
7.239906585004064,0.11684981684981684,0.0,0.29816849816849816
7.240081524003472,0.11684981684981684,0.0,0.29816849816849816
7.244785254006274,0.11684981684981684,0.0,0.29816849816849816
7.245030965001206,0.11684981684981684,0.0,0.29816849816849816
7.249719726001786,0.11684981684981684,0.0,0.29816849816849816
7.2499573300010525,0.11684981684981684,0.0,0.29816849816849816
7.25471063900477,0.11684981684981684,0.0,0.29816849816849816
7.254824777999602,0.11684981684981684,0.0,0.29816849816849816
7.25954021600046,0.11684981684981684,0.0,0.29816849816849816
7.25965878200077,0.11684981684981684,0.0,0.29816849816849816
7.264368625001225,0.11684981684981684,0.0,0.29816849816849816
7.264611389000493,0.11684981684981684,0.0,0.29816849816849816
7.269354727002792,0.11684981684981684,0.0,0.29816849816849816
7.269516232001479,0.11684981684981684,0.0,0.29816849816849816
7.274263403000077,0.11684981684981684,0.0,0.29816849816849816
7.274489062001521,0.6777289377289377,0.0,2.5432967032967033
7.27922552000382,0.6777289377289377,0.0,2.5432967032967033
