time,emg1,emg2,emg3
0.021304795998730697,1.1136996336996337,0.5890842490842491,2.5787545787545785
0.04249076700216392,1.1136996336996337,0.5890842490842491,2.5787545787545785
0.055020810999849346,0.0,0.4432234432234432,0.6809523809523809
0.055275546001212206,0.0,0.4432234432234432,0.6809523809523809
0.06350241100153653,0.0,0.4432234432234432,0.6809523809523809
0.07094504099950427,0.8856410256410255,0.7486446886446886,2.565860805860806
0.07829710599617101,0.8856410256410255,0.7486446886446886,2.565860805860806
0.08444659099768614,0.3537728937728937,0.0547985347985348,0.21999999999999997
0.08946390399796655,0.3537728937728937,0.0547985347985348,0.21999999999999997
0.09448678299668245,0.3537728937728937,0.0547985347985348,0.21999999999999997
0.0962079349992564,0.3537728937728937,0.0547985347985348,0.21999999999999997
0.10069475600175792,0.3537728937728937,0.0547985347985348,0.21999999999999997
0.10090034500171896,0.9033699633699634,0.39487179487179486,2.5755311355311354
0.10915143999591237,0.9033699633699634,0.39487179487179486,2.5755311355311354
0.11588579999806825,0.9033699633699634,0.39487179487179486,2.5755311355311354
0.121436649998941,0.32717948717948714,0.0547985347985348,0.4964102564102564
0.12160374299855903,0.32717948717948714,0.0547985347985348,0.4964102564102564
0.12913229299738305,0.32717948717948714,0.0547985347985348,0.4964102564102564
0.13413570199918468,0.6736996336996337,0.5987545787545787,3.3
0.1414472550022765,0.6736996336996337,0.5987545787545787,3.3
0.14838869399682153,1.2176556776556777,0.7373626373626374,2.5755311355311354
0.15391213900147704,1.2176556776556777,0.7373626373626374,2.5755311355311354
0.16379205200064462,1.2176556776556777,0.7373626373626374,2.5755311355311354
0.17244347900123103,1.2176556776556777,0.7373626373626374,2.5755311355311354
0.18043033399590058,1.2176556776556777,0.7373626373626374,2.5755311355311354
0.18648373399628326,0.29736263736263735,0.045128205128205125,0.1668131868131868
0.19054229000175837,0.29736263736263735,0.045128205128205125,0.1668131868131868
0.195929043002252,0.29736263736263735,0.045128205128205125,0.1668131868131868
0.19624646000011126,0.29736263736263735,0.045128205128205125,0.1668131868131868
0.20553198099514702,0.29736263736263735,0.045128205128205125,0.1668131868131868
0.21549496399529744,0.8727472527472527,0.7494505494505495,3.1984615384615385
0.22379492299660342,0.8727472527472527,0.7494505494505495,3.1984615384615385
0.23484575800102903,0.5632967032967032,0.34007326007326005,2.561025641025641
0.24120331699668895,0.253040293040293,0.2715750915750916,2.988937728937729
0.2453474739959347,0.253040293040293,0.2715750915750916,2.988937728937729
0.24794892800127855,0.253040293040293,0.2715750915750916,2.988937728937729
0.25311554099607747,0.6946520146520146,0.39406593406593404,2.5561904761904763
0.25650331899669254,0.6946520146520146,0.39406593406593404,2.5561904761904763
0.256743051999365,0.6946520146520146,0.39406593406593404,2.5561904761904763
0.2634791699965717,0.6946520146520146,0.39406593406593404,2.5561904761904763
0.26772210100170923,0.6946520146520146,0.39406593406593404,2.5561904761904763
0.2706457230015076,0.6946520146520146,0.39406593406593404,2.5561904761904763
0.2764509089975036,0.6946520146520146,0.39406593406593404,2.5561904761904763
0.2835057420015801,0.6946520146520146,0.39406593406593404,2.5561904761904763
0.28853765199892223,0.6946520146520146,0.39406593406593404,2.5561904761904763
0.29252360399550525,0.6946520146520146,0.39406593406593404,2.5561904761904763
0.29589825899893185,0.6946520146520146,0.39406593406593404,2.5561904761904763
0.2962054090021411,0.6946520146520146,0.39406593406593404,2.5561904761904763
0.30133652099902974,0.6946520146520146,0.39406593406593404,2.5561904761904763
0.304496229000506,0.6946520146520146,0.39406593406593404,2.5561904761904763
0.3062061239979812,0.6946520146520146,0.39406593406593404,2.5561904761904763
0.31263781499728793,0.6946520146520146,0.39406593406593404,2.5561904761904763
0.3162738300015917,0.5979487179487178,0.3352380952380952,3.3
0.3214856670019799,0.5979487179487178,0.3352380952380952,3.3
0.32884629399632104,0.5979487179487178,0.3352380952380952,3.3
0.33292949099995894,0.5890842490842491,0.29413919413919415,2.553772893772894
0.3347311109973816,0.5890842490842491,0.29413919413919415,2.553772893772894
0.3380843949998962,0.5890842490842491,0.29413919413919415,2.553772893772894
0.3392097809992265,0.5890842490842491,0.29413919413919415,2.553772893772894
0.3394828070013318,0.5890842490842491,0.29413919413919415,2.553772893772894
0.346377786998346,0.5890842490842491,0.29413919413919415,2.553772893772894
0.35048388299765065,0.5890842490842491,0.29413919413919415,2.553772893772894
0.3530305029998999,0.5890842490842491,0.29413919413919415,2.553772893772894
0.35931525199703174,0.356996336996337,0.14505494505494507,1.378021978021978
0.36458334799681325,0.356996336996337,0.14505494505494507,1.378021978021978
0.3655903170001693,0.356996336996337,0.14505494505494507,1.378021978021978
0.36656755700096255,0.5052747252747253,0.4585347985347985,3.3
0.36754355800076155,0.5052747252747253,0.4585347985347985,3.3
0.36934624199784594,0.5052747252747253,0.4585347985347985,3.3
0.3718254019986489,0.5052747252747253,0.4585347985347985,3.3
0.3719674399981159,0.5052747252747253,0.4585347985347985,3.3
0.3805953109986149,0.5052747252747253,0.4585347985347985,3.3
0.38563972400152124,0.5052747252747253,0.4585347985347985,3.3
0.3899407950011664,0.5052747252747253,0.4585347985347985,3.3
0.39262280399998417,0.5052747252747253,0.4585347985347985,3.3
0.3982437869999558,0.5052747252747253,0.4585347985347985,3.3
0.398443555997801,0.5052747252747253,0.4585347985347985,3.3
0.40359470000112196,0.5052747252747253,0.4585347985347985,3.3
0.40687603499827674,0.3183150183150183,0.39487179487179486,2.5545787545787544
0.4072247270014486,0.8598534798534798,0.6712820512820512,3.3
0.41480066099757096,0.8598534798534798,0.6712820512820512,3.3
0.4202622259981581,0.8598534798534798,0.6712820512820512,3.3
0.4220476799964672,1.0693772893772893,0.7921611721611721,2.565860805860806
0.4282687419981812,1.0693772893772893,0.7921611721611721,2.565860805860806
0.43203186400205595,0.07172161172161172,0.5238095238095237,0.20065934065934066
0.4370777090007323,0.07172161172161172,0.5238095238095237,0.20065934065934066
0.4431392569968011,0.07172161172161172,0.5238095238095237,0.20065934065934066
0.4478390779986512,0.07172161172161172,0.5238095238095237,0.20065934065934066
0.4528298529985477,0.5794139194139193,0.39809523809523806,2.552967032967033
0.4600667229969986,0.5794139194139193,0.39809523809523806,2.552967032967033
0.4637345520022791,0.3489377289377289,0.083003663003663,0.3432967032967033
0.4695412930013845,0.4391941391941392,0.5866666666666667,1.3457875457875457
0.4762226960010594,0.8292307692307692,0.5713553113553113,2.545714285714286
0.4813821049974649,0.8292307692307692,0.5713553113553113,2.545714285714286
0.4857800559984753,0.8292307692307692,0.5713553113553113,2.545714285714286
0.49714669899549335,0.8292307692307692,0.5713553113553113,2.545714285714286
0.5040950159964268,0.8292307692307692,0.5713553113553113,2.545714285714286
0.5092227759960224,0.8292307692307692,0.5713553113553113,2.545714285714286
0.5136887810003827,0.8292307692307692,0.5713553113553113,2.545714285714286
0.5139273940003477,0.8292307692307692,0.5713553113553113,2.545714285714286
0.5190354930018657,0.8292307692307692,0.5713553113553113,2.545714285714286
0.5239307419979014,0.29816849816849816,0.05318681318681319,0.24739926739926738
0.5307583059984609,0.29816849816849816,0.05318681318681319,0.24739926739926738
0.5361467629991239,0.29816849816849816,0.05318681318681319,0.24739926739926738
0.5374636330016074,0.29816849816849816,0.05318681318681319,0.24739926739926738
0.5471386079952936,0.29816849816849816,0.05318681318681319,0.24739926739926738
0.5548876190005103,0.29816849816849816,0.05318681318681319,0.24739926739926738
0.5599353200013866,0.29816849816849816,0.05318681318681319,0.24739926739926738
0.5634308349981438,0.29816849816849816,0.05318681318681319,0.24739926739926738
0.5636907020016224,0.29816849816849816,0.05318681318681319,0.24739926739926738
0.5697842599984142,0.29816849816849816,0.05318681318681319,0.24739926739926738
0.5739987069973722,0.6052014652014651,0.42710622710622714,3.3
0.5767626969973207,0.49157509157509155,0.083003663003663,0.4762637362637362
0.5811734750022879,0.49157509157509155,0.083003663003663,0.4762637362637362
0.5827725919953082,0.49157509157509155,0.083003663003663,0.4762637362637362
0.5909954109956743,0.49157509157509155,0.083003663003663,0.4762637362637362
0.5984189969967701,0.49157509157509155,0.083003663003663,0.4762637362637362
0.6025816449982813,0.49157509157509155,0.083003663003663,0.4762637362637362
0.6050451920018531,0.49157509157509155,0.083003663003663,0.4762637362637362
0.6137777539988747,0.49157509157509155,0.083003663003663,0.4762637362637362
0.6190636309984257,0.49157509157509155,0.083003663003663,0.4762637362637362
0.6230660599976545,0.49157509157509155,0.083003663003663,0.4762637362637362
0.6277351370008546,0.49157509157509155,0.083003663003663,0.4762637362637362
0.6352674840018153,0.49157509157509155,0.083003663003663,0.4762637362637362
0.63984732300014,0.5141391941391941,0.14424908424908423,0.8832234432234431
0.6400768349994905,0.5141391941391941,0.14424908424908423,0.8832234432234431
0.6507709590005106,0.5141391941391941,0.14424908424908423,0.8832234432234431
0.6600054739974439,0.0,0.5028571428571429,1.1942857142857142
0.6656177779950667,0.4762637362637362,0.045128205128205125,0.195018315018315
0.6658626200005529,0.4762637362637362,0.045128205128205125,0.195018315018315
0.6733331880022888,0.4762637362637362,0.045128205128205125,0.195018315018315
0.6783149219991174,0.4762637362637362,0.045128205128205125,0.195018315018315
0.682648492998851,0.30542124542124544,0.06043956043956044,0.356996336996337
0.6835920649973559,0.30542124542124544,0.06043956043956044,0.356996336996337
0.6852838740014704,0.30542124542124544,0.06043956043956044,0.356996336996337
0.6893069809957524,0.30542124542124544,0.06043956043956044,0.356996336996337
0.6936241759976838,0.30542124542124544,0.06043956043956044,0.356996336996337
0.6939561729959678,0.30542124542124544,0.06043956043956044,0.356996336996337
0.7024290109984577,0.30542124542124544,0.06043956043956044,0.356996336996337
0.7076831590020447,0.0,0.5423443223443223,1.1435164835164835
0.7112946970009943,0.5649084249084249,0.6809523809523809,2.5634432234432234
0.7165216969951871,0.5649084249084249,0.6809523809523809,2.5634432234432234
0.7189633609959856,0.5649084249084249,0.6809523809523809,2.5634432234432234
0.7191857910002,0.5649084249084249,0.6809523809523809,2.5634432234432234
0.7254696999953012,0.5649084249084249,0.6809523809523809,2.5634432234432234
0.7318008639995242,0.5649084249084249,0.6809523809523809,2.5634432234432234
0.7365061509990483,0.4158241758241758,0.3304029304029304,2.5545787545787544
0.742572734998248,0.4158241758241758,0.3304029304029304,2.5545787545787544
0.7476821489981376,1.2184615384615385,0.6301831501831501,2.5787545787545785
0.7502826540003298,1.2184615384615385,0.6301831501831501,2.5787545787545785
0.7551455399952829,1.2184615384615385,0.6301831501831501,2.5787545787545785
0.7618541760020889,1.2184615384615385,0.6301831501831501,2.5787545787545785
0.7653846550019807,1.2184615384615385,0.6301831501831501,2.5787545787545785
0.765593178999552,0.4432234432234432,0.5536263736263736,1.4932600732600732
0.7706180379973375,0.4432234432234432,0.5536263736263736,1.4932600732600732
0.7763549289957155,0.4432234432234432,0.5536263736263736,1.4932600732600732
0.776475610997295,0.22644688644688646,0.10556776556776555,0.19904761904761903
0.7824876029990264,0.22644688644688646,0.10556776556776555,0.19904761904761903
0.7872763810009928,0.22644688644688646,0.10556776556776555,0.19904761904761903
0.7935227509951801,0.22644688644688646,0.10556776556776555,0.19904761904761903
0.7973999489986454,0.22644688644688646,0.10556776556776555,0.19904761904761903
0.8008742929960135,0.22644688644688646,0.10556776556776555,0.19904761904761903
0.8010251480009174,1.2015384615384614,0.5721611721611721,2.577948717948718
0.8068634509982076,1.2015384615384614,0.5721611721611721,2.577948717948718
0.8069786240012036,1.2015384615384614,0.5721611721611721,2.577948717948718
0.8131872119993204,1.2015384615384614,0.5721611721611721,2.577948717948718
0.81740116400033,1.2015384615384614,0.5721611721611721,2.577948717948718
0.8200745540016214,1.2015384615384614,0.5721611721611721,2.577948717948718
0.8248355979958433,1.2015384615384614,0.5721611721611721,2.577948717948718
0.8297362890007207,1.2015384615384614,0.5721611721611721,2.577948717948718
0.8340210249953088,0.5915018315018314,0.4512820512820513,3.3
0.8358062679981231,0.5915018315018314,0.4512820512820513,3.3
0.8389800139993895,0.30139194139194136,0.025787545787545788,0.18857142857142856
0.8409342669983744,0.30139194139194136,0.025787545787545788,0.18857142857142856
0.8444597839989001,0.30139194139194136,0.025787545787545788,0.18857142857142856
0.8521669280016795,0.1241025641025641,0.3618315018315018,2.686739926739927
0.857081741996808,0.4851282051282051,0.4198534798534798,2.5586080586080584
0.8650111599999946,0.4851282051282051,0.4198534798534798,2.5586080586080584
0.8729855229976238,0.4851282051282051,0.4198534798534798,2.5586080586080584
0.8799905630003195,0.4851282051282051,0.4198534798534798,2.5586080586080584
0.8842182539956411,0.684981684981685,0.7043223443223443,2.5634432234432234
0.886966145997576,0.684981684981685,0.7043223443223443,2.5634432234432234
0.8919113699957961,0.684981684981685,0.7043223443223443,2.5634432234432234
0.8979860740000731,0.5729670329670329,0.3972893772893773,2.5666666666666664
0.901578311000776,0.4512820512820513,0.08542124542124542,0.6833699633699634
0.9017821329980507,0.4512820512820513,0.08542124542124542,0.6833699633699634
0.9084810529966489,0.4512820512820513,0.08542124542124542,0.6833699633699634
0.9128159620013321,0.5624908424908425,0.41018315018315016,2.565054945054945
0.9138157099951059,0.5624908424908425,0.41018315018315016,2.565054945054945
0.9147688279990689,0.5624908424908425,0.41018315018315016,2.565054945054945
0.9165999699980603,0.5624908424908425,0.41018315018315016,2.565054945054945
0.9191042509992258,0.5624908424908425,0.41018315018315016,2.565054945054945
0.9192383209956461,0.5624908424908425,0.41018315018315016,2.565054945054945
0.925349418001133,0.5624908424908425,0.41018315018315016,2.565054945054945
0.9313489650012343,0.5624908424908425,0.41018315018315016,2.565054945054945
0.9345640120009193,0.5624908424908425,0.41018315018315016,2.565054945054945
0.9363412609964143,0.5624908424908425,0.41018315018315016,2.565054945054945
0.9389863690012135,0.5624908424908425,0.41018315018315016,2.565054945054945
0.9463656799998716,0.5624908424908425,0.41018315018315016,2.565054945054945
0.9505611799977487,0.5624908424908425,0.41018315018315016,2.565054945054945
0.9530434959960985,0.5624908424908425,0.41018315018315016,2.565054945054945
0.9532376770002884,0.5624908424908425,0.41018315018315016,2.565054945054945
0.9606632299983175,0.5624908424908425,0.41018315018315016,2.565054945054945
0.9656973410019418,0.5624908424908425,0.41018315018315016,2.565054945054945
0.9690874609950697,0.6132600732600733,0.5963369963369963,2.5465201465201464
0.9693213299979107,0.6132600732600733,0.5963369963369963,2.5465201465201464
0.9777852939951117,0.41018315018315016,0.3779487179487179,2.5626373626373624
0.982773381001607,0.30945054945054945,0.06688644688644689,0.7043223443223443
0.9868193579968647,1.012161172161172,0.7027106227106227,2.581172161172161
0.9892087049956899,1.012161172161172,0.7027106227106227,2.581172161172161
0.989416288000939,1.012161172161172,0.7027106227106227,2.581172161172161
0.996576236000692,1.012161172161172,0.7027106227106227,2.581172161172161
1.0009198789994116,1.012161172161172,0.7027106227106227,2.581172161172161
1.0027152629991178,1.012161172161172,0.7027106227106227,2.581172161172161
1.0059183490011492,1.012161172161172,0.7027106227106227,2.581172161172161
1.00723385099991,0.3698901098901099,0.46175824175824176,2.5545787545787544
1.0074155299953418,0.3698901098901099,0.46175824175824176,2.5545787545787544
1.013568734000728,0.3698901098901099,0.46175824175824176,2.5545787545787544
1.0169876649961225,0.3698901098901099,0.46175824175824176,2.5545787545787544
1.017868531998829,0.3698901098901099,0.46175824175824176,2.5545787545787544
1.0188288150020526,0.3698901098901099,0.46175824175824176,2.5545787545787544
1.0197968680004124,0.3698901098901099,0.46175824175824176,2.5545787545787544
1.0214764379998087,0.3698901098901099,0.46175824175824176,2.5545787545787544
1.0265486659991439,0.3698901098901099,0.46175824175824176,2.5545787545787544
1.0328784489975078,0.3698901098901099,0.46175824175824176,2.5545787545787544
1.0368859689988312,0.3698901098901099,0.46175824175824176,2.5545787545787544
1.0406383989975438,0.3698901098901099,0.46175824175824176,2.5545787545787544
1.0494488109980011,0.3698901098901099,0.46175824175824176,2.5545787545787544
1.0543028850006522,0.3698901098901099,0.46175824175824176,2.5545787545787544
1.0614548800003831,0.307032967032967,0.0701098901098901,0.9565567765567766
1.0648364209991996,0.6986813186813187,0.776043956043956,2.5682783882783884
1.0652190010005143,0.6986813186813187,0.776043956043956,2.5682783882783884
1.0700962749979226,0.6986813186813187,0.776043956043956,2.5682783882783884
1.0772262509999564,0.6986813186813187,0.776043956043956,2.5682783882783884
1.0808808919973671,0.46336996336996333,0.1095970695970696,0.6043956043956044
1.08646962599596,0.46336996336996333,0.1095970695970696,0.6043956043956044
1.0873312010007794,0.46336996336996333,0.1095970695970696,0.6043956043956044
1.0890866059999098,0.46336996336996333,0.1095970695970696,0.6043956043956044
1.0925538199953735,0.46336996336996333,0.1095970695970696,0.6043956043956044
1.092804444997455,0.46336996336996333,0.1095970695970696,0.6043956043956044
1.0987005540009704,0.46336996336996333,0.1095970695970696,0.6043956043956044
1.1040967099979753,0.46336996336996333,0.1095970695970696,0.6043956043956044
1.1064868289977312,0.46336996336996333,0.1095970695970696,0.6043956043956044
1.1122172819959815,0.3586080586080586,0.39567765567765567,3.3
1.1124551100001554,0.3586080586080586,0.39567765567765567,3.3
1.1182102899983875,0.49399267399267394,0.15875457875457877,1.3619047619047617
1.1184153439971851,0.49399267399267394,0.15875457875457877,1.3619047619047617
1.1239349550014595,0.49399267399267394,0.15875457875457877,1.3619047619047617
1.1247833109955536,0.2482051282051282,0.386007326007326,2.5682783882783884
1.126413831996615,0.2482051282051282,0.386007326007326,2.5682783882783884
1.130816478995257,0.2482051282051282,0.386007326007326,2.5682783882783884
1.1311014269958832,0.2482051282051282,0.386007326007326,2.5682783882783884
1.1367596089985454,0.2482051282051282,0.386007326007326,2.5682783882783884
1.1377789699981804,0.2482051282051282,0.386007326007326,2.5682783882783884
1.1380634529996314,0.2482051282051282,0.386007326007326,2.5682783882783884
1.1439215659993351,0.2482051282051282,0.386007326007326,2.5682783882783884
1.1507065089972457,0.2482051282051282,0.386007326007326,2.5682783882783884
1.1558800130005693,0.518974358974359,0.61003663003663,3.3
1.1578618009953061,0.4158241758241758,0.1523076923076923,1.39010989010989
1.1593547169977683,0.4158241758241758,0.1523076923076923,1.39010989010989
1.1643816610012436,0.4158241758241758,0.1523076923076923,1.39010989010989
1.1675119540013839,0.4158241758241758,0.1523076923076923,1.39010989010989
1.1698869690007996,0.4158241758241758,0.1523076923076923,1.39010989010989
1.1699899899977027,0.4158241758241758,0.1523076923076923,1.39010989010989
1.1785449000017252,0.4158241758241758,0.1523076923076923,1.39010989010989
1.1838008979975712,0.3078388278388278,0.2909157509157509,2.386153846153846
1.1854336569958832,0.3078388278388278,0.2909157509157509,2.386153846153846
1.189352807996329,0.3078388278388278,0.2909157509157509,2.386153846153846
1.1938681669998914,0.3078388278388278,0.2909157509157509,2.386153846153846
1.1947341400009464,0.3723076923076923,0.14505494505494507,1.5424175824175823
1.1962960449964157,0.3723076923076923,0.14505494505494507,1.5424175824175823
1.2008054859979893,0.3723076923076923,0.14505494505494507,1.5424175824175823
1.2010936919978121,0.3723076923076923,0.14505494505494507,1.5424175824175823
1.2064023900020402,0.3723076923076923,0.14505494505494507,1.5424175824175823
1.209678865998285,0.3723076923076923,0.14505494505494507,1.5424175824175823
1.2105319339971174,0.3723076923076923,0.14505494505494507,1.5424175824175823
1.2121609819951118,0.3723076923076923,0.14505494505494507,1.5424175824175823
1.21609516999888,0.3723076923076923,0.14505494505494507,1.5424175824175823
1.2205984559986973,0.22886446886446887,0.08783882783882783,0.23208791208791207
1.2214843979963916,0.5995604395604395,0.7502564102564102,2.5763369963369964
1.223422864000895,0.5995604395604395,0.7502564102564102,2.5763369963369964
1.225685245997738,0.10315018315018315,0.3497435897435897,2.5755311355311354
1.2258591179997893,0.10315018315018315,0.3497435897435897,2.5755311355311354
1.2302344830022776,0.10315018315018315,0.3497435897435897,2.5755311355311354
1.2324169109997456,0.10315018315018315,0.3497435897435897,2.5755311355311354
1.2332083820001571,0.10315018315018315,0.3497435897435897,2.5755311355311354
1.234785752996686,0.10315018315018315,0.3497435897435897,2.5755311355311354
1.2384989409983973,0.10315018315018315,0.3497435897435897,2.5755311355311354
1.2434502229953068,0.10315018315018315,0.3497435897435897,2.5755311355311354
1.2477578010002617,0.10315018315018315,0.3497435897435897,2.5755311355311354
1.2493506120008533,0.43999999999999995,0.5705494505494505,2.552967032967033
1.2536839410022367,0.253040293040293,0.4198534798534798,2.5545787545787544
1.2559341279993532,0.4899633699633699,0.4045421245421245,2.694798534798535
1.2567196339950897,0.4899633699633699,0.4045421245421245,2.694798534798535
1.258306800002174,0.4899633699633699,0.4045421245421245,2.694798534798535
1.2625890519993845,0.4899633699633699,0.4045421245421245,2.694798534798535
1.2649159389984561,0.0,0.4625641025641025,1.7382417582417582
1.2652064729991253,0.0,0.4625641025641025,1.7382417582417582
1.2701894359997823,0.0,0.4625641025641025,1.7382417582417582
1.274466623995977,0.0,0.4625641025641025,1.7382417582417582
1.276674043998355,0.0,0.4625641025641025,1.7382417582417582
1.2775040029955562,0.0,0.4625641025641025,1.7382417582417582
1.2790588099960587,0.0,0.4625641025641025,1.7382417582417582
1.2843368649992044,0.0,0.4625641025641025,1.7382417582417582
1.2870212380003068,0.0,0.4625641025641025,1.7382417582417582
1.290952928000479,0.0,0.4625641025641025,1.7382417582417582
1.295168395001383,0.0,0.4625641025641025,1.7382417582417582
1.2974720540005364,0.0,0.4625641025641025,1.7382417582417582
1.297701834999316,0.0,0.4625641025641025,1.7382417582417582
1.3032570249997661,0.0,0.4625641025641025,1.7382417582417582
1.3041863039979944,0.03062271062271062,0.4545054945054945,1.93003663003663
1.305834998995124,0.03062271062271062,0.4545054945054945,1.93003663003663
1.3097158769960515,0.03062271062271062,0.4545054945054945,1.93003663003663
1.3143308349972358,0.03062271062271062,0.4545054945054945,1.93003663003663
1.3145942279952578,0.03062271062271062,0.4545054945054945,1.93003663003663
1.3199605449990486,0.03062271062271062,0.4545054945054945,1.93003663003663
1.3214641049999045,0.03062271062271062,0.4545054945054945,1.93003663003663
1.3264524600017467,0.03062271062271062,0.4545054945054945,1.93003663003663
1.3307451770015177,0.03062271062271062,0.4545054945054945,1.93003663003663
1.3323319959963555,0.253040293040293,0.41018315018315016,3.3
1.3366596159976325,0.253040293040293,0.41018315018315016,3.3
1.3375318839971442,0.4738461538461538,0.1095970695970696,0.7413919413919414
1.3391332489991328,0.4738461538461538,0.1095970695970696,0.7413919413919414
1.3433418119966518,0.4738461538461538,0.1095970695970696,0.7413919413919414
1.345572092999646,0.33604395604395604,0.42710622710622714,2.5666666666666664
1.3458597380013089,0.33604395604395604,0.42710622710622714,2.5666666666666664
1.3507730580022326,0.33604395604395604,0.42710622710622714,2.5666666666666664
1.3509057439950993,0.33604395604395604,0.42710622710622714,2.5666666666666664
1.3558090270016692,0.33604395604395604,0.42710622710622714,2.5666666666666664
1.3559253939965856,0.41340659340659336,0.08945054945054945,0.4126007326007326
1.360812220002117,0.41340659340659336,0.08945054945054945,0.4126007326007326
1.3609877439957927,0.8808058608058608,0.7994139194139194,2.5787545787545785
1.3662345849952544,0.4778754578754579,0.4391941391941392,2.5473260073260073
1.3691359820004436,0.5649084249084249,0.5818315018315018,3.3
1.3728730430011638,0.42065934065934063,0.41340659340659336,2.5586080586080584
1.3776473809994059,0.42065934065934063,0.41340659340659336,2.5586080586080584
1.3778407229983713,0.42065934065934063,0.41340659340659336,2.5586080586080584
1.3836214510010905,0.6938461538461538,0.6793406593406592,2.565860805860806
1.3838417689985363,0.6938461538461538,0.6793406593406592,2.565860805860806
1.389210057001037,0.25223443223443226,0.5213919413919413,1.5553113553113551
1.3916233999989345,0.25223443223443226,0.5213919413919413,1.5553113553113551
1.3918768969961093,0.25223443223443226,0.5213919413919413,1.5553113553113551
1.3965127749979729,0.25223443223443226,0.5213919413919413,1.5553113553113551
1.3968163899990031,0.25223443223443226,0.5213919413919413,1.5553113553113551
1.4022267339969403,0.25223443223443226,0.5213919413919413,1.5553113553113551
1.4055336530000204,0.25223443223443226,0.5213919413919413,1.5553113553113551
1.4058358499969472,0.25223443223443226,0.5213919413919413,1.5553113553113551
1.4112547530021402,0.25223443223443226,0.5213919413919413,1.5553113553113551
1.4137674759986112,0.25223443223443226,0.5213919413919413,1.5553113553113551
1.4194800120021682,0.25223443223443226,0.5213919413919413,1.5553113553113551
1.4197152420019847,0.25223443223443226,0.5213919413919413,1.5553113553113551
1.4253723079964402,0.7268864468864469,0.46095238095238095,2.5787545787545785
1.425652199999604,0.7268864468864469,0.46095238095238095,2.5787545787545785
1.4309788569953525,0.7268864468864469,0.46095238095238095,2.5787545787545785
1.4333918999982416,0.7268864468864469,0.46095238095238095,2.5787545787545785
1.4335597699973732,0.7268864468864469,0.46095238095238095,2.5787545787545785
1.4389605019969167,0.7268864468864469,0.46095238095238095,2.5787545787545785
1.4406506459999946,0.2683516483516483,0.048351648351648346,0.224029304029304
1.4444681160020991,0.2683516483516483,0.048351648351648346,0.224029304029304
1.4497613220009953,0.2683516483516483,0.048351648351648346,0.224029304029304
1.4521902459964622,0.2683516483516483,0.048351648351648346,0.224029304029304
1.452370566999889,0.2683516483516483,0.048351648351648346,0.224029304029304
1.4578075070021441,0.2683516483516483,0.048351648351648346,0.224029304029304
1.4594339479954215,0.13619047619047617,0.04593406593406593,0.28849816849816845
1.4632549399975687,0.13619047619047617,0.04593406593406593,0.28849816849816845
1.4678374340001028,0.13619047619047617,0.04593406593406593,0.28849816849816845
1.4681717389976257,0.13619047619047617,0.04593406593406593,0.28849816849816845
1.4735109120010748,0.13619047619047617,0.04593406593406593,0.28849816849816845
1.4760123640007805,0.39890109890109887,0.047545787545787546,0.26915750915750913
1.4813825019955402,0.39890109890109887,0.047545787545787546,0.26915750915750913
1.4846477669998421,0.24175824175824176,0.5391208791208791,2.5030036630036627
1.4864325390008162,0.24175824175824176,0.5391208791208791,2.5030036630036627
1.489500602001499,0.7284981684981684,0.5657142857142857,2.5473260073260073
1.4911551479963236,0.7284981684981684,0.5657142857142857,2.5473260073260073
1.495909325996763,0.7284981684981684,0.5657142857142857,2.5473260073260073
1.5014241489989217,0.7284981684981684,0.5657142857142857,2.5473260073260073
1.5030073410016485,0.7284981684981684,0.5657142857142857,2.5473260073260073
1.5069757550008944,1.0605128205128205,0.7083516483516483,3.3
1.5101154129952192,1.0605128205128205,0.7083516483516483,3.3
1.5117662319971714,1.0605128205128205,0.7083516483516483,3.3
1.5150670340008219,1.0605128205128205,0.7083516483516483,3.3
1.51674160699622,1.0605128205128205,0.7083516483516483,3.3
1.5198546920000808,1.0605128205128205,0.7083516483516483,3.3
1.5223222029962926,1.0605128205128205,0.7083516483516483,3.3
1.5279675769997993,1.0605128205128205,0.7083516483516483,3.3
1.5282666130005964,1.0605128205128205,0.7083516483516483,3.3
1.5331834230019012,1.0605128205128205,0.7083516483516483,3.3
1.5386662969976896,1.0605128205128205,0.7083516483516483,3.3
1.5389678799983812,1.0605128205128205,0.7083516483516483,3.3
1.5438469639993855,1.0605128205128205,0.7083516483516483,3.3
1.549279597995337,0.3884249084249084,0.7462271062271062,1.9243956043956043
1.5516319169983035,0.3884249084249084,0.7462271062271062,1.9243956043956043
1.5517652679991443,0.3884249084249084,0.7462271062271062,1.9243956043956043
1.5570828130003065,0.3884249084249084,0.7462271062271062,1.9243956043956043
1.559436800002004,0.3884249084249084,0.7462271062271062,1.9243956043956043
1.559588250995148,0.3884249084249084,0.7462271062271062,1.9243956043956043
1.5649949489961728,0.3884249084249084,0.7462271062271062,1.9243956043956043
1.5667319259955548,0.3884249084249084,0.7462271062271062,1.9243956043956043
1.5698897510010283,0.3884249084249084,0.7462271062271062,1.9243956043956043
1.5722649300005287,0.2643223443223443,0.42710622710622714,3.3
1.572457330999896,0.2643223443223443,0.42710622710622714,3.3
1.5782100169963087,0.2643223443223443,0.42710622710622714,3.3
1.578485609999916,0.2643223443223443,0.42710622710622714,3.3
1.5834151550006936,0.2643223443223443,0.42710622710622714,3.3
1.5882137250009691,0.2643223443223443,0.42710622710622714,3.3
1.5884021870006109,0.2643223443223443,0.42710622710622714,3.3
1.5939824359957129,0.2643223443223443,0.42710622710622714,3.3
1.5943434629953117,0.5213919413919413,0.1402197802197802,0.7567032967032966
1.5996867239955463,0.5213919413919413,0.1402197802197802,0.7567032967032966
1.6021988079955918,0.5213919413919413,0.1402197802197802,0.7567032967032966
1.602345453997259,0.5213919413919413,0.1402197802197802,0.7567032967032966
1.607683909998741,0.5213919413919413,0.1402197802197802,0.7567032967032966
1.6101146809960483,0.5213919413919413,0.1402197802197802,0.7567032967032966
1.6102289310001652,0.5213919413919413,0.1402197802197802,0.7567032967032966
1.6157059489996755,0.5213919413919413,0.1402197802197802,0.7567032967032966
1.6172672460015747,0.5213919413919413,0.1402197802197802,0.7567032967032966
1.6211338149951189,0.5213919413919413,0.1402197802197802,0.7567032967032966
1.6259693419997348,0.25787545787545785,0.4126007326007326,2.552967032967033
1.630808313995658,0.25787545787545785,0.4126007326007326,2.552967032967033
1.6365499399980763,0.25787545787545785,0.4126007326007326,2.552967032967033
1.636817444996268,0.25787545787545785,0.4126007326007326,2.552967032967033
1.6421958200007793,0.25787545787545785,0.4126007326007326,2.552967032967033
1.6452700939989882,0.25787545787545785,0.4126007326007326,2.552967032967033
1.6476464879960986,0.5939194139194138,0.5342857142857143,2.884175824175824
1.647840723999252,0.5939194139194138,0.5342857142857143,2.884175824175824
1.6534185959972092,0.5939194139194138,0.5342857142857143,2.884175824175824
1.6542714449969935,0.5939194139194138,0.5342857142857143,2.884175824175824
1.6558385089956573,0.5939194139194138,0.5342857142857143,2.884175824175824
1.6594942259980598,0.5939194139194138,0.5342857142857143,2.884175824175824
1.6597053320001578,0.5939194139194138,0.5342857142857143,2.884175824175824
1.6647630149964243,0.5939194139194138,0.5342857142857143,2.884175824175824
1.6690420230006566,0.05802197802197802,0.5181684981684981,0.4158241758241758
1.671267550002085,0.36344322344322344,0.2715750915750916,3.3
1.6720794919965556,0.36344322344322344,0.2715750915750916,3.3
1.674264157001744,0.36344322344322344,0.2715750915750916,3.3
1.6745437139979913,0.36344322344322344,0.2715750915750916,3.3
1.6789120929970522,0.36344322344322344,0.2715750915750916,3.3
1.680465268997068,0.36344322344322344,0.2715750915750916,3.3
1.6848225489957258,0.36344322344322344,0.2715750915750916,3.3
1.6870391619959264,0.35619047619047617,0.5221978021978021,3.3
1.6873417289971258,0.6954578754578754,0.6712820512820512,3.3
1.6923416880017612,0.6954578754578754,0.6712820512820512,3.3
1.6966044719956699,0.6954578754578754,0.6712820512820512,3.3
1.6987861919988063,0.30139194139194136,0.06043956043956044,0.2111355311355311
1.6995624949995545,0.30139194139194136,0.06043956043956044,0.2111355311355311
1.70173065400013,0.30139194139194136,0.06043956043956044,0.2111355311355311
1.7025659270002507,0.30139194139194136,0.06043956043956044,0.2111355311355311
1.7047241069958545,0.30139194139194136,0.06043956043956044,0.2111355311355311
1.7055185220015119,0.30139194139194136,0.06043956043956044,0.2111355311355311
1.7076844420007546,0.30139194139194136,0.06043956043956044,0.2111355311355311
1.7085250579984859,0.30139194139194136,0.06043956043956044,0.2111355311355311
1.7100556930017774,0.30139194139194136,0.06043956043956044,0.2111355311355311
1.7150517999980366,0.30139194139194136,0.06043956043956044,0.2111355311355311
1.719286204999662,0.30139194139194136,0.06043956043956044,0.2111355311355311
1.721491887998127,0.30139194139194136,0.06043956043956044,0.2111355311355311
1.7223085160003393,0.30139194139194136,0.06043956043956044,0.2111355311355311
1.7238200150022749,0.30139194139194136,0.06043956043956044,0.2111355311355311
1.7287586199963698,0.30139194139194136,0.06043956043956044,0.2111355311355311
1.7336679059953894,0.30139194139194136,0.06043956043956044,0.2111355311355311
1.7386115959961899,0.30139194139194136,0.06043956043956044,0.2111355311355311
1.743627646996174,1.0806593406593406,0.7147985347985348,2.5755311355311354
1.7486003809972317,1.0492307692307692,0.6728937728937728,3.3
1.752944995998405,0.5923076923076923,0.46820512820512816,2.548937728937729
1.7545740259956801,0.49076923076923074,0.4021245421245421,2.544908424908425
1.7589194109968957,0.5769963369963369,0.0846153846153846,0.8888644688644688
1.761139975002152,0.5769963369963369,0.0846153846153846,0.8888644688644688
1.7614492369975778,0.5769963369963369,0.0846153846153846,0.8888644688644688
1.766423526998551,0.5769963369963369,0.0846153846153846,0.8888644688644688
1.7712226459989324,0.5769963369963369,0.0846153846153846,0.8888644688644688
1.777012275000743,0.5769963369963369,0.0846153846153846,0.8888644688644688
1.7830093279990251,0.5769963369963369,0.0846153846153846,0.8888644688644688
1.7885225339996396,0.5769963369963369,0.0846153846153846,0.8888644688644688
1.7894689929962624,0.5769963369963369,0.0846153846153846,0.8888644688644688
1.79040141999576,0.5769963369963369,0.0846153846153846,0.8888644688644688
1.7912865479956963,0.5769963369963369,0.0846153846153846,0.8888644688644688
1.7930469479979365,0.5769963369963369,0.0846153846153846,0.8888644688644688
1.7963326579993009,0.5769963369963369,0.0846153846153846,0.8888644688644688
1.7971834349955316,0.5769963369963369,0.0846153846153846,0.8888644688644688
1.7987881939989165,0.5769963369963369,0.0846153846153846,0.8888644688644688
1.8026524300003075,0.5769963369963369,0.0846153846153846,0.8888644688644688
1.8074616689991672,0.5769963369963369,0.0846153846153846,0.8888644688644688
1.8131085880013416,0.5608791208791208,0.5842490842490843,3.0066666666666664
1.813993664996815,0.43355311355311354,0.3578021978021978,2.5505494505494504
1.8151381989955553,0.43355311355311354,0.3578021978021978,2.5505494505494504
1.816032060996804,0.43355311355311354,0.3578021978021978,2.5505494505494504
1.817683806999412,0.43355311355311354,0.3578021978021978,2.5505494505494504
1.8216229600002407,0.43355311355311354,0.3578021978021978,2.5505494505494504
1.8257011559981038,0.43355311355311354,0.3578021978021978,2.5505494505494504
1.8288576490012929,0.6946520146520146,0.5600732600732601,3.3
1.8297858579971944,0.6946520146520146,0.5600732600732601,3.3
1.8314727190008853,0.6946520146520146,0.5600732600732601,3.3
1.8353880559952813,0.6946520146520146,0.5600732600732601,3.3
1.839223860995844,0.6946520146520146,0.5600732600732601,3.3
1.8446649409961537,0.6946520146520146,0.5600732600732601,3.3
1.8464962110010674,0.6946520146520146,0.5600732600732601,3.3
1.8489101359955384,0.6946520146520146,0.5600732600732601,3.3
1.849066832997778,0.6946520146520146,0.5600732600732601,3.3
1.8546267650017398,0.6946520146520146,0.5600732600732601,3.3
1.855544029000157,0.6946520146520146,0.5600732600732601,3.3
1.8571459379963926,0.2796336996336996,0.05318681318681319,0.18857142857142856
1.8610427339954185,0.2796336996336996,0.05318681318681319,0.18857142857142856
1.8659557919963845,0.2796336996336996,0.40534798534798533,2.5626373626373624
1.8713883929958683,0.2796336996336996,0.40534798534798533,2.5626373626373624
1.8739127980006742,0.6551648351648351,0.39809523809523806,3.3
1.879493073996855,0.6551648351648351,0.39809523809523806,3.3
1.8803302199958125,0.32395604395604394,0.06849816849816849,0.26996336996336995
1.8820780899986858,0.32395604395604394,0.06849816849816849,0.26996336996336995
1.885268828002154,0.32395604395604394,0.06849816849816849,0.26996336996336995
1.8870201509998878,0.32395604395604394,0.06849816849816849,0.26996336996336995
1.890147997000895,0.32395604395604394,0.06849816849816849,0.26996336996336995
1.8926374689981458,0.32395604395604394,0.06849816849816849,0.26996336996336995
1.892738932998327,0.47706959706959706,0.27399267399267396,3.3
1.8983030669987784,0.47706959706959706,0.27399267399267396,3.3
1.900026119001268,0.25545787545787546,0.06124542124542124,0.2071062271062271
1.9034521989960922,0.25545787545787546,0.06124542124542124,0.2071062271062271
1.9035994660007418,0.25545787545787546,0.06124542124542124,0.2071062271062271
1.9092828329958138,0.25545787545787546,0.06124542124542124,0.2071062271062271
1.9095214670014684,0.25545787545787546,0.06124542124542124,0.2071062271062271
1.9150951260016882,0.25545787545787546,0.06124542124542124,0.2071062271062271
1.9159682449972024,0.25545787545787546,0.06124542124542124,0.2071062271062271
1.917547407996608,0.25545787545787546,0.06124542124542124,0.2071062271062271
1.9214492109967978,0.25545787545787546,0.06124542124542124,0.2071062271062271
1.9259609840009944,0.25545787545787546,0.06124542124542124,0.2071062271062271
1.9267900069971802,0.25545787545787546,0.06124542124542124,0.2071062271062271
1.9283839349955088,0.25545787545787546,0.06124542124542124,0.2071062271062271
1.9322847189978347,0.42710622710622714,0.49238095238095236,3.3
1.9369329740002286,0.42710622710622714,0.49238095238095236,3.3
1.9371000050014118,0.42710622710622714,0.49238095238095236,3.3
1.9425873290019808,0.42710622710622714,0.49238095238095236,3.3
1.944321390001278,0.42710622710622714,0.49238095238095236,3.3
1.947635746000742,0.0,0.43032967032967034,0.2917216117216117
1.9485249669960467,0.0,0.43032967032967034,0.2917216117216117
1.95009481300076,0.0,0.43032967032967034,0.2917216117216117
1.9541660909962957,0.0,0.43032967032967034,0.2917216117216117
1.9580844519950915,0.0,0.43032967032967034,0.2917216117216117
1.9619561419967795,0.3811721611721612,0.06688644688644689,0.45772893772893775
1.9665940289996797,0.3811721611721612,0.06688644688644689,0.45772893772893775
1.9667868300020928,0.3811721611721612,0.06688644688644689,0.45772893772893775
1.9723443879993283,0.3811721611721612,0.06688644688644689,0.45772893772893775
1.9732455650009797,0.3811721611721612,0.06688644688644689,0.45772893772893775
1.9749299489994883,0.32717948717948714,0.28527472527472525,1.9985347985347983
1.9781854419998126,0.32717948717948714,0.28527472527472525,1.9985347985347983
1.979804893999244,0.32717948717948714,0.28527472527472525,1.9985347985347983
1.9838006509962725,0.32717948717948714,0.28527472527472525,1.9985347985347983
1.9878336299952934,0.224029304029304,0.3755311355311355,2.5666666666666664
1.9909204860014142,0.1813186813186813,0.2909157509157509,3.2564835164835166
1.9932545269984985,0.2175824175824176,0.2756043956043956,2.552967032967033
1.993584876996465,0.3158974358974359,0.17648351648351646,1.7406593406593407
1.9990617570001632,0.3158974358974359,0.17648351648351646,1.7406593406593407
2.0006471279994003,0.3158974358974359,0.17648351648351646,1.7406593406593407
2.005344338998839,0.3158974358974359,0.17648351648351646,1.7406593406593407
2.0056039939954644,0.0,0.4142124542124542,2.1057142857142854
2.0102144749980653,0.0,0.4142124542124542,2.1057142857142854
2.011077261995524,0.4013186813186813,0.39487179487179486,2.5602197802197804
2.0127204339951277,0.4013186813186813,0.39487179487179486,2.5602197802197804
2.0167567519965814,0.4013186813186813,0.39487179487179486,2.5602197802197804
2.0205594380022376,0.4013186813186813,0.39487179487179486,2.5602197802197804
2.025226958998246,0.4013186813186813,0.39487179487179486,2.5602197802197804
2.025410294001631,0.9267399267399267,0.5794139194139193,3.3
2.03018678099761,0.9267399267399267,0.5794139194139193,3.3
2.035835880000377,0.17245421245421244,0.2562637362637363,3.3
2.036694629001431,0.17245421245421244,0.2562637362637363,3.3
2.0383693740004674,0.17245421245421244,0.2562637362637363,3.3
2.04227328900015,0.17245421245421244,0.2562637362637363,3.3
2.046127579997119,0.17245421245421244,0.2562637362637363,3.3
2.0514745629989193,0.05963369963369963,0.5181684981684981,0.6454945054945055
2.0538053049967857,0.05963369963369963,0.5181684981684981,0.6454945054945055
2.0540468050021445,0.4827106227106227,0.14505494505494507,1.0113553113553113
2.0594564779967186,0.4827106227106227,0.14505494505494507,1.0113553113553113
2.061873826001829,0.4827106227106227,0.14505494505494507,1.0113553113553113
2.0620733620016836,0.4827106227106227,0.14505494505494507,1.0113553113553113
2.067768838998745,0.4827106227106227,0.14505494505494507,1.0113553113553113
2.0680246999982046,0.4827106227106227,0.14505494505494507,1.0113553113553113
2.073754700999416,0.4827106227106227,0.14505494505494507,1.0113553113553113
2.073963946000731,0.4827106227106227,0.14505494505494507,1.0113553113553113
2.079315928000142,0.4827106227106227,0.14505494505494507,1.0113553113553113
2.0824501589959254,0.4827106227106227,0.14505494505494507,1.0113553113553113
2.084133379001287,0.4827106227106227,0.14505494505494507,1.0113553113553113
2.0879476810005144,0.4827106227106227,0.14505494505494507,1.0113553113553113
2.0925428409973392,0.4827106227106227,0.14505494505494507,1.0113553113553113
2.092807474997244,0.4827106227106227,0.14505494505494507,1.0113553113553113
2.0982055560016306,0.4827106227106227,0.14505494505494507,1.0113553113553113
2.100043097001617,0.4827106227106227,0.14505494505494507,1.0113553113553113
2.1024346479971427,0.4827106227106227,0.14505494505494507,1.0113553113553113
2.102548623995972,0.4827106227106227,0.14505494505494507,1.0113553113553113
2.107941383997968,0.4827106227106227,0.14505494505494507,1.0113553113553113
2.110585848997289,0.26915750915750913,0.5536263736263736,2.2241758241758243
2.116211852997367,0.381978021978022,0.43597069597069593,2.5626373626373624
2.1172674049958005,1.224102564102564,0.5753846153846153,3.3
2.1181335500004934,1.224102564102564,0.5753846153846153,3.3
2.1197064890002366,1.224102564102564,0.5753846153846153,3.3
2.123750446997292,0.6148717948717949,0.7695970695970695,2.5787545787545785
2.127709751999646,0.0,0.4561172161172161,0.35135531135531134
2.1316174210005556,0.11362637362637362,0.2772161172161172,3.3
2.136373007997463,0.11362637362637362,0.2772161172161172,3.3
2.1365501190011855,0.11362637362637362,0.2772161172161172,3.3
2.1413016709993826,0.11362637362637362,0.2772161172161172,3.3
2.1415034660021774,0.5923076923076923,0.751062271062271,2.5787545787545785
2.1472735939969425,0.5923076923076923,0.751062271062271,2.5787545787545785
2.1475806509988615,0.4085714285714286,0.5906959706959707,2.548937728937729
2.15227554699959,0.4085714285714286,0.5906959706959707,2.548937728937729
2.152488102001371,0.09831501831501832,0.2651282051282051,3.3
2.1580849999954808,0.46820512820512816,0.09428571428571428,1.0395604395604394
2.1589377419950324,0.3747252747252747,0.0846153846153846,1.2926007326007325
2.1605267409977387,0.3747252747252747,0.0846153846153846,1.2926007326007325
2.1643672909995075,0.3747252747252747,0.0846153846153846,1.2926007326007325
2.1682471509993775,0.0,0.49882783882783877,0.43999999999999995
2.173046844000055,0.0,0.49882783882783877,0.43999999999999995
2.179034957996919,0.48754578754578753,0.12893772893772892,1.187032967032967
2.1844642409996595,0.5512087912087912,0.7897435897435897,2.5787545787545785
2.1855485849955585,0.5512087912087912,0.7897435897435897,2.5787545787545785
2.185868930995639,0.5512087912087912,0.7897435897435897,2.5787545787545785
2.1916731419987627,0.5512087912087912,0.7897435897435897,2.5787545787545785
2.197576749997097,0.5512087912087912,0.7897435897435897,2.5787545787545785
2.1977337060016,0.5512087912087912,0.7897435897435897,2.5787545787545785
2.2032948269988992,0.5512087912087912,0.7897435897435897,2.5787545787545785
2.2041194299963536,0.5512087912087912,0.7897435897435897,2.5787545787545785
2.2063282649978646,0.5512087912087912,0.7897435897435897,2.5787545787545785
2.2071317919981084,0.5512087912087912,0.7897435897435897,2.5787545787545785
2.209391415999562,0.5512087912087912,0.7897435897435897,2.5787545787545785
2.2096277759992518,0.5512087912087912,0.7897435897435897,2.5787545787545785
2.214546306000557,0.5512087912087912,0.7897435897435897,2.5787545787545785
2.219393184001092,0.5512087912087912,0.7897435897435897,2.5787545787545785
2.2195639689962263,0.5512087912087912,0.7897435897435897,2.5787545787545785
2.2247228189953603,0.5512087912087912,0.7897435897435897,2.5787545787545785
2.228826692997245,0.9533333333333331,0.6035897435897435,3.3
2.2305235989988432,0.9533333333333331,0.6035897435897435,3.3
2.234349594997184,0.9533333333333331,0.6035897435897435,3.3
2.2396729409956606,0.7357509157509158,0.5520146520146519,3.3
2.242345546997967,0.3545787545787546,0.6205128205128204,3.3
2.246233666999615,0.3545787545787546,0.6205128205128204,3.3
2.251653756997257,0.3545787545787546,0.6205128205128204,3.3
2.253268530999776,0.3545787545787546,0.6205128205128204,3.3
2.2572379449993605,0.3545787545787546,0.6205128205128204,3.3
2.2619669499981683,0.3545787545787546,0.6205128205128204,3.3
2.2679667880001944,0.3545787545787546,0.6205128205128204,3.3
2.2734852060020785,0.3545787545787546,0.6205128205128204,3.3
2.2751761059989803,0.4029304029304029,0.42710622710622714,2.5626373626373624
2.2788823099981528,0.4029304029304029,0.42710622710622714,2.5626373626373624
2.2833803859975887,0.4029304029304029,0.42710622710622714,2.5626373626373624
2.2842252269983874,0.4029304029304029,0.42710622710622714,2.5626373626373624
2.2867590349997045,0.4029304029304029,0.42710622710622714,2.5626373626373624
2.2913171620020876,0.3046153846153846,0.4931868131868131,2.8164835164835162
2.2930618109967327,0.2909157509157509,0.2747985347985348,2.5473260073260073
2.2963349580022623,0.2909157509157509,0.2747985347985348,2.5473260073260073
2.2971778310020454,0.2909157509157509,0.2747985347985348,2.5473260073260073
2.2988146529969526,0.2909157509157509,0.2747985347985348,2.5473260073260073
2.3028652540015173,0.2909157509157509,0.2747985347985348,2.5473260073260073
2.3069075320017873,0.2909157509157509,0.2747985347985348,2.5473260073260073
2.3108183619988267,0.2909157509157509,0.2747985347985348,2.5473260073260073
2.3157556020014454,0.415018315018315,0.3852014652014652,2.565054945054945
2.319713798999146,0.34813186813186814,0.11846153846153845,1.7197069597069596
2.3236321360018337,0.34813186813186814,0.11846153846153845,1.7197069597069596
2.328316735998669,0.34813186813186814,0.11846153846153845,1.7197069597069596
2.328499561001081,0.34813186813186814,0.11846153846153845,1.7197069597069596
2.33388171599654,0.34813186813186814,0.11846153846153845,1.7197069597069596
2.337009135997505,0.34813186813186814,0.11846153846153845,1.7197069597069596
2.338731985000777,0.34813186813186814,0.11846153846153845,1.7197069597069596
2.3425343170019914,0.34813186813186814,0.11846153846153845,1.7197069597069596
2.3480613749998156,0.34813186813186814,0.11846153846153845,1.7197069597069596
2.3489707469998393,0.34813186813186814,0.11846153846153845,1.7197069597069596
2.3506634579971433,0.34813186813186814,0.11846153846153845,1.7197069597069596
2.354477077999036,0.34813186813186814,0.11846153846153845,1.7197069597069596
2.35912444099813,0.34813186813186814,0.11846153846153845,1.7197069597069596
2.359289093998086,0.34813186813186814,0.11846153846153845,1.7197069597069596
2.364027976997022,0.34813186813186814,0.11846153846153845,1.7197069597069596
2.364185008998902,0.34813186813186814,0.11846153846153845,1.7197069597069596
2.3695901649989537,0.34813186813186814,0.11846153846153845,1.7197069597069596
2.370491192996269,0.36666666666666664,0.4561172161172161,2.5594139194139194
2.3721612169974833,0.36666666666666664,0.4561172161172161,2.5594139194139194
2.376217163000547,0.36666666666666664,0.4561172161172161,2.5594139194139194
2.3787777030011057,0.36666666666666664,0.4561172161172161,2.5594139194139194
2.3843721199955326,0.36666666666666664,0.4561172161172161,2.5594139194139194
2.385416332996101,0.9807326007326007,0.7268864468864469,3.3
2.385665458001313,0.9807326007326007,0.7268864468864469,3.3
2.3905607810011134,0.9807326007326007,0.7268864468864469,3.3
2.3962018999955035,0.9807326007326007,0.7268864468864469,3.3
2.397062695999921,1.0371428571428571,0.6148717948717949,3.3
2.398032803001115,1.0371428571428571,0.6148717948717949,3.3
2.3989968819951173,1.0371428571428571,0.6148717948717949,3.3
2.399961329996586,1.0371428571428571,0.6148717948717949,3.3
2.4009386639954755,1.0371428571428571,0.6148717948717949,3.3
2.402723731996957,1.0371428571428571,0.6148717948717949,3.3
2.4051916749958764,1.0371428571428571,0.6148717948717949,3.3
2.40539599499607,0.18454212454212454,0.614065934065934,1.6028571428571428
2.410189406997233,0.18454212454212454,0.614065934065934,1.6028571428571428
2.4159361249985523,0.18454212454212454,0.614065934065934,1.6028571428571428
2.4162370999983978,0.18454212454212454,0.614065934065934,1.6028571428571428
2.4216935189979267,0.18454212454212454,0.614065934065934,1.6028571428571428
2.422592162998626,0.18454212454212454,0.614065934065934,1.6028571428571428
2.4242231890020776,0.18454212454212454,0.614065934065934,1.6028571428571428
2.4281063129965332,0.18454212454212454,0.614065934065934,1.6028571428571428
2.432730749998882,0.18454212454212454,0.614065934065934,1.6028571428571428
2.432989811997686,0.5471794871794872,0.34087912087912087,3.3
2.4383510440020473,0.5471794871794872,0.34087912087912087,3.3
2.440782092999143,0.5471794871794872,0.34087912087912087,3.3
2.4409883139960584,0.5471794871794872,0.34087912087912087,3.3
2.445855790996575,0.5471794871794872,0.34087912087912087,3.3
2.450696952997532,0.5471794871794872,0.34087912087912087,3.3
2.4508176620001905,0.5471794871794872,0.34087912087912087,3.3
2.456563408995862,0.5471794871794872,0.34087912087912087,3.3
2.456684396995115,0.5471794871794872,0.34087912087912087,3.3
2.462231862002227,0.5471794871794872,0.34087912087912087,3.3
2.463855447997048,0.5471794871794872,0.34087912087912087,3.3
2.467672273996868,0.5471794871794872,0.34087912087912087,3.3
2.471521382998617,0.5471794871794872,0.34087912087912087,3.3
2.476226920996851,0.2756043956043956,0.3497435897435897,2.54974358974359
2.4764557579983375,0.2756043956043956,0.3497435897435897,2.54974358974359
2.4818710850013304,0.2756043956043956,0.3497435897435897,2.54974358974359
2.482242990998202,0.585054945054945,0.8332600732600732,2.5545787545787544
2.4869305539978086,0.585054945054945,0.8332600732600732,2.5545787545787544
2.4871008080008323,0.585054945054945,0.8332600732600732,2.5545787545787544
2.492674281995278,0.585054945054945,0.8332600732600732,2.5545787545787544
2.492925386999559,0.585054945054945,0.8332600732600732,2.5545787545787544
2.49770329400053,0.585054945054945,0.8332600732600732,2.5545787545787544
2.4978971859964076,0.585054945054945,0.8332600732600732,2.5545787545787544
2.5025101419960265,0.585054945054945,0.8332600732600732,2.5545787545787544
2.503405463998206,0.585054945054945,0.8332600732600732,2.5545787545787544
2.5050385680006,0.0,0.47062271062271055,1.0484249084249082
2.5088983429959626,0.0,0.47062271062271055,1.0484249084249082
2.5127696299969102,0.0,0.47062271062271055,1.0484249084249082
2.517428465995181,0.0,0.47062271062271055,1.0484249084249082
2.517646453001362,0.0,0.47062271062271055,1.0484249084249082
2.5232730729985633,0.0,0.47062271062271055,1.0484249084249082
2.5241359079955146,0.0,0.47062271062271055,1.0484249084249082
2.525848204000795,0.11926739926739927,0.5310622710622711,0.7454212454212454
2.529107144000591,0.11926739926739927,0.5310622710622711,0.7454212454212454
2.5307320119973156,0.11926739926739927,0.5310622710622711,0.7454212454212454
2.534581904998049,0.11926739926739927,0.5310622710622711,0.7454212454212454
2.540183346995036,0.11926739926739927,0.5310622710622711,0.7454212454212454
2.5410932439990574,0.11926739926739927,0.5310622710622711,0.7454212454212454
2.5420529519979027,0.61003663003663,0.3884249084249084,2.565860805860806
2.5429951990008703,0.61003663003663,0.3884249084249084,2.565860805860806
2.543984534997435,0.61003663003663,0.3884249084249084,2.565860805860806
2.544941968000785,0.61003663003663,0.3884249084249084,2.565860805860806
2.545941265998408,0.61003663003663,0.3884249084249084,2.565860805860806
2.547543378001137,0.61003663003663,0.3884249084249084,2.565860805860806
2.5521955770018394,0.61003663003663,0.3884249084249084,2.565860805860806
2.5524303240017616,0.42065934065934063,0.4287179487179487,2.552967032967033
2.5579652590022306,0.42065934065934063,0.4287179487179487,2.552967032967033
2.5589477690009517,0.14505494505494507,0.4021245421245421,1.5528937728937728
2.56057747000159,0.14505494505494507,0.4021245421245421,1.5528937728937728
2.5644268019968877,0.6317948717948718,0.40695970695970696,2.569084249084249
2.5682732259956538,0.3553846153846154,0.4545054945054945,3.3
2.5722198090006714,0.3553846153846154,0.4545054945054945,3.3
2.576127581000037,0.3553846153846154,0.4545054945054945,3.3
2.5806502330015064,0.3553846153846154,0.4545054945054945,3.3
2.580950874995324,0.8397069597069596,0.6374358974358975,2.5755311355311354
2.585547508999298,0.3747252747252747,0.49157509157509155,3.3
2.5858329010006855,0.3747252747252747,0.49157509157509155,3.3
2.590717492996191,0.3747252747252747,0.49157509157509155,3.3
2.595872521000274,0.25223443223443226,0.32395604395604394,3.2822710622710622
2.599517834998551,0.46659340659340653,0.09186813186813186,0.6817582417582417
2.599677170001087,0.46659340659340653,0.09186813186813186,0.6817582417582417
2.604635474999668,0.46659340659340653,0.09186813186813186,0.6817582417582417
2.6096279689954827,0.2715750915750916,0.5802197802197803,1.3828571428571428
2.6145598750008503,0.2377289377289377,0.3199267399267399,3.3
2.6189014920018963,0.2377289377289377,0.3199267399267399,3.3
2.6204490899981465,0.2377289377289377,0.3199267399267399,3.3
2.6254443719953997,0.2377289377289377,0.3199267399267399,3.3
2.629746309001348,0.2377289377289377,0.3199267399267399,3.3
2.631887083996844,0.40615384615384614,0.43355311355311354,3.3
2.632680470997002,0.40615384615384614,0.43355311355311354,3.3
2.634210008996888,1.0879120879120878,0.6873992673992674,3.3
2.6385049160016933,0.30542124542124544,0.05963369963369963,0.38681318681318677
2.640734688997327,0.30542124542124544,0.05963369963369963,0.38681318681318677
2.6415234509986476,0.30542124542124544,0.05963369963369963,0.38681318681318677
2.643068642995786,0.30542124542124544,0.05963369963369963,0.38681318681318677
2.647354684995662,0.30542124542124544,0.05963369963369963,0.38681318681318677
2.649534413998481,0.30542124542124544,0.05963369963369963,0.38681318681318677
2.650305778995971,0.30542124542124544,0.05963369963369963,0.38681318681318677
2.652518326001882,0.30542124542124544,0.05963369963369963,0.38681318681318677
2.6533141379986773,0.30542124542124544,0.05963369963369963,0.38681318681318677
2.654852423002012,0.30542124542124544,0.05963369963369963,0.38681318681318677
2.659210049001558,0.30542124542124544,0.05963369963369963,0.38681318681318677
2.661384888997418,0.30542124542124544,0.05963369963369963,0.38681318681318677
2.662163879002037,0.30542124542124544,0.05963369963369963,0.38681318681318677
2.6643254820010043,0.30542124542124544,0.05963369963369963,0.38681318681318677
2.6651626390012098,0.30542124542124544,0.05963369963369963,0.38681318681318677
2.6674068700012867,0.30542124542124544,0.05963369963369963,0.38681318681318677
2.667668240996136,0.30542124542124544,0.05963369963369963,0.38681318681318677
2.6732122719986364,0.30542124542124544,0.05963369963369963,0.38681318681318677
2.674383396995836,0.30542124542124544,0.05963369963369963,0.38681318681318677
2.6746974529960426,0.30542124542124544,0.05963369963369963,0.38681318681318677
2.683508289999736,0.30542124542124544,0.05963369963369963,0.38681318681318677
2.6894347919951542,0.2175824175824176,0.07978021978021978,0.28446886446886444
2.6933452899975237,0.2175824175824176,0.07978021978021978,0.28446886446886444
2.6988121479953406,0.9259340659340659,0.7107692307692308,3.254065934065934
2.6997071859950665,0.9259340659340659,0.7107692307692308,3.254065934065934
2.700655986001948,0.9259340659340659,0.7107692307692308,3.254065934065934
2.702295402996242,0.9259340659340659,0.7107692307692308,3.254065934065934
2.7061970829963684,0.9259340659340659,0.7107692307692308,3.254065934065934
2.7101471950009,0.9259340659340659,0.7107692307692308,3.254065934065934
2.714013242999499,0.9259340659340659,0.7107692307692308,3.254065934065934
2.718037357000867,0.9259340659340659,0.7107692307692308,3.254065934065934
2.7256951609961106,0.9259340659340659,0.7107692307692308,3.254065934065934
2.7311816709989216,0.9259340659340659,0.7107692307692308,3.254065934065934
2.731370169996808,0.40776556776556777,0.5616849816849817,3.3
2.7398964449967025,0.40776556776556777,0.5616849816849817,3.3
2.7450659919995815,0.3287912087912088,0.05802197802197802,0.20146520146520144
2.7482268949970603,0.3287912087912088,0.05802197802197802,0.20146520146520144
2.7505654229971697,0.3287912087912088,0.05802197802197802,0.20146520146520144
2.750703496996721,0.3287912087912088,0.05802197802197802,0.20146520146520144
2.7562006149964873,0.3287912087912088,0.05802197802197802,0.20146520146520144
2.757799111001077,0.3287912087912088,0.05802197802197802,0.20146520146520144
2.7616605029979837,0.3287912087912088,0.05802197802197802,0.20146520146520144
2.766403399997216,0.8783882783882784,0.7615384615384615,2.5723076923076924
2.766545655998925,0.8783882783882784,0.7615384615384615,2.5723076923076924
2.771500295995793,0.6124542124542125,0.7147985347985348,3.3
2.7802199279976776,0.6124542124542125,0.7147985347985348,3.3
2.784553954996227,0.6124542124542125,0.7147985347985348,3.3
2.785726962996705,1.0452014652014652,0.7333333333333333,3.235531135531135
2.786017678998178,1.0452014652014652,0.7333333333333333,3.235531135531135
2.7920304799990845,1.0452014652014652,0.7333333333333333,3.235531135531135
2.7982721099979244,1.0452014652014652,0.7333333333333333,3.235531135531135
2.8039335209978162,1.0452014652014652,0.7333333333333333,3.235531135531135
2.8041095119988313,1.0452014652014652,0.7333333333333333,3.235531135531135
2.8100272660012706,1.0452014652014652,0.7333333333333333,3.235531135531135
2.8161597799989977,0.17164835164835165,0.2683516483516483,3.026007326007326
2.820370257999457,0.17164835164835165,0.2683516483516483,3.026007326007326
2.822275061000255,0.17164835164835165,0.2683516483516483,3.026007326007326
2.824982366000768,0.17164835164835165,0.2683516483516483,3.026007326007326
2.829473017001874,0.018534798534798533,0.49721611721611714,0.518974358974359
2.8297191000019666,0.5367032967032966,0.6011721611721611,2.8511355311355313
2.8349532509964774,0.5367032967032966,0.6011721611721611,2.8511355311355313
2.8415844929986633,0.40534798534798533,0.3739194139194139,1.9598534798534797
2.8456552079951507,0.40534798534798533,0.3739194139194139,1.9598534798534797
2.847865035997529,0.23934065934065935,0.5471794871794872,0.6761172161172161
2.8482447669957764,0.23934065934065935,0.5471794871794872,0.6761172161172161
2.858768553000118,0.23934065934065935,0.5471794871794872,0.6761172161172161
2.868454333001864,0.23934065934065935,0.5471794871794872,0.6761172161172161
2.8790143090009224,0.23934065934065935,0.5471794871794872,0.6761172161172161
2.887316906999331,0.23934065934065935,0.5471794871794872,0.6761172161172161
2.896459853000124,0.3529670329670329,0.5584615384615385,1.6254212454212453
2.904669825002202,0.3529670329670329,0.5584615384615385,1.6254212454212453
2.913881947999471,0.3529670329670329,0.5584615384615385,1.6254212454212453
2.9206948209975963,0.44402930402930396,0.41340659340659336,2.5481318681318683
2.9283337219967507,0.7196336996336996,0.7655677655677655,2.5626373626373624
2.933961201000784,0.7196336996336996,0.7655677655677655,2.5626373626373624
2.934180069998547,0.7196336996336996,0.7655677655677655,2.5626373626373624
2.944118838997383,0.7196336996336996,0.7655677655677655,2.5626373626373624
2.9503404599963687,0.7196336996336996,0.7655677655677655,2.5626373626373624
2.9552269909981987,0.26673992673992675,0.3465201465201465,3.3
2.9627590329982922,0.26673992673992675,0.3465201465201465,3.3
2.969208117996459,0.26673992673992675,0.3465201465201465,3.3
2.9750649409979815,0.43032967032967034,0.5987545787545787,3.3
2.9838080190020264,0.43032967032967034,0.5987545787545787,3.3
2.9920027289990685,0.43032967032967034,0.5987545787545787,3.3
2.998859364000964,0.43032967032967034,0.5987545787545787,3.3
3.005677768996975,0.31347985347985347,0.06527472527472526,0.2909157509157509
3.0115434379986254,0.31347985347985347,0.06527472527472526,0.2909157509157509
3.018737673999567,0.2377289377289377,0.3545787545787546,2.552967032967033
3.026531730996794,0.2377289377289377,0.3545787545787546,2.552967032967033
3.0329949379956815,0.06608058608058608,0.5262271062271061,0.48835164835164835
3.0394158179988153,0.9960439560439559,0.523003663003663,3.3
3.0452225979970535,0.9960439560439559,0.523003663003663,3.3
3.0519531239988282,0.9960439560439559,0.523003663003663,3.3
3.0603196949959965,0.9960439560439559,0.523003663003663,3.3
3.064767097996082,0.9960439560439559,0.523003663003663,3.3
3.064994337997632,0.9960439560439559,0.523003663003663,3.3
3.0723299250021228,0.9960439560439559,0.523003663003663,3.3
3.0785291630018037,0.9960439560439559,0.523003663003663,3.3
3.0817527559993323,0.9960439560439559,0.523003663003663,3.3
3.082840037997812,0.9960439560439559,0.523003663003663,3.3
3.0837167810022947,0.9960439560439559,0.523003663003663,3.3
3.084668477997184,0.9960439560439559,0.523003663003663,3.3
3.0865417289969628,0.9960439560439559,0.523003663003663,3.3
3.089700183001696,0.9960439560439559,0.523003663003663,3.3
3.0912483159991098,0.9960439560439559,0.523003663003663,3.3
3.0970905060021323,0.9960439560439559,0.523003663003663,3.3
3.1010117549958522,0.9960439560439559,0.523003663003663,3.3
3.1049935190021642,0.9960439560439559,0.523003663003663,3.3
3.1100028219952947,0.9960439560439559,0.523003663003663,3.3
3.114031930999772,0.9960439560439559,0.523003663003663,3.3
3.1174300740021863,0.9960439560439559,0.523003663003663,3.3
3.1184702870014007,0.9960439560439559,0.523003663003663,3.3
3.119582628001808,0.9960439560439559,0.523003663003663,3.3
3.119823725995957,0.9960439560439559,0.523003663003663,3.3
3.1276763589994516,0.9960439560439559,0.523003663003663,3.3
3.1333926759980386,0.9960439560439559,0.523003663003663,3.3
3.1407656189985573,0.9678388278388278,0.6414652014652015,3.3
3.146403086000646,0.9678388278388278,0.6414652014652015,3.3
3.1465854209964164,0.9678388278388278,0.6414652014652015,3.3
3.1513843489956344,0.5238095238095237,0.5552380952380952,2.5561904761904763
3.1515388889965834,0.5238095238095237,0.5552380952380952,2.5561904761904763
3.1574046539972187,0.5238095238095237,0.5552380952380952,2.5561904761904763
3.157625289997668,1.1725274725274726,0.6430769230769231,3.3
3.162534331997449,1.1725274725274726,0.6430769230769231,3.3
3.1671717689969228,1.1725274725274726,0.6430769230769231,3.3
3.167409317997226,0.4528937728937729,0.46014652014652013,2.5513553113553114
3.1726175539952237,0.4528937728937729,0.46014652014652013,2.5513553113553114
3.17687585499516,0.4528937728937729,0.46014652014652013,2.5513553113553114
3.1778024949962855,0.4528937728937729,0.46014652014652013,2.5513553113553114
3.179852982997545,0.4528937728937729,0.46014652014652013,2.5513553113553114
3.18147073599539,0.5858608058608058,0.6567765567765567,2.56989010989011
3.185569380999368,0.5858608058608058,0.6567765567765567,2.56989010989011
3.187945530000434,0.5858608058608058,0.6567765567765567,2.56989010989011
3.188325019000331,0.5858608058608058,0.6567765567765567,2.56989010989011
3.1950632789958036,0.5858608058608058,0.6567765567765567,2.56989010989011
3.1990019289951306,0.5858608058608058,0.6567765567765567,2.56989010989011
3.203998156997841,0.5971428571428571,0.6857875457875457,2.5755311355311354
3.209161753002263,0.23047619047619047,0.2909157509157509,3.3
3.211929446995782,0.23047619047619047,0.2909157509157509,3.3
3.214366023996263,0.23047619047619047,0.2909157509157509,3.3
3.214521843001421,0.23047619047619047,0.2909157509157509,3.3
3.219499293001718,0.23047619047619047,0.2909157509157509,3.3
3.2256295569968643,0.23047619047619047,0.2909157509157509,3.3
3.2299703449971275,1.0403663003663002,0.6406593406593406,3.3
3.2303171519961325,1.0403663003663002,0.6406593406593406,3.3
3.235312488999625,1.0403663003663002,0.6406593406593406,3.3
3.239693110997905,1.0403663003663002,0.6406593406593406,3.3
3.2408043859977624,1.0403663003663002,0.6406593406593406,3.3
3.241023923001194,0.5923076923076923,0.41340659340659336,2.5787545787545785
3.247292480999022,0.5923076923076923,0.41340659340659336,2.5787545787545785
3.251217657001689,0.5423443223443223,0.5423443223443223,2.548937728937729
3.257081620002282,0.21516483516483517,0.253040293040293,2.5561904761904763
3.2648380850005196,0.21516483516483517,0.253040293040293,2.5561904761904763
3.2699402059952263,0.0,0.47706959706959706,0.585054945054945
3.2761229559982894,0.0,0.47706959706959706,0.585054945054945
3.2796290629994473,0.0,0.47706959706959706,0.585054945054945
3.2797713990003103,0.0,0.47706959706959706,0.585054945054945
3.285318048998306,0.0,0.47706959706959706,0.585054945054945
3.286171692001517,0.776043956043956,0.5584615384615385,3.3
3.2878235739990487,0.776043956043956,0.5584615384615385,3.3
3.2936571129976073,0.776043956043956,0.5584615384615385,3.3
3.293812110001454,1.0234432234432234,0.5004395604395604,2.5481318681318683
3.299053137001465,1.0234432234432234,0.5004395604395604,2.5481318681318683
3.301665683000465,1.0234432234432234,0.5004395604395604,2.5481318681318683
3.3077912110020407,1.0234432234432234,0.5004395604395604,2.5481318681318683
3.3125403209996875,1.0234432234432234,0.5004395604395604,2.5481318681318683
3.318181905997335,0.24256410256410255,0.26190476190476186,2.553772893772894
3.3184044980007457,0.24256410256410255,0.26190476190476186,2.553772893772894
3.325866696999583,0.24256410256410255,0.26190476190476186,2.553772893772894
3.3302031720013474,0.24256410256410255,0.26190476190476186,2.553772893772894
3.3327073659966118,0.5939194139194138,0.5721611721611721,2.552967032967033
3.340284828998847,0.5939194139194138,0.5721611721611721,2.552967032967033
3.34591223699681,0.5939194139194138,0.5721611721611721,2.552967032967033
3.3552663840018795,0.5939194139194138,0.5721611721611721,2.552967032967033
3.3635686819980037,0.20468864468864467,0.2498168498168498,3.3
3.368269867998606,0.20468864468864467,0.2498168498168498,3.3
3.3684700449957745,0.5133333333333333,0.5205860805860806,3.3
3.3739026289986214,0.307032967032967,0.2917216117216117,2.5505494505494504
3.377163662997191,0.3287912087912088,0.33604395604395604,2.557802197802198
3.377521712995076,0.22805860805860806,0.08783882783882783,0.6245421245421244
3.383119337995595,0.22805860805860806,0.08783882783882783,0.6245421245421244
3.3839769629994407,0.22805860805860806,0.08783882783882783,0.6245421245421244
3.3856617679994088,0.22805860805860806,0.08783882783882783,0.6245421245421244
3.3900790449988563,0.22805860805860806,0.08783882783882783,0.6245421245421244
3.3914645400000154,0.22805860805860806,0.08783882783882783,0.6245421245421244
3.3976124190012342,1.149157509157509,0.5882783882783883,3.3
3.4022355339984642,0.30058608058608055,0.04915750915750916,0.28769230769230764
3.4024963720003143,0.30058608058608055,0.04915750915750916,0.28769230769230764
3.407642357997247,0.30058608058608055,0.04915750915750916,0.28769230769230764
3.4129289359989343,0.30058608058608055,0.04915750915750916,0.28769230769230764
3.414486178997322,0.30058608058608055,0.04915750915750916,0.28769230769230764
3.421317348998855,0.30058608058608055,0.04915750915750916,0.28769230769230764
3.4303038279977045,0.30058608058608055,0.04915750915750916,0.28769230769230764
3.4373981269964133,0.3537728937728937,0.4013186813186813,3.3
3.4444464269981836,0.3537728937728937,0.4013186813186813,3.3
3.4503072180013987,0.3537728937728937,0.4013186813186813,3.3
3.455478887000936,0.44402930402930396,0.42065934065934063,3.3
3.463136897997174,0.44402930402930396,0.42065934065934063,3.3
3.4677511639965815,0.44402930402930396,0.42065934065934063,3.3
3.4768385409988696,0.0,0.43435897435897436,1.1781684981684981
3.4822171999985585,0.4867399267399267,0.41018315018315016,2.5561904761904763
3.4839633309966302,0.29333333333333333,0.49076923076923074,2.54974358974359
3.487522944000375,0.29333333333333333,0.49076923076923074,2.54974358974359
3.487637892998464,0.29333333333333333,0.49076923076923074,2.54974358974359
3.49557389599795,0.29333333333333333,0.49076923076923074,2.54974358974359
3.500565510999877,0.29333333333333333,0.49076923076923074,2.54974358974359
3.5085445799995796,0.29333333333333333,0.49076923076923074,2.54974358974359
3.5166355359979207,0.29333333333333333,0.49076923076923074,2.54974358974359
3.52484288100095,0.29333333333333333,0.49076923076923074,2.54974358974359
3.529827172998921,0.29333333333333333,0.49076923076923074,2.54974358974359
3.5339814350008965,0.2756043956043956,0.3344322344322344,3.2637362637362637
3.537276162998751,0.2756043956043956,0.3344322344322344,3.2637362637362637
3.5375855609963764,0.2756043956043956,0.3344322344322344,3.2637362637362637
3.5469316939997952,0.2756043956043956,0.3344322344322344,3.2637362637362637
3.551921423000749,0.2756043956043956,0.3344322344322344,3.2637362637362637
3.5564287589950254,0.2756043956043956,0.3344322344322344,3.2637362637362637
3.556782524996379,0.2756043956043956,0.3344322344322344,3.2637362637362637
3.56304843199905,0.2756043956043956,0.3344322344322344,3.2637362637362637
3.567134156000975,0.2756043956043956,0.3344322344322344,3.2637362637362637
3.5713469319962314,0.0,0.4698168498168498,1.1813919413919414
3.573723699999391,0.25545787545787546,0.25142857142857145,3.3
3.580625885995687,0.25545787545787546,0.25142857142857145,3.3
3.58469654199871,0.25545787545787546,0.25142857142857145,3.3
3.5887967980015674,0.25545787545787546,0.25142857142857145,3.3
3.5933610149950255,0.25545787545787546,0.25142857142857145,3.3
3.593677299999399,0.25545787545787546,0.25142857142857145,3.3
3.5982323790012742,0.25545787545787546,0.25142857142857145,3.3
3.5985063670013915,0.25545787545787546,0.25142857142857145,3.3
3.6037699959997553,0.7421978021978022,0.8219780219780219,2.5674725274725274
3.6077730219985824,0.7421978021978022,0.8219780219780219,2.5674725274725274
3.609306974001811,0.7421978021978022,0.8219780219780219,2.5674725274725274
3.6137457040022127,0.7421978021978022,0.8219780219780219,2.5674725274725274
3.6146184710014495,0.7421978021978022,0.8219780219780219,2.5674725274725274
3.616317350999452,0.7421978021978022,0.8219780219780219,2.5674725274725274
3.6206775089958683,0.7421978021978022,0.8219780219780219,2.5674725274725274
3.621595418997458,0.7421978021978022,0.8219780219780219,2.5674725274725274
3.624508788998355,0.7421978021978022,0.8219780219780219,2.5674725274725274
3.62729625999782,0.7421978021978022,0.8219780219780219,2.5674725274725274
3.632659775998036,0.7421978021978022,0.8219780219780219,2.5674725274725274
3.633037785999477,0.26996336996336995,0.3021978021978022,3.3
3.639816841998254,0.26996336996336995,0.3021978021978022,3.3
3.6445311209972715,0.26996336996336995,0.3021978021978022,3.3
3.6447929560017656,0.26996336996336995,0.3021978021978022,3.3
3.649630478998006,0.26996336996336995,0.3021978021978022,3.3
3.6552061940019485,0.26996336996336995,0.3021978021978022,3.3
3.6563265149961808,1.0347252747252746,0.6430769230769231,3.3
3.6567671000011615,1.0347252747252746,0.6430769230769231,3.3
3.6621907349981484,1.0347252747252746,0.6430769230769231,3.3
3.6632001389953075,1.0347252747252746,0.6430769230769231,3.3
3.663494114000059,1.0347252747252746,0.6430769230769231,3.3
3.6683288169951993,1.0347252747252746,0.6430769230769231,3.3
3.6748780039997655,1.0347252747252746,0.6430769230769231,3.3
3.67892389500048,1.0347252747252746,0.6430769230769231,3.3
3.683881511002255,1.0347252747252746,0.6430769230769231,3.3
3.6881701429956593,0.5544322344322344,0.3795604395604395,2.5626373626373624
3.6912639239963028,0.5544322344322344,0.3795604395604395,2.5626373626373624
3.6924670209991746,0.5544322344322344,0.3795604395604395,2.5626373626373624
3.69261191500118,0.5544322344322344,0.3795604395604395,2.5626373626373624
3.698285025995574,0.5544322344322344,0.3795604395604395,2.5626373626373624
3.6985297319988604,0.3916483516483516,0.0693040293040293,0.45692307692307693
3.704582826998376,0.3916483516483516,0.0693040293040293,0.45692307692307693
3.7112464259989792,0.3916483516483516,0.0693040293040293,0.45692307692307693
3.7146284990012646,0.3916483516483516,0.0693040293040293,0.45692307692307693
3.714926232001744,0.3916483516483516,0.0693040293040293,0.45692307692307693
3.7197836289997213,0.3916483516483516,0.0693040293040293,0.45692307692307693
3.728008124999178,0.3916483516483516,0.0693040293040293,0.45692307692307693
3.7338099549961044,0.1095970695970696,0.5399267399267399,0.26996336996336995
3.7339710839951294,0.1095970695970696,0.5399267399267399,0.26996336996336995
3.7421533390006516,0.1095970695970696,0.5399267399267399,0.26996336996336995
3.7487478679977357,0.1095970695970696,0.5399267399267399,0.26996336996336995
3.754387670996948,0.1095970695970696,0.5399267399267399,0.26996336996336995
3.7655435130000114,0.4222710622710622,0.4464468864468864,2.5465201465201464
3.7748164069998893,0.4222710622710622,0.4464468864468864,2.5465201465201464
3.7807072889991105,0.4222710622710622,0.4464468864468864,2.5465201465201464
3.786501782000414,0.27399267399267396,0.08622710622710622,0.3457142857142857
3.7869025389954913,0.27399267399267396,0.08622710622710622,0.3457142857142857
3.794508193001093,0.27399267399267396,0.08622710622710622,0.3457142857142857
3.800128285001847,0.27399267399267396,0.08622710622710622,0.3457142857142857
3.8113117719985894,0.307032967032967,0.05641025641025641,0.20065934065934066
3.820710756997869,0.3384615384615384,0.5205860805860806,3.3
3.828654889999598,0.3384615384615384,0.5205860805860806,3.3
3.8338674159967923,0.3384615384615384,0.5205860805860806,3.3
3.8364397609984735,1.070989010989011,0.689010989010989,3.3
3.8460278700003983,0.26996336996336995,0.06446886446886446,0.23531135531135527
3.853282042997307,0.26996336996336995,0.06446886446886446,0.23531135531135527
3.8624200170015683,0.26996336996336995,0.06446886446886446,0.23531135531135527
3.867467777999991,0.26996336996336995,0.06446886446886446,0.23531135531135527
3.8705395119977766,0.26996336996336995,0.06446886446886446,0.23531135531135527
3.8768201999992016,0.26996336996336995,0.06446886446886446,0.23531135531135527
3.88048367400188,0.26996336996336995,0.06446886446886446,0.23531135531135527
3.8862338079998153,0.26996336996336995,0.06446886446886446,0.23531135531135527
3.8863724370021373,0.26996336996336995,0.06446886446886446,0.23531135531135527
3.8949496839995845,0.26996336996336995,0.06446886446886446,0.23531135531135527
3.8996702959993854,0.26996336996336995,0.06446886446886446,0.23531135531135527
3.8997786740001175,0.26996336996336995,0.06446886446886446,0.23531135531135527
3.9054812589965877,0.26996336996336995,0.06446886446886446,0.23531135531135527
3.9057124390019453,0.0,0.46336996336996333,1.5931868131868132
3.913606001995504,0.0,0.46336996336996333,1.5931868131868132
3.9183408329990925,0.26754578754578756,0.3304029304029304,3.3
3.9185190299976966,0.26754578754578756,0.3304029304029304,3.3
3.9263060230005067,0.26754578754578756,0.3304029304029304,3.3
3.9312738369990257,0.5544322344322344,0.49882783882783877,3.3
3.9355635329993675,0.26673992673992675,0.3336263736263736,3.1533333333333333
3.936694151998381,0.38278388278388276,0.13054945054945052,0.6898168498168498
3.937065772995993,0.38278388278388276,0.13054945054945052,0.6898168498168498
3.9445038019985077,0.38278388278388276,0.13054945054945052,0.6898168498168498
3.9484946699958527,0.24256410256410255,0.4319413919413919,2.5561904761904763
3.951618489998509,0.24256410256410255,0.4319413919413919,2.5561904761904763
3.953341886997805,0.24256410256410255,0.4319413919413919,2.5561904761904763
3.959816509996017,0.24256410256410255,0.4319413919413919,2.5561904761904763
3.965447333997872,0.24256410256410255,0.4319413919413919,2.5561904761904763
3.9759888789994875,0.24256410256410255,0.4319413919413919,2.5561904761904763
3.9826663679996273,0.24256410256410255,0.4319413919413919,2.5561904761904763
3.989752713001508,0.24256410256410255,0.4319413919413919,2.5561904761904763
3.9960368300016853,0.606007326007326,0.5874725274725274,3.3
4.001277080998989,0.606007326007326,0.5874725274725274,3.3
4.004072941999766,0.606007326007326,0.5874725274725274,3.3
4.01060761899862,0.606007326007326,0.5874725274725274,3.3
4.015635420997569,0.43677655677655675,0.4126007326007326,2.5545787545787544
4.019594056000642,0.31267399267399265,0.04673992673992674,0.25384615384615383
4.022796398996434,0.31267399267399265,0.04673992673992674,0.25384615384615383
4.024035094000283,0.31267399267399265,0.04673992673992674,0.25384615384615383
4.024276316995383,0.31267399267399265,0.04673992673992674,0.25384615384615383
4.03086688699841,0.31267399267399265,0.04673992673992674,0.25384615384615383
4.036532120997435,0.31267399267399265,0.04673992673992674,0.25384615384615383
4.036825012000918,0.45692307692307693,0.27318681318681315,3.3
4.044371472999046,0.45692307692307693,0.27318681318681315,3.3
4.048529799998505,0.45692307692307693,0.27318681318681315,3.3
4.0512074360012775,0.45692307692307693,0.27318681318681315,3.3
4.057675420997839,0.4117948717948718,0.381978021978022,2.5561904761904763
4.063513253000565,0.4117948717948718,0.381978021978022,2.5561904761904763
4.070674433998647,0.7583150183150182,0.5342857142857143,2.5755311355311354
4.078675812997972,0.7583150183150182,0.5342857142857143,2.5755311355311354
4.082745139996405,1.066959706959707,0.6043956043956044,3.3
4.08821667599841,1.066959706959707,0.6043956043956044,3.3
4.088539773001685,1.066959706959707,0.6043956043956044,3.3
4.095453633999568,1.066959706959707,0.6043956043956044,3.3
4.099699582999165,0.4553113553113553,0.2627106227106227,2.54974358974359
4.102112410997506,0.4553113553113553,0.2627106227106227,2.54974358974359
4.102261662999808,0.4553113553113553,0.2627106227106227,2.54974358974359
4.110399283999868,0.4553113553113553,0.2627106227106227,2.54974358974359
4.114554072999454,0.4553113553113553,0.2627106227106227,2.54974358974359
4.1170705139957136,0.4553113553113553,0.2627106227106227,2.54974358974359
4.117256662997534,0.4553113553113553,0.2627106227106227,2.54974358974359
4.127468059996318,0.4553113553113553,0.2627106227106227,2.54974358974359
4.134401857001649,0.4553113553113553,0.2627106227106227,2.54974358974359
4.14075334899826,0.4553113553113553,0.2627106227106227,2.54974358974359
4.14544651399774,0.929157509157509,0.6197069597069597,2.5787545787545785
4.150670472998172,0.4416117216117216,0.4174358974358974,2.552967032967033
4.152425745000073,0.4416117216117216,0.4174358974358974,2.552967032967033
4.158317934998195,0.4416117216117216,0.4174358974358974,2.552967032967033
4.164520958998764,0.4416117216117216,0.4174358974358974,2.552967032967033
4.1687103229996865,0.4416117216117216,0.4174358974358974,2.552967032967033
4.172976370995457,0.4416117216117216,0.4174358974358974,2.552967032967033
4.174381350996555,0.4416117216117216,0.4174358974358974,2.552967032967033
4.1815150729962625,0.4416117216117216,0.4174358974358974,2.552967032967033
4.186302353002247,0.419047619047619,0.386007326007326,2.552967032967033
4.193805638002232,0.0,0.3884249084249084,2.013040293040293
4.198462333995849,0.365054945054945,0.3142857142857142,2.5545787545787544
4.198685637995368,0.365054945054945,0.3142857142857142,2.5545787545787544
4.2060082819953095,0.365054945054945,0.3142857142857142,2.5545787545787544
4.211973498000589,1.02021978021978,0.6035897435897435,3.3
4.216326821995608,1.02021978021978,0.6035897435897435,3.3
4.217981082001643,1.02021978021978,0.6035897435897435,3.3
4.221410268000909,1.02021978021978,0.6035897435897435,3.3
4.221735496001202,1.02021978021978,0.6035897435897435,3.3
4.228616879998299,1.02021978021978,0.6035897435897435,3.3
4.232593783999619,1.02021978021978,0.6035897435897435,3.3
4.235819850997359,0.46175824175824176,0.2063003663003663,2.5505494505494504
4.2367303899955004,0.46175824175824176,0.2063003663003663,2.5505494505494504
4.238447031995747,0.46175824175824176,0.2063003663003663,2.5505494505494504
4.244760125999164,0.46175824175824176,0.2063003663003663,2.5505494505494504
4.249448370996106,0.46175824175824176,0.2063003663003663,2.5505494505494504
4.255099911999423,0.3964835164835165,0.34813186813186814,2.561025641025641
4.256056250000256,0.33926739926739924,0.3191208791208791,2.556996336996337
4.2571271380002145,0.33926739926739924,0.3191208791208791,2.556996336996337
4.257401189999655,0.33926739926739924,0.3191208791208791,2.556996336996337
4.263014265998208,0.33926739926739924,0.3191208791208791,2.556996336996337
4.263322179001989,0.5302564102564102,0.6422710622710622,2.5594139194139194
4.2719281269964995,0.5302564102564102,0.6422710622710622,2.5594139194139194
4.280217314000765,0.5302564102564102,0.6422710622710622,2.5594139194139194
4.286765224002011,0.5302564102564102,0.6422710622710622,2.5594139194139194
4.292858635999437,0.5302564102564102,0.6422710622710622,2.5594139194139194
4.298345172996051,0.5302564102564102,0.6422710622710622,2.5594139194139194
4.298630414996296,0.5302564102564102,0.6422710622710622,2.5594139194139194
4.306572364999738,0.5302564102564102,0.6422710622710622,2.5594139194139194
4.312163524002244,0.5302564102564102,0.6422710622710622,2.5594139194139194
4.312566262997279,0.381978021978022,0.19018315018315018,2.553772893772894
4.320659293996869,0.381978021978022,0.19018315018315018,2.553772893772894
4.3297882190017845,0.3747252747252747,0.0547985347985348,0.8356776556776556
4.33707875500113,0.3747252747252747,0.0547985347985348,0.8356776556776556
4.343677495999145,0.34007326007326005,0.13538461538461538,1.6745787545787545
4.349489533997257,0.34007326007326005,0.13538461538461538,1.6745787545787545
4.357928222001647,0.34007326007326005,0.13538461538461538,1.6745787545787545
4.364282832000754,0.6543589743589743,0.4448351648351648,3.12029304029304
4.36828829300066,0.6543589743589743,0.4448351648351648,3.12029304029304
4.372456179000437,0.4488644688644688,0.39567765567765567,3.3
4.3760564049953246,0.4488644688644688,0.39567765567765567,3.3
4.3810106629971415,0.4488644688644688,0.39567765567765567,3.3
4.384987161000026,0.4488644688644688,0.39567765567765567,3.3
4.38869750899903,0.4488644688644688,0.39567765567765567,3.3
4.39629392799543,0.4488644688644688,0.39567765567765567,3.3
4.4033944309994695,0.5093040293040293,0.38358974358974357,2.5602197802197804
4.409768195000652,0.8646886446886447,0.4810989010989011,2.5803663003663004
4.413574892001634,0.8646886446886447,0.4810989010989011,2.5803663003663004
4.417590611999913,1.153186813186813,0.6438827838827839,3.3
4.421748593995289,1.153186813186813,0.6438827838827839,3.3
4.425785797997378,1.153186813186813,0.6438827838827839,3.3
4.427611747996707,1.153186813186813,0.6438827838827839,3.3
4.430013974000758,1.153186813186813,0.6438827838827839,3.3
4.430197631001647,1.153186813186813,0.6438827838827839,3.3
4.434864595001272,1.153186813186813,0.6438827838827839,3.3
4.435022603000107,1.153186813186813,0.6438827838827839,3.3
4.439991238999937,1.153186813186813,0.6438827838827839,3.3
4.444316028995672,0.2369230769230769,0.11443223443223444,0.5681318681318681
4.44523398399906,0.4021245421245421,0.43435897435897436,2.5553846153846154
4.44683712299593,0.25223443223443226,0.49721611721611714,1.1958974358974357
4.4500443049983005,0.25223443223443226,0.49721611721611714,1.1958974358974357
4.451680950995069,0.25223443223443226,0.49721611721611714,1.1958974358974357
4.4556403960013995,0.5036630036630036,0.21597069597069596,2.5513553113553114
4.4603962100009085,0.5036630036630036,0.21597069597069596,2.5513553113553114
4.465128605996142,0.5036630036630036,0.21597069597069596,2.5513553113553114
4.465262284000346,0.5036630036630036,0.21597069597069596,2.5513553113553114
4.470768004997808,0.5036630036630036,0.21597069597069596,2.5513553113553114
4.472042784000223,0.5036630036630036,0.21597069597069596,2.5513553113553114
4.4808830359979765,0.5036630036630036,0.21597069597069596,2.5513553113553114
4.486548392000259,0.5036630036630036,0.21597069597069596,2.5513553113553114
4.486763294997218,0.5036630036630036,0.21597069597069596,2.5513553113553114
4.496159556001658,0.5036630036630036,0.21597069597069596,2.5513553113553114
4.503305097998236,0.3304029304029304,0.04996336996336996,0.25465201465201465
4.510418077996292,0.38036630036630037,0.5415384615384615,3.1307692307692303
4.515668382999138,0.6841758241758242,0.4778754578754579,3.3
4.5169054419966415,0.6841758241758242,0.4778754578754579,3.3
4.529364042995439,0.6841758241758242,0.4778754578754579,3.3
4.536203283998475,0.9404395604395603,0.7325274725274724,2.5787545787545785
4.543787673996121,0.3755311355311355,0.06446886446886446,0.6084249084249085
4.547195145001751,0.39406593406593404,0.4585347985347985,2.561025641025641
4.5474967539994395,0.39406593406593404,0.4585347985347985,2.561025641025641
4.5525135259958915,0.39406593406593404,0.4585347985347985,2.561025641025641
4.5594778079976095,0.39406593406593404,0.4585347985347985,2.561025641025641
4.563796987000387,0.3932600732600733,0.09267399267399268,0.8227838827838827
4.564809174997208,0.4786813186813187,0.3642490842490842,2.565860805860806
4.565859690999787,0.4786813186813187,0.3642490842490842,2.565860805860806
4.5662401340014185,0.4786813186813187,0.3642490842490842,2.565860805860806
4.571800885001721,0.4786813186813187,0.3642490842490842,2.565860805860806
4.5728429590017186,0.4786813186813187,0.3642490842490842,2.565860805860806
4.573133024001436,0.4786813186813187,0.3642490842490842,2.565860805860806
4.580284322000807,0.4786813186813187,0.3642490842490842,2.565860805860806
4.584991545001685,0.4786813186813187,0.3642490842490842,2.565860805860806
4.585211063000315,0.4786813186813187,0.3642490842490842,2.565860805860806
4.590254005001043,0.4786813186813187,0.3642490842490842,2.565860805860806
4.596103222997044,0.4786813186813187,0.3642490842490842,2.565860805860806
4.5962089039967395,0.4786813186813187,0.3642490842490842,2.565860805860806
4.600884884996049,0.4786813186813187,0.3642490842490842,2.565860805860806
4.606707571998413,0.4786813186813187,0.3642490842490842,2.565860805860806
4.606929827001295,0.4786813186813187,0.3642490842490842,2.565860805860806
4.612745369995537,0.4786813186813187,0.3642490842490842,2.565860805860806
4.612888903997373,0.4786813186813187,0.3642490842490842,2.565860805860806
4.619000813996536,0.4786813186813187,0.3642490842490842,2.565860805860806
4.6269470719998935,0.4786813186813187,0.3642490842490842,2.565860805860806
4.632060695999826,0.4786813186813187,0.3642490842490842,2.565860805860806
4.635973072996421,0.4786813186813187,0.3642490842490842,2.565860805860806
4.6423568629979854,0.4786813186813187,0.3642490842490842,2.565860805860806
4.646034553996287,0.4786813186813187,0.3642490842490842,2.565860805860806
4.651707455996075,0.4786813186813187,0.3642490842490842,2.565860805860806
4.651958103000652,0.4786813186813187,0.3642490842490842,2.565860805860806
4.66031155300152,0.4786813186813187,0.3642490842490842,2.565860805860806
4.665240201000415,0.39890109890109887,0.15794871794871795,1.4392673992673992
4.67274095799803,0.39890109890109887,0.15794871794871795,1.4392673992673992
4.6768520699988585,0.39890109890109887,0.15794871794871795,1.4392673992673992
4.6793500269996,0.3352380952380952,0.051575091575091575,0.20146520146520144
4.679447764996439,0.3352380952380952,0.051575091575091575,0.20146520146520144
4.685340386997268,0.3352380952380952,0.051575091575091575,0.20146520146520144
4.685532780997164,0.3352380952380952,0.051575091575091575,0.20146520146520144
4.693487102995277,0.3352380952380952,0.051575091575091575,0.20146520146520144
4.697581726999488,0.6567765567765567,0.5367032967032966,3.1855677655677654
4.700035779002064,0.6567765567765567,0.5367032967032966,3.1855677655677654
4.700185781999608,0.6567765567765567,0.5367032967032966,3.1855677655677654
4.70647086599638,0.6567765567765567,0.5367032967032966,3.1855677655677654
4.711374040998635,0.025787545787545788,0.43597069597069593,2.3676190476190473
4.7173723640007665,0.5213919413919413,0.4029304029304029,3.3
4.721840047001024,0.5213919413919413,0.4029304029304029,3.3
4.722077888996864,1.00007326007326,0.5407326007326007,2.565860805860806
4.733182670999668,1.00007326007326,0.5407326007326007,2.565860805860806
4.742175995001162,1.00007326007326,0.5407326007326007,2.565860805860806
4.748152972999378,1.00007326007326,0.5407326007326007,2.565860805860806
4.754542812996078,1.00007326007326,0.5407326007326007,2.565860805860806
4.7621188100019936,1.00007326007326,0.5407326007326007,2.565860805860806
4.767743685995811,1.2490842490842489,0.7204395604395604,2.581172161172161
4.775736183997651,1.2490842490842489,0.7204395604395604,2.581172161172161
4.781146244997217,1.2490842490842489,0.7204395604395604,2.581172161172161
4.781463630999497,1.2490842490842489,0.7204395604395604,2.581172161172161
4.786857680999674,1.2490842490842489,0.7204395604395604,2.581172161172161
4.787909535996732,0.12732600732600732,0.506080586080586,0.27076923076923076
4.7883218610004405,0.12732600732600732,0.506080586080586,0.27076923076923076
4.79685927999526,0.12732600732600732,0.506080586080586,0.27076923076923076
4.801882904001104,0.6414652014652015,0.36747252747252745,2.5553846153846154
4.808650646999013,1.228937728937729,0.5818315018315018,2.5787545787545785
4.813544570999511,1.228937728937729,0.5818315018315018,2.5787545787545785
4.816709582999465,0.47142857142857136,0.1829304029304029,2.5473260073260073
4.818384366997634,0.47142857142857136,0.1829304029304029,2.5473260073260073
4.823706539995328,0.47142857142857136,0.1829304029304029,2.5473260073260073
4.82690719099628,0.47142857142857136,0.1829304029304029,2.5473260073260073
4.82714236099855,0.47142857142857136,0.1829304029304029,2.5473260073260073
4.832267994999711,0.47142857142857136,0.1829304029304029,2.5473260073260073
4.836227574996883,0.47142857142857136,0.1829304029304029,2.5473260073260073
4.843121507001342,0.47142857142857136,0.1829304029304029,2.5473260073260073
4.8468403549995855,1.2353846153846153,0.747032967032967,2.577142857142857
4.852319379999244,1.2353846153846153,0.747032967032967,2.577142857142857
4.8539713860009215,1.2353846153846153,0.747032967032967,2.577142857142857
4.8603738009987865,1.2353846153846153,0.747032967032967,2.577142857142857
4.864320852000674,1.2353846153846153,0.747032967032967,2.577142857142857
4.8674620509991655,1.2353846153846153,0.747032967032967,2.577142857142857
4.869915158997173,1.2353846153846153,0.747032967032967,2.577142857142857
4.8776424919997226,1.2353846153846153,0.747032967032967,2.577142857142857
4.882933681001305,1.2353846153846153,0.747032967032967,2.577142857142857
4.8855584249977255,0.7373626373626374,0.6261538461538461,2.5545787545787544
4.891609885002254,0.7373626373626374,0.6261538461538461,2.5545787545787544
4.897240432997933,0.7373626373626374,0.6261538461538461,2.5545787545787544
4.8974621489978745,0.7373626373626374,0.6261538461538461,2.5545787545787544
4.903059138996468,0.7373626373626374,0.6261538461538461,2.5545787545787544
4.903433416999178,0.7373626373626374,0.6261538461538461,2.5545787545787544
4.90927968199685,0.7373626373626374,0.6261538461538461,2.5545787545787544
4.913979131000815,0.7373626373626374,0.6261538461538461,2.5545787545787544
4.914186508998682,0.7373626373626374,0.6261538461538461,2.5545787545787544
4.919808550999733,0.7373626373626374,0.6261538461538461,2.5545787545787544
4.91999133599893,0.7373626373626374,0.6261538461538461,2.5545787545787544
4.927028345999133,0.7373626373626374,0.6261538461538461,2.5545787545787544
4.93121079300181,0.7373626373626374,0.6261538461538461,2.5545787545787544
4.934926565998467,0.7373626373626374,0.6261538461538461,2.5545787545787544
4.944437637001101,0.7373626373626374,0.6261538461538461,2.5545787545787544
4.949257686996134,0.7373626373626374,0.6261538461538461,2.5545787545787544
4.956385097997554,0.7373626373626374,0.6261538461538461,2.5545787545787544
4.961080487999425,0.7373626373626374,0.6261538461538461,2.5545787545787544
4.966647183995519,0.7373626373626374,0.6261538461538461,2.5545787545787544
4.96747834499547,0.7373626373626374,0.6261538461538461,2.5545787545787544
4.969220571998449,0.7373626373626374,0.6261538461538461,2.5545787545787544
4.9770692469974165,0.7373626373626374,0.6261538461538461,2.5545787545787544
4.981342569997651,0.7373626373626374,0.6261538461538461,2.5545787545787544
4.983129057996848,0.801025641025641,0.25787545787545785,2.5787545787545785
4.986426128998573,0.801025641025641,0.25787545787545785,2.5787545787545785
4.986667074997968,0.5399267399267399,0.46820512820512816,2.6464468864468866
4.99443631900067,0.5399267399267399,0.46820512820512816,2.6464468864468866
4.998690601998533,0.5399267399267399,0.46820512820512816,2.6464468864468866
5.000289616997179,0.5399267399267399,0.46820512820512816,2.6464468864468866
5.006009650001943,0.5399267399267399,0.46820512820512816,2.6464468864468866
5.0064821429987205,0.03142857142857143,0.3964835164835165,2.444981684981685
5.011232783996093,0.03142857142857143,0.3964835164835165,2.444981684981685
5.016808815998957,0.03142857142857143,0.3964835164835165,2.444981684981685
5.017762887000572,0.3908424908424908,0.06124542124542124,0.3038095238095238
5.018757388999802,0.3908424908424908,0.06124542124542124,0.3038095238095238
5.019692631998623,0.3908424908424908,0.06124542124542124,0.3038095238095238
5.021484060998773,0.3908424908424908,0.06124542124542124,0.3038095238095238
5.027329569995345,0.3908424908424908,0.06124542124542124,0.3038095238095238
5.032202524998866,0.5504029304029303,0.4142124542124542,2.5545787545787544
5.0369472009988385,0.5504029304029303,0.4142124542124542,2.5545787545787544
5.037186410998402,0.5504029304029303,0.4142124542124542,2.5545787545787544
5.044908290001331,0.5504029304029303,0.4142124542124542,2.5545787545787544
5.049732120001863,0.386007326007326,0.3336263736263736,2.565054945054945
5.055334862998279,0.7728205128205128,0.43274725274725273,3.3
5.0570106679952005,0.7728205128205128,0.43274725274725273,3.3
5.060915087997273,0.7728205128205128,0.43274725274725273,3.3
5.065724555999623,0.7728205128205128,0.43274725274725273,3.3
5.065856916997291,0.7728205128205128,0.43274725274725273,3.3
5.070666899999196,0.7728205128205128,0.43274725274725273,3.3
5.0708449149969965,0.7728205128205128,0.43274725274725273,3.3
5.076416944997618,0.7728205128205128,0.43274725274725273,3.3
5.077519728001789,0.7728205128205128,0.43274725274725273,3.3
5.077810479997424,0.7728205128205128,0.43274725274725273,3.3
5.0832571079954505,0.7728205128205128,0.43274725274725273,3.3
5.086439755999891,0.8517948717948718,0.27399267399267396,3.3
5.08834487599961,0.3497435897435897,0.4504761904761904,1.577875457875458
5.090002354001626,0.3497435897435897,0.4504761904761904,1.577875457875458
5.094891697997809,0.3497435897435897,0.4504761904761904,1.577875457875458
5.098148339995532,0.43113553113553116,0.11926739926739927,1.3667399267399267
5.099910831995658,0.43113553113553116,0.11926739926739927,1.3667399267399267
5.1031790130000445,0.9162637362637363,0.5447619047619047,2.569084249084249
5.105028723999567,0.8566300366300367,0.6027838827838827,3.3
5.108259134001855,0.8566300366300367,0.6027838827838827,3.3
5.108533662001719,0.9122344322344322,0.4827106227106227,2.5545787545787544
5.114058130995545,0.40534798534798533,0.24175824175824176,3.3
5.11509548399772,0.5471794871794872,0.17084249084249084,2.5561904761904763
5.1160231009998824,0.5471794871794872,0.17084249084249084,2.5561904761904763
5.1169343079964165,0.5471794871794872,0.17084249084249084,2.5561904761904763
5.117936110997107,0.5471794871794872,0.17084249084249084,2.5561904761904763
5.119520519998332,0.5471794871794872,0.17084249084249084,2.5561904761904763
5.125909436996153,0.5471794871794872,0.17084249084249084,2.5561904761904763
5.1297929089996614,0.5471794871794872,0.17084249084249084,2.5561904761904763
5.134544294996886,0.5471794871794872,0.17084249084249084,2.5561904761904763
5.140126471000258,0.5471794871794872,0.17084249084249084,2.5561904761904763
5.1410747109985095,1.0073260073260073,0.518974358974359,2.5755311355311354
5.1427391190009075,1.0073260073260073,0.518974358974359,2.5755311355311354
5.146589486001176,1.0073260073260073,0.518974358974359,2.5755311355311354
5.151229625000269,0.1515018315018315,0.4279120879120879,0.5592673992673992
5.151437576001626,0.73010989010989,0.4005128205128205,2.552967032967033
5.156369764001283,0.73010989010989,0.4005128205128205,2.552967032967033
5.161147305996565,0.73010989010989,0.4005128205128205,2.552967032967033
5.161356518001412,0.73010989010989,0.4005128205128205,2.552967032967033
5.166339858995343,0.73010989010989,0.4005128205128205,2.552967032967033
5.170926576000056,0.73010989010989,0.4005128205128205,2.552967032967033
5.171237855000072,0.73010989010989,0.4005128205128205,2.552967032967033
5.176724017001106,0.73010989010989,0.4005128205128205,2.552967032967033
5.178352064001956,0.73010989010989,0.4005128205128205,2.552967032967033
5.182244090996392,0.73010989010989,0.4005128205128205,2.552967032967033
5.186942725995323,0.73010989010989,0.4005128205128205,2.552967032967033
5.193494891995215,0.73010989010989,0.4005128205128205,2.552967032967033
5.197399242999381,0.4899633699633699,0.21194139194139192,2.5666666666666664
5.201941355000599,0.4899633699633699,0.21194139194139192,2.5666666666666664
5.202236967001227,0.4899633699633699,0.21194139194139192,2.5666666666666664
5.207588899000257,0.4899633699633699,0.21194139194139192,2.5666666666666664
5.209944094996899,0.4899633699633699,0.21194139194139192,2.5666666666666664
5.210235868995369,0.4899633699633699,0.21194139194139192,2.5666666666666664
5.215547385996615,0.4899633699633699,0.21194139194139192,2.5666666666666664
5.217950475001999,0.4899633699633699,0.21194139194139192,2.5666666666666664
5.218082191997382,0.4899633699633699,0.21194139194139192,2.5666666666666664
5.223593679998885,0.4899633699633699,0.21194139194139192,2.5666666666666664
5.2245040999987395,0.4899633699633699,0.21194139194139192,2.5666666666666664
5.226111076997768,0.07333333333333333,0.41018315018315016,0.27399267399267396
5.230752867995761,0.07333333333333333,0.41018315018315016,0.27399267399267396
5.230973974001245,0.07333333333333333,0.41018315018315016,0.27399267399267396
5.235881212000095,0.07333333333333333,0.41018315018315016,0.27399267399267396
5.241967296002258,0.07333333333333333,0.41018315018315016,0.27399267399267396
5.245924736002053,1.0468131868131867,0.5463736263736263,2.5787545787545785
5.250640420999844,1.0468131868131867,0.5463736263736263,2.5787545787545785
5.25081810499978,1.0468131868131867,0.5463736263736263,2.5787545787545785
5.255961646995274,1.0468131868131867,0.5463736263736263,2.5787545787545785
5.26004047600145,1.0468131868131867,0.5463736263736263,2.5787545787545785
5.263149072998203,1.0468131868131867,0.5463736263736263,2.5787545787545785
5.264779708995775,1.0468131868131867,0.5463736263736263,2.5787545787545785
5.268674295999517,0.07575091575091575,0.3771428571428571,2.552967032967033
5.273271557998669,0.5649084249084249,0.4561172161172161,2.9784615384615383
5.2735609090013895,0.5649084249084249,0.4561172161172161,2.9784615384615383
5.278860446996987,0.5649084249084249,0.4561172161172161,2.9784615384615383
5.282067927000753,0.5649084249084249,0.4561172161172161,2.9784615384615383
5.283032901999832,0.5649084249084249,0.4561172161172161,2.9784615384615383
5.284087489999365,0.5649084249084249,0.4561172161172161,2.9784615384615383
5.285433402998024,0.5649084249084249,0.4561172161172161,2.9784615384615383
5.29747884599783,0.5649084249084249,0.4561172161172161,2.9784615384615383
5.30852371599758,0.85018315018315,0.4754578754578754,2.5481318681318683
5.317088880998199,0.85018315018315,0.4754578754578754,2.5481318681318683
5.322613880001882,0.85018315018315,0.4754578754578754,2.5481318681318683
5.324291632001405,0.85018315018315,0.4754578754578754,2.5481318681318683
5.328313102996617,0.85018315018315,0.4754578754578754,2.5481318681318683
5.332258772999921,0.85018315018315,0.4754578754578754,2.5481318681318683
5.3366523570002755,0.85018315018315,0.4754578754578754,2.5481318681318683
5.336951840996335,0.85018315018315,0.4754578754578754,2.5481318681318683
5.345362959997146,0.85018315018315,0.4754578754578754,2.5481318681318683
5.352980145995389,1.1475457875457875,0.4222710622710622,2.5755311355311354
5.36311719299556,1.1475457875457875,0.4222710622710622,2.5755311355311354
5.374844608995772,1.1475457875457875,0.4222710622710622,2.5755311355311354
5.380710664001526,1.1475457875457875,0.4222710622710622,2.5755311355311354
5.385906227995292,1.1475457875457875,0.4222710622710622,2.5755311355311354
5.389067129995965,1.1475457875457875,0.4222710622710622,2.5755311355311354
5.392844891997811,1.1475457875457875,0.4222710622710622,2.5755311355311354
5.395539277997159,0.506080586080586,0.1652014652014652,2.5553846153846154
5.399435726001684,0.506080586080586,0.1652014652014652,2.5553846153846154
5.404842088995792,0.506080586080586,0.1652014652014652,2.5553846153846154
5.408359752000251,0.506080586080586,0.1652014652014652,2.5553846153846154
5.416025523001736,0.506080586080586,0.1652014652014652,2.5553846153846154
5.424055520001275,0.506080586080586,0.1652014652014652,2.5553846153846154
5.428396174000227,0.33684981684981685,0.356996336996337,2.5682783882783884
5.428666619998694,0.33684981684981685,0.356996336996337,2.5682783882783884
5.435204968001926,0.33684981684981685,0.356996336996337,2.5682783882783884
5.442010936996667,0.33684981684981685,0.356996336996337,2.5682783882783884
5.4465513729956,0.33684981684981685,0.356996336996337,2.5682783882783884
5.446719661995303,0.33684981684981685,0.356996336996337,2.5682783882783884
5.452223319996847,0.33684981684981685,0.356996336996337,2.5682783882783884
5.453184630998294,0.33684981684981685,0.356996336996337,2.5682783882783884
5.454267804998381,0.9726739926739927,0.66,3.3
5.455439361001481,0.9726739926739927,0.66,3.3
5.455735753996123,0.4037362637362637,0.08058608058608058,1.0290842490842491
5.4615321710007265,0.4037362637362637,0.08058608058608058,1.0290842490842491
5.461719544000516,1.0492307692307692,0.6213186813186813,2.5755311355311354
5.466618819998985,1.0492307692307692,0.6213186813186813,2.5755311355311354
5.472883344998991,0.332014652014652,0.3457142857142857,3.3
5.477717353998742,0.5665201465201465,0.3021978021978022,2.552967032967033
5.48167466599989,0.3465201465201465,0.06205128205128205,0.21677655677655677
5.4856254369951785,0.3465201465201465,0.06205128205128205,0.21677655677655677
5.489950042996497,0.3465201465201465,0.06205128205128205,0.21677655677655677
5.492518713996105,0.3465201465201465,0.06205128205128205,0.21677655677655677
5.49800210599642,0.3465201465201465,0.06205128205128205,0.21677655677655677
5.498293108001235,0.3465201465201465,0.06205128205128205,0.21677655677655677
5.503907158999937,0.3465201465201465,0.06205128205128205,0.21677655677655677
5.504266955002095,0.3465201465201465,0.06205128205128205,0.21677655677655677
5.511057023999456,0.3465201465201465,0.06205128205128205,0.21677655677655677
5.515117518996703,0.4778754578754579,0.32556776556776557,3.3
5.518242632999318,0.4778754578754579,0.32556776556776557,3.3
5.520789529997273,0.4778754578754579,0.32556776556776557,3.3
5.527699514997948,0.4778754578754579,0.32556776556776557,3.3
5.531655443999625,0.4778754578754579,0.32556776556776557,3.3
5.5367850409966195,0.4778754578754579,0.32556776556776557,3.3
5.542801019997569,0.4778754578754579,0.32556776556776557,3.3
5.546371634001844,0.4778754578754579,0.32556776556776557,3.3
5.546630133998406,0.0,0.4416117216117216,2.1975824175824172
5.551454733002174,0.0,0.4416117216117216,2.1975824175824172
5.560848606997752,0.0,0.4416117216117216,2.1975824175824172
5.565205236998736,0.33282051282051284,0.047545787545787546,0.17326007326007326
5.566908071996295,0.33282051282051284,0.047545787545787546,0.17326007326007326
5.57127316200058,0.33282051282051284,0.047545787545787546,0.17326007326007326
5.5731411059969105,0.33282051282051284,0.047545787545787546,0.17326007326007326
5.575737375002063,0.33282051282051284,0.047545787545787546,0.17326007326007326
5.5836377019950305,0.4158241758241758,0.09428571428571428,0.9186813186813186
5.590843922000204,0.4158241758241758,0.09428571428571428,0.9186813186813186
5.594962716997543,0.4158241758241758,0.09428571428571428,0.9186813186813186
5.597396498997114,0.4158241758241758,0.09428571428571428,0.9186813186813186
5.5975157220018446,0.4158241758241758,0.09428571428571428,0.9186813186813186
5.6030220269967685,0.4158241758241758,0.09428571428571428,0.9186813186813186
5.60397820900107,0.6696703296703297,0.6108424908424909,2.5481318681318683
5.605734636999841,0.6696703296703297,0.6108424908424909,2.5481318681318683
5.610750513995299,0.6696703296703297,0.6108424908424909,2.5481318681318683
5.612464174999332,0.6696703296703297,0.6108424908424909,2.5481318681318683
5.615658513001108,0.6696703296703297,0.6108424908424909,2.5481318681318683
5.61732562299585,0.6696703296703297,0.6108424908424909,2.5481318681318683
5.624842709999939,0.6696703296703297,0.6108424908424909,2.5481318681318683
5.628277698000602,0.6696703296703297,0.6108424908424909,2.5481318681318683
5.62916050000058,0.6696703296703297,0.6108424908424909,2.5481318681318683
5.630823492996569,0.6696703296703297,0.6108424908424909,2.5481318681318683
5.634861302998615,0.6696703296703297,0.6108424908424909,2.5481318681318683
5.638270467999973,0.6696703296703297,0.6108424908424909,2.5481318681318683
5.6394289460004074,0.6696703296703297,0.6108424908424909,2.5481318681318683
5.63963184900058,0.7228571428571429,0.6559706959706959,2.54974358974359
5.644937903001846,1.0226373626373626,0.684981684981685,2.5787545787545785
5.647303083002043,1.0226373626373626,0.684981684981685,2.5787545787545785
5.647470696996606,1.0226373626373626,0.684981684981685,2.5787545787545785
5.654399774000922,0.7486446886446886,0.5084981684981685,3.3
5.660582307995355,0.6068131868131869,0.3553846153846154,2.552967032967033
5.6645941989991115,0.6068131868131869,0.3553846153846154,2.552967032967033
5.667005928000435,0.6068131868131869,0.3553846153846154,2.552967032967033
5.667236820001563,0.6068131868131869,0.3553846153846154,2.552967032967033
5.674800823995611,0.6068131868131869,0.3553846153846154,2.552967032967033
5.679437375998532,0.6068131868131869,0.3553846153846154,2.552967032967033
5.679667979995429,0.6068131868131869,0.3553846153846154,2.552967032967033
5.685431924997829,0.6068131868131869,0.3553846153846154,2.552967032967033
5.685663256001135,0.6068131868131869,0.3553846153846154,2.552967032967033
5.693553062999854,0.6068131868131869,0.3553846153846154,2.552967032967033
5.698360023998248,0.6068131868131869,0.3553846153846154,2.552967032967033
5.6984803449959145,0.3771428571428571,0.03706959706959707,0.195018315018315
5.704821186998743,0.3771428571428571,0.03706959706959707,0.195018315018315
5.709841894997226,0.3771428571428571,0.03706959706959707,0.195018315018315
5.714513975995942,0.3876190476190476,0.2594871794871795,3.3
5.714628438996442,0.3876190476190476,0.2594871794871795,3.3
5.719524457999796,0.4045421245421245,0.07413919413919413,0.5399267399267399
5.726590441998269,0.4045421245421245,0.07413919413919413,0.5399267399267399
5.730578506998427,0.0,0.47142857142857136,0.9533333333333331
5.734608845996263,0.0,0.47142857142857136,0.9533333333333331
5.737820818001637,0.0,0.47142857142857136,0.9533333333333331
5.739881716996024,0.0,0.47142857142857136,0.9533333333333331
5.740104996999435,0.0,0.47142857142857136,0.9533333333333331
5.747318271998665,0.0,0.47142857142857136,0.9533333333333331
5.752195647997723,0.0,0.47142857142857136,0.9533333333333331
5.75836104699556,0.5350915750915751,0.3021978021978022,2.5553846153846154
5.762677940998401,0.2635164835164835,0.3263736263736263,1.7043956043956046
5.7635725250002,0.3183150183150183,0.3529670329670329,2.5594139194139194
5.764481956000964,0.3183150183150183,0.3529670329670329,2.5594139194139194
5.766507038999407,0.3183150183150183,0.3529670329670329,2.5594139194139194
5.768497801997,0.3183150183150183,0.3529670329670329,2.5594139194139194
5.769431002001511,0.3183150183150183,0.3529670329670329,2.5594139194139194
5.77205765999679,0.3183150183150183,0.3529670329670329,2.5594139194139194
5.777846391996718,0.3183150183150183,0.3529670329670329,2.5594139194139194
5.782793728001707,0.95010989010989,0.5947252747252747,3.3
5.787566154998785,0.95010989010989,0.5947252747252747,3.3
5.787743331995443,0.95010989010989,0.5947252747252747,3.3
5.794366274996719,0.7687912087912088,0.4859340659340659,3.3
5.798417621001136,0.7687912087912088,0.4859340659340659,3.3
5.801728090002143,0.7687912087912088,0.4859340659340659,3.3
5.8020653880012105,1.2144322344322345,0.5125274725274725,2.5787545787545785
5.809342845001083,1.2144322344322345,0.5125274725274725,2.5787545787545785
5.813615109000239,1.2144322344322345,0.5125274725274725,2.5787545787545785
5.814506082999287,0.5963369963369963,0.3376556776556776,2.5545787545787544
5.81624746399757,0.5963369963369963,0.3376556776556776,2.5545787545787544
5.820142995995411,0.4126007326007326,0.06769230769230769,0.3586080586080586
5.827558327000588,0.4126007326007326,0.06769230769230769,0.3586080586080586
5.83179528999608,0.0,0.5141391941391941,1.8317216117216117
5.834151440998539,0.0,0.5141391941391941,1.8317216117216117
5.834453909999866,0.0,0.5141391941391941,1.8317216117216117
5.841169105995505,0.0,0.5141391941391941,1.8317216117216117
5.845318494997628,0.9565567765567766,0.32476190476190475,2.5787545787545785
5.846291198999097,0.9565567765567766,0.32476190476190475,2.5787545787545785
5.847954040000332,0.9565567765567766,0.32476190476190475,2.5787545787545785
5.851178058001096,0.9565567765567766,0.32476190476190475,2.5787545787545785
5.852777514999616,0.9565567765567766,0.32476190476190475,2.5787545787545785
5.857956291001756,0.581025641025641,0.195018315018315,2.54974358974359
5.860549724995508,0.581025641025641,0.195018315018315,2.54974358974359
5.86541379999835,0.581025641025641,0.195018315018315,2.54974358974359
5.870178079996549,0.581025641025641,0.195018315018315,2.54974358974359
5.877450570995279,0.581025641025641,0.195018315018315,2.54974358974359
5.881465243997809,0.581025641025641,0.195018315018315,2.54974358974359
5.8853818099960336,0.581025641025641,0.195018315018315,2.54974358974359
5.891146729001775,0.581025641025641,0.195018315018315,2.54974358974359
5.897726864997821,0.581025641025641,0.195018315018315,2.54974358974359
5.901968680998834,0.581025641025641,0.195018315018315,2.54974358974359
5.90460014600103,0.581025641025641,0.195018315018315,2.54974358974359
5.911341402999824,0.581025641025641,0.195018315018315,2.54974358974359
5.915397566997854,0.581025641025641,0.195018315018315,2.54974358974359
5.9187519929982955,0.581025641025641,0.195018315018315,2.54974358974359
5.9190389630020945,0.3183150183150183,0.06205128205128205,0.21677655677655677
5.928314058997785,0.3183150183150183,0.06205128205128205,0.21677655677655677
5.933033043998876,0.3183150183150183,0.06205128205128205,0.21677655677655677
5.941347102998407,0.3183150183150183,0.06205128205128205,0.21677655677655677
5.947166735997598,1.1241758241758242,0.43274725274725273,2.577948717948718
5.954318452000734,1.1241758241758242,0.43274725274725273,2.577948717948718
5.960578379999788,0.6495238095238095,0.3449084249084249,3.3
5.963888786995085,1.0387545787545787,0.6237362637362637,2.5803663003663004
5.964276927996252,1.0387545787545787,0.6237362637362637,2.5803663003663004
5.969097864996002,1.0387545787545787,0.6237362637362637,2.5803663003663004
5.97700623000128,1.0387545787545787,0.6237362637362637,2.5803663003663004
5.9822190849954495,1.0387545787545787,0.6237362637362637,2.5803663003663004
5.985159702999226,1.0387545787545787,0.6237362637362637,2.5803663003663004
5.989051456999732,1.0387545787545787,0.6237362637362637,2.5803663003663004
5.993184029997792,0.2909157509157509,0.19985347985347984,3.3
5.995680744999845,0.2909157509157509,0.19985347985347984,3.3
6.001102871996409,0.2909157509157509,0.19985347985347984,3.3
6.003932640996936,0.2909157509157509,0.19985347985347984,3.3
6.009654595996835,0.788937728937729,0.2191941391941392,2.5747252747252745
6.01461233599548,0.788937728937729,0.2191941391941392,2.5747252747252745
6.020232754999597,0.3618315018315018,0.19179487179487179,2.5561904761904763
6.021137351999641,1.0282783882783881,0.5221978021978021,2.5747252747252745
6.023594145997777,1.0282783882783881,0.5221978021978021,2.5747252747252745
6.029619954999362,0.3424908424908425,0.3287912087912088,3.3
6.034234760998515,0.6366300366300366,0.35216117216117215,3.3
6.034512318998168,0.6366300366300366,0.35216117216117215,3.3
6.042406735999975,0.6366300366300366,0.35216117216117215,3.3
6.047230127995135,0.3997069597069597,0.05641025641025641,0.29655677655677654
6.052859777999402,0.3997069597069597,0.05641025641025641,0.29655677655677654
6.0530958640010795,0.5109157509157509,0.21516483516483517,2.557802197802198
6.062144254996383,0.5109157509157509,0.21516483516483517,2.557802197802198
6.0668007689964725,0.5109157509157509,0.21516483516483517,2.557802197802198
6.067004995995376,0.5109157509157509,0.21516483516483517,2.557802197802198
6.072972367997863,0.5109157509157509,0.21516483516483517,2.557802197802198
6.081323530997906,0.5109157509157509,0.21516483516483517,2.557802197802198
6.086198065997451,0.5109157509157509,0.21516483516483517,2.557802197802198
6.095912393997423,0.5109157509157509,0.21516483516483517,2.557802197802198
6.102418502996443,0.3529670329670329,0.12893772893772892,1.6302564102564103
6.10792731300171,0.3529670329670329,0.12893772893772892,1.6302564102564103
6.108340425998904,0.3529670329670329,0.12893772893772892,1.6302564102564103
6.116010621000896,0.3529670329670329,0.12893772893772892,1.6302564102564103
6.120670112999505,0.3529670329670329,0.12893772893772892,1.6302564102564103
6.120949662996281,0.3529670329670329,0.12893772893772892,1.6302564102564103
6.130030223997892,0.3529670329670329,0.12893772893772892,1.6302564102564103
6.1356605629989645,1.0863003663003663,0.5963369963369963,3.3
6.13589032299933,0.3932600732600733,0.10395604395604395,1.070989010989011
6.1421249880004325,0.3932600732600733,0.10395604395604395,1.070989010989011
6.146538499000599,0.22967032967032966,0.08058608058608058,0.7333333333333333
6.146749448002083,1.0564835164835162,0.5649084249084249,3.3
6.151469183998415,1.0564835164835162,0.5649084249084249,3.3
6.151688995996665,1.0564835164835162,0.5649084249084249,3.3
6.156423004002136,1.0564835164835162,0.5649084249084249,3.3
6.156671181001002,1.0564835164835162,0.5649084249084249,3.3
6.161370579000504,0.3505494505494505,0.05399267399267399,0.24014652014652016
6.161576868995326,0.3505494505494505,0.05399267399267399,0.24014652014652016
6.167458334995899,0.3505494505494505,0.05399267399267399,0.24014652014652016
6.167590494995238,0.5576556776556777,0.4424175824175824,2.784249084249084
6.17295730800106,0.5576556776556777,0.4424175824175824,2.784249084249084
6.17467400500027,0.5576556776556777,0.4424175824175824,2.784249084249084
6.1786262079986045,0.5576556776556777,0.4424175824175824,2.784249084249084
6.182933106996643,0.37150183150183147,0.0419047619047619,0.2248351648351648
6.184554235995165,0.37150183150183147,0.0419047619047619,0.2248351648351648
6.188410301001568,0.37150183150183147,0.0419047619047619,0.2248351648351648
6.19303296799626,0.37150183150183147,0.0419047619047619,0.2248351648351648
6.1931845559956855,0.37150183150183147,0.0419047619047619,0.2248351648351648
6.198976273000881,0.37150183150183147,0.0419047619047619,0.2248351648351648
6.1990845409964095,0.3884249084249084,0.05963369963369963,0.6326007326007326
6.20460628499859,0.3884249084249084,0.05963369963369963,0.6326007326007326
6.207498591997137,0.3884249084249084,0.05963369963369963,0.6326007326007326
6.209419500999502,0.3884249084249084,0.05963369963369963,0.6326007326007326
6.2122297219975735,0.3884249084249084,0.05963369963369963,0.6326007326007326
6.215822389000095,0.5278388278388277,0.1958241758241758,2.5586080586080584
6.220547924996936,0.5278388278388277,0.1958241758241758,2.5586080586080584
6.229662833000475,0.3755311355311355,0.17406593406593407,1.2732600732600732
6.234314401001029,0.3384615384615384,0.3497435897435897,3.3
6.234528080996824,0.3384615384615384,0.3497435897435897,3.3
6.243281725997804,0.3384615384615384,0.3497435897435897,3.3
6.248204878997058,0.3852014652014652,0.2498168498168498,1.4513553113553113
6.252588401999674,0.3852014652014652,0.2498168498168498,1.4513553113553113
6.254871256001934,0.3852014652014652,0.2498168498168498,1.4513553113553113
6.255224430999078,0.3852014652014652,0.2498168498168498,1.4513553113553113
6.260436388998642,0.3852014652014652,0.2498168498168498,1.4513553113553113
6.263364785001613,0.3852014652014652,0.2498168498168498,1.4513553113553113
6.266268178995233,0.3852014652014652,0.2498168498168498,1.4513553113553113
6.269193731000996,0.0,0.47706959706959706,0.8953113553113552
6.272179357001733,0.3505494505494505,0.24578754578754577,3.3
6.2757742009998765,0.3505494505494505,0.24578754578754577,3.3
6.281607922996045,0.3505494505494505,0.24578754578754577,3.3
6.281845501995122,0.3505494505494505,0.24578754578754577,3.3
6.287616303001414,0.3505494505494505,0.24578754578754577,3.3
6.28776964500139,0.3505494505494505,0.24578754578754577,3.3
6.293182941997657,0.3505494505494505,0.24578754578754577,3.3
6.295705915996223,0.48432234432234433,0.29978021978021974,3.3
6.301124439996784,0.48432234432234433,0.29978021978021974,3.3
6.303967234001902,1.2232967032967033,0.6052014652014651,2.5803663003663004
6.306705270995735,1.2232967032967033,0.6052014652014651,2.5803663003663004
6.310662089999823,1.2232967032967033,0.6052014652014651,2.5803663003663004
6.314624724996975,1.2232967032967033,0.6052014652014651,2.5803663003663004
6.318720385999768,1.2232967032967033,0.6052014652014651,2.5803663003663004
6.321903538999322,1.2232967032967033,0.6052014652014651,2.5803663003663004
6.323583391000284,1.1596336996336996,0.303003663003663,2.577948717948718
6.327622429998883,0.4416117216117216,0.4561172161172161,3.3
6.330718627999886,0.24901098901098898,0.4786813186813187,0.2643223443223443
6.333101746997272,0.24901098901098898,0.4786813186813187,0.2643223443223443
