time,emg1,emg2,emg3
0.031099473999347538,0.2562637362637363,0.06124542124542124,0.4891575091575091
0.03170825300185243,0.2562637362637363,0.06124542124542124,0.4891575091575091
0.04088173899799585,0.2562637362637363,0.06124542124542124,0.4891575091575091
0.05201034399942728,0.2562637362637363,0.06124542124542124,0.4891575091575091
0.06100595599855296,0.6301831501831501,0.8155311355311355,1.1830036630036629
0.07052103499881923,0.6301831501831501,0.8155311355311355,1.1830036630036629
0.07870339199871523,0.6301831501831501,0.8155311355311355,1.1830036630036629
0.08543393600120908,0.6301831501831501,0.8155311355311355,1.1830036630036629
0.08994246600195765,3.3,0.6680586080586081,1.2668131868131869
0.0902794180001365,3.3,0.6680586080586081,1.2668131868131869
0.09573330199782504,3.3,0.6680586080586081,1.2668131868131869
0.09688934400037397,3.3,0.6680586080586081,1.2668131868131869
0.09716670800116844,3.3,0.6680586080586081,1.2668131868131869
0.1032713730019168,3.3,0.6680586080586081,1.2668131868131869
0.10677421699801926,3.3,0.6680586080586081,1.2668131868131869
0.11304881200339878,3.3,0.6680586080586081,1.2668131868131869
0.11759343899757368,3.3,0.6680586080586081,1.2668131868131869
0.11770823400001973,3.3,0.6680586080586081,1.2668131868131869
0.12259603299753508,3.3,0.6680586080586081,1.2668131868131869
0.12734625799930654,3.3,0.33604395604395604,0.7986080586080586
0.12746197899832623,3.3,0.33604395604395604,0.7986080586080586
0.1328274550032802,3.3,0.33604395604395604,0.7986080586080586
0.13516392600286053,3.3,0.33604395604395604,0.7986080586080586
0.13540736099821515,3.3,0.33604395604395604,0.7986080586080586
0.1409949279986904,3.3,0.33604395604395604,0.7986080586080586
0.14284102599776816,0.0,0.112014652014652,0.6487179487179486
0.14439171199774137,0.0,0.112014652014652,0.6487179487179486
0.1492855899996357,2.265274725274725,0.3489377289377289,0.32073260073260074
0.15562289700028487,1.166080586080586,0.70996336996337,1.2047619047619047
0.16114072700293036,1.166080586080586,0.70996336996337,1.2047619047619047
0.16126341299968772,0.0,0.083003663003663,0.5367032967032966
0.1666751579978154,0.0,0.083003663003663,0.5367032967032966
0.16831013200135203,0.0,0.083003663003663,0.5367032967032966
0.17223875199852046,0.0,0.083003663003663,0.5367032967032966
0.17707504700229038,0.0,0.083003663003663,0.5367032967032966
0.18170709800324403,0.0,0.083003663003663,0.5367032967032966
0.18192739300138783,0.0,0.083003663003663,0.5367032967032966
0.1875860849977471,0.0,0.083003663003663,0.5367032967032966
0.18842651599698002,0.0,0.083003663003663,0.5367032967032966
0.19004355699871667,0.0,0.083003663003663,0.5367032967032966
0.19426528899930418,0.0,0.083003663003663,0.5367032967032966
0.19591347799723735,0.0,0.083003663003663,0.5367032967032966
0.1997333429972059,0.0,0.083003663003663,0.5367032967032966
0.20411388100183103,0.0,0.083003663003663,0.5367032967032966
0.2063925409966032,0.0,0.083003663003663,0.5367032967032966
0.20652966300258413,0.0,0.083003663003663,0.5367032967032966
0.21345463000034215,0.7349450549450549,0.7712087912087912,1.1846153846153846
0.21878273600304965,2.548937728937729,0.2627106227106227,0.4383882783882784
0.22194453999691177,2.548937728937729,0.2627106227106227,0.4383882783882784
0.22233382699778304,2.548937728937729,0.2627106227106227,0.4383882783882784
0.231507431002683,2.548937728937729,0.2627106227106227,0.4383882783882784
0.24179463800101075,3.3,0.22886446886446887,0.17084249084249084
0.2518623040014063,3.3,0.7019047619047618,0.5342857142857143
0.26185403000272345,3.3,0.7019047619047618,0.5342857142857143
0.2695479999965755,2.594065934065934,0.18937728937728937,0.048351648351648346
0.2744889349996811,3.3,0.40695970695970696,0.1676190476190476
0.2810772669981816,3.3,0.40695970695970696,0.1676190476190476
0.2849974700002349,3.3,0.40695970695970696,0.1676190476190476
0.28838015100336634,3.3,0.40695970695970696,0.1676190476190476
0.2887007149984129,3.3,0.40695970695970696,0.1676190476190476
0.2935035710033844,3.3,0.40695970695970696,0.1676190476190476
0.2936613850033609,3.3,0.40695970695970696,0.1676190476190476
0.3032701350020943,3.3,0.40695970695970696,0.1676190476190476
0.3097921029984718,3.3,0.40695970695970696,0.1676190476190476
0.31487659800041,3.3,0.40695970695970696,0.1676190476190476
0.3191728300007526,1.099194139194139,0.7317216117216117,0.6503296703296703
0.319462002000364,0.0,0.06688644688644689,0.35619047619047617
0.3242837740035611,0.1241025641025641,0.03626373626373627,0.2562637362637363
0.32989528899634024,0.1241025641025641,0.03626373626373627,0.2562637362637363
0.33116893399710534,0.1241025641025641,0.03626373626373627,0.2562637362637363
0.331377403002989,0.1241025641025641,0.03626373626373627,0.2562637362637363
0.3366483510035323,0.1241025641025641,0.03626373626373627,0.2562637362637363
0.3398133630034863,2.8471062271062273,0.28769230769230764,0.29333333333333333
0.34153189299831865,2.8471062271062273,0.28769230769230764,0.29333333333333333
0.3447874870034866,2.5827838827838825,0.7284981684981684,0.28285714285714286
0.34684846000163816,2.2684981684981684,0.6761172161172161,0.8389010989010988
0.34807397500117077,2.2684981684981684,0.6761172161172161,0.8389010989010988
0.34824263799964683,2.2684981684981684,0.6761172161172161,0.8389010989010988
0.3536498679968645,2.2684981684981684,0.6761172161172161,0.8389010989010988
0.3545912679983303,2.2684981684981684,0.6761172161172161,0.8389010989010988
0.35628911099774996,2.2684981684981684,0.6761172161172161,0.8389010989010988
0.359483852997073,2.2684981684981684,0.6761172161172161,0.8389010989010988
0.3612071660027141,2.2684981684981684,0.6761172161172161,0.8389010989010988
0.3666277820011601,2.2684981684981684,0.6761172161172161,0.8389010989010988
0.36705393900047056,2.2684981684981684,0.6761172161172161,0.8389010989010988
0.3751612979976926,2.2684981684981684,0.6761172161172161,0.8389010989010988
0.38216534000093816,2.1065201465201464,0.09670329670329669,0.6454945054945055
0.38725799300300423,2.1065201465201464,0.09670329670329669,0.6454945054945055
0.3905403259996092,2.1065201465201464,0.09670329670329669,0.6454945054945055
0.39142504800111055,2.1065201465201464,0.09670329670329669,0.6454945054945055
0.39310799699887866,2.1065201465201464,0.09670329670329669,0.6454945054945055
0.39774815300188493,2.9438095238095237,0.28205128205128205,0.6753113553113552
0.397924356002477,2.9438095238095237,0.28205128205128205,0.6753113553113552
0.40483977000258164,2.9438095238095237,0.28205128205128205,0.6753113553113552
0.40910830900247674,2.9438095238095237,0.28205128205128205,0.6753113553113552
0.41158980099862674,2.9438095238095237,0.28205128205128205,0.6753113553113552
0.42088263500045286,2.9438095238095237,0.28205128205128205,0.6753113553113552
0.4297833660020842,2.9438095238095237,0.28205128205128205,0.6753113553113552
0.43810398600180633,2.3555311355311352,1.0758241758241758,0.8646886446886447
0.44262048399832565,0.14908424908424908,0.1676190476190476,0.3706959706959707
0.44288205199700315,0.14908424908424908,0.1676190476190476,0.3706959706959707
0.4490326119994279,0.14908424908424908,0.1676190476190476,0.3706959706959707
0.4532398480005213,3.3,0.12329670329670328,1.1652747252747253
0.45500300099956803,3.3,0.12329670329670328,1.1652747252747253
0.4584841550022247,3.3,0.12329670329670328,1.1652747252747253
0.45867561399791157,3.3,0.12329670329670328,1.1652747252747253
0.46384877499804134,0.0,0.048351648351648346,0.3167032967032967
0.46763739900052315,0.0,0.048351648351648346,0.3167032967032967
0.4720890969983884,2.025128205128205,0.713992673992674,0.4698168498168498
0.47299836699676234,2.0895970695970694,0.2111355311355311,0.23934065934065935
0.4739235379965976,2.0895970695970694,0.2111355311355311,0.23934065934065935
0.4756279639987042,2.0895970695970694,0.2111355311355311,0.23934065934065935
0.4790543039998738,2.0895970695970694,0.2111355311355311,0.23934065934065935
0.47923998400074197,2.0895970695970694,0.2111355311355311,0.23934065934065935
0.48623447400314035,2.0895970695970694,0.2111355311355311,0.23934065934065935
0.49040625800262205,2.0895970695970694,0.2111355311355311,0.23934065934065935
0.49218090799695347,1.7527472527472527,0.7172161172161172,0.5721611721611721
0.496212206002383,1.7527472527472527,0.7172161172161172,0.5721611721611721
0.5014049020028324,1.7527472527472527,0.7172161172161172,0.5721611721611721
0.5032326180007658,1.7527472527472527,0.7172161172161172,0.5721611721611721
0.5057582360022934,1.7527472527472527,0.7172161172161172,0.5721611721611721
0.5106373809976503,1.7527472527472527,0.7172161172161172,0.5721611721611721
0.5175105169982999,3.046959706959707,0.4383882783882784,0.14505494505494507
0.5216370350026409,3.046959706959707,0.4383882783882784,0.14505494505494507
0.5241725059968303,3.046959706959707,0.4383882783882784,0.14505494505494507
0.5243691450014012,3.046959706959707,0.4383882783882784,0.14505494505494507
0.5293630259984639,3.046959706959707,0.4383882783882784,0.14505494505494507
0.5351615399995353,2.1798534798534797,1.1298168498168497,0.8977289377289376
0.5411867380025797,2.1798534798534797,1.1298168498168497,0.8977289377289376
0.5452259969970328,2.1798534798534797,1.1298168498168497,0.8977289377289376
0.5507452899983036,2.1798534798534797,1.1298168498168497,0.8977289377289376
0.5508752379973885,2.1798534798534797,1.1298168498168497,0.8977289377289376
0.5561828409990994,2.1798534798534797,1.1298168498168497,0.8977289377289376
0.55876181700296,2.1798534798534797,1.1298168498168497,0.8977289377289376
0.5649372409970965,0.0,0.0419047619047619,0.40937728937728934
0.5690204209968215,0.0,0.0419047619047619,0.40937728937728934
0.571522564998304,0.0,0.0419047619047619,0.40937728937728934
0.5716509560006671,2.5086446886446883,0.40776556776556777,0.7478388278388278
0.5766332369967131,2.5086446886446883,0.40776556776556777,0.7478388278388278
0.5849609099968802,2.5086446886446883,0.40776556776556777,0.7478388278388278
0.5919793080029194,0.0,0.047545787545787546,0.29010989010989013
0.5975923599980888,0.0,0.047545787545787546,0.29010989010989013
0.6046541079995222,0.0,0.047545787545787546,0.29010989010989013
0.6094825839973055,0.0,0.047545787545787546,0.29010989010989013
0.6185267039982136,0.0,0.047545787545787546,0.29010989010989013
0.6228869429978658,0.0,0.047545787545787546,0.29010989010989013
0.6238740269982372,0.0,0.047545787545787546,0.29010989010989013
0.624861857999349,2.6996336996336994,0.13377289377289378,0.20146520146520144
0.6258558740009903,2.6996336996336994,0.13377289377289378,0.20146520146520144
0.6282529559975956,2.6996336996336994,0.13377289377289378,0.20146520146520144
0.6347220919997199,2.6996336996336994,0.13377289377289378,0.20146520146520144
0.6387503520018072,2.6996336996336994,0.13377289377289378,0.20146520146520144
0.6436927579998155,0.09186813186813186,0.0273992673992674,0.3706959706959707
0.6500218290020712,0.09186813186813186,0.0273992673992674,0.3706959706959707
0.6533677620027447,1.6544322344322344,0.7115750915750916,1.36996336996337
0.6536602359992685,2.5021978021978017,0.2071062271062271,0.3884249084249084
0.6584467549982946,2.049304029304029,0.10395604395604395,0.1643956043956044
0.6585849490002147,0.1095970695970696,0.112014652014652,0.39890109890109887
0.6649870830005966,0.1095970695970696,0.112014652014652,0.39890109890109887
0.6689670159976231,0.1095970695970696,0.112014652014652,0.39890109890109887
0.6721870920009678,0.1095970695970696,0.112014652014652,0.39890109890109887
0.6730697050006711,0.1095970695970696,0.112014652014652,0.39890109890109887
0.6747570779989474,0.1095970695970696,0.112014652014652,0.39890109890109887
0.678113971996936,0.1095970695970696,0.112014652014652,0.39890109890109887
0.6798991660034517,0.1095970695970696,0.112014652014652,0.39890109890109887
0.6840340440030559,0.1095970695970696,0.112014652014652,0.39890109890109887
0.6849743600032525,0.1095970695970696,0.112014652014652,0.39890109890109887
0.685963725001784,0.1095970695970696,0.112014652014652,0.39890109890109887
0.6869185699979425,0.1095970695970696,0.112014652014652,0.39890109890109887
0.6878640020004241,0.1095970695970696,0.112014652014652,0.39890109890109887
0.6888694040026166,1.9010256410256408,0.6382417582417582,1.3361172161172161
0.6898393980009132,1.9010256410256408,0.6382417582417582,1.3361172161172161
0.6908115670012194,1.9010256410256408,0.6382417582417582,1.3361172161172161
0.6917074489974766,1.9010256410256408,0.6382417582417582,1.3361172161172161
0.6934542620001594,1.9010256410256408,0.6382417582417582,1.3361172161172161
0.6975585839973064,2.6746520146520147,0.29413919413919415,0.6656410256410257
0.700009180996858,0.9331868131868131,0.3578021978021978,0.41018315018315016
0.7057968660010374,0.9331868131868131,0.3578021978021978,0.41018315018315016
0.7060117189976154,0.9331868131868131,0.3578021978021978,0.41018315018315016
0.7110870019969298,0.9331868131868131,0.3578021978021978,0.41018315018315016
0.7171392460004427,0.9331868131868131,0.3578021978021978,0.41018315018315016
0.7204986889992142,0.9331868131868131,0.3578021978021978,0.41018315018315016
0.7207981030005612,0.9331868131868131,0.3578021978021978,0.41018315018315016
0.7257549450005172,0.9331868131868131,0.3578021978021978,0.41018315018315016
0.7343224249998457,0.9331868131868131,0.3578021978021978,0.41018315018315016
0.7413056069999584,1.9687179487179485,0.2635164835164835,0.8767765567765567
0.7481129439984215,1.9687179487179485,0.2635164835164835,0.8767765567765567
0.7522340520008584,1.9687179487179485,0.2635164835164835,0.8767765567765567
0.7547401280025952,1.9687179487179485,0.2635164835164835,0.8767765567765567
0.7603101459972095,1.9687179487179485,0.2635164835164835,0.8767765567765567
0.761201130997506,1.9687179487179485,0.2635164835164835,0.8767765567765567
0.7638005639964831,1.9687179487179485,0.2635164835164835,0.8767765567765567
0.7693281559986644,1.9687179487179485,0.2635164835164835,0.8767765567765567
0.7695966250030324,0.855018315018315,0.7172161172161172,1.4497435897435897
0.7745083720001276,2.6198534798534796,0.5044688644688645,1.7761172161172158
0.7805270570024732,2.6198534798534796,0.5044688644688645,1.7761172161172158
0.7903601970028831,2.6198534798534796,0.5044688644688645,1.7761172161172158
0.7998519809989375,2.541684981684982,0.1087912087912088,0.5367032967032966
0.8068084149999777,1.9026373626373623,0.21677655677655677,0.9484981684981684
0.8109650650003459,3.3,0.6728937728937728,2.025128205128205
0.8157869209971977,3.3,0.6728937728937728,2.025128205128205
0.819095027000003,3.3,0.6728937728937728,2.025128205128205
0.8194209709981806,3.3,0.6728937728937728,2.025128205128205
0.8242283250001492,3.3,0.6728937728937728,2.025128205128205
0.8300274729990633,3.3,0.6728937728937728,2.025128205128205
0.8302997229984612,3.3,0.6728937728937728,2.025128205128205
0.8347420759964734,3.3,0.6728937728937728,2.025128205128205
0.8350482989990269,3.3,0.6728937728937728,2.025128205128205
0.8399509110022336,3.3,0.6728937728937728,2.025128205128205
0.8463374850034597,0.09509157509157509,0.15875457875457877,0.5407326007326007
0.8509978349975427,0.09509157509157509,0.15875457875457877,0.5407326007326007
0.8567079600034049,0.09509157509157509,0.15875457875457877,0.5407326007326007
0.8568130619969452,0.09509157509157509,0.15875457875457877,0.5407326007326007
0.8632629440035089,0.09509157509157509,0.15875457875457877,0.5407326007326007
0.8677800450022914,3.3,0.6865934065934066,1.7479120879120877
0.8679252279980574,3.3,0.6865934065934066,1.7479120879120877
0.8738786009998876,3.3,0.6865934065934066,1.7479120879120877
0.8793485810019774,3.3,0.6865934065934066,1.7479120879120877
0.8822830970020732,3.3,0.6865934065934066,1.7479120879120877
0.885534588000155,0.726080586080586,0.17406593406593407,0.8252014652014652
0.8857636340035242,0.726080586080586,0.17406593406593407,0.8252014652014652
0.8905540060004569,0.726080586080586,0.17406593406593407,0.8252014652014652
0.8907166450007935,1.9864468864468863,0.7252747252747253,1.4755311355311356
0.895775021002919,1.9864468864468863,0.7252747252747253,1.4755311355311356
0.9018159530023695,1.9864468864468863,0.7252747252747253,1.4755311355311356
0.9051290420029545,0.2063003663003663,0.13135531135531134,0.6583882783882784
0.9060546019973117,0.2063003663003663,0.13135531135531134,0.6583882783882784
0.9076645349996397,0.2063003663003663,0.13135531135531134,0.6583882783882784
0.9116644879977684,0.2063003663003663,0.13135531135531134,0.6583882783882784
0.9191507310024463,0.2063003663003663,0.13135531135531134,0.6583882783882784
0.9249532679968979,0.2063003663003663,0.13135531135531134,0.6583882783882784
0.9305118650008808,0.2063003663003663,0.13135531135531134,0.6583882783882784
0.9307062790030614,0.2063003663003663,0.13135531135531134,0.6583882783882784
0.9367690549988765,0.2063003663003663,0.13135531135531134,0.6583882783882784
0.9427925679992768,0.2063003663003663,0.13135531135531134,0.6583882783882784
0.9470924880006351,0.2063003663003663,0.13135531135531134,0.6583882783882784
0.9497724829998333,0.8106959706959707,0.7873260073260073,1.2297435897435898
0.9539510749964393,0.8106959706959707,0.7873260073260073,1.2297435897435898
0.956474906000949,2.6585347985347987,0.28769230769230764,0.6189010989010989
0.9622974079975393,2.6585347985347987,0.28769230769230764,0.6189010989010989
0.9624901569986832,2.6585347985347987,0.28769230769230764,0.6189010989010989
0.9696452179996413,2.6585347985347987,0.28769230769230764,0.6189010989010989
0.9736423840004136,2.0863736263736263,0.5495970695970696,0.4593406593406593
0.9780854010023177,2.0863736263736263,0.5495970695970696,0.4593406593406593
0.9795359639974777,0.2248351648351648,0.13538461538461538,0.4351648351648352
0.988640479001333,0.2248351648351648,0.13538461538461538,0.4351648351648352
0.9952544309999212,2.2040293040293037,0.27802197802197803,0.30622710622710625
1.0017725080033415,2.2040293040293037,0.27802197802197803,0.30622710622710625
1.0072454800028936,2.2040293040293037,0.27802197802197803,0.30622710622710625
1.0075510180031415,2.2040293040293037,0.27802197802197803,0.30622710622710625
1.0172128080012044,2.2040293040293037,0.27802197802197803,0.30622710622710625
1.0221928269966156,1.8236630036630037,0.10153846153846154,0.09025641025641025
1.0261905509978533,1.8236630036630037,0.10153846153846154,0.09025641025641025
1.0314253480028128,1.8236630036630037,0.10153846153846154,0.09025641025641025
1.033626673000981,1.8236630036630037,0.10153846153846154,0.09025641025641025
1.0338539430013043,1.8236630036630037,0.10153846153846154,0.09025641025641025
1.0388757350010565,1.8236630036630037,0.10153846153846154,0.09025641025641025
1.0437057450035354,0.10798534798534798,0.0,0.46820512820512816
1.0507174480007961,0.10798534798534798,0.0,0.46820512820512816
1.0547618659984437,2.9341391941391937,0.7131868131868132,0.8332600732600732
1.0580107439964195,2.9341391941391937,0.7131868131868132,0.8332600732600732
1.0590017810027348,2.9341391941391937,0.7131868131868132,0.8332600732600732
1.0599645100010093,2.9341391941391937,0.7131868131868132,0.8332600732600732
1.060874649003381,2.9341391941391937,0.7131868131868132,0.8332600732600732
1.061840021997341,2.9341391941391937,0.7131868131868132,0.8332600732600732
1.0650227130026906,3.3,0.8880586080586079,0.2957509157509157
1.0652874899969902,3.3,0.46498168498168496,0.33282051282051284
1.0704409949976252,3.3,0.46498168498168496,0.33282051282051284
1.0735812519997125,3.3,0.46498168498168496,0.33282051282051284
1.0759689030019217,3.3,0.46498168498168496,0.33282051282051284
1.076176073998795,1.046007326007326,0.34087912087912087,0.6720879120879121
1.0819605650031008,1.046007326007326,0.34087912087912087,0.6720879120879121
1.0873783220013138,0.13941391941391942,0.06608058608058608,0.3416849816849817
1.0908076780033298,0.13941391941391942,0.06608058608058608,0.3416849816849817
1.0910201130027417,0.13941391941391942,0.06608058608058608,0.3416849816849817
1.0966526080010226,0.13941391941391942,0.06608058608058608,0.3416849816849817
1.0968522929979372,1.0073260073260073,0.5826373626373627,0.8574358974358974
1.1018984979964443,1.0073260073260073,0.5826373626373627,0.8574358974358974
1.1066794790021959,1.0073260073260073,0.5826373626373627,0.8574358974358974
1.1116404920030618,2.1508424908424906,0.6728937728937728,0.7921611721611721
1.115918852003233,2.0557509157509157,0.2925274725274725,0.28205128205128205
1.1174089380001533,2.0557509157509157,0.2925274725274725,0.28205128205128205
1.122372534002352,2.0557509157509157,0.2925274725274725,0.28205128205128205
1.127277724997839,3.3,0.6092307692307692,0.4174358974358974
1.1329121989983832,3.3,0.6092307692307692,0.4174358974358974
1.1339041250030277,3.3,0.6092307692307692,0.4174358974358974
1.134191582998028,3.3,0.6092307692307692,0.4174358974358974
1.1395655169981183,3.3,0.6092307692307692,0.4174358974358974
1.1420137419991079,3.3,0.6092307692307692,0.4174358974358974
1.1475506100032362,1.9171428571428573,0.6954578754578754,0.42710622710622714
1.1492692839965457,1.9171428571428573,0.6954578754578754,0.42710622710622714
1.1531379189982545,1.9171428571428573,0.6954578754578754,0.42710622710622714
1.1577394729974912,1.9171428571428573,0.6954578754578754,0.42710622710622714
1.1579186980015947,1.9171428571428573,0.6954578754578754,0.42710622710622714
1.1662358359972131,1.9171428571428573,0.6954578754578754,0.42710622710622714
1.1706547889989452,1.9171428571428573,0.6954578754578754,0.42710622710622714
1.172047553001903,1.9171428571428573,0.6954578754578754,0.42710622710622714
1.176785570998618,1.9171428571428573,0.6954578754578754,0.42710622710622714
1.1769254989994806,1.9171428571428573,0.6954578754578754,0.42710622710622714
1.184622433000186,1.9171428571428573,0.6954578754578754,0.42710622710622714
1.1886110289997305,1.9171428571428573,0.6954578754578754,0.42710622710622714
1.1924744060015655,1.9171428571428573,0.6954578754578754,0.42710622710622714
1.1990200110012665,1.9171428571428573,0.6954578754578754,0.42710622710622714
1.202861097001005,1.9171428571428573,0.6954578754578754,0.42710622710622714
1.2060738849977497,3.3,0.26109890109890105,0.3263736263736263
1.2077525470012915,2.1959706959706957,0.6261538461538461,0.6084249084249085
1.211614482999721,2.1959706959706957,0.6261538461538461,0.6084249084249085
1.2164348090009298,2.1105494505494504,0.3416849816849817,0.21032967032967032
1.2165375469994615,2.6198534798534796,0.2925274725274725,0.09347985347985348
1.2218399409975973,0.0,0.08703296703296703,0.43999999999999995
1.2242755469997064,0.0,0.09347985347985348,0.35135531135531134
1.2244150710030226,0.0,0.09347985347985348,0.35135531135531134
1.2300722259969916,0.0,0.09347985347985348,0.35135531135531134
1.230315533997782,0.0,0.09347985347985348,0.35135531135531134
1.2356735599969397,0.0,0.09347985347985348,0.35135531135531134
1.2372701459971722,0.0,0.09347985347985348,0.35135531135531134
1.2410763849984505,0.0,0.09347985347985348,0.35135531135531134
1.2456351540022297,0.0,0.09347985347985348,0.35135531135531134
1.245829783998488,0.0,0.09347985347985348,0.35135531135531134
1.251195958997414,0.0,0.09347985347985348,0.35135531135531134
1.2534055369978887,0.0,0.09347985347985348,0.35135531135531134
1.2542207579972455,2.5360439560439563,0.26109890109890105,0.13941391941391942
1.2564209280026262,2.5360439560439563,0.26109890109890105,0.13941391941391942
1.2572149359984905,0.8372893772893772,0.6342124542124542,0.5729670329670329
1.2594283240032382,0.8372893772893772,0.6342124542124542,0.5729670329670329
1.2602439089969266,0.0,0.06043956043956044,0.42065934065934063
1.2617722360009793,0.0,0.06043956043956044,0.42065934065934063
1.2660699940024642,0.0,0.06043956043956044,0.42065934065934063
1.267570133000845,0.0,0.06043956043956044,0.42065934065934063
1.2718228879966773,0.0,0.06043956043956044,0.42065934065934063
1.2746908150002128,1.892161172161172,0.31267399267399265,0.46175824175824176
1.2777644579982734,1.892161172161172,0.31267399267399265,0.46175824175824176
1.2793616720009595,1.892161172161172,0.31267399267399265,0.46175824175824176
1.2836024069983978,0.2248351648351648,0.033846153846153845,0.32395604395604394
1.2858843459980562,0.2248351648351648,0.033846153846153845,0.32395604395604394
1.2861355880013434,0.2248351648351648,0.033846153846153845,0.32395604395604394
1.291078351001488,0.726080586080586,0.7784615384615384,1.1378754578754577
1.2953756770002656,0.726080586080586,0.7784615384615384,1.1378754578754577
1.2982177189987851,0.726080586080586,0.7784615384615384,1.1378754578754577
1.3017751459992724,0.726080586080586,0.7784615384615384,1.1378754578754577
1.3019605500012403,0.726080586080586,0.7784615384615384,1.1378754578754577
1.3068149590035318,0.726080586080586,0.7784615384615384,1.1378754578754577
1.3069094879974728,0.726080586080586,0.7784615384615384,1.1378754578754577
1.311907016002806,0.726080586080586,0.7784615384615384,1.1378754578754577
1.316908164000779,2.1008791208791204,0.3295970695970696,0.6591941391941392
1.3210135030021775,2.1008791208791204,0.3295970695970696,0.6591941391941392
1.3234509090034408,2.714945054945055,0.8405128205128204,1.046007326007326
1.3291323439989355,2.714945054945055,0.8405128205128204,1.046007326007326
1.3293987729994114,2.714945054945055,0.8405128205128204,1.046007326007326
1.3340296929964097,2.714945054945055,0.8405128205128204,1.046007326007326
1.3342689619967132,2.714945054945055,0.8405128205128204,1.046007326007326
1.3388900380014093,2.714945054945055,0.8405128205128204,1.046007326007326
1.3391469959969982,2.714945054945055,0.8405128205128204,1.046007326007326
1.3437613179994514,2.714945054945055,0.8405128205128204,1.046007326007326
1.3440445969972643,2.714945054945055,0.8405128205128204,1.046007326007326
1.3486427379975794,2.714945054945055,0.8405128205128204,1.046007326007326
1.3489068409980973,2.714945054945055,0.8405128205128204,1.046007326007326
1.353990925999824,2.714945054945055,0.8405128205128204,1.046007326007326
1.3580601130015566,2.714945054945055,0.8405128205128204,1.046007326007326
1.36128038699826,2.714945054945055,0.8405128205128204,1.046007326007326
1.3621517889987445,0.06366300366300366,0.05399267399267399,0.518974358974359
1.3638354409995372,0.06366300366300366,0.05399267399267399,0.518974358974359
1.367691086998093,0.06366300366300366,0.05399267399267399,0.518974358974359
1.3718065509965527,0.06366300366300366,0.05399267399267399,0.518974358974359
1.3742602529964643,0.06366300366300366,0.05399267399267399,0.518974358974359
1.3743650559990783,0.06366300366300366,0.05399267399267399,0.518974358974359
1.3797893630035105,0.06366300366300366,0.05399267399267399,0.518974358974359
1.380770379997557,0.06366300366300366,0.05399267399267399,0.518974358974359
1.3824028160015587,0.06366300366300366,0.05399267399267399,0.518974358974359
1.3859093130013207,0.06366300366300366,0.05399267399267399,0.518974358974359
1.386009579000529,0.06366300366300366,0.05399267399267399,0.518974358974359
1.3910087199983536,0.06366300366300366,0.05399267399267399,0.518974358974359
1.3952200659987284,0.06366300366300366,0.05399267399267399,0.518974358974359
1.3973743739989004,0.06366300366300366,0.05399267399267399,0.518974358974359
1.3982013670029119,1.2305494505494505,1.041978021978022,0.6704761904761904
1.3997441589963273,1.2305494505494505,1.041978021978022,0.6704761904761904
1.4039210039991303,1.2305494505494505,1.041978021978022,0.6704761904761904
1.4068004040018423,3.3,0.2482051282051282,0.37150183150183147
1.4097598099979223,3.3,0.2482051282051282,0.37150183150183147
1.4132925550002255,3.3,0.2482051282051282,0.37150183150183147
1.4140641720005078,3.3,0.2482051282051282,0.37150183150183147
1.4161782820010558,3.3,0.2482051282051282,0.37150183150183147
1.4169989590009209,3.3,0.2482051282051282,0.37150183150183147
1.4185063159966376,3.3,0.2482051282051282,0.37150183150183147
1.4235277609986952,3.3,0.2482051282051282,0.37150183150183147
1.4284362559992587,3.3,0.7002930402930403,0.9259340659340659
1.4335859850034467,3.3,0.7002930402930403,0.9259340659340659
1.4371128830025555,3.3,0.7002930402930403,0.9259340659340659
1.4373313210016931,3.3,0.7002930402930403,0.9259340659340659
1.4423686390000512,3.3,0.7002930402930403,0.9259340659340659
1.4465444020024734,3.3,0.7002930402930403,0.9259340659340659
1.4488621369964676,3.3,0.7002930402930403,0.9259340659340659
1.4490910489985254,3.3,0.7002930402930403,0.9259340659340659
1.4538186979989405,3.3,0.7002930402930403,0.9259340659340659
1.4540371740004048,3.3,0.7002930402930403,0.9259340659340659
1.4586385200018412,3.3,0.7002930402930403,0.9259340659340659
1.4594898669965914,3.3,0.7002930402930403,0.9259340659340659
1.4610551869991468,3.3,0.7002930402930403,0.9259340659340659
1.4649022209996474,3.3,0.6986813186813187,1.0685714285714285
1.4694786149993888,3.3,0.6986813186813187,1.0685714285714285
1.4696718139966833,3.3,0.6986813186813187,1.0685714285714285
1.4741865870018955,3.3,0.6986813186813187,1.0685714285714285
1.475637748997542,2.4038827838827834,0.2345054945054945,0.15472527472527473
1.4802470249996986,2.4038827838827834,0.2345054945054945,0.15472527472527473
1.480377640997176,2.4038827838827834,0.2345054945054945,0.15472527472527473
1.48537899999792,2.996996336996337,0.8904761904761904,1.0532600732600732
1.490272670002014,2.2684981684981684,0.30139194139194136,0.34087912087912087
1.4954278029981651,2.2684981684981684,0.30139194139194136,0.34087912087912087
1.499574929002847,2.2684981684981684,0.30139194139194136,0.34087912087912087
1.50289397600136,0.747032967032967,0.20146520146520144,0.4931868131868131
1.5037912469997536,0.747032967032967,0.20146520146520144,0.4931868131868131
1.504678416000388,0.747032967032967,0.20146520146520144,0.4931868131868131
1.506456604001869,0.747032967032967,0.20146520146520144,0.4931868131868131
1.508796797003015,0.747032967032967,0.20146520146520144,0.4931868131868131
1.509084145000088,0.747032967032967,0.20146520146520144,0.4931868131868131
1.5144876499980455,2.3039560439560436,0.46095238095238095,0.5745787545787545
1.5162771370014525,2.3039560439560436,0.46095238095238095,0.5745787545787545
1.519435271002294,2.3039560439560436,0.46095238095238095,0.5745787545787545
1.5210658840005635,0.0,0.026593406593406595,0.5536263736263736
1.5249797979995492,0.0,0.026593406593406595,0.5536263736263736
1.5280887629996869,0.0,0.026593406593406595,0.5536263736263736
1.5306123519985704,0.2369230769230769,0.6704761904761904,0.8880586080586079
1.5361747499991907,0.2369230769230769,0.6704761904761904,0.8880586080586079
1.5370340549998218,0.2369230769230769,0.6704761904761904,0.8880586080586079
1.538658621997456,0.2369230769230769,0.6704761904761904,0.8880586080586079
1.5424784569986514,0.2369230769230769,0.6704761904761904,0.8880586080586079
1.547850308001216,0.2369230769230769,0.6704761904761904,0.8880586080586079
1.5502438240000629,1.7865934065934064,0.7808791208791208,1.1338461538461537
1.5505349259983632,1.7865934065934064,0.7808791208791208,1.1338461538461537
1.5556590449996293,1.7865934065934064,0.7808791208791208,1.1338461538461537
1.5587863929977175,1.7865934065934064,0.7808791208791208,1.1338461538461537
1.5612970729998779,1.7865934065934064,0.7808791208791208,1.1338461538461537
1.5668423500028439,1.7865934065934064,0.7808791208791208,1.1338461538461537
1.5676828650030075,1.7865934065934064,0.7808791208791208,1.1338461538461537
1.5692945799964946,1.7865934065934064,0.7808791208791208,1.1338461538461537
1.5739470019980217,2.1758241758241756,0.49882783882783877,0.5084981684981685
1.5740899660013383,2.1758241758241756,0.49882783882783877,0.5084981684981685
1.579764066998905,2.1758241758241756,0.49882783882783877,0.5084981684981685
1.5800768050030456,2.1758241758241756,0.49882783882783877,0.5084981684981685
1.5850842509971699,2.1758241758241756,0.49882783882783877,0.5084981684981685
1.5894334670010721,2.1758241758241756,0.49882783882783877,0.5084981684981685
1.5904345599992666,2.332967032967033,0.5568498168498168,0.40776556776556777
1.591337885998655,2.332967032967033,0.5568498168498168,0.40776556776556777
1.5930787210018025,2.332967032967033,0.5568498168498168,0.40776556776556777
1.5963617870002054,2.332967032967033,0.5568498168498168,0.40776556776556777
1.5966590289972373,2.332967032967033,0.5568498168498168,0.40776556776556777
1.6022552700014785,2.332967032967033,0.5568498168498168,0.40776556776556777
1.6033068120013922,2.332967032967033,0.5568498168498168,0.40776556776556777
1.6041790009985561,2.332967032967033,0.5568498168498168,0.40776556776556777
1.6058634169967263,2.5763369963369964,0.17406593406593407,0.7164102564102564
1.6099760709985276,2.5763369963369964,0.17406593406593407,0.7164102564102564
1.6125166729980265,2.5763369963369964,0.17406593406593407,0.7164102564102564
1.6183246450018487,2.5763369963369964,0.17406593406593407,0.7164102564102564
1.6185389309976017,2.5763369963369964,0.17406593406593407,0.7164102564102564
1.6239545729986276,2.5763369963369964,0.17406593406593407,0.7164102564102564
1.6256840709975222,2.5763369963369964,0.17406593406593407,0.7164102564102564
1.6287859169970034,2.5763369963369964,0.17406593406593407,0.7164102564102564
1.6310786350004491,2.324908424908425,0.5987545787545787,0.2506227106227106
1.6312747769989073,2.324908424908425,0.5987545787545787,0.2506227106227106
1.6363006469982793,2.324908424908425,0.5987545787545787,0.2506227106227106
1.6405389119972824,2.324908424908425,0.5987545787545787,0.2506227106227106
1.6427383909976925,2.324908424908425,0.5987545787545787,0.2506227106227106
1.6436199829986435,2.324908424908425,0.5987545787545787,0.2506227106227106
1.6451337239996064,2.324908424908425,0.5987545787545787,0.2506227106227106
1.6503210969967768,2.324908424908425,0.5987545787545787,0.2506227106227106
1.6537469649993,2.324908424908425,0.5987545787545787,0.2506227106227106
1.653914893999172,2.324908424908425,0.5987545787545787,0.2506227106227106
1.6593464429970481,2.324908424908425,0.5987545787545787,0.2506227106227106
1.6616683500033105,2.324908424908425,0.5987545787545787,0.2506227106227106
1.6618113860022277,2.324908424908425,0.5987545787545787,0.2506227106227106
1.6672648309977376,2.324908424908425,0.5987545787545787,0.2506227106227106
1.6689166299984208,3.3,0.5552380952380952,0.7019047619047618
1.672751004996826,3.3,0.5552380952380952,0.7019047619047618
1.6765514840008109,3.3,0.5552380952380952,0.7019047619047618
1.6812139329995262,3.3,0.5552380952380952,0.7019047619047618
1.6814999150010408,0.27641025641025635,0.0693040293040293,0.29413919413919415
1.6869811009964906,0.27641025641025635,0.0693040293040293,0.29413919413919415
1.6885934050005744,0.27641025641025635,0.0693040293040293,0.29413919413919415
1.692435156997817,2.116996336996337,0.7816849816849816,0.469010989010989
1.6970376079989364,2.242710622710623,0.39487179487179486,0.11362637362637362
1.6979136689988081,0.1692307692307692,0.15311355311355312,0.49479853479853475
1.699549292003212,0.1692307692307692,0.15311355311355312,0.49479853479853475
1.703415786003461,0.1692307692307692,0.15311355311355312,0.49479853479853475
1.7092827160013258,0.1692307692307692,0.15311355311355312,0.49479853479853475
1.7093901760017616,0.9452747252747251,0.7647619047619048,0.78007326007326
1.7149616660026368,0.9452747252747251,0.7647619047619048,0.78007326007326
1.715909801001544,0.9452747252747251,0.7647619047619048,0.78007326007326
1.7169374150034855,1.6753846153846153,1.3377289377289376,0.7873260073260073
1.7178109789965674,0.17567765567765567,0.14908424908424908,0.5173626373626373
1.7196743029999197,0.17567765567765567,0.14908424908424908,0.5173626373626373
1.7220713760034414,0.12168498168498168,0.04029304029304029,0.3376556776556776
1.7223011199967004,2.1234432234432234,0.689010989010989,0.34007326007326005
1.7279649269985384,2.1234432234432234,0.689010989010989,0.34007326007326005
1.728937303996645,2.1234432234432234,0.689010989010989,0.34007326007326005
1.7299895550022484,2.1234432234432234,0.689010989010989,0.34007326007326005
1.7309188029976212,2.1234432234432234,0.689010989010989,0.34007326007326005
1.7318240919994423,2.1234432234432234,0.689010989010989,0.34007326007326005
1.732970800003386,2.1234432234432234,0.689010989010989,0.34007326007326005
1.7338492959970608,2.1234432234432234,0.689010989010989,0.34007326007326005
1.7348202310022316,2.1234432234432234,0.689010989010989,0.34007326007326005
1.7365323109988822,2.1234432234432234,0.689010989010989,0.34007326007326005
1.7396287879964802,2.1234432234432234,0.689010989010989,0.34007326007326005
1.741985034001118,2.1234432234432234,0.689010989010989,0.34007326007326005
1.7421484549995512,2.1234432234432234,0.689010989010989,0.34007326007326005
1.7478613290004432,2.1234432234432234,0.689010989010989,0.34007326007326005
1.748083307997149,2.1234432234432234,0.689010989010989,0.34007326007326005
1.7535313710031915,2.1234432234432234,0.689010989010989,0.34007326007326005
1.7551438169975881,2.1234432234432234,0.689010989010989,0.34007326007326005
1.759039518001373,2.1234432234432234,0.689010989010989,0.34007326007326005
1.7637455579970265,2.1234432234432234,0.689010989010989,0.34007326007326005
1.7638952799970866,2.1234432234432234,0.689010989010989,0.34007326007326005
1.769490256003337,2.1234432234432234,0.689010989010989,0.34007326007326005
1.770340829003544,0.38036630036630037,0.6213186813186813,0.7615384615384615
1.7720206189987948,0.38036630036630037,0.6213186813186813,0.7615384615384615
1.77528909999819,0.38036630036630037,0.6213186813186813,0.7615384615384615
1.7761382489989046,0.38036630036630037,0.6213186813186813,0.7615384615384615
1.7780686550031533,0.38036630036630037,0.6213186813186813,0.7615384615384615
1.779682437001611,0.38036630036630037,0.6213186813186813,0.7615384615384615
1.783514777001983,0.38036630036630037,0.6213186813186813,0.7615384615384615
1.7890485899988562,3.111428571428571,0.18534798534798536,0.17164835164835165
1.7907481400034158,1.0734065934065933,0.805054945054945,0.6994871794871794
1.7946026019999408,2.17018315018315,0.46417582417582415,0.5882783882783883
1.7994660929980455,2.17018315018315,0.46417582417582415,0.5882783882783883
1.8045043160018395,2.17018315018315,0.46417582417582415,0.5882783882783883
1.8087790459976532,2.17018315018315,0.46417582417582415,0.5882783882783883
1.811086494999472,2.17018315018315,0.46417582417582415,0.5882783882783883
1.811911416996736,2.17018315018315,0.46417582417582415,0.5882783882783883
1.8141545370017411,2.17018315018315,0.46417582417582415,0.5882783882783883
1.8143822549973265,2.17018315018315,0.46417582417582415,0.5882783882783883
1.8193661230034195,2.17018315018315,0.46417582417582415,0.5882783882783883
1.8236245009975391,2.17018315018315,0.46417582417582415,0.5882783882783883
1.8258534609994967,2.17018315018315,0.46417582417582415,0.5882783882783883
1.8267094679977163,2.17018315018315,0.46417582417582415,0.5882783882783883
1.8282099700008985,2.17018315018315,0.46417582417582415,0.5882783882783883
1.832500484000775,2.17018315018315,0.46417582417582415,0.5882783882783883
1.8340098519984167,2.17018315018315,0.46417582417582415,0.5882783882783883
1.8390724010023405,2.17018315018315,0.46417582417582415,0.5882783882783883
1.8436025549963233,2.17018315018315,0.46417582417582415,0.5882783882783883
1.843808887002524,2.17018315018315,0.46417582417582415,0.5882783882783883
1.849165184998128,2.17018315018315,0.46417582417582415,0.5882783882783883
1.8524054599984083,0.3795604395604395,0.5568498168498168,0.8268131868131867
1.8527115940014482,0.3795604395604395,0.5568498168498168,0.8268131868131867
1.8583410479986924,0.3795604395604395,0.5568498168498168,0.8268131868131867
1.859275663002336,0.3795604395604395,0.5568498168498168,0.8268131868131867
1.8603070590033894,0.3795604395604395,0.5568498168498168,0.8268131868131867
1.8611754559969995,0.3795604395604395,0.5568498168498168,0.8268131868131867
1.8628967789991293,0.3795604395604395,0.5568498168498168,0.8268131868131867
1.8669317919993773,0.3795604395604395,0.5568498168498168,0.8268131868131867
1.870913118000317,0.3795604395604395,0.5568498168498168,0.8268131868131867
1.874889610997343,0.3795604395604395,0.5568498168498168,0.8268131868131867
1.8789031440028339,0.3795604395604395,0.5568498168498168,0.8268131868131867
1.882904118996521,0.3795604395604395,0.5568498168498168,0.8268131868131867
1.8869401190022472,0.3795604395604395,0.5568498168498168,0.8268131868131867
1.8902828869977384,0.3795604395604395,0.5568498168498168,0.8268131868131867
1.8911794259984163,0.3795604395604395,0.5568498168498168,0.8268131868131867
1.8929002090007998,0.3795604395604395,0.5568498168498168,0.8268131868131867
1.8969350530023803,0.3795604395604395,0.5568498168498168,0.8268131868131867
1.8993806189973839,0.3795604395604395,0.5568498168498168,0.8268131868131867
1.8996164979980676,0.3795604395604395,0.5568498168498168,0.8268131868131867
1.9042381670005852,0.3795604395604395,0.5568498168498168,0.8268131868131867
1.9045365519996267,0.3795604395604395,0.5568498168498168,0.8268131868131867
1.9100755890030996,2.5513553113553114,1.203150183150183,0.7712087912087912
1.9116580010013422,2.5513553113553114,1.203150183150183,0.7712087912087912
1.9152484049991472,2.22981684981685,0.3658608058608058,1.095164835164835
1.9154329919983866,2.22981684981685,0.3658608058608058,1.095164835164835
1.920456316001946,2.22981684981685,0.3658608058608058,1.095164835164835
1.9253402399990591,2.22981684981685,0.3658608058608058,1.095164835164835
1.9308339560011518,2.22981684981685,0.3658608058608058,1.095164835164835
1.9318552920012735,2.22981684981685,0.3658608058608058,1.095164835164835
1.9329160540000885,2.22981684981685,0.3658608058608058,1.095164835164835
1.933793042000616,2.22981684981685,0.3658608058608058,1.095164835164835
1.9347791280015372,2.22981684981685,0.3658608058608058,1.095164835164835
1.935694202002196,2.22981684981685,0.3658608058608058,1.095164835164835
1.937298645003466,2.22981684981685,0.3658608058608058,1.095164835164835
1.9411478269976215,2.22981684981685,0.3658608058608058,1.095164835164835
1.945167705998756,2.22981684981685,0.3658608058608058,1.095164835164835
1.9491386340014287,2.22981684981685,0.3658608058608058,1.095164835164835
1.9519687389984028,2.22981684981685,0.3658608058608058,1.095164835164835
1.9562984829972265,1.722930402930403,0.12087912087912088,0.6809523809523809
1.9577939590017195,1.722930402930403,0.12087912087912088,0.6809523809523809
1.9621395939975628,1.722930402930403,0.12087912087912088,0.6809523809523809
1.9644219460024033,1.722930402930403,0.12087912087912088,0.6809523809523809
1.964722910997807,2.8068131868131867,0.06446886446886446,0.6132600732600733
1.9696716030011885,2.8068131868131867,0.06446886446886446,0.6132600732600733
1.9747303839976666,2.8068131868131867,0.06446886446886446,0.6132600732600733
1.9792613679965143,1.6866666666666665,1.2192673992673992,0.6334065934065934
1.9795064400022966,1.6866666666666665,1.2192673992673992,0.6334065934065934
1.984466132002126,1.6866666666666665,1.2192673992673992,0.6334065934065934
1.9894071250018897,3.3,0.7446153846153846,1.863150183150183
1.9936601829977008,3.3,0.7446153846153846,1.863150183150183
1.9966939399964758,2.635164835164835,0.28930402930402926,0.8799999999999999
1.9989402380015235,2.635164835164835,0.28930402930402926,0.8799999999999999
1.9997588920014095,0.0,0.03545787545787545,0.5681318681318681
2.001285382997594,0.0,0.03545787545787545,0.5681318681318681
2.0055733319968567,3.3,0.7986080586080586,1.5448351648351648
2.0077658419977524,3.3,0.7986080586080586,1.5448351648351648
2.0080812700034585,3.3,0.7986080586080586,1.5448351648351648
2.013614367999253,3.3,0.7986080586080586,1.5448351648351648
2.0146388560024207,3.3,0.7986080586080586,1.5448351648351648
2.0149091359999147,3.3,0.7986080586080586,1.5448351648351648
2.020727283001179,3.3,0.7986080586080586,1.5448351648351648
2.0257169809992774,3.3,0.7986080586080586,1.5448351648351648
2.0307942060026107,3.3,0.7986080586080586,1.5448351648351648
2.0337840520005557,3.3,0.7986080586080586,1.5448351648351648
2.0366821909992723,3.3,0.7986080586080586,1.5448351648351648
2.0396585580019746,3.3,0.7986080586080586,1.5448351648351648
2.0424697139969794,3.3,0.7986080586080586,1.5448351648351648
2.046617261999927,3.3,0.7986080586080586,1.5448351648351648
2.0488404749994515,3.3,0.7986080586080586,1.5448351648351648
2.049716111003363,3.3,0.7986080586080586,1.5448351648351648
2.0512012190010864,3.3,0.7986080586080586,1.5448351648351648
2.0554648300021654,3.3,0.7986080586080586,1.5448351648351648
2.05764834999718,3.3,0.7986080586080586,1.5448351648351648
2.0584317090033437,3.3,0.7986080586080586,1.5448351648351648
2.059993624003255,3.3,0.7986080586080586,1.5448351648351648
2.064251231000526,3.3,0.7986080586080586,1.5448351648351648
2.066529231997265,3.3,0.7986080586080586,1.5448351648351648
2.066810477997933,0.8791941391941391,0.7131868131868132,1.1233699633699634
2.071730932999344,0.8791941391941391,0.7131868131868132,1.1233699633699634
2.076561150002817,0.8791941391941391,0.7131868131868132,1.1233699633699634
2.0767857120008557,1.8534798534798533,0.09267399267399268,0.13699633699633698
2.0826338170008967,0.0,0.10476190476190475,0.5890842490842491
2.082748016997357,0.0,0.10476190476190475,0.5890842490842491
2.0881341499989503,0.0,0.10476190476190475,0.5890842490842491
2.0904493519992684,0.0,0.10476190476190475,0.5890842490842491
2.090558998999768,2.189523809523809,0.3779487179487179,0.4448351648351648
2.09590425100032,2.189523809523809,0.3779487179487179,0.4448351648351648
2.0990623489997233,1.3046886446886445,0.9452747252747251,0.6664468864468864
2.100693410997337,1.3046886446886445,0.9452747252747251,0.6664468864468864
2.1038653389987303,1.3046886446886445,0.9452747252747251,0.6664468864468864
2.105515381997975,2.826153846153846,0.10717948717948718,0.07736263736263736
2.1090359070003615,2.826153846153846,0.10717948717948718,0.07736263736263736
2.109822794998763,2.826153846153846,0.10717948717948718,0.07736263736263736
2.11139576700225,2.826153846153846,0.10717948717948718,0.07736263736263736
2.11564781099878,2.826153846153846,0.10717948717948718,0.07736263736263736
2.1178779780020704,2.826153846153846,0.10717948717948718,0.07736263736263736
2.1193932680034777,2.826153846153846,0.10717948717948718,0.07736263736263736
2.1237437070012675,2.826153846153846,0.10717948717948718,0.07736263736263736
2.1252603250031825,2.826153846153846,0.10717948717948718,0.07736263736263736
2.1253707299983944,2.826153846153846,0.10717948717948718,0.07736263736263736
2.1304085480005597,0.46336996336996333,0.7663736263736264,0.9984615384615383
2.134324099002697,2.1717948717948716,0.66,0.9444688644688644
2.1390720019990113,2.1717948717948716,0.66,0.9444688644688644
2.1437722940027015,2.1717948717948716,0.66,0.9444688644688644
2.1440905120034586,2.1717948717948716,0.66,0.9444688644688644
2.1488586260020384,2.1717948717948716,0.66,0.9444688644688644
2.149041482996836,2.1717948717948716,0.66,0.9444688644688644
2.153878844997962,2.1717948717948716,0.66,0.9444688644688644
2.1595329620031407,2.1717948717948716,0.66,0.9444688644688644
2.1597669379989384,2.1717948717948716,0.66,0.9444688644688644
2.1647419389992137,2.1717948717948716,0.66,0.9444688644688644
2.169045073002053,2.1717948717948716,0.66,0.9444688644688644
2.1719242359977216,2.1717948717948716,0.66,0.9444688644688644
2.175513652000518,2.1717948717948716,0.66,0.9444688644688644
2.175713997996354,2.1717948717948716,0.66,0.9444688644688644
2.1810241150014917,2.1717948717948716,0.66,0.9444688644688644
2.183916877002048,3.3,0.8566300366300367,0.26593406593406593
2.1875311929979944,3.3,0.8566300366300367,0.26593406593406593
2.187733211001614,3.3,0.8566300366300367,0.26593406593406593
2.1926515020022634,3.3,0.8566300366300367,0.26593406593406593
2.1927980160035077,3.3,0.8566300366300367,0.26593406593406593
2.197907000001578,3.3,0.8566300366300367,0.26593406593406593
2.2018600509982207,3.3,0.8566300366300367,0.26593406593406593
2.2049709290004103,3.3,0.8566300366300367,0.26593406593406593
2.20745140100189,3.3,0.8566300366300367,0.26593406593406593
2.21220459700271,1.021025641025641,0.6688644688644688,0.855018315018315
2.212320995000482,1.8978021978021975,0.224029304029304,0.0709157509157509
2.217536686002859,1.8978021978021975,0.224029304029304,0.0709157509157509
2.220502331001626,1.8978021978021975,0.224029304029304,0.0709157509157509
2.2240547580004204,1.8978021978021975,0.224029304029304,0.0709157509157509
2.2243135460012127,1.8978021978021975,0.224029304029304,0.0709157509157509
2.2292278590030037,1.8978021978021975,0.224029304029304,0.0709157509157509
2.2342866480030352,1.8978021978021975,0.224029304029304,0.0709157509157509
2.239259267997113,1.8978021978021975,0.224029304029304,0.0709157509157509
2.2441445579970605,0.0,0.04593406593406593,0.415018315018315
2.2443291939998744,0.0,0.04593406593406593,0.415018315018315
2.2492547489964636,2.2684981684981684,0.3795604395604395,0.850989010989011
2.2534862789980252,2.2684981684981684,0.3795604395604395,0.850989010989011
2.2556956609987537,2.2958974358974356,0.40937728937728934,0.24498168498168496
2.2565128810019814,2.2958974358974356,0.40937728937728934,0.24498168498168496
2.2581750090030255,2.2958974358974356,0.40937728937728934,0.24498168498168496
2.262714390999463,2.2958974358974356,0.40937728937728934,0.24498168498168496
2.263084580998111,2.2958974358974356,0.40937728937728934,0.24498168498168496
2.268482387000404,2.2958974358974356,0.40937728937728934,0.24498168498168496
2.270078868998098,2.2958974358974356,0.40937728937728934,0.24498168498168496
2.274650017003296,2.2958974358974356,0.40937728937728934,0.24498168498168496
2.2748542210028972,1.1104761904761904,0.6043956043956044,1.012967032967033
2.2796418619982433,1.1104761904761904,0.6043956043956044,1.012967032967033
2.2797691649975604,1.1104761904761904,0.6043956043956044,1.012967032967033
2.284330153997871,1.1104761904761904,0.6043956043956044,1.012967032967033
2.2851176490003127,1.1104761904761904,0.6043956043956044,1.012967032967033
2.2873139470029855,1.1104761904761904,0.6043956043956044,1.012967032967033
2.288167746999534,1.1104761904761904,0.6043956043956044,1.012967032967033
2.2903684210032225,1.1104761904761904,0.6043956043956044,1.012967032967033
2.290632217998791,1.1104761904761904,0.6043956043956044,1.012967032967033
2.295613381000294,1.1104761904761904,0.6043956043956044,1.012967032967033
2.2991811070023687,1.0339194139194139,0.7454212454212454,0.7027106227106227
2.2994783929971163,1.0339194139194139,0.7454212454212454,0.7027106227106227
2.3043233350035734,1.0339194139194139,0.7454212454212454,0.7027106227106227
2.3097231529973214,1.0339194139194139,0.7454212454212454,0.7027106227106227
2.3119221290035057,1.0339194139194139,0.7454212454212454,0.7027106227106227
2.3130990549980197,1.0339194139194139,0.7454212454212454,0.7027106227106227
2.3132769400035613,1.0339194139194139,0.7454212454212454,0.7027106227106227
2.318747600998904,1.0339194139194139,0.7454212454212454,0.7027106227106227
2.3196432900003856,0.21355311355311357,0.16842490842490843,0.46175824175824176
2.321285940997768,0.21355311355311357,0.16842490842490843,0.46175824175824176
2.325900340001681,0.21355311355311357,0.16842490842490843,0.46175824175824176
2.3260835289984243,0.21355311355311357,0.16842490842490843,0.46175824175824176
2.331540615996346,0.5866666666666667,0.8155311355311355,0.8542124542124543
2.3333371769986115,2.461904761904762,0.6648351648351648,0.3908424908424908
2.3356950579982367,2.461904761904762,0.6648351648351648,0.3908424908424908
2.336033817999123,2.461904761904762,0.6648351648351648,0.3908424908424908
2.3415950249982416,2.461904761904762,0.6648351648351648,0.3908424908424908
2.3425832680004532,2.461904761904762,0.6648351648351648,0.3908424908424908
2.343540355999721,2.461904761904762,0.6648351648351648,0.3908424908424908
2.3444308920006733,2.461904761904762,0.6648351648351648,0.3908424908424908
2.3460819969986915,2.461904761904762,0.6648351648351648,0.3908424908424908
2.350011379996431,2.461904761904762,0.6648351648351648,0.3908424908424908
2.3540495690031094,2.461904761904762,0.6648351648351648,0.3908424908424908
2.3578327229988645,1.6552380952380952,0.30139194139194136,0.07252747252747253
2.3633329139993293,1.5464468864468863,1.295018315018315,0.6543589743589743
2.364245172997471,0.4126007326007326,0.11443223443223444,0.2345054945054945
2.3658744109998224,0.4126007326007326,0.11443223443223444,0.2345054945054945
2.3700909499966656,0.4126007326007326,0.11443223443223444,0.2345054945054945
2.372539506999601,1.797069597069597,0.751062271062271,0.9162637362637363
2.372691368997039,2.803589743589743,0.42388278388278383,0.047545787545787546
2.377611228002934,2.803589743589743,0.42388278388278383,0.047545787545787546
2.3833668930019485,0.03304029304029304,0.0821978021978022,0.43032967032967034
2.38362254799722,0.03304029304029304,0.0821978021978022,0.43032967032967034
2.3891872849999345,0.03304029304029304,0.0821978021978022,0.43032967032967034
2.390035481999803,1.1499633699633698,0.78007326007326,1.0508424908424907
2.3916736199971638,1.1499633699633698,0.78007326007326,1.0508424908424907
2.395514677002211,2.1065201465201464,0.36747252747252745,0.3529670329670329
2.4001429900017683,2.5424908424908423,0.32395604395604394,0.05399267399267399
2.401022821002698,2.5424908424908423,0.32395604395604394,0.05399267399267399
2.4026565090025542,2.5424908424908423,0.32395604395604394,0.05399267399267399
2.4065226270031417,2.5424908424908423,0.32395604395604394,0.05399267399267399
2.411879746003251,2.5424908424908423,0.32395604395604394,0.05399267399267399
2.4143364139963523,2.5424908424908423,0.32395604395604394,0.05399267399267399
2.4145259159995476,2.5424908424908423,0.32395604395604394,0.05399267399267399
2.4200501309969695,2.5424908424908423,0.32395604395604394,0.05399267399267399
2.420985942000698,2.5424908424908423,0.32395604395604394,0.05399267399267399
2.4220201680000173,2.5424908424908423,0.32395604395604394,0.05399267399267399
2.423074047997943,2.5424908424908423,0.32395604395604394,0.05399267399267399
2.423359961998358,3.3,0.43999999999999995,0.19340659340659339
2.4308639939990826,3.1968498168498165,0.13296703296703297,0.30542124542124544
2.434973324998282,1.8091575091575092,0.3046153846153846,0.3698901098901099
2.438184751001245,1.8091575091575092,0.3046153846153846,0.3698901098901099
2.4390236960025504,0.0,0.112014652014652,0.45772893772893775
2.44090281699755,0.0,0.112014652014652,0.45772893772893775
2.44326087400259,0.0,0.112014652014652,0.45772893772893775
2.44341760899988,0.0,0.112014652014652,0.45772893772893775
2.4490204519970575,0.0,0.112014652014652,0.45772893772893775
2.449309714997071,0.0,0.112014652014652,0.45772893772893775
2.4546753429967794,0.0,0.112014652014652,0.45772893772893775
2.4564232539996738,2.9776556776556777,0.3223443223443223,0.045128205128205125
2.4595635520017822,2.9776556776556777,0.3223443223443223,0.045128205128205125
2.4618667910035583,2.9776556776556777,0.3223443223443223,0.045128205128205125
2.4621273759985343,2.9776556776556777,0.3223443223443223,0.045128205128205125
2.4677255700007663,2.9776556776556777,0.3223443223443223,0.045128205128205125
2.4680189790014992,2.9776556776556777,0.3223443223443223,0.045128205128205125
2.4731020429971977,3.1388278388278383,0.7204395604395604,0.8711355311355311
2.476437965000514,3.1388278388278383,0.7204395604395604,0.8711355311355311
2.477308114997868,3.1388278388278383,0.7204395604395604,0.8711355311355311
2.4786729510014993,3.1388278388278383,0.7204395604395604,0.8711355311355311
2.4838120010026614,3.1388278388278383,0.7204395604395604,0.8711355311355311
2.4870356239989633,3.1388278388278383,0.7204395604395604,0.8711355311355311
2.4886774650003645,3.1388278388278383,0.7204395604395604,0.8711355311355311
2.4918093890009914,3.1388278388278383,0.7204395604395604,0.8711355311355311
2.494231384996965,3.1388278388278383,0.7204395604395604,0.8711355311355311
2.494487743002537,3.1388278388278383,0.7204395604395604,0.8711355311355311
2.499265200996888,3.1388278388278383,0.7204395604395604,0.8711355311355311
2.5048735210002633,3.1388278388278383,0.7204395604395604,0.8711355311355311
2.50580565600103,3.1388278388278383,0.7204395604395604,0.8711355311355311
2.5067017129986198,3.1388278388278383,0.7204395604395604,0.8711355311355311
2.508286358002806,3.1388278388278383,0.7204395604395604,0.8711355311355311
2.5123939999975846,3.1388278388278383,0.7204395604395604,0.8711355311355311
2.514887848003127,3.1388278388278383,0.7204395604395604,0.8711355311355311
2.5204871379974065,3.1388278388278383,0.7204395604395604,0.8711355311355311
2.5213474569973187,3.1388278388278383,0.7204395604395604,0.8711355311355311
2.5230169229980675,3.1388278388278383,0.7204395604395604,0.8711355311355311
2.5269059690035647,3.1388278388278383,0.7204395604395604,0.8711355311355311
2.5317134389988496,1.0153846153846153,0.7986080586080586,0.8534065934065934
2.537502172999666,1.0153846153846153,0.7986080586080586,0.8534065934065934
2.5377765239973087,1.0153846153846153,0.7986080586080586,0.8534065934065934
2.54253277600219,1.0153846153846153,0.7986080586080586,0.8534065934065934
2.5427539919983246,1.0153846153846153,0.7986080586080586,0.8534065934065934
2.547748003999004,1.0153846153846153,0.7986080586080586,0.8534065934065934
2.5524456040002406,1.0153846153846153,0.7986080586080586,0.8534065934065934
2.5525975990021834,1.0153846153846153,0.7986080586080586,0.8534065934065934
2.557674951996887,1.0153846153846153,0.7986080586080586,0.8534065934065934
2.561702735001745,1.0153846153846153,0.7986080586080586,0.8534065934065934
2.564819195999007,1.0153846153846153,0.7986080586080586,0.8534065934065934
2.5673349170028814,2.8229304029304028,1.1628571428571428,0.7542857142857142
2.5674964819991146,1.2386080586080586,0.8695238095238095,0.6704761904761904
2.5723189990021638,1.2386080586080586,0.8695238095238095,0.6704761904761904
2.577903432997118,1.2386080586080586,0.8695238095238095,0.6704761904761904
2.5789622829979635,1.2386080586080586,0.8695238095238095,0.6704761904761904
2.5798404070010292,1.2386080586080586,0.8695238095238095,0.6704761904761904
2.5807788750025793,1.2386080586080586,0.8695238095238095,0.6704761904761904
2.581943780001893,1.2386080586080586,0.8695238095238095,0.6704761904761904
2.5822032910000416,1.2386080586080586,0.8695238095238095,0.6704761904761904
2.587076531002822,1.2386080586080586,0.8695238095238095,0.6704761904761904
2.592579497002589,1.2386080586080586,0.8695238095238095,0.6704761904761904
2.594188805000158,1.2386080586080586,0.8695238095238095,0.6704761904761904
2.5980721529995208,1.2386080586080586,0.8695238095238095,0.6704761904761904
2.6019814559986116,1.614139194139194,1.3264468864468864,0.5963369963369963
2.605879497998103,1.614139194139194,1.3264468864468864,0.5963369963369963
2.6098141629991005,1.614139194139194,1.3264468864468864,0.5963369963369963
2.6136331930028973,2.3652014652014652,0.7575091575091575,0.8896703296703296
2.618334856000729,2.165347985347985,0.29010989010989013,0.06446886446886446
2.618543436001346,2.165347985347985,0.29010989010989013,0.06446886446886446
2.6233137029994396,2.165347985347985,0.29010989010989013,0.06446886446886446
2.623531584999,2.165347985347985,0.29010989010989013,0.06446886446886446
2.6292992860035156,2.165347985347985,0.29010989010989013,0.06446886446886446
2.6295637099974556,2.245128205128205,0.6487179487179486,0.9573626373626374
2.6343779579983675,2.245128205128205,0.6487179487179486,0.9573626373626374
2.6345395519965678,2.245128205128205,0.6487179487179486,0.9573626373626374
2.639459345002251,2.245128205128205,0.6487179487179486,0.9573626373626374
2.645061960996827,2.245128205128205,0.6487179487179486,0.9573626373626374
2.645444148001843,2.245128205128205,0.6487179487179486,0.9573626373626374
2.6501666089970968,2.245128205128205,0.6487179487179486,0.9573626373626374
2.650283627997851,2.245128205128205,0.6487179487179486,0.9573626373626374
2.655091613996774,2.245128205128205,0.6487179487179486,0.9573626373626374
2.655382812998141,2.245128205128205,0.6487179487179486,0.9573626373626374
2.660086420997686,1.7221245421245421,1.2531135531135529,0.7615384615384615
2.660366383002838,1.7221245421245421,1.2531135531135529,0.7615384615384615
2.6653217330022017,1.7221245421245421,1.2531135531135529,0.7615384615384615
2.669324337002763,1.7221245421245421,1.2531135531135529,0.7615384615384615
2.6731277069993666,3.0614652014652015,0.46417582417582415,0.25868131868131866
2.677869658997224,3.0614652014652015,0.46417582417582415,0.25868131868131866
2.6781297609995818,3.0614652014652015,0.46417582417582415,0.25868131868131866
2.6826933560005273,3.0614652014652015,0.46417582417582415,0.25868131868131866
2.683026847000292,2.6778754578754578,0.6043956043956044,0.28527472527472525
2.689049562999571,2.6778754578754578,0.6043956043956044,0.28527472527472525
2.6935704499992426,2.6778754578754578,0.6043956043956044,0.28527472527472525
2.6938155699972413,2.6778754578754578,0.6043956043956044,0.28527472527472525
2.70201003299735,2.6778754578754578,0.6043956043956044,0.28527472527472525
2.706009629997425,0.0,0.07897435897435898,0.365054945054945
2.709141532999638,0.0,0.07897435897435898,0.365054945054945
2.7101087760020164,0.0,0.07897435897435898,0.365054945054945
2.711749030997453,0.0,0.07897435897435898,0.365054945054945
2.7148743639991153,0.0,0.07897435897435898,0.365054945054945
2.7165454529967974,0.0,0.07897435897435898,0.365054945054945
2.7197089890032657,0.5004395604395604,0.18776556776556774,0.423076923076923
2.722152588998142,0.5004395604395604,0.18776556776556774,0.423076923076923
2.7222723029990448,0.5004395604395604,0.18776556776556774,0.423076923076923
2.7276520379964495,0.5004395604395604,0.18776556776556774,0.423076923076923
2.7293831119968672,0.5004395604395604,0.18776556776556774,0.423076923076923
2.732553444999212,0.5004395604395604,0.18776556776556774,0.423076923076923
2.734829622997495,0.5004395604395604,0.18776556776556774,0.423076923076923
2.735078001001966,0.5004395604395604,0.18776556776556774,0.423076923076923
2.7407258129969705,0.5004395604395604,0.18776556776556774,0.423076923076923
2.7410907480007154,0.5004395604395604,0.18776556776556774,0.423076923076923
2.7459371279983316,0.5004395604395604,0.18776556776556774,0.423076923076923
2.7508871419995558,0.5826373626373627,0.7583150183150182,0.850989010989011
2.7558180170017295,0.5826373626373627,0.7583150183150182,0.850989010989011
2.7607374020008137,0.5826373626373627,0.7583150183150182,0.850989010989011
2.766189283996937,0.0,0.08542124542124542,0.4528937728937729
2.767815430997871,2.647252747252747,0.5737728937728938,0.195018315018315
2.7718969429988647,2.647252747252747,0.5737728937728938,0.195018315018315
2.7758718240002054,2.647252747252747,0.5737728937728938,0.195018315018315
2.7797856420002063,2.647252747252747,0.5737728937728938,0.195018315018315
2.784561656000733,2.647252747252747,0.5737728937728938,0.195018315018315
2.784732542000711,2.647252747252747,0.5737728937728938,0.195018315018315
2.7958055260023684,2.647252747252747,0.5737728937728938,0.195018315018315
2.804207569002756,2.647252747252747,0.5737728937728938,0.195018315018315
2.8103269880011794,2.647252747252747,0.5737728937728938,0.195018315018315
2.8135751130030258,2.647252747252747,0.5737728937728938,0.195018315018315
2.8144862889967044,2.647252747252747,0.5737728937728938,0.195018315018315
2.8160583400022006,2.647252747252747,0.5737728937728938,0.195018315018315
2.8206030360015575,2.647252747252747,0.5737728937728938,0.195018315018315
2.820935310002824,2.647252747252747,0.5737728937728938,0.195018315018315
2.8265387680003187,2.647252747252747,0.5737728937728938,0.195018315018315
2.829281976002676,2.647252747252747,0.5737728937728938,0.195018315018315
2.8328456680028467,2.647252747252747,0.5737728937728938,0.195018315018315
2.841174667002633,2.7826373626373626,0.166007326007326,0.28205128205128205
2.848190846001671,2.7826373626373626,0.166007326007326,0.28205128205128205
2.8541500339997583,1.1781684981684981,0.6753113553113552,0.6946520146520146
2.8597787210019305,1.9453479853479854,0.1813186813186813,0.3078388278388278
2.8599835080021876,1.4505494505494505,1.2732600732600732,0.722051282051282
2.8723310369969113,1.4505494505494505,1.2732600732600732,0.722051282051282
2.8853187970016734,1.4505494505494505,1.2732600732600732,0.722051282051282
2.8950067260011565,1.4505494505494505,1.2732600732600732,0.722051282051282
2.9025937920014258,1.5174358974358972,0.08058608058608058,0.6229304029304029
2.9080561059963657,0.04915750915750916,0.3924542124542124,0.2836630036630036
2.910962802998256,2.245934065934066,1.0242490842490841,0.7841025641025641
2.913885925001523,2.245934065934066,1.0242490842490841,0.7841025641025641
2.9167058750026627,2.245934065934066,1.0242490842490841,0.7841025641025641
2.920103668999218,2.245934065934066,1.0242490842490841,0.7841025641025641
2.9203336409991607,2.245934065934066,1.0242490842490841,0.7841025641025641
2.9250426290018368,2.245934065934066,1.0242490842490841,0.7841025641025641
2.9251683929978753,2.6794871794871793,0.5262271062271061,0.527032967032967
2.933223514002748,2.6794871794871793,0.5262271062271061,0.527032967032967
2.937791686003038,2.6794871794871793,0.5262271062271061,0.527032967032967
2.9380838720026077,2.6794871794871793,0.5262271062271061,0.527032967032967
2.943932323003537,2.6794871794871793,0.5262271062271061,0.527032967032967
2.944170832000964,2.6794871794871793,0.5262271062271061,0.527032967032967
2.951658336998662,2.6794871794871793,0.5262271062271061,0.527032967032967
2.956606225001451,2.6794871794871793,0.5262271062271061,0.527032967032967
2.9613879570024437,2.6794871794871793,0.5262271062271061,0.527032967032967
2.9615049440035364,0.1539194139194139,0.2361172161172161,0.37875457875457874
2.9683379080015584,0.1539194139194139,0.2361172161172161,0.37875457875457874
2.9730352039987338,2.7665201465201466,0.6785347985347985,0.5947252747252747
2.97328119300073,3.248424908424908,0.6342124542124542,0.7309157509157509
2.978524225996807,3.248424908424908,0.6342124542124542,0.7309157509157509
2.9826030030017137,0.0,0.07575091575091575,0.527032967032967
2.983475086002727,0.0,0.07575091575091575,0.527032967032967
2.9843950150025194,0.0,0.07575091575091575,0.527032967032967
2.9860674000010476,0.0,0.07575091575091575,0.527032967032967
2.990004665000015,1.2547252747252746,0.8799999999999999,0.6938461538461538
2.9938973739990615,1.2547252747252746,0.8799999999999999,0.6938461538461538
2.99926106500061,1.2547252747252746,0.8799999999999999,0.6938461538461538
2.999634651001543,1.2547252747252746,0.8799999999999999,0.6938461538461538
3.004790099003003,1.2547252747252746,0.8799999999999999,0.6938461538461538
3.007924641999125,1.2547252747252746,0.8799999999999999,0.6938461538461538
3.009874333998596,1.2547252747252746,0.8799999999999999,0.6938461538461538
3.0116924710018793,1.2547252747252746,0.8799999999999999,0.6938461538461538
3.016564514997299,1.2547252747252746,0.8799999999999999,0.6938461538461538
3.019793972998741,1.2547252747252746,0.8799999999999999,0.6938461538461538
3.0206910409979173,1.2547252747252746,0.8799999999999999,0.6938461538461538
3.021660261998477,3.3,0.7558974358974359,0.8445421245421244
3.0233515849977266,3.3,0.7558974358974359,0.8445421245421244
3.0271710800006986,3.3,0.7558974358974359,0.8445421245421244
3.0341692270012572,2.319267399267399,0.6350183150183151,1.0427838827838827
3.0379432199988514,2.319267399267399,0.6350183150183151,1.0427838827838827
3.0428593999968143,0.25223443223443226,0.03706959706959707,0.46659340659340653
3.0486149720018147,0.25223443223443226,0.03706959706959707,0.46659340659340653
3.0488533500029007,2.449010989010989,0.6374358974358975,1.0266666666666666
3.053763768999488,2.449010989010989,0.6374358974358975,1.0266666666666666
3.058307496001362,2.449010989010989,0.6374358974358975,1.0266666666666666
3.0592273360016407,2.449010989010989,0.6374358974358975,1.0266666666666666
3.0610043499982567,2.449010989010989,0.6374358974358975,1.0266666666666666
3.0644450850013527,2.449010989010989,0.6374358974358975,1.0266666666666666
3.0645669369987445,2.690769230769231,0.1652014652014652,0.6906227106227106
3.0693913740033167,2.690769230769231,0.1652014652014652,0.6906227106227106
3.069584313001542,1.361098901098901,0.7268864468864469,1.1088644688644689
3.0745766309992177,1.361098901098901,0.7268864468864469,1.1088644688644689
3.0811823030016967,1.361098901098901,0.7268864468864469,1.1088644688644689
3.0858903600019403,2.6875457875457873,0.6197069597069597,0.5649084249084249
3.090538723998179,0.36344322344322344,0.4762637362637362,0.9702564102564102
3.0907494549974217,2.9260805860805856,0.5036630036630036,0.846153846153846
3.0962904629996046,2.357142857142857,0.2643223443223443,0.26109890109890105
3.09778556299716,1.66007326007326,0.14424908424908423,0.3642490842490842
3.1040213110027253,1.66007326007326,0.14424908424908423,0.3642490842490842
3.107998867999413,1.66007326007326,0.14424908424908423,0.3642490842490842
3.113829280999198,2.258827838827839,0.5334798534798535,0.917069597069597
3.119432532999781,2.258827838827839,0.5334798534798535,0.917069597069597
3.119624635000946,2.258827838827839,0.5334798534798535,0.917069597069597
3.1243071429998963,0.4166300366300366,0.20227106227106226,0.2651282051282051
3.124662604997866,0.4166300366300366,0.20227106227106226,0.2651282051282051
3.1330019399974844,0.4166300366300366,0.20227106227106226,0.2651282051282051
3.1376344820018858,0.4166300366300366,0.20227106227106226,0.2651282051282051
3.1430604249981116,1.5883516483516482,1.1145054945054944,0.78007326007326
3.1462182739996933,1.5883516483516482,1.1145054945054944,0.78007326007326
3.147887177001394,1.5883516483516482,1.1145054945054944,0.78007326007326
3.15202664899698,1.5883516483516482,1.1145054945054944,0.78007326007326
3.152958063001279,2.025934065934066,0.3046153846153846,0.3295970695970696
3.153977241003304,2.025934065934066,0.3046153846153846,0.3295970695970696
3.1548654759972123,2.025934065934066,0.3046153846153846,0.3295970695970696
3.1566599540019524,2.025934065934066,0.3046153846153846,0.3295970695970696
3.1590801229976933,2.025934065934066,0.3046153846153846,0.3295970695970696
3.159303407999687,2.025934065934066,0.3046153846153846,0.3295970695970696
3.165415456998744,2.025934065934066,0.3046153846153846,0.3295970695970696
3.169471107998106,3.3,0.07736263736263736,0.3553846153846154
3.1725561499988544,1.2144322344322345,0.747032967032967,0.9065934065934066
3.174217239000427,2.4038827838827834,0.11523809523809524,0.1241025641025641
3.1786273149991757,2.4038827838827834,0.11523809523809524,0.1241025641025641
3.179088133998448,2.4038827838827834,0.11523809523809524,0.1241025641025641
3.18655679999938,2.4038827838827834,0.11523809523809524,0.1241025641025641
3.1906784439997864,2.4038827838827834,0.11523809523809524,0.1241025641025641
3.194302265997976,2.4038827838827834,0.11523809523809524,0.1241025641025641
3.203646950001712,2.4038827838827834,0.11523809523809524,0.1241025641025641
3.2126694769976893,2.6545054945054947,0.5052747252747253,0.5616849816849817
3.2179172830001335,2.6545054945054947,0.5052747252747253,0.5616849816849817
3.220423999999184,2.6545054945054947,0.5052747252747253,0.5616849816849817
3.227092827000888,2.6545054945054947,0.5052747252747253,0.5616849816849817
3.2314933379966533,2.6545054945054947,0.5052747252747253,0.5616849816849817
3.2316960530006327,2.6545054945054947,0.5052747252747253,0.5616849816849817
3.236529984998924,2.6545054945054947,0.5052747252747253,0.5616849816849817
3.2366654139987077,2.6545054945054947,0.5052747252747253,0.5616849816849817
3.241408729001705,2.6545054945054947,0.5052747252747253,0.5616849816849817
3.2417218780028634,2.6545054945054947,0.5052747252747253,0.5616849816849817
3.247907163997297,2.6545054945054947,0.5052747252747253,0.5616849816849817
3.2551886159999412,2.6545054945054947,0.5052747252747253,0.5616849816849817
3.2633107020010357,1.7930402930402929,0.07978021978021978,0.24175824175824176
3.2718291920027696,2.905128205128205,0.2635164835164835,0.14908424908424908
3.280402746000618,2.905128205128205,0.2635164835164835,0.14908424908424908
3.288109451001219,2.905128205128205,0.2635164835164835,0.14908424908424908
3.2970031639997615,2.905128205128205,0.2635164835164835,0.14908424908424908
3.306511032002163,2.826153846153846,0.34007326007326005,1.0717948717948718
3.31463208799687,2.826153846153846,0.34007326007326005,1.0717948717948718
3.3202868869993836,2.826153846153846,0.34007326007326005,1.0717948717948718
3.3207420830003684,2.826153846153846,0.34007326007326005,1.0717948717948718
3.3245810200023698,3.3,0.4029304029304029,1.585934065934066
3.336794661001477,3.3,0.4029304029304029,1.585934065934066
3.340821853998932,2.9454212454212456,0.4698168498168498,1.2982417582417582
3.343661120001343,2.9454212454212456,0.4698168498168498,1.2982417582417582
3.3486295379989315,2.9454212454212456,0.4698168498168498,1.2982417582417582
3.3537894300025073,2.0621978021978022,1.095164835164835,0.921098901098901
3.356487441000354,1.8913553113553112,0.1652014652014652,0.3038095238095238
3.3613657649984816,0.12974358974358974,0.025787545787545788,0.6189010989010989
3.3689438159999554,0.4198534798534798,0.618095238095238,0.4899633699633699
3.3742335429997183,2.3797069597069593,0.8969230769230768,0.6277655677655677
3.376872157001344,2.5916483516483515,0.1789010989010989,1.1241758241758242
3.38309956699959,2.5916483516483515,0.1789010989010989,1.1241758241758242
3.3868705019995105,2.5916483516483515,0.1789010989010989,1.1241758241758242
3.391056879001553,2.5916483516483515,0.1789010989010989,1.1241758241758242
3.3936022220004816,2.1524542124542125,0.2191941391941392,1.282930402930403
3.4025891389974277,2.1524542124542125,0.2191941391941392,1.282930402930403
3.407872921998205,1.7688644688644688,1.2523076923076921,0.7526739926739926
3.410388766998949,1.7688644688644688,1.2523076923076921,0.7526739926739926
3.4191715409979224,1.7688644688644688,1.2523076923076921,0.7526739926739926
3.4246509590011556,1.7688644688644688,1.2523076923076921,0.7526739926739926
3.42491979800252,1.7688644688644688,1.2523076923076921,0.7526739926739926
3.43187541700172,1.7688644688644688,1.2523076923076921,0.7526739926739926
3.436607053001353,3.163809523809524,0.03626373626373627,1.854285714285714
3.4404496330025722,3.00021978021978,0.05399267399267399,1.3796336996336995
3.4457692170035443,3.3,0.6535531135531135,2.9720146520146518
3.4492634299967904,3.3,0.6535531135531135,2.9720146520146518
3.4547821450032643,3.3,0.6535531135531135,2.9720146520146518
3.4556486650035367,3.3,0.6535531135531135,2.9720146520146518
3.4572695500028203,3.3,0.6535531135531135,2.9720146520146518
3.46362285700161,3.3,0.6535531135531135,2.9720146520146518
3.4682466040030704,3.3,0.6535531135531135,2.9720146520146518
3.4738292879992514,3.3,0.6535531135531135,2.9720146520146518
3.4741283879993716,3.3,0.6535531135531135,2.9720146520146518
3.4807509340025717,3.3,0.6535531135531135,2.9720146520146518
3.4849880499969004,2.1677655677655676,1.0113553113553113,1.6399267399267399
3.486976706997666,2.457069597069597,0.39890109890109887,1.0701831501831502
3.489392108996981,2.457069597069597,0.39890109890109887,1.0701831501831502
3.50004475699825,2.2604395604395604,0.24336996336996336,2.0887912087912084
3.505958957000985,2.2604395604395604,0.24336996336996336,2.0887912087912084
3.510955871002807,2.1484249084249085,0.4254945054945055,0.5463736263736263
3.5173145230000955,2.1484249084249085,0.4254945054945055,0.5463736263736263
3.521504800002731,0.9331868131868131,0.5995604395604395,0.46175824175824176
3.524566681997385,0.9331868131868131,0.5995604395604395,0.46175824175824176
3.526278078003088,3.3,0.34007326007326005,2.3047619047619046
3.5327475599988247,3.3,0.34007326007326005,2.3047619047619046
3.5364459499978693,1.983223443223443,0.9194871794871795,1.846227106227106
3.543037554998591,1.983223443223443,0.9194871794871795,1.846227106227106
3.5498062719998416,1.983223443223443,0.9194871794871795,1.846227106227106
3.5543752779994975,1.983223443223443,0.9194871794871795,1.846227106227106
3.5545183060021373,1.983223443223443,0.9194871794871795,1.846227106227106
3.5592413280028268,1.983223443223443,0.9194871794871795,1.846227106227106
3.5593868540017866,0.2594871794871795,0.06043956043956044,0.6390476190476191
3.567757040997094,0.2594871794871795,0.06043956043956044,0.6390476190476191
3.5737660070008133,3.0356776556776555,0.13377289377289378,1.0645421245421245
3.5770803159975912,1.473113553113553,0.12974358974358974,0.332014652014652
3.5781085370035726,1.5835164835164834,1.0935531135531134,0.6164835164835165
3.578537579996919,1.5835164835164834,1.0935531135531134,0.6164835164835165
3.5842308520004735,1.5835164835164834,1.0935531135531134,0.6164835164835165
3.5843525219970616,0.73010989010989,0.47706959706959706,0.5415384615384615
3.59015881200321,0.73010989010989,0.47706959706959706,0.5415384615384615
3.5903340540025965,0.73010989010989,0.47706959706959706,0.5415384615384615
3.5979766200034646,1.9413186813186813,0.11684981684981684,1.2144322344322345
3.6042722389975097,1.9413186813186813,0.11684981684981684,1.2144322344322345
3.608110941997438,2.7246153846153844,1.0049084249084248,0.6962637362637363
3.6150388509995537,2.7246153846153844,1.0049084249084248,0.6962637362637363
3.6191779090004275,2.7246153846153844,1.0049084249084248,0.6962637362637363
3.620815116999438,2.7246153846153844,1.0049084249084248,0.6962637362637363
3.625158802002261,3.3,0.6914285714285714,2.727032967032967
3.6260817849979503,3.3,0.6914285714285714,2.727032967032967
3.628100212998106,3.3,0.6914285714285714,2.727032967032967
3.6298438079975313,3.3,0.6914285714285714,2.727032967032967
3.6340986590003013,2.1266666666666665,0.1926007326007326,1.46021978021978
3.6349933390010847,2.1266666666666665,0.1926007326007326,1.46021978021978
3.636635896997177,2.1266666666666665,0.1926007326007326,1.46021978021978
3.6398940139988554,2.1266666666666665,0.1926007326007326,1.46021978021978
3.641801771002065,2.1266666666666665,0.1926007326007326,1.46021978021978
3.6436153120012023,2.1266666666666665,0.1926007326007326,1.46021978021978
3.649062705000688,2.1266666666666665,0.1926007326007326,1.46021978021978
3.6492744970018975,2.1266666666666665,0.1926007326007326,1.46021978021978
3.6541236039993237,2.1266666666666665,0.1926007326007326,1.46021978021978
3.654243220000353,2.1194139194139194,0.6350183150183151,1.3216117216117216
3.6590320989998872,2.1194139194139194,0.6350183150183151,1.3216117216117216
3.6591956170013873,1.411062271062271,0.9178754578754579,0.6406593406593406
3.667486457998166,1.411062271062271,0.9178754578754579,0.6406593406593406
3.6725236400016,1.411062271062271,0.9178754578754579,0.6406593406593406
3.676671000997885,1.411062271062271,0.9178754578754579,0.6406593406593406
3.6808105829986744,1.411062271062271,0.9178754578754579,0.6406593406593406
3.682124295999529,1.411062271062271,0.9178754578754579,0.6406593406593406
3.6891503860024386,3.3,0.5713553113553113,2.3692307692307693
3.694792353999219,3.3,0.5713553113553113,2.3692307692307693
3.6949040019972017,2.1137728937728935,0.25465201465201465,1.3296703296703296
3.700748178001959,2.1137728937728935,0.25465201465201465,1.3296703296703296
3.7060274230025243,2.5167032967032963,0.7478388278388278,1.7535531135531135
3.7094740019965684,2.5167032967032963,0.7478388278388278,1.7535531135531135
3.7096681789989816,2.5167032967032963,0.7478388278388278,1.7535531135531135
3.718020118001732,2.5167032967032963,0.7478388278388278,1.7535531135531135
3.7242262790023233,1.7398534798534797,0.32153846153846155,0.967032967032967
3.728602666997176,2.565054945054945,0.9347985347985347,0.7695970695970695
3.7298456499993335,2.565054945054945,0.9347985347985347,0.7695970695970695
3.730095427003107,2.565054945054945,0.9347985347985347,0.7695970695970695
3.738812103998498,1.8204395604395605,0.311062271062271,1.0854945054945053
3.744490703000338,1.8204395604395605,0.311062271062271,1.0854945054945053
3.7447765309989336,1.8204395604395605,0.311062271062271,1.0854945054945053
3.7515412580032717,1.8204395604395605,0.311062271062271,1.0854945054945053
3.755159451997315,1.8204395604395605,0.311062271062271,1.0854945054945053
3.7552935170024284,1.8204395604395605,0.311062271062271,1.0854945054945053
3.760187270003371,1.8204395604395605,0.311062271062271,1.0854945054945053
3.767535154998768,1.8204395604395605,0.311062271062271,1.0854945054945053
3.77288601899636,3.3,0.3916483516483516,2.008205128205128
3.7738185839989455,3.3,0.3916483516483516,2.008205128205128
3.774725582996325,3.3,0.3916483516483516,2.008205128205128
3.7757013899972662,3.3,0.3916483516483516,2.008205128205128
3.7783145680004964,3.3,0.3916483516483516,2.008205128205128
3.784577400001581,0.19904761904761903,0.0,0.3876190476190476
3.7902590509984293,3.2806593406593407,0.112014652014652,0.6906227106227106
3.790449323998473,3.2806593406593407,0.112014652014652,0.6906227106227106
3.798267398997268,3.2806593406593407,0.112014652014652,0.6906227106227106
3.8029880079993745,3.2806593406593407,0.112014652014652,0.6906227106227106
3.8084567219993914,3.2806593406593407,0.112014652014652,0.6906227106227106
3.8096129129990004,3.2806593406593407,0.112014652014652,0.6906227106227106
3.809830703001353,3.2806593406593407,0.112014652014652,0.6906227106227106
3.8176027860026807,3.2806593406593407,0.112014652014652,0.6906227106227106
3.8221734920007293,1.5222710622710622,1.1556043956043955,0.5286446886446886
3.8226179699995555,1.5222710622710622,1.1556043956043955,0.5286446886446886
3.8264529529988067,1.5222710622710622,1.1556043956043955,0.5286446886446886
3.8319492950031417,1.8454212454212453,1.02021978021978,1.1999267399267397
3.8322261319990503,1.8454212454212453,1.02021978021978,1.1999267399267397
3.8374693049991038,1.8454212454212453,1.02021978021978,1.1999267399267397
3.83979162399919,1.8454212454212453,1.02021978021978,1.1999267399267397
3.84009427500132,1.8454212454212453,1.02021978021978,1.1999267399267397
3.8460302599996794,1.8454212454212453,1.02021978021978,1.1999267399267397
3.8517018249985995,1.8454212454212453,1.02021978021978,1.1999267399267397
3.851856091998343,3.195238095238095,0.6269597069597069,1.3232234432234433
3.857204038002237,3.195238095238095,0.6269597069597069,1.3232234432234433
3.859885418001795,0.08703296703296703,0.0846153846153846,0.49802197802197795
3.8654854359992896,0.08703296703296703,0.0846153846153846,0.49802197802197795
3.8710917650023475,2.4836630036630036,0.2232234432234432,0.25868131868131866
3.8720090740025626,2.4836630036630036,0.2232234432234432,0.25868131868131866
3.8737904829977197,2.4836630036630036,0.2232234432234432,0.25868131868131866
3.877286870003445,2.4836630036630036,0.2232234432234432,0.25868131868131866
3.8774766089991317,2.4836630036630036,0.2232234432234432,0.25868131868131866
3.883177103998605,2.4836630036630036,0.2232234432234432,0.25868131868131866
3.883406262997596,3.3,0.5761904761904761,1.8994139194139192
3.8899627049977425,3.3,0.5761904761904761,1.8994139194139192
3.8931203129977803,1.6778021978021975,0.6519413919413919,1.5246886446886447
3.8949437530027353,1.6778021978021975,0.6519413919413919,1.5246886446886447
3.8991441800026223,1.6778021978021975,0.6519413919413919,1.5246886446886447
3.9009777149985894,1.6778021978021975,0.6519413919413919,1.5246886446886447
3.9026104360018508,1.6778021978021975,0.6519413919413919,1.5246886446886447
3.90725165099866,1.6778021978021975,0.6519413919413919,1.5246886446886447
3.9074204159987858,0.2796336996336996,0.51010989010989,0.9082051282051282
3.9135478340031113,0.2796336996336996,0.51010989010989,0.9082051282051282
3.9189282250008546,1.822051282051282,0.2989743589743589,0.7131868131868132
3.9192596339999,0.0,0.30622710622710625,0.5093040293040293
3.924551629999769,0.0,0.30622710622710625,0.5093040293040293
3.9261633029964287,0.0,0.30622710622710625,0.5093040293040293
3.932454433001112,0.0,0.30622710622710625,0.5093040293040293
3.935942183001316,1.983223443223443,0.03706959706959707,0.5302564102564102
3.936241572002473,1.6866666666666665,1.2515018315018314,0.5882783882783883
3.9410052680032095,1.6866666666666665,1.2515018315018314,0.5882783882783883
3.94788195000001,1.6866666666666665,1.2515018315018314,0.5882783882783883
3.9513860320003005,1.6866666666666665,1.2515018315018314,0.5882783882783883
3.9516238249998423,1.6866666666666665,1.2515018315018314,0.5882783882783883
3.957512699002109,1.6866666666666665,1.2515018315018314,0.5882783882783883
3.964170942999772,0.0,0.083003663003663,0.51010989010989
3.9676271450007334,3.3,1.016996336996337,1.527912087912088
3.967872774002899,3.3,1.016996336996337,1.527912087912088
3.973308068998449,3.3,1.016996336996337,1.527912087912088
3.9748768889985513,3.3,1.016996336996337,1.527912087912088
3.9798306340017007,3.3,1.016996336996337,1.527912087912088
3.9835679629977676,0.518974358974359,0.03062271062271062,0.5818315018315018
3.989222777003306,0.518974358974359,0.03062271062271062,0.5818315018315018
3.989444282997283,1.8808791208791207,0.6841758241758242,1.3473992673992674
3.9964690869965125,1.8808791208791207,0.6841758241758242,1.3473992673992674
4.001273399997444,1.8808791208791207,0.6841758241758242,1.3473992673992674
4.005842867001775,3.3,0.4126007326007326,1.6294505494505493
4.006090905997553,3.3,0.21274725274725276,0.7599267399267399
4.0124051430029795,3.3,0.21274725274725276,0.7599267399267399
4.017223014998308,3.3,0.21274725274725276,0.7599267399267399
4.02107347099809,0.10476190476190475,0.15794871794871795,0.6342124542124542
4.025691043003462,0.10476190476190475,0.15794871794871795,0.6342124542124542
4.026051562002976,0.10476190476190475,0.15794871794871795,0.6342124542124542
4.03454861100181,0.10476190476190475,0.15794871794871795,0.6342124542124542
4.042042515000503,0.10476190476190475,0.15794871794871795,0.6342124542124542
4.047694061002403,0.49076923076923074,0.033846153846153845,0.5367032967032966
4.052929906996724,0.49076923076923074,0.033846153846153845,0.5367032967032966
4.055988687003264,0.49076923076923074,0.033846153846153845,0.5367032967032966
4.058325619997049,0.49076923076923074,0.033846153846153845,0.5367032967032966
4.058446060997085,0.49076923076923074,0.033846153846153845,0.5367032967032966
4.067340683999646,0.49076923076923074,0.033846153846153845,0.5367032967032966
4.072023162996629,0.49076923076923074,0.033846153846153845,0.5367032967032966
4.077598074996786,0.49076923076923074,0.033846153846153845,0.5367032967032966
4.0790122440012055,0.49076923076923074,0.033846153846153845,0.5367032967032966
4.087736820001737,0.49076923076923074,0.033846153846153845,0.5367032967032966
4.09489962200314,0.49076923076923074,0.033846153846153845,0.5367032967032966
4.100250623996544,0.49076923076923074,0.033846153846153845,0.5367032967032966
4.1004641920008,0.8493772893772893,0.5616849816849817,0.6898168498168498
4.1069906300035655,0.8493772893772893,0.5616849816849817,0.6898168498168498
4.110447867002222,1.6818315018315015,0.28608058608058606,1.4610256410256408
4.110698580996541,1.6818315018315015,0.28608058608058606,1.4610256410256408
4.117110216997389,1.6818315018315015,0.28608058608058606,1.4610256410256408
4.12098625300132,0.4214652014652014,0.18615384615384614,0.448058608058608
4.1256101289982325,2.46996336996337,0.6334065934065934,1.2490842490842489
4.125761490999139,0.6551648351648351,0.4859340659340659,0.614065934065934
4.134485633003351,0.6551648351648351,0.4859340659340659,0.614065934065934
4.142357065000397,0.6551648351648351,0.4859340659340659,0.614065934065934
4.14997226199921,2.651282051282051,0.469010989010989,1.6858608058608056
4.154115188997821,2.336190476190476,0.6197069597069597,1.5093772893772892
4.157507900003111,2.336190476190476,0.6197069597069597,1.5093772893772892
4.157751015998656,2.336190476190476,0.6197069597069597,1.5093772893772892
4.164116373001889,2.336190476190476,0.6197069597069597,1.5093772893772892
4.168432760001451,2.336190476190476,0.6197069597069597,1.5093772893772892
4.169274576001044,2.336190476190476,0.6197069597069597,1.5093772893772892
4.170919725998829,2.336190476190476,0.6197069597069597,1.5093772893772892
4.175213868002174,2.282197802197802,0.13619047619047617,0.8147252747252747
4.178958917997079,1.5528937728937728,1.0516483516483515,0.946080586080586
4.185205146000953,1.5528937728937728,1.0516483516483515,0.946080586080586
4.188504500001727,1.5528937728937728,1.0516483516483515,0.946080586080586
4.189437531000294,1.5528937728937728,1.0516483516483515,0.946080586080586
4.1911786569980904,1.5528937728937728,1.0516483516483515,0.946080586080586
4.196034900000086,2.323296703296703,0.23853479853479853,0.9057875457875458
4.203457021001668,2.323296703296703,0.23853479853479853,0.9057875457875458
4.207466562002082,2.323296703296703,0.23853479853479853,0.9057875457875458
4.2107823559999815,2.323296703296703,0.23853479853479853,0.9057875457875458
4.212239150998357,2.323296703296703,0.23853479853479853,0.9057875457875458
4.220194346999051,2.323296703296703,0.23853479853479853,0.9057875457875458
4.22500289400341,0.0,0.21355311355311357,0.3884249084249084
4.232254640002793,0.0,0.21355311355311357,0.3884249084249084
4.236887936996936,2.1443956043956045,0.5342857142857143,1.5609523809523809
4.243061095003213,0.010476190476190476,0.03626373626373627,0.4424175824175824
4.2499295539964805,2.6448351648351647,0.618095238095238,1.6915018315018313
4.253090983002039,2.8503296703296703,0.963003663003663,0.776043956043956
4.254688007000368,2.8503296703296703,0.963003663003663,0.776043956043956
4.25896996800293,2.8503296703296703,0.963003663003663,0.776043956043956
4.260643797002558,0.17487179487179486,0.1087912087912088,0.4448351648351648
4.266830815002322,0.17487179487179486,0.1087912087912088,0.4448351648351648
4.270028505001392,2.6488644688644687,0.39809523809523806,1.6568498168498167
4.271694976996514,2.6488644688644687,0.39809523809523806,1.6568498168498167
4.274836858996423,1.7108424908424908,0.0410989010989011,0.6793406593406592
4.277821237999888,1.7108424908424908,0.0410989010989011,0.6793406593406592
4.2830979639984434,1.7108424908424908,0.0410989010989011,0.6793406593406592
4.283398191997549,1.7108424908424908,0.0410989010989011,0.6793406593406592
4.288512024002557,1.7108424908424908,0.0410989010989011,0.6793406593406592
4.291593114001444,2.3506959706959707,0.08622710622710622,2.0154578754578756
4.2944274519977625,2.3506959706959707,0.08622710622710622,2.0154578754578756
4.301042389997747,2.3506959706959707,0.08622710622710622,2.0154578754578756
4.304783359002613,0.1821245421245421,0.12893772893772892,0.4867399267399267
4.30894232999708,0.1821245421245421,0.12893772893772892,0.4867399267399267
4.3128781620034715,0.1821245421245421,0.12893772893772892,0.4867399267399267
4.319257123002899,0.1821245421245421,0.12893772893772892,0.4867399267399267
4.322429610001564,0.1821245421245421,0.12893772893772892,0.4867399267399267
4.324105309002334,0.1821245421245421,0.12893772893772892,0.4867399267399267
4.329067052996834,0.1821245421245421,0.12893772893772892,0.4867399267399267
4.3347525499993935,0.1821245421245421,0.12893772893772892,0.4867399267399267
4.340205875996617,2.9760439560439558,0.10315018315018315,1.157216117216117
4.34268198099744,0.008058608058608058,0.20227106227106226,0.4859340659340659
4.349939578998601,0.008058608058608058,0.20227106227106226,0.4859340659340659
4.353967035996902,0.008058608058608058,0.20227106227106226,0.4859340659340659
4.3573740139981965,0.008058608058608058,0.20227106227106226,0.4859340659340659
4.35764166899753,0.4585347985347985,0.16036630036630037,0.8703296703296703
4.363855035000597,0.4585347985347985,0.16036630036630037,0.8703296703296703
4.369360639997467,3.3,0.5552380952380952,2.141978021978022
4.369618614997307,3.3,0.5552380952380952,2.141978021978022
4.374756274002721,3.3,0.5552380952380952,2.141978021978022
4.379356486002507,3.3,0.5552380952380952,2.141978021978022
4.388019610996707,0.8687179487179487,0.5133333333333333,0.7558974358974359
4.393706135000684,3.3,0.6052014652014651,2.3764835164835163
4.394187010002497,3.3,0.6052014652014651,2.3764835164835163
4.400917833001586,3.3,0.6052014652014651,2.3764835164835163
4.4053935990014,3.3,0.6052014652014651,2.3764835164835163
4.4056230040005175,3.3,0.6052014652014651,2.3764835164835163
4.410524386999896,3.3,0.6052014652014651,2.3764835164835163
4.422023430997797,3.3,0.6052014652014651,2.3764835164835163
4.433238550001988,1.494065934065934,1.1322344322344322,0.630989010989011
4.440553569002077,0.9839560439560439,0.4013186813186813,0.4964102564102564
4.445858040002349,0.5705494505494505,0.2071062271062271,0.5052747252747253
4.447851242999604,2.577142857142857,0.5173626373626373,0.527032967032967
4.449067895002372,2.577142857142857,0.5173626373626373,0.527032967032967
4.4492584920008085,2.577142857142857,0.5173626373626373,0.527032967032967
4.455361692998849,2.5553846153846154,0.39487179487179486,1.805934065934066
4.459001226998225,2.5553846153846154,0.39487179487179486,1.805934065934066
4.4665866709983675,2.5553846153846154,0.39487179487179486,1.805934065934066
4.471888662003039,2.5553846153846154,0.39487179487179486,1.805934065934066
4.475426848999632,2.5553846153846154,0.39487179487179486,1.805934065934066
4.483272598001349,2.5553846153846154,0.39487179487179486,1.805934065934066
4.4874480689977645,0.0,0.07978021978021978,0.45772893772893775
4.490209565999976,0.0,0.07978021978021978,0.45772893772893775
4.495586288998311,0.0,0.07978021978021978,0.45772893772893775
4.4958839070022805,0.0,0.07978021978021978,0.45772893772893775
4.504434399001184,0.0,0.07978021978021978,0.45772893772893775
4.509918365998601,0.0,0.07978021978021978,0.45772893772893775
4.513180383997678,0.0,0.07978021978021978,0.45772893772893775
4.513668148996658,2.1508424908424906,0.5592673992673992,1.2917948717948717
4.51812911000161,2.1508424908424906,0.5592673992673992,1.2917948717948717
4.519740631003515,2.1508424908424906,0.5592673992673992,1.2917948717948717
4.523778962997312,2.1508424908424906,0.5592673992673992,1.2917948717948717
4.526920158998109,3.3,0.2747985347985348,1.3087179487179486
4.529466521002178,2.622271062271062,0.9452747252747251,0.826007326007326
4.53513722599746,2.622271062271062,0.9452747252747251,0.826007326007326
4.5352708470018115,2.622271062271062,0.9452747252747251,0.826007326007326
4.540191993997723,2.622271062271062,0.9452747252747251,0.826007326007326
4.548400888001197,2.622271062271062,0.9452747252747251,0.826007326007326
4.552817834002781,2.622271062271062,0.9452747252747251,0.826007326007326
4.553100352000911,2.622271062271062,0.9452747252747251,0.826007326007326
4.558793718999368,2.622271062271062,0.9452747252747251,0.826007326007326
4.559040817002824,0.43677655677655675,0.1265201465201465,0.3843956043956044
4.566810725002142,1.4594139194139193,0.4867399267399267,1.3473992673992674
4.571945661999052,1.4594139194139193,0.4867399267399267,1.3473992673992674
4.576166551996721,1.4594139194139193,0.4867399267399267,1.3473992673992674
4.576556318002986,2.577948717948718,0.14586080586080585,1.212014652014652
4.5835226549970685,2.577948717948718,0.14586080586080585,1.212014652014652
4.587982873003057,3.3,0.44080586080586076,2.3337728937728937
4.589585907000583,3.3,0.44080586080586076,2.3337728937728937
4.593456763002905,3.3,0.44080586080586076,2.3337728937728937
4.59753494799952,3.3,0.44080586080586076,2.3337728937728937
4.600022940998315,3.3,0.44080586080586076,2.3337728937728937
4.600186484000005,3.3,0.44080586080586076,2.3337728937728937
4.604810247001296,3.3,0.44080586080586076,2.3337728937728937
4.605041117996734,3.3,0.44080586080586076,2.3337728937728937
4.6097185499966145,3.3,0.44080586080586076,2.3337728937728937
4.610041371000989,3.3,0.44080586080586076,2.3337728937728937
4.617080730000453,3.3,0.44080586080586076,2.3337728937728937
4.623428484002943,3.3,0.44080586080586076,2.3337728937728937
4.6293955049986835,3.3,0.2063003663003663,1.7745054945054943
4.633619740998256,2.652087912087912,0.3997069597069597,1.9372893772893773
4.634503995002888,2.652087912087912,0.3997069597069597,1.9372893772893773
4.636226237998926,2.652087912087912,0.3997069597069597,1.9372893772893773
4.639573155996914,2.652087912087912,0.3997069597069597,1.9372893772893773
4.639858424998238,2.652087912087912,0.3997069597069597,1.9372893772893773
4.6477397909984575,2.652087912087912,0.3997069597069597,1.9372893772893773
4.653271814997424,2.652087912087912,0.3997069597069597,1.9372893772893773
4.653549076996569,3.3,0.23369963369963367,2.2314285714285713
4.663115073999506,1.7680586080586078,0.33282051282051284,0.6857875457875457
4.66901921400131,1.7680586080586078,0.33282051282051284,0.6857875457875457
4.678376809002657,1.7680586080586078,0.33282051282051284,0.6857875457875457
4.6849904940027045,1.0838827838827838,0.6382417582417582,0.5205860805860806
4.688918945998012,1.0838827838827838,0.6382417582417582,0.5205860805860806
4.693377149997104,1.0838827838827838,0.6382417582417582,0.5205860805860806
4.69556029800151,3.067912087912088,0.13054945054945052,0.9694505494505494
4.695828709001944,3.067912087912088,0.13054945054945052,0.9694505494505494
4.7017592979973415,3.067912087912088,0.13054945054945052,0.9694505494505494
4.707390066003427,0.03626373626373627,0.08058608058608058,0.7502564102564102
4.7082267759979,0.03626373626373627,0.08058608058608058,0.7502564102564102
4.710061860001588,0.03626373626373627,0.08058608058608058,0.7502564102564102
4.7140185329990345,0.03626373626373627,0.08058608058608058,0.7502564102564102
4.71730321799987,0.03626373626373627,0.08058608058608058,0.7502564102564102
4.717556780997256,0.03626373626373627,0.08058608058608058,0.7502564102564102
4.72294990500086,0.03626373626373627,0.08058608058608058,0.7502564102564102
4.72455004099902,0.03626373626373627,0.08058608058608058,0.7502564102564102
4.7314129899968975,0.03626373626373627,0.08058608058608058,0.7502564102564102
4.73760823700286,2.344249084249084,0.2804395604395604,1.22007326007326
4.743326919997344,2.344249084249084,0.2804395604395604,1.22007326007326
4.752899544000684,2.344249084249084,0.2804395604395604,1.22007326007326
4.7627095700008795,2.344249084249084,0.2804395604395604,1.22007326007326
4.767881539002701,2.344249084249084,0.2804395604395604,1.22007326007326
4.77248483600124,2.4917216117216117,1.2885714285714285,0.8082783882783882
4.778805670997826,2.9067399267399265,0.26673992673992675,1.3925274725274726
4.783378589003405,0.12813186813186814,0.08945054945054945,0.5947252747252747
4.788819000998046,0.12813186813186814,0.08945054945054945,0.5947252747252747
4.7916837930024485,2.6085714285714285,0.23047619047619047,1.1958974358974357
4.798026973003289,2.6085714285714285,0.23047619047619047,1.1958974358974357
4.8025506240010145,2.6085714285714285,0.23047619047619047,1.1958974358974357
4.802732137999556,2.6085714285714285,0.23047619047619047,1.1958974358974357
4.811055562997353,2.6085714285714285,0.23047619047619047,1.1958974358974357
4.81554958900233,2.6085714285714285,0.23047619047619047,1.1958974358974357
4.815891090001969,2.6085714285714285,0.23047619047619047,1.1958974358974357
4.821694712001772,2.6085714285714285,0.23047619047619047,1.1958974358974357
4.821887723002874,2.6085714285714285,0.23047619047619047,1.1958974358974357
4.828473084999132,2.6085714285714285,0.23047619047619047,1.1958974358974357
4.83338450500014,2.6085714285714285,0.23047619047619047,1.1958974358974357
4.836636209998687,2.6085714285714285,0.23047619047619047,1.1958974358974357
4.837530723998498,2.6085714285714285,0.23047619047619047,1.1958974358974357
4.839136957998562,2.6085714285714285,0.23047619047619047,1.1958974358974357
4.8445056330019725,2.6085714285714285,0.23047619047619047,1.1958974358974357
4.846081313000468,2.6085714285714285,0.23047619047619047,1.1958974358974357
4.850635716997203,2.6085714285714285,0.23047619047619047,1.1958974358974357
4.857159134997346,2.107326007326007,0.03465201465201465,0.7486446886446886
4.862589597003534,2.133113553113553,0.14827838827838827,0.3586080586080586
4.862763477001863,2.133113553113553,0.14827838827838827,0.3586080586080586
4.867874639996444,2.133113553113553,0.14827838827838827,0.3586080586080586
4.87254376099736,2.149230769230769,0.6148717948717949,1.4247619047619047
4.872697614999197,2.149230769230769,0.6148717948717949,1.4247619047619047
4.878225195003324,2.149230769230769,0.6148717948717949,1.4247619047619047
4.879555446997983,2.149230769230769,0.6148717948717949,1.4247619047619047
4.886185875002411,2.629523809523809,0.5834432234432234,1.2224908424908425
4.890053114002512,1.8365567765567765,0.6366300366300366,1.4070329670329669
4.895853809997789,1.8365567765567765,0.6366300366300366,1.4070329670329669
4.904611254001793,1.8365567765567765,0.6366300366300366,1.4070329670329669
4.913976240997727,1.8365567765567765,0.6366300366300366,1.4070329670329669
4.919489006999356,1.8365567765567765,0.6366300366300366,1.4070329670329669
4.92031926799973,1.8365567765567765,0.6366300366300366,1.4070329670329669
4.921968171998742,1.8365567765567765,0.6366300366300366,1.4070329670329669
4.9252162690027035,1.8365567765567765,0.6366300366300366,1.4070329670329669
4.927198972000042,1.8365567765567765,0.6366300366300366,1.4070329670329669
4.930490321996331,1.8365567765567765,0.6366300366300366,1.4070329670329669
4.938067862000025,1.8365567765567765,0.6366300366300366,1.4070329670329669
4.94421497300209,1.8365567765567765,0.6366300366300366,1.4070329670329669
4.952954446998774,1.8365567765567765,0.6366300366300366,1.4070329670329669
4.958574395997857,2.281391941391941,0.3658608058608058,0.8799999999999999
4.958804463996785,2.281391941391941,0.3658608058608058,0.8799999999999999
4.968234954998479,2.281391941391941,0.3658608058608058,0.8799999999999999
4.976508605002891,2.8245421245421243,0.9259340659340659,0.6672527472527472
4.982431457996427,2.8245421245421243,0.9259340659340659,0.6672527472527472
4.988940312003251,2.8245421245421243,0.9259340659340659,0.6672527472527472
4.99464746099693,2.8245421245421243,0.9259340659340659,0.6672527472527472
5.003676002997963,2.8245421245421243,0.9259340659340659,0.6672527472527472
5.012350791999779,2.8245421245421243,0.9259340659340659,0.6672527472527472
5.017874286000733,2.46996336996337,0.3038095238095238,1.1709157509157508
5.018072248996759,0.0,0.18615384615384614,0.5608791208791208
5.02344022699981,0.0,0.18615384615384614,0.5608791208791208
5.0250489480022225,0.0,0.18615384615384614,0.5608791208791208
5.029193957001553,0.0,0.18615384615384614,0.5608791208791208
5.031961073000275,0.9557509157509158,0.6825641025641025,1.3151648351648353
5.035901408002246,0.9557509157509158,0.6825641025641025,1.3151648351648353
5.039753609999025,0.9557509157509158,0.6825641025641025,1.3151648351648353
5.043697253000573,0.9557509157509158,0.6825641025641025,1.3151648351648353
5.048821509000845,0.9557509157509158,0.6825641025641025,1.3151648351648353
5.052022158000909,1.9268131868131868,0.6156776556776556,1.4795604395604396
5.05369406400132,1.9268131868131868,0.6156776556776556,1.4795604395604396
5.0580891339996015,1.4658608058608058,0.12571428571428572,0.25465201465201465
5.060033811998437,1.4658608058608058,0.12571428571428572,0.25465201465201465
5.061938537997776,1.4658608058608058,0.12571428571428572,0.25465201465201465
5.06368753699644,1.4658608058608058,0.12571428571428572,0.25465201465201465
5.066284733002249,1.4658608058608058,0.12571428571428572,0.25465201465201465
5.072284959998797,1.4658608058608058,0.12571428571428572,0.25465201465201465
5.078395520999038,2.9647619047619047,0.13699633699633698,0.6745054945054945
5.082249307997699,0.30058608058608055,0.1523076923076923,0.49721611721611714
5.087582255000598,0.30058608058608055,0.1523076923076923,0.49721611721611714
5.090610312996432,0.30058608058608055,0.1523076923076923,0.49721611721611714
5.092961568996543,0.30058608058608055,0.1523076923076923,0.49721611721611714
5.093276227999013,0.30058608058608055,0.1523076923076923,0.49721611721611714
5.101728298002854,0.30058608058608055,0.1523076923076923,0.49721611721611714
5.1055988680018345,0.30058608058608055,0.1523076923076923,0.49721611721611714
5.112423099002626,3.3,0.13538461538461538,0.9017582417582416
5.116376274003414,2.597289377289377,0.3102564102564102,1.2676190476190476
5.119667763996404,2.597289377289377,0.3102564102564102,1.2676190476190476
5.120011649996741,0.0008058608058608059,0.05963369963369963,0.4698168498168498
5.125481700000819,0.0008058608058608059,0.05963369963369963,0.4698168498168498
5.126445654001145,0.0008058608058608059,0.05963369963369963,0.4698168498168498
5.129097910998098,0.0008058608058608059,0.05963369963369963,0.4698168498168498
5.133334272999491,1.9767765567765565,0.5987545787545787,1.444102564102564
5.1350047739979345,1.9767765567765565,0.5987545787545787,1.444102564102564
5.138907710999774,1.9767765567765565,0.5987545787545787,1.444102564102564
5.142672094996669,1.9767765567765565,0.5987545787545787,1.444102564102564
5.150957970996387,1.9767765567765565,0.5987545787545787,1.444102564102564
5.156572922998748,1.9767765567765565,0.5987545787545787,1.444102564102564
5.1574414700007765,1.9767765567765565,0.5987545787545787,1.444102564102564
5.159105464997992,1.9767765567765565,0.5987545787545787,1.444102564102564
5.162235579002299,1.9767765567765565,0.5987545787545787,1.444102564102564
5.164451680997445,1.9767765567765565,0.5987545787545787,1.444102564102564
5.164741592001519,1.9767765567765565,0.5987545787545787,1.444102564102564
5.169629087999056,0.311062271062271,0.4045421245421245,0.8735531135531135
5.1752324089975446,0.311062271062271,0.4045421245421245,0.8735531135531135
5.17697362099716,0.311062271062271,0.4045421245421245,0.8735531135531135
5.180221752001671,0.311062271062271,0.4045421245421245,0.8735531135531135
5.181819734003511,0.311062271062271,0.4045421245421245,0.8735531135531135
5.185847068998555,0.311062271062271,0.4045421245421245,0.8735531135531135
5.190021315997001,0.311062271062271,0.4045421245421245,0.8735531135531135
5.193115237001621,0.311062271062271,0.4045421245421245,0.8735531135531135
5.195437264002976,0.311062271062271,0.4045421245421245,0.8735531135531135
5.195688405998226,0.311062271062271,0.4045421245421245,0.8735531135531135
5.201501987001393,0.311062271062271,0.4045421245421245,0.8735531135531135
5.2062212099990575,0.26996336996336995,0.0547985347985348,0.7115750915750916
5.206457425003464,0.26996336996336995,0.0547985347985348,0.7115750915750916
5.211300809001841,0.26996336996336995,0.0547985347985348,0.7115750915750916
5.217117337997479,1.8075457875457877,0.27641025641025635,1.137069597069597
5.222768343002826,1.8075457875457877,0.27641025641025635,1.137069597069597
5.2230826020022505,0.21597069597069596,0.29736263736263735,0.473040293040293
5.228531777000171,0.21597069597069596,0.29736263736263735,0.473040293040293
5.229631806003454,0.8284249084249083,0.8074725274725274,1.3143589743589743
5.2299313219991745,0.8284249084249083,0.8074725274725274,1.3143589743589743
5.235473296001146,0.8284249084249083,0.8074725274725274,1.3143589743589743
5.235711221001111,0.8284249084249083,0.8074725274725274,1.3143589743589743
5.240347498998744,0.8284249084249083,0.8074725274725274,1.3143589743589743
5.240575497002283,0.8284249084249083,0.8074725274725274,1.3143589743589743
5.24516277800285,0.8284249084249083,0.8074725274725274,1.3143589743589743
5.246058331002132,0.8284249084249083,0.8074725274725274,1.3143589743589743
5.2470260330010206,0.8284249084249083,0.8074725274725274,1.3143589743589743
5.24863270700007,0.8284249084249083,0.8074725274725274,1.3143589743589743
5.252889099996537,2.273333333333333,0.5705494505494505,1.5504761904761903
5.2545760619977955,2.5545787545787544,0.1926007326007326,0.8324542124542124
5.258934103003412,2.5545787545787544,0.1926007326007326,0.8324542124542124
5.260563739000645,0.0,0.029816849816849816,0.4964102564102564
5.264476033000392,0.0,0.029816849816849816,0.4964102564102564
5.267694554997433,0.0,0.029816849816849816,0.4964102564102564
5.269371262998902,0.0,0.029816849816849816,0.4964102564102564
5.273265700001502,0.0,0.029816849816849816,0.4964102564102564
5.277933564997511,0.0,0.029816849816849816,0.4964102564102564
5.278063817997463,0.0,0.029816849816849816,0.4964102564102564
5.283630840996921,0.0,0.029816849816849816,0.4964102564102564
5.2839096399984555,0.0,0.029816849816849816,0.4964102564102564
5.289389543002471,2.4828571428571427,0.809084249084249,0.6519413919413919
5.290982765000081,2.4828571428571427,0.809084249084249,0.6519413919413919
5.295607179999934,2.4828571428571427,0.809084249084249,0.6519413919413919
5.295838348996767,2.4828571428571427,0.809084249084249,0.6519413919413919
5.300599369998963,2.4828571428571427,0.809084249084249,0.6519413919413919
5.306448406998243,2.4828571428571427,0.809084249084249,0.6519413919413919
5.306727226001385,0.6535531135531135,0.763956043956044,1.1072527472527471
5.314628303996869,0.6535531135531135,0.763956043956044,1.1072527472527471
5.318647608997708,2.721391941391941,0.3505494505494505,1.3296703296703296
5.322725461999653,2.721391941391941,0.3505494505494505,1.3296703296703296
5.325105393996637,2.721391941391941,0.3505494505494505,1.3296703296703296
5.32530933200178,2.721391941391941,0.3505494505494505,1.3296703296703296
5.329956355999457,2.721391941391941,0.3505494505494505,1.3296703296703296
5.33020747199771,2.721391941391941,0.3505494505494505,1.3296703296703296
5.334962777997134,2.721391941391941,0.3505494505494505,1.3296703296703296
5.340682654001284,3.0356776556776555,0.3231501831501831,0.6132600732600733
5.340903714997694,0.21274725274725276,0.05882783882783882,0.47062271062271055
5.346738640997501,0.21274725274725276,0.05882783882783882,0.47062271062271055
5.352370079002867,0.21274725274725276,0.05882783882783882,0.47062271062271055
5.353244719997747,3.084029304029304,0.25868131868131866,0.9944322344322343
5.354868244001409,3.084029304029304,0.25868131868131866,0.9944322344322343
5.358704742997361,3.084029304029304,0.25868131868131866,0.9944322344322343
5.362715800998558,3.084029304029304,0.25868131868131866,0.9944322344322343
5.366805732002831,3.3,0.13216117216117215,0.7768498168498168
5.370140172002721,3.3,0.13216117216117215,0.7768498168498168
5.371026872002403,3.3,0.13216117216117215,0.7768498168498168
5.37358538099943,3.3,0.13216117216117215,0.7768498168498168
5.379452957000467,1.1475457875457875,0.4593406593406593,0.415018315018315
5.38016523099941,1.6689377289377287,1.2337728937728938,0.6293772893772893
5.382493443998101,1.6689377289377287,1.2337728937728938,0.6293772893772893
5.382683404997806,1.6689377289377287,1.2337728937728938,0.6293772893772893
5.393122465000488,1.6689377289377287,1.2337728937728938,0.6293772893772893
5.403161397996882,2.036410256410256,0.4891575091575091,0.25384615384615383
5.408643126000243,3.3,0.8896703296703296,1.706007326007326
5.411170694998873,1.9775824175824175,0.9307692307692307,0.8856410256410255
5.418829150999954,1.9775824175824175,0.9307692307692307,0.8856410256410255
5.425031430000672,1.9775824175824175,0.9307692307692307,0.8856410256410255
5.432580371998483,3.3,0.21274725274725276,1.1757509157509156
5.43823190999683,3.3,0.21274725274725276,1.1757509157509156
5.445871850002732,3.3,0.21274725274725276,1.1757509157509156
5.450765936002426,3.3,0.21274725274725276,1.1757509157509156
5.454818979997071,3.3,0.21274725274725276,1.1757509157509156
5.457846247001726,3.3,0.21274725274725276,1.1757509157509156
5.461190740999882,0.39890109890109887,0.06285714285714286,0.43999999999999995
5.461540892996709,0.39890109890109887,0.06285714285714286,0.43999999999999995
5.4694284689976485,0.39890109890109887,0.06285714285714286,0.43999999999999995
5.475026505002461,1.8091575091575092,0.8235897435897436,1.4964835164835164
5.47524199399777,1.8091575091575092,0.8235897435897436,1.4964835164835164
5.48346288799803,1.8091575091575092,0.8235897435897436,1.4964835164835164
5.490268096000364,1.8091575091575092,0.8235897435897436,1.4964835164835164
5.497962761997769,1.8091575091575092,0.8235897435897436,1.4964835164835164
5.502507919998607,3.3,0.38036630036630037,0.7397802197802198
5.502737902999797,3.3,0.38036630036630037,0.7397802197802198
5.508486067999911,3.3,0.38036630036630037,0.7397802197802198
5.508714793002582,3.3,0.38036630036630037,0.7397802197802198
5.5190316130028805,3.3,0.38036630036630037,0.7397802197802198
5.525010418998136,2.0573626373626372,0.697069597069597,1.075018315018315
5.533951386001718,2.0573626373626372,0.697069597069597,1.075018315018315
5.539933947002282,2.771355311355311,0.7373626373626374,1.5730402930402931
5.544371559997671,0.03223443223443223,0.08058608058608058,0.5165567765567766
5.544692680996377,0.03223443223443223,0.08058608058608058,0.5165567765567766
5.552221003999875,0.03223443223443223,0.08058608058608058,0.5165567765567766
5.557687610002176,0.7381684981684982,0.585054945054945,1.2216849816849817
5.560641329000646,2.2064468864468862,0.11282051282051282,0.21677655677655677
5.564160989000811,2.2064468864468862,0.11282051282051282,0.21677655677655677
5.569808728003409,2.2064468864468862,0.11282051282051282,0.21677655677655677
5.57008657699771,2.2064468864468862,0.11282051282051282,0.21677655677655677
5.575752270997327,2.2064468864468862,0.11282051282051282,0.21677655677655677
5.575923580996459,2.2064468864468862,0.11282051282051282,0.21677655677655677
5.583696476001933,2.2064468864468862,0.11282051282051282,0.21677655677655677
5.588538450996566,2.609377289377289,0.8614652014652014,0.6777289377289377
5.594963673996972,3.0227838827838824,0.772014652014652,1.6858608058608056
5.600998196001456,3.1259340659340658,0.448058608058608,0.8945054945054944
5.604308342997683,3.1259340659340658,0.448058608058608,0.8945054945054944
5.604652898000495,3.1259340659340658,0.448058608058608,0.8945054945054944
5.6092430839999,3.1259340659340658,0.448058608058608,0.8945054945054944
5.609469486000307,3.1259340659340658,0.448058608058608,0.8945054945054944
5.617177216998243,3.1259340659340658,0.448058608058608,0.8945054945054944
5.6218068879970815,3.1259340659340658,0.448058608058608,0.8945054945054944
5.622075744002359,3.1259340659340658,0.448058608058608,0.8945054945054944
5.626974159997189,3.1259340659340658,0.448058608058608,0.8945054945054944
5.634355978996609,3.1259340659340658,0.448058608058608,0.8945054945054944
5.638973941000586,3.1259340659340658,0.448058608058608,0.8945054945054944
5.639261951997469,0.08622710622710622,0.12893772893772892,0.6197069597069597
5.644519373003277,0.08622710622710622,0.12893772893772892,0.6197069597069597
5.649534600001061,0.08622710622710622,0.12893772893772892,0.6197069597069597
5.651113888998225,0.08622710622710622,0.12893772893772892,0.6197069597069597
5.655762524998863,0.08622710622710622,0.12893772893772892,0.6197069597069597
5.6560298670010525,0.08622710622710622,0.12893772893772892,0.6197069597069597
5.66377459600335,0.08622710622710622,0.12893772893772892,0.6197069597069597
5.6677314690023195,0.08622710622710622,0.12893772893772892,0.6197069597069597
5.671351634999155,2.6923809523809523,0.6769230769230768,1.3353113553113554
5.679012895998312,2.6923809523809523,0.6769230769230768,1.3353113553113554
5.685173951002071,2.6923809523809523,0.6769230769230768,1.3353113553113554
5.689037137999549,2.6923809523809523,0.6769230769230768,1.3353113553113554
5.6953932420001365,2.6923809523809523,0.6769230769230768,1.3353113553113554
5.701140224002302,2.6923809523809523,0.6769230769230768,1.3353113553113554
5.708266747999005,2.6923809523809523,0.6769230769230768,1.3353113553113554
5.717617540998617,2.6923809523809523,0.6769230769230768,1.3353113553113554
5.72364536600071,2.6923809523809523,0.6769230769230768,1.3353113553113554
5.730423121000058,2.6923809523809523,0.6769230769230768,1.3353113553113554
5.737584581998817,2.6923809523809523,0.6769230769230768,1.3353113553113554
5.742140262002067,2.6923809523809523,0.6769230769230768,1.3353113553113554
5.742268141002569,2.6923809523809523,0.6769230769230768,1.3353113553113554
5.751021483003569,2.6923809523809523,0.6769230769230768,1.3353113553113554
5.756033641002432,2.6923809523809523,0.6769230769230768,1.3353113553113554
5.7593057620033505,2.6923809523809523,0.6769230769230768,1.3353113553113554
5.761134581996885,2.6923809523809523,0.6769230769230768,1.3353113553113554
5.7648875290033175,2.6923809523809523,0.6769230769230768,1.3353113553113554
5.769493740001053,2.6923809523809523,0.6769230769230768,1.3353113553113554
5.775140908997855,3.137216117216117,0.49157509157509155,1.4569963369963368
5.776166199000727,1.7736996336996336,1.3127472527472526,0.5906959706959707
5.776512220996665,1.7736996336996336,1.3127472527472526,0.5906959706959707
5.785984686001029,1.7736996336996336,1.3127472527472526,0.5906959706959707
5.793466488998092,1.4304029304029304,0.6624175824175824,1.1967032967032967
5.800195828996948,3.253260073260073,0.3142857142857142,0.9912087912087911
5.804268824002065,3.253260073260073,0.3142857142857142,0.9912087912087911
5.807343649998074,2.6327472527472526,0.5310622710622711,0.48754578754578753
5.810977364002611,2.6327472527472526,0.5310622710622711,0.48754578754578753
5.8184123579994775,2.864029304029304,0.3747252747252747,0.9533333333333331
5.823637469999085,2.864029304029304,0.3747252747252747,0.9533333333333331
5.826960635000432,2.648058608058608,0.747032967032967,1.9292307692307693
5.8276712439983385,2.648058608058608,0.747032967032967,1.9292307692307693
5.830890609002381,2.648058608058608,0.747032967032967,1.9292307692307693
5.8312252210016595,2.648058608058608,0.747032967032967,1.9292307692307693
5.836531194996496,2.648058608058608,0.747032967032967,1.9292307692307693
5.838229661996593,0.34813186813186814,0.21677655677655677,0.4553113553113553
5.8420482099973015,0.34813186813186814,0.21677655677655677,0.4553113553113553
5.849597369997355,0.34813186813186814,0.21677655677655677,0.4553113553113553
5.85382863599807,2.3378021978021977,0.7276923076923076,1.4763369963369963
5.855504455998016,2.3378021978021977,0.7276923076923076,1.4763369963369963
5.860748551996949,1.4852014652014651,1.0371428571428571,0.6511355311355311
5.863346985002863,1.4852014652014651,1.0371428571428571,0.6511355311355311
5.869597333003185,2.984102564102564,0.11846153846153845,0.22725274725274724
5.8735320280029555,3.2677655677655677,0.1772893772893773,1.3224175824175823
5.87842899899988,3.2677655677655677,0.1772893772893773,1.3224175824175823
5.884551499002555,3.2677655677655677,0.1772893772893773,1.3224175824175823
5.888814480000292,3.3,0.3505494505494505,1.0782417582417583
5.8907644569990225,3.3,0.3505494505494505,1.0782417582417583
5.892486153999926,3.3,0.3505494505494505,1.0782417582417583
5.899160617002053,3.3,0.3505494505494505,1.0782417582417583
5.903230301002623,3.3,0.3505494505494505,1.0782417582417583
5.906262484997569,3.3,0.3505494505494505,1.0782417582417583
5.908513577000122,3.3,0.3505494505494505,1.0782417582417583
5.9087916310018045,3.3,0.3505494505494505,1.0782417582417583
5.918443148002552,3.3,0.3505494505494505,1.0782417582417583
5.923876230997848,3.3,0.3505494505494505,1.0782417582417583
5.9255732180026826,3.3,0.3505494505494505,1.0782417582417583
5.933207499998389,3.3,0.3505494505494505,1.0782417582417583
5.939927430001262,3.3,0.3505494505494505,1.0782417582417583
5.946444868997787,3.3,0.3505494505494505,1.0782417582417583
5.95057620100124,3.3,0.3505494505494505,1.0782417582417583
5.95227887800138,3.3,0.3505494505494505,1.0782417582417583
5.955561053000565,3.3,0.3505494505494505,1.0782417582417583
5.9564508170005865,3.3,0.3505494505494505,1.0782417582417583
5.958159109002736,3.3,0.3505494505494505,1.0782417582417583
5.963700699998299,3.3,0.3505494505494505,1.0782417582417583
5.96410179999657,3.3,0.3505494505494505,1.0782417582417583
5.970947469999373,3.3,0.3505494505494505,1.0782417582417583
5.975642568002513,3.3,0.3505494505494505,1.0782417582417583
5.9882561179983895,0.13216117216117215,0.14424908424908423,0.43999999999999995
5.999254768998071,1.0371428571428571,0.16842490842490843,0.5971428571428571
6.007565924999653,1.0371428571428571,0.16842490842490843,0.5971428571428571
6.016104167996673,1.0371428571428571,0.16842490842490843,0.5971428571428571
6.02259627100284,1.0371428571428571,0.16842490842490843,0.5971428571428571
6.025765667000087,1.0371428571428571,0.16842490842490843,0.5971428571428571
6.029741375998128,2.5441025641025643,1.1161172161172161,0.925128205128205
6.032452961000672,2.374871794871795,0.3142857142857142,0.8485714285714284
6.038943484003539,2.374871794871795,0.3142857142857142,0.8485714285714284
6.045351708999078,0.0,0.09347985347985348,0.3457142857142857
