time,emg1,emg2,emg3
0.013392868997470941,1.2917948717948717,0.4254945054945055,1.975164835164835
0.03792725999664981,0.27399267399267396,0.3690842490842491,0.1265201465201465
0.050740389997372404,0.27399267399267396,0.3690842490842491,0.1265201465201465
0.05805052399955457,1.1024175824175824,0.5624908424908425,1.892161172161172
0.0629267769982107,1.1024175824175824,0.5624908424908425,1.892161172161172
0.06758285599789815,1.1024175824175824,0.5624908424908425,1.892161172161172
0.0678221999987727,1.1024175824175824,0.5624908424908425,1.892161172161172
0.07336046300042653,1.1024175824175824,0.5624908424908425,1.892161172161172
0.07440840799972648,1.1024175824175824,0.5624908424908425,1.892161172161172
0.07540575799794169,1.1024175824175824,0.5624908424908425,1.892161172161172
0.07643998099956661,1.1024175824175824,0.5624908424908425,1.892161172161172
0.07676903499668697,1.1024175824175824,0.5624908424908425,1.892161172161172
0.08228607699857093,1.1024175824175824,0.5624908424908425,1.892161172161172
0.08258000500063645,1.1024175824175824,0.5624908424908425,1.892161172161172
0.08801937799580628,1.1024175824175824,0.5624908424908425,1.892161172161172
0.08903631499561016,1.8865201465201462,1.2998534798534798,0.8896703296703296
0.09003864099940984,1.8865201465201462,1.2998534798534798,0.8896703296703296
0.09115200000087498,1.8865201465201462,1.2998534798534798,0.8896703296703296
0.09146246800082736,1.8865201465201462,1.2998534798534798,0.8896703296703296
0.09738426699914271,1.8865201465201462,1.2998534798534798,0.8896703296703296
0.1023795329965651,1.6068864468864468,1.2547252747252746,0.6559706959706959
0.10660823799844366,1.6068864468864468,1.2547252747252746,0.6559706959706959
0.1085068069951376,1.714065934065934,0.8227838827838827,2.6456410256410257
0.11095170499902451,1.714065934065934,0.8227838827838827,2.6456410256410257
0.11664100499911001,1.714065934065934,0.8227838827838827,2.6456410256410257
0.11690305299998727,1.714065934065934,0.8227838827838827,2.6456410256410257
0.122107634000713,1.714065934065934,0.8227838827838827,2.6456410256410257
0.12534877999860328,1.714065934065934,0.8227838827838827,2.6456410256410257
0.12623606700071832,1.714065934065934,0.8227838827838827,2.6456410256410257
0.12723506899783388,1.714065934065934,0.8227838827838827,2.6456410256410257
0.12817819499468897,1.714065934065934,0.8227838827838827,2.6456410256410257
0.1299901679958566,1.714065934065934,0.8227838827838827,2.6456410256410257
0.1324650499955169,1.714065934065934,0.8227838827838827,2.6456410256410257
0.13840974399499828,1.714065934065934,0.8227838827838827,2.6456410256410257
0.1442155209952034,0.12732600732600732,0.1942124542124542,1.1153113553113554
0.14447215799737023,0.28124542124542123,0.4545054945054945,0.2095238095238095
0.1516466839966597,0.28124542124542123,0.4545054945054945,0.2095238095238095
0.15556775000004563,0.28124542124542123,0.4545054945054945,0.2095238095238095
0.1594656879969989,0.28124542124542123,0.4545054945054945,0.2095238095238095
0.16339701299875742,0.28124542124542123,0.4545054945054945,0.2095238095238095
0.16800731900002575,0.28124542124542123,0.4545054945054945,0.2095238095238095
0.16830043299705721,0.6833699633699634,0.7252747252747253,2.287032967032967
0.1737542639966705,0.6833699633699634,0.7252747252747253,2.287032967032967
0.1753219120000722,0.6833699633699634,0.7252747252747253,2.287032967032967
0.17932448999636108,0.6833699633699634,0.7252747252747253,2.287032967032967
0.18423703699954785,2.602124542124542,1.6439560439560439,0.7494505494505495
0.1888806709976052,2.602124542124542,1.6439560439560439,0.7494505494505495
0.1891256439994322,2.602124542124542,1.6439560439560439,0.7494505494505495
0.19393527200008975,2.602124542124542,1.6439560439560439,0.7494505494505495
0.19989007299591321,2.602124542124542,1.6439560439560439,0.7494505494505495
0.20405693399516167,2.602124542124542,1.6439560439560439,0.7494505494505495
0.20737558099790476,2.602124542124542,1.6439560439560439,0.7494505494505495
0.20826949299953412,2.602124542124542,1.6439560439560439,0.7494505494505495
0.21034552099445136,2.602124542124542,1.6439560439560439,0.7494505494505495
0.21149270499881823,2.602124542124542,1.6439560439560439,0.7494505494505495
0.211840279000171,2.602124542124542,1.6439560439560439,0.7494505494505495
0.21698222199484007,2.602124542124542,1.6439560439560439,0.7494505494505495
0.22104368299915222,0.26996336996336995,0.14747252747252745,1.1515750915750915
0.2226471030007815,0.20065934065934066,0.3892307692307692,0.311062271062271
0.23091618999751518,0.20065934065934066,0.3892307692307692,0.311062271062271
0.23600448199431412,0.20065934065934066,0.3892307692307692,0.311062271062271
0.24029876200074796,0.20065934065934066,0.3892307692307692,0.311062271062271
0.24061507999431342,0.20065934065934066,0.3892307692307692,0.311062271062271
0.2502720650008996,0.1095970695970696,0.28527472527472525,0.17326007326007326
0.25564729100005934,0.1095970695970696,0.28527472527472525,0.17326007326007326
0.2569298219968914,0.896117216117216,0.3658608058608058,1.9372893772893773
0.2642940999940038,0.896117216117216,0.3658608058608058,1.9372893772893773
0.26928695899550803,0.896117216117216,0.3658608058608058,1.9372893772893773
0.27344873800029745,1.6399267399267399,0.8034432234432234,1.3143589743589743
0.27513424799690256,1.6399267399267399,0.8034432234432234,1.3143589743589743
0.2799288219976006,1.6399267399267399,0.8034432234432234,1.3143589743589743
0.2858680200006347,0.24739926739926738,0.4561172161172161,0.10717948717948718
0.28993507599807344,0.24739926739926738,0.4561172161172161,0.10717948717948718
0.2931693459977396,0.24739926739926738,0.4561172161172161,0.10717948717948718
0.2964927020002506,0.24739926739926738,0.4561172161172161,0.10717948717948718
0.29669378499966115,0.24739926739926738,0.4561172161172161,0.10717948717948718
0.30279260499810334,0.24739926739926738,0.4561172161172161,0.10717948717948718
0.3062902599995141,0.24739926739926738,0.4561172161172161,0.10717948717948718
0.30658051499631256,0.24739926739926738,0.4561172161172161,0.10717948717948718
0.31229102699580835,0.24739926739926738,0.4561172161172161,0.10717948717948718
0.3125631869988865,0.24739926739926738,0.4561172161172161,0.10717948717948718
0.3188077259983402,0.684981684981685,0.29816849816849816,1.8019047619047617
0.3221855809970293,0.684981684981685,0.29816849816849816,1.8019047619047617
0.3238895779941231,0.684981684981685,0.29816849816849816,1.8019047619047617
0.3273270209974726,0.0,0.12249084249084248,0.3529670329670329
0.3275963819978642,0.0,0.12249084249084248,0.3529670329670329
0.3353539669988095,0.0,0.12249084249084248,0.3529670329670329
0.3404738719982561,0.0,0.12249084249084248,0.3529670329670329
0.3450357859983342,0.0,0.12249084249084248,0.3529670329670329
0.34515685500082327,0.0,0.2071062271062271,0.3972893772893773
0.35127654999814695,0.0,0.2071062271062271,0.3972893772893773
0.3554999650004902,0.0,0.2071062271062271,0.3972893772893773
0.3571585239988053,0.0,0.2071062271062271,0.3972893772893773
0.36192845199548174,0.0,0.2071062271062271,0.3972893772893773
0.3679647940007271,0.0,0.2071062271062271,0.3972893772893773
0.37132127399672754,0.0,0.2071062271062271,0.3972893772893773
0.37222028199903434,0.0,0.2071062271062271,0.3972893772893773
0.3738733489954029,0.0,0.2071062271062271,0.3972893772893773
0.37848700199538143,0.0,0.2071062271062271,0.3972893772893773
0.3856068659952143,1.8736263736263734,1.3852747252747253,0.6914285714285714
0.38970480900024995,1.8736263736263734,1.3852747252747253,0.6914285714285714
0.39228386099421186,1.8736263736263734,1.3852747252747253,0.6914285714285714
0.3996049179986585,0.9082051282051282,0.4424175824175824,1.4819780219780219
0.4038731819964596,0.9082051282051282,0.4424175824175824,1.4819780219780219
0.4056107539945515,0.9082051282051282,0.4424175824175824,1.4819780219780219
0.4097145839987206,0.9082051282051282,0.4424175824175824,1.4819780219780219
0.41518182999425335,0.9082051282051282,0.4424175824175824,1.4819780219780219
0.4154017789987847,0.9082051282051282,0.4424175824175824,1.4819780219780219
0.4205874949984718,0.9082051282051282,0.4424175824175824,1.4819780219780219
0.42339973699563416,0.9082051282051282,0.4424175824175824,1.4819780219780219
0.4266558589952183,0.9082051282051282,0.4424175824175824,1.4819780219780219
0.42873819999658735,0.9082051282051282,0.4424175824175824,1.4819780219780219
0.429137171995535,0.9082051282051282,0.4424175824175824,1.4819780219780219
0.4343249339945032,0.9082051282051282,0.4424175824175824,1.4819780219780219
0.4376536869967822,0.9082051282051282,0.4424175824175824,1.4819780219780219
0.4379412579946802,1.0967765567765566,0.8888644688644688,0.4472527472527472
0.4429037959998823,1.0967765567765566,0.8888644688644688,0.4472527472527472
0.45049540999752935,1.0967765567765566,0.8888644688644688,0.4472527472527472
0.4548848379999981,1.0967765567765566,0.8888644688644688,0.4472527472527472
0.45578980699792737,1.0967765567765566,0.8888644688644688,0.4472527472527472
0.45752665100008016,1.0967765567765566,0.8888644688644688,0.4472527472527472
0.4603546250000363,1.0967765567765566,0.8888644688644688,0.4472527472527472
0.4667644449946238,1.0967765567765566,0.8888644688644688,0.4472527472527472
0.47020595299545676,0.3594139194139194,0.5826373626373627,1.56014652014652
0.47042211599909933,1.569010989010989,0.9194871794871795,0.7244688644688644
0.4753328070000862,1.569010989010989,0.9194871794871795,0.7244688644688644
0.4829635089990916,0.17164835164835165,0.24256410256410255,0.7325274725274724
0.4872208189990488,0.5552380952380952,0.6084249084249085,0.06608058608058608
0.48898295300023165,0.5552380952380952,0.6084249084249085,0.06608058608058608
0.49228382099681767,0.5552380952380952,0.6084249084249085,0.06608058608058608
0.4932322589957039,0.5552380952380952,0.6084249084249085,0.06608058608058608
0.49454903500009095,0.5552380952380952,0.6084249084249085,0.06608058608058608
0.49471566699503455,0.5552380952380952,0.6084249084249085,0.06608058608058608
0.5009778879975784,0.5552380952380952,0.6084249084249085,0.06608058608058608
0.5052362229980645,0.38036630036630037,0.4424175824175824,0.11604395604395604
0.5068787729978794,0.38036630036630037,0.4424175824175824,0.11604395604395604
0.5126906639998197,0.38036630036630037,0.4424175824175824,0.11604395604395604
0.520487919995503,1.4852014652014651,0.8687179487179487,0.9082051282051282
0.5263121609968948,0.21999999999999997,0.14263736263736262,1.1636630036630036
0.5265829759955523,0.21999999999999997,0.14263736263736262,1.1636630036630036
0.535670122000738,0.23369963369963367,0.49882783882783877,1.4932600732600732
0.5408049299949198,1.025054945054945,0.3964835164835165,1.6729670329670328
0.5466232119943015,1.025054945054945,0.3964835164835165,1.6729670329670328
0.551634543997352,1.025054945054945,0.3964835164835165,1.6729670329670328
0.5567883509938838,1.025054945054945,0.3964835164835165,1.6729670329670328
0.5592650149992551,1.025054945054945,0.3964835164835165,1.6729670329670328
0.5594568859960418,1.025054945054945,0.3964835164835165,1.6729670329670328
0.5660437849946902,1.025054945054945,0.3964835164835165,1.6729670329670328
0.5696874549976201,0.16197802197802197,0.24578754578754577,0.25868131868131866
0.5755201689971727,0.16197802197802197,0.24578754578754577,0.25868131868131866
0.5756786049969378,0.16197802197802197,0.24578754578754577,0.25868131868131866
0.5842547020001803,0.16197802197802197,0.24578754578754577,0.25868131868131866
0.5892873609991511,0.16197802197802197,0.24578754578754577,0.25868131868131866
0.5949753399982001,0.16197802197802197,0.24578754578754577,0.25868131868131866
0.5952145740011474,0.16197802197802197,0.24578754578754577,0.25868131868131866
0.6018557110000984,0.16197802197802197,0.24578754578754577,0.25868131868131866
0.6060756689985283,0.16197802197802197,0.24578754578754577,0.25868131868131866
0.6086001879957621,0.8284249084249083,0.6656410256410257,2.3168498168498166
0.6150281359950895,0.8284249084249083,0.6656410256410257,2.3168498168498166
0.6184348399983719,0.8284249084249083,0.6656410256410257,2.3168498168498166
0.618662287000916,0.8284249084249083,0.6656410256410257,2.3168498168498166
0.6245553689950611,0.8284249084249083,0.6656410256410257,2.3168498168498166
0.6338938240005518,0.8284249084249083,0.6656410256410257,2.3168498168498166
0.6381533359963214,0.8284249084249083,0.6656410256410257,2.3168498168498166
0.6406158760000835,0.8284249084249083,0.6656410256410257,2.3168498168498166
0.6407832689947099,0.8284249084249083,0.6656410256410257,2.3168498168498166
0.6466190539940726,0.8284249084249083,0.6656410256410257,2.3168498168498166
0.6590506749998895,0.3553846153846154,0.5012454212454212,1.5657875457875456
0.6707991079965723,1.3143589743589743,0.7244688644688644,1.3127472527472526
0.6784308099959162,0.4222710622710622,0.5141391941391941,0.90014652014652
0.6840080309993937,0.3465201465201465,0.1692307692307692,1.054065934065934
0.684274920997268,0.3465201465201465,0.1692307692307692,1.054065934065934
0.689175665997027,0.3465201465201465,0.1692307692307692,1.054065934065934
0.68928797999979,2.8003663003663,1.8413919413919413,0.6253479853479853
0.6953756759976386,1.1733333333333333,0.8598534798534798,0.9194871794871795
0.6999251550005283,0.25142857142857145,0.1241025641025641,1.0935531135531134
0.7060919449941139,1.4255677655677657,0.9694505494505494,0.5294505494505495
0.7115140379974036,0.11926739926739927,0.2909157509157509,0.7164102564102564
0.7131369769995217,0.11926739926739927,0.2909157509157509,0.7164102564102564
0.7170926639955724,0.11926739926739927,0.2909157509157509,0.7164102564102564
0.7212168259939062,0.11926739926739927,0.2909157509157509,0.7164102564102564
0.723727083997801,0.5117216117216117,0.5471794871794872,0.04593406593406593
0.7238240229999064,0.5117216117216117,0.5471794871794872,0.04593406593406593
0.7301095180009725,0.5117216117216117,0.5471794871794872,0.04593406593406593
0.7364906980001251,0.5117216117216117,0.5471794871794872,0.04593406593406593
0.7412238429969875,1.1402930402930402,0.42468864468864465,2.029157509157509
0.7483182129944908,1.1402930402930402,0.42468864468864465,2.029157509157509
0.7517901089959196,1.1402930402930402,0.42468864468864465,2.029157509157509
0.7520229359943187,1.1402930402930402,0.42468864468864465,2.029157509157509
0.7570836739978404,1.1402930402930402,0.42468864468864465,2.029157509157509
0.7639615059961216,1.1402930402930402,0.42468864468864465,2.029157509157509
0.768163149994507,1.1402930402930402,0.42468864468864465,2.029157509157509
0.7700214500000584,1.1402930402930402,0.42468864468864465,2.029157509157509
0.7717928939964622,1.1402930402930402,0.42468864468864465,2.029157509157509
0.7758507929975167,1.1402930402930402,0.42468864468864465,2.029157509157509
0.7799414129985962,1.1402930402930402,0.42468864468864465,2.029157509157509
0.7821576299975277,1.1402930402930402,0.42468864468864465,2.029157509157509
0.782334263996745,1.1402930402930402,0.42468864468864465,2.029157509157509
0.7874491029942874,1.1402930402930402,0.42468864468864465,2.029157509157509
0.7915962919942103,1.4271794871794872,0.8098901098901098,1.6890842490842488
0.7943409469953622,1.4271794871794872,0.8098901098901098,1.6890842490842488
0.8021552889986197,1.4271794871794872,0.8098901098901098,1.6890842490842488
0.806352480998612,0.011282051282051281,0.22564102564102564,0.2111355311355311
0.8088240139986738,0.011282051282051281,0.22564102564102564,0.2111355311355311
0.8172331690002466,0.011282051282051281,0.22564102564102564,0.2111355311355311
0.8222328449992347,0.011282051282051281,0.22564102564102564,0.2111355311355311
0.8289550139961648,0.011282051282051281,0.22564102564102564,0.2111355311355311
0.8336324900010368,0.8018315018315018,0.6632234432234432,1.1733333333333333
0.8386666639999021,0.8018315018315018,0.6632234432234432,1.1733333333333333
0.8427139979976346,0.8018315018315018,0.6632234432234432,1.1733333333333333
0.8462244639958953,0.8018315018315018,0.6632234432234432,1.1733333333333333
0.8524389719968894,0.5794139194139193,0.6197069597069597,1.7180952380952381
0.8565376789993024,0.5794139194139193,0.6197069597069597,1.7180952380952381
0.8591000809974503,0.5794139194139193,0.6197069597069597,1.7180952380952381
0.8656859889961197,2.041245421245421,1.4046153846153846,0.6068131868131869
0.8703026410003076,2.041245421245421,1.4046153846153846,0.6068131868131869
0.8704325169965159,2.6343589743589746,1.8704029304029302,0.6205128205128204
0.8752809399957187,2.6343589743589746,1.8704029304029302,0.6205128205128204
0.8754096709963051,2.6343589743589746,1.8704029304029302,0.6205128205128204
0.8820926179978414,2.6343589743589746,1.8704029304029302,0.6205128205128204
0.8857356989974505,0.03223443223443223,0.44080586080586076,0.2095238095238095
0.8908181639999384,0.03223443223443223,0.44080586080586076,0.2095238095238095
0.8951857129941345,0.03223443223443223,0.44080586080586076,0.2095238095238095
0.8964762489995337,0.03223443223443223,0.44080586080586076,0.2095238095238095
0.8967064039970865,0.03223443223443223,0.44080586080586076,0.2095238095238095
0.901989013000275,0.03223443223443223,0.44080586080586076,0.2095238095238095
0.9044670719958958,0.4553113553113553,0.4553113553113553,0.06124542124542124
0.9104771399943274,0.4553113553113553,0.4553113553113553,0.06124542124542124
0.917148130996793,0.4553113553113553,0.4553113553113553,0.06124542124542124
0.92128107699682,0.4553113553113553,0.4553113553113553,0.06124542124542124
0.9237445999970078,0.4553113553113553,0.4553113553113553,0.06124542124542124
0.923934480000753,0.4553113553113553,0.4553113553113553,0.06124542124542124
0.9317630719961016,0.4553113553113553,0.4553113553113553,0.06124542124542124
0.9362536839980748,0.40615384615384614,0.5745787545787545,1.759194139194139
0.9365550969960168,0.40615384615384614,0.5745787545787545,1.759194139194139
0.9422519709987682,0.40615384615384614,0.5745787545787545,1.759194139194139
0.9424752199993236,0.40615384615384614,0.5745787545787545,1.759194139194139
0.9509833779957262,0.40615384615384614,0.5745787545787545,1.759194139194139
0.9560021799989045,0.40615384615384614,0.5745787545787545,1.759194139194139
0.9599783379962901,0.40615384615384614,0.5745787545787545,1.759194139194139
0.9673352009995142,0.40615384615384614,0.5745787545787545,1.759194139194139
0.9720803189993603,0.40615384615384614,0.5745787545787545,1.759194139194139
0.9722817859947099,0.40615384615384614,0.5745787545787545,1.759194139194139
0.9774218389939051,0.9621978021978022,0.42065934065934063,2.0186813186813186
0.9831341699973564,0.15311355311355312,0.1789010989010989,1.1201465201465202
0.9832438399971579,0.29736263736263735,0.4045421245421245,0.1241025641025641
0.9888325949941645,0.29736263736263735,0.4045421245421245,0.1241025641025641
0.9898156739945989,0.29736263736263735,0.4045421245421245,0.1241025641025641
0.9907406189959147,0.29736263736263735,0.4045421245421245,0.1241025641025641
0.9924330289941281,0.29736263736263735,0.4045421245421245,0.1241025641025641
0.9990202699991642,0.29736263736263735,0.4045421245421245,0.1241025641025641
1.0026188999981969,0.29736263736263735,0.4045421245421245,0.1241025641025641
1.002756367000984,0.29736263736263735,0.4045421245421245,0.1241025641025641
1.007803706001141,0.29736263736263735,0.4045421245421245,0.1241025641025641
1.01440128700051,0.29736263736263735,0.4045421245421245,0.1241025641025641
1.0201995829993393,0.29736263736263735,0.4045421245421245,0.1241025641025641
1.0249274460002198,0.29736263736263735,0.4045421245421245,0.1241025641025641
1.02507751200028,0.0,0.23853479853479853,0.3231501831501831
1.0352647809995688,0.0,0.23853479853479853,0.3231501831501831
1.0406258629955119,0.0,0.23853479853479853,0.3231501831501831
1.0432511600010912,0.0,0.23853479853479853,0.3231501831501831
1.0508657009995659,0.0,0.1402197802197802,0.4287179487179487
1.0558057819944224,0.0,0.1402197802197802,0.4287179487179487
1.0596961579940398,0.0,0.1402197802197802,0.4287179487179487
1.0651926110003842,0.0,0.1402197802197802,0.4287179487179487
1.0653802759989048,0.0,0.1402197802197802,0.4287179487179487
1.070558554994932,0.850989010989011,0.6873992673992674,2.569084249084249
1.0731013109980267,0.850989010989011,0.6873992673992674,2.569084249084249
1.078699776000576,1.1402930402930402,0.5367032967032966,2.4594871794871795
1.0796182079939172,3.216190476190476,2.1234432234432234,0.850989010989011
1.080598287997418,3.216190476190476,2.1234432234432234,0.850989010989011
1.0815570060003665,3.216190476190476,2.1234432234432234,0.850989010989011
1.0825026969978353,3.216190476190476,2.1234432234432234,0.850989010989011
1.0835034379997524,3.216190476190476,2.1234432234432234,0.850989010989011
1.0844017540002824,3.216190476190476,2.1234432234432234,0.850989010989011
1.0860092160000931,3.216190476190476,2.1234432234432234,0.850989010989011
1.089922391998698,3.216190476190476,2.1234432234432234,0.850989010989011
1.093802211995353,3.216190476190476,2.1234432234432234,0.850989010989011
1.0990685789947747,3.216190476190476,2.1234432234432234,0.850989010989011
1.102109785999346,3.216190476190476,2.1234432234432234,0.850989010989011
1.1025165789978928,3.216190476190476,2.1234432234432234,0.850989010989011
1.1113166329960222,3.216190476190476,2.1234432234432234,0.850989010989011
1.1204054589979933,1.8816849816849814,1.5085714285714285,1.0701831501831502
1.126421651999408,0.5971428571428571,0.3191208791208791,1.6673260073260072
1.1310714419960277,0.5971428571428571,0.3191208791208791,1.6673260073260072
1.1314010049973149,0.5971428571428571,0.3191208791208791,1.6673260073260072
1.1371431589941494,0.5971428571428571,0.3191208791208791,1.6673260073260072
1.1372691489959834,0.5971428571428571,0.3191208791208791,1.6673260073260072
1.1429677060004906,0.5971428571428571,0.3191208791208791,1.6673260073260072
1.1432244280003943,0.5971428571428571,0.3191208791208791,1.6673260073260072
1.1486205519977375,0.5971428571428571,0.3191208791208791,1.6673260073260072
1.151861945996643,3.051794871794872,2.1911355311355307,1.0331135531135531
1.1535027529971558,1.3264468864468864,0.7204395604395604,1.9896703296703295
1.159491929000069,1.3264468864468864,0.7204395604395604,1.9896703296703295
1.166660167000373,1.3264468864468864,0.7204395604395604,1.9896703296703295
1.1711445249966346,0.2216117216117216,0.3312087912087912,0.24256410256410255
1.1713689569951384,2.840659340659341,1.9654945054945054,1.0959706959706959
1.176085756997054,2.840659340659341,1.9654945054945054,1.0959706959706959
1.1762415869961842,2.840659340659341,1.9654945054945054,1.0959706959706959
1.1829268239962403,2.840659340659341,1.9654945054945054,1.0959706959706959
1.1869001159939216,2.840659340659341,1.9654945054945054,1.0959706959706959
1.1908223290010937,2.840659340659341,1.9654945054945054,1.0959706959706959
1.1940632189944154,1.6076923076923075,0.9686446886446887,1.2539194139194139
1.1956851569993887,0.8824175824175824,0.4859340659340659,2.1911355311355307
1.1988094139960594,0.8824175824175824,0.4859340659340659,2.1911355311355307
1.2012030069963657,0.8824175824175824,0.4859340659340659,2.1911355311355307
1.201343636996171,0.5786080586080585,0.5310622710622711,0.13135531135531134
1.206910942994,0.5786080586080585,0.5310622710622711,0.13135531135531134
1.208483675000025,0.5786080586080585,0.5310622710622711,0.13135531135531134
1.2123706749989651,0.5786080586080585,0.5310622710622711,0.13135531135531134
1.21661318999395,1.4803663003663003,0.8880586080586079,1.6036630036630035
1.21833751599479,1.4803663003663003,0.8880586080586079,1.6036630036630035
1.2215079199959291,1.4803663003663003,0.8880586080586079,1.6036630036630035
1.2237986949985498,1.4803663003663003,0.8880586080586079,1.6036630036630035
1.2240425759955542,1.4803663003663003,0.8880586080586079,1.6036630036630035
1.2330177359981462,1.4803663003663003,0.8880586080586079,1.6036630036630035
1.2395333849999588,1.4803663003663003,0.8880586080586079,1.6036630036630035
1.2435211150004761,0.3908424908424908,0.1821245421245421,1.6149450549450548
1.2474663199973293,0.3908424908424908,0.1821245421245421,1.6149450549450548
1.2522556170006283,0.7462271062271062,0.6616117216117217,2.685128205128205
1.2572901339954115,0.7462271062271062,0.6616117216117217,2.685128205128205
1.2620775539980968,0.20468864468864467,0.19824175824175824,0.967032967032967
1.2622103530011373,0.20468864468864467,0.19824175824175824,0.967032967032967
1.2672627270003431,0.20468864468864467,0.19824175824175824,0.967032967032967
1.2718917069942108,0.20468864468864467,0.19824175824175824,0.967032967032967
1.2722004979950725,0.20468864468864467,0.19824175824175824,0.967032967032967
1.2769151329994202,0.20468864468864467,0.19824175824175824,0.967032967032967
1.2771157729948754,0.1692307692307692,0.16197802197802197,1.157216117216117
1.2825776289973874,0.1692307692307692,0.16197802197802197,1.157216117216117
1.2842356789988116,0.1692307692307692,0.16197802197802197,1.157216117216117
1.2873965010003303,0.1692307692307692,0.16197802197802197,1.157216117216117
1.2897836069969344,0.1692307692307692,0.16197802197802197,1.157216117216117
1.290074928998365,0.1692307692307692,0.16197802197802197,1.157216117216117
1.2947711890010396,0.1692307692307692,0.16197802197802197,1.157216117216117
1.2950132669939194,0.1692307692307692,0.16197802197802197,1.157216117216117
1.300639618995774,0.1692307692307692,0.16197802197802197,1.157216117216117
1.3014977339989855,0.1692307692307692,0.16197802197802197,1.157216117216117
1.3025330009986646,0.1692307692307692,0.16197802197802197,1.157216117216117
1.3034154619963374,0.1692307692307692,0.16197802197802197,1.157216117216117
1.3050067609947291,0.1692307692307692,0.16197802197802197,1.157216117216117
1.3088666609983193,0.1692307692307692,0.16197802197802197,1.157216117216117
1.3127454739951645,0.2651282051282051,0.5367032967032966,1.216849816849817
1.3188611759978812,0.2651282051282051,0.5367032967032966,1.216849816849817
1.3227815509962966,0.2651282051282051,0.5367032967032966,1.216849816849817
1.3274457339939545,0.2651282051282051,0.5367032967032966,1.216849816849817
1.3275940280000214,0.2651282051282051,0.5367032967032966,1.216849816849817
1.3324134349968517,0.2651282051282051,0.5367032967032966,1.216849816849817
1.3325445160007803,1.0967765567765566,0.4214652014652014,2.037216117216117
1.3376341999974102,1.0967765567765566,0.4214652014652014,2.037216117216117
1.343046971996955,1.0967765567765566,0.4214652014652014,2.037216117216117
1.3432002240006113,1.0967765567765566,0.4214652014652014,2.037216117216117
1.3480268669954967,1.0967765567765566,0.4214652014652014,2.037216117216117
1.3481661199984956,2.1186080586080585,1.3836630036630035,0.7816849816849816
1.3531104779976886,2.1186080586080585,1.3836630036630035,0.7816849816849816
1.3581363560006139,2.1186080586080585,1.3836630036630035,0.7816849816849816
1.3620429929942475,2.1186080586080585,1.3836630036630035,0.7816849816849816
1.3659067419939674,2.1186080586080585,1.3836630036630035,0.7816849816849816
1.3698866970007657,2.1186080586080585,1.3836630036630035,0.7816849816849816
1.374549139996816,2.1186080586080585,1.3836630036630035,0.7816849816849816
1.3800928199998452,2.1186080586080585,1.3836630036630035,0.7816849816849816
1.3817050159996143,0.20146520146520144,0.21677655677655677,0.913040293040293
1.3858354439944378,0.20146520146520144,0.21677655677655677,0.913040293040293
1.3882495229991036,0.0,0.26593406593406593,0.17809523809523808
1.3884043989964994,0.0,0.26593406593406593,0.17809523809523808
1.393988468000316,1.7317948717948717,1.3401465201465201,0.4158241758241758
1.3950629809987731,1.7317948717948717,1.3401465201465201,0.4158241758241758
1.3953121209997335,1.7317948717948717,1.3401465201465201,0.4158241758241758
1.400168632993882,1.7317948717948717,1.3401465201465201,0.4158241758241758
1.4058698570006527,1.7317948717948717,1.3401465201465201,0.4158241758241758
1.4060753369994927,1.7317948717948717,1.3401465201465201,0.4158241758241758
1.4107391110010212,1.7317948717948717,1.3401465201465201,0.4158241758241758
1.411055418997421,1.7317948717948717,1.3401465201465201,0.4158241758241758
1.4157644480001181,1.7317948717948717,1.3401465201465201,0.4158241758241758
1.4160691079960088,1.7317948717948717,1.3401465201465201,0.4158241758241758
1.4211095020000357,1.7317948717948717,1.3401465201465201,0.4158241758241758
1.4258731890004128,3.3,2.0662271062271063,0.5157509157509157
1.4260773040005006,3.3,2.0662271062271063,0.5157509157509157
1.430891135998536,3.3,2.0662271062271063,0.5157509157509157
1.436746305997076,3.3,2.0662271062271063,0.5157509157509157
1.4424475119958515,3.3,2.0662271062271063,0.5157509157509157
1.4426679679963854,3.3,2.0662271062271063,0.5157509157509157
1.448135614999046,3.3,2.0662271062271063,0.5157509157509157
1.449767662998056,3.3,2.0662271062271063,0.5157509157509157
1.4536965000006603,3.3,2.0662271062271063,0.5157509157509157
1.4568447889978415,3.3,2.0662271062271063,0.5157509157509157
1.4591819989946089,3.3,2.0662271062271063,0.5157509157509157
1.4593559399945661,3.3,2.0662271062271063,0.5157509157509157
1.4640660719960579,3.3,2.0662271062271063,0.5157509157509157
1.4643184569940786,3.3,2.0662271062271063,0.5157509157509157
1.4692059769949992,3.3,2.0662271062271063,0.5157509157509157
1.4750111479952466,3.042124542124542,1.8752380952380951,0.6229304029304029
1.4753054350003367,1.2627838827838826,0.5697435897435897,1.7342124542124542
1.4799852659998578,0.3884249084249084,0.12893772893772892,1.324029304029304
1.4802566779981134,0.3884249084249084,0.12893772893772892,1.324029304029304
1.4849734409945086,0.3884249084249084,0.12893772893772892,1.324029304029304
1.485249933997693,0.3884249084249084,0.12893772893772892,1.324029304029304
1.4906110179945244,0.834065934065934,0.6213186813186813,2.2967032967032965
1.4930617089994485,0.26190476190476186,0.5173626373626373,1.398168498168498
1.4932329769944772,0.26190476190476186,0.5173626373626373,1.398168498168498
1.4980563209974207,0.26190476190476186,0.5173626373626373,1.398168498168498
1.4981670699999086,0.4351648351648352,0.19663003663003664,1.4005860805860806
1.5039798989964765,0.4351648351648352,0.19663003663003664,1.4005860805860806
1.5041160879991367,0.4351648351648352,0.19663003663003664,1.4005860805860806
1.5100238589948276,0.4351648351648352,0.19663003663003664,1.4005860805860806
1.51561912199395,0.4351648351648352,0.19663003663003664,1.4005860805860806
1.516664923998178,0.4351648351648352,0.19663003663003664,1.4005860805860806
1.5175547109975014,0.23208791208791207,0.14102564102564102,1.17010989010989
1.5192828769941116,0.23208791208791207,0.14102564102564102,1.17010989010989
1.5224958039980265,0.23208791208791207,0.14102564102564102,1.17010989010989
1.5248520050008665,0.23208791208791207,0.14102564102564102,1.17010989010989
1.5249926729957224,0.23208791208791207,0.14102564102564102,1.17010989010989
1.5304968259952147,0.23208791208791207,0.14102564102564102,1.17010989010989
1.531377375999,0.23208791208791207,0.14102564102564102,1.17010989010989
1.5330352859964478,0.23208791208791207,0.14102564102564102,1.17010989010989
1.5369722959949286,0.23208791208791207,0.14102564102564102,1.17010989010989
1.5408766159962397,0.23208791208791207,0.14102564102564102,1.17010989010989
1.5456649999978254,0.23208791208791207,0.14102564102564102,1.17010989010989
1.5515258390005329,0.23208791208791207,0.14102564102564102,1.17010989010989
1.5516347239972674,0.23208791208791207,0.14102564102564102,1.17010989010989
1.5571273379973718,0.23208791208791207,0.14102564102564102,1.17010989010989
1.559493068998563,0.23208791208791207,0.14102564102564102,1.17010989010989
1.5597955839984934,0.23208791208791207,0.14102564102564102,1.17010989010989
1.565163567000127,0.23208791208791207,0.14102564102564102,1.17010989010989
1.5669273769963183,0.23208791208791207,0.14102564102564102,1.17010989010989
1.5703299899978447,0.23208791208791207,0.14102564102564102,1.17010989010989
1.5706294319970766,0.23208791208791207,0.14102564102564102,1.17010989010989
1.576390222995542,0.23208791208791207,0.14102564102564102,1.17010989010989
1.5765760139984195,0.23208791208791207,0.14102564102564102,1.17010989010989
1.5822545560004073,0.23208791208791207,0.14102564102564102,1.17010989010989
1.5831994119944284,0.23208791208791207,0.14102564102564102,1.17010989010989
1.5841331999981776,0.23208791208791207,0.14102564102564102,1.17010989010989
1.5850734439954977,0.23208791208791207,0.14102564102564102,1.17010989010989
1.5868066159964656,0.23208791208791207,0.14102564102564102,1.17010989010989
1.5908402380009647,0.30542124542124544,0.5109157509157509,1.4505494505494505
1.5941292379939114,1.7769230769230768,1.2845421245421245,0.8534065934065934
1.594382286995824,1.7769230769230768,1.2845421245421245,0.8534065934065934
1.5991674159959075,1.7769230769230768,1.2845421245421245,0.8534065934065934
1.5993300619957154,1.7769230769230768,1.2845421245421245,0.8534065934065934
1.6044361929962179,1.7769230769230768,1.2845421245421245,0.8534065934065934
1.6087077490010415,1.3006593406593405,0.7623443223443224,1.5198534798534797
1.6111142589943483,1.726959706959707,1.195091575091575,0.8542124542124543
1.6112739719974343,1.726959706959707,1.195091575091575,0.8542124542124543
1.6161018999991938,1.726959706959707,1.195091575091575,0.8542124542124543
1.6163213279942283,1.726959706959707,1.195091575091575,0.8542124542124543
1.621115011999791,1.726959706959707,1.195091575091575,0.8542124542124543
1.6267938059972948,0.40776556776556777,0.3642490842490842,0.1789010989010989
1.627730016996793,1.224102564102564,0.7558974358974359,2.5795604395604395
1.6287682719994336,1.224102564102564,0.7558974358974359,2.5795604395604395
1.6290750689950073,1.224102564102564,0.7558974358974359,2.5795604395604395
1.6339355399977649,1.224102564102564,0.7558974358974359,2.5795604395604395
1.6397022219971404,1.224102564102564,0.7558974358974359,2.5795604395604395
1.639891152997734,1.224102564102564,0.7558974358974359,2.5795604395604395
1.6449677220007288,1.224102564102564,0.7558974358974359,2.5795604395604395
1.6484331600004225,1.224102564102564,0.7558974358974359,2.5795604395604395
1.6486139709959389,1.224102564102564,0.7558974358974359,2.5795604395604395
1.6541408449993469,1.9445421245421244,0.6769230769230768,1.0701831501831502
1.6550455819960916,1.9445421245421244,0.6769230769230768,1.0701831501831502
1.656687119997514,1.9445421245421244,0.6769230769230768,1.0701831501831502
1.6605539439988206,1.9445421245421244,0.6769230769230768,1.0701831501831502
1.665281073001097,1.9445421245421244,0.6769230769230768,1.0701831501831502
1.6654268889978994,1.9445421245421244,0.6769230769230768,1.0701831501831502
1.6701288170006592,1.9445421245421244,0.6769230769230768,1.0701831501831502
1.671015706997423,1.9445421245421244,0.6769230769230768,1.0701831501831502
1.6726553419939592,1.9445421245421244,0.6769230769230768,1.0701831501831502
1.6758620249966043,1.9445421245421244,0.6769230769230768,1.0701831501831502
1.6774971979975817,0.3545787545787546,0.13699633699633698,1.1636630036630036
1.681543579994468,0.3545787545787546,0.13699633699633698,1.1636630036630036
1.684771821994218,0.3545787545787546,0.13699633699633698,1.1636630036630036
1.6864743830010411,0.3545787545787546,0.13699633699633698,1.1636630036630036
1.6897667329976684,0.3545787545787546,0.13699633699633698,1.1636630036630036
1.6907179959962377,0.3545787545787546,0.13699633699633698,1.1636630036630036
1.6923604999974486,0.3545787545787546,0.13699633699633698,1.1636630036630036
1.6963902139978018,1.112893772893773,0.3586080586080586,2.083150183150183
1.6996738640009426,1.112893772893773,0.3586080586080586,2.083150183150183
1.7006004809954902,1.112893772893773,0.3586080586080586,2.083150183150183
1.7023303559981287,1.112893772893773,0.3586080586080586,2.083150183150183
1.7051310239985469,1.112893772893773,0.3586080586080586,2.083150183150183
1.7091687159991125,1.112893772893773,0.3586080586080586,2.083150183150183
1.7123328729940113,1.112893772893773,0.3586080586080586,2.083150183150183
1.7133992269955343,1.112893772893773,0.3586080586080586,2.083150183150183
1.714275878999615,1.112893772893773,0.3586080586080586,2.083150183150183
1.715220917998522,1.112893772893773,0.3586080586080586,2.083150183150183
1.7168833169998834,1.112893772893773,0.3586080586080586,2.083150183150183
1.7208534469973529,1.112893772893773,0.3586080586080586,2.083150183150183
1.724217734998092,0.2804395604395604,0.37875457875457874,0.21355311355311357
1.7245444929940277,0.2804395604395604,0.37875457875457874,0.21355311355311357
1.7302405890004593,0.2804395604395604,0.37875457875457874,0.21355311355311357
1.7306149099968025,0.2804395604395604,0.37875457875457874,0.21355311355311357
1.7356672329988214,0.2804395604395604,0.37875457875457874,0.21355311355311357
1.7398170569940703,0.2804395604395604,0.37875457875457874,0.21355311355311357
1.7429506479966221,0.2804395604395604,0.37875457875457874,0.21355311355311357
1.7454444499962847,0.2804395604395604,0.37875457875457874,0.21355311355311357
1.7511721379996743,0.2804395604395604,0.37875457875457874,0.21355311355311357
1.7521276560000842,0.2804395604395604,0.37875457875457874,0.21355311355311357
1.7530791749959462,0.2804395604395604,0.37875457875457874,0.21355311355311357
1.7541334089983138,0.2804395604395604,0.37875457875457874,0.21355311355311357
1.7550528909996501,0.2804395604395604,0.37875457875457874,0.21355311355311357
1.7567749029985862,0.2804395604395604,0.37875457875457874,0.21355311355311357
1.7607417649996933,0.2804395604395604,0.37875457875457874,0.21355311355311357
1.7647448759962572,0.2804395604395604,0.37875457875457874,0.21355311355311357
1.7686160279990872,0.0,0.1652014652014652,0.3287912087912088
1.771957801996905,0.0,0.1652014652014652,0.3287912087912088
1.7722524169948883,0.0,0.1652014652014652,0.3287912087912088
1.7778840949977166,0.0,0.1652014652014652,0.3287912087912088
1.7788876939957845,0.19179487179487179,0.14747252747252745,0.6382417582417582
1.7806496609991882,0.19179487179487179,0.14747252747252745,0.6382417582417582
1.7838151600008132,0.19179487179487179,0.14747252747252745,0.6382417582417582
1.785459541999444,0.19179487179487179,0.14747252747252745,0.6382417582417582
1.7892822069989052,0.19179487179487179,0.14747252747252745,0.6382417582417582
1.7940310959966155,0.19179487179487179,0.14747252747252745,0.6382417582417582
1.794223687997146,0.19179487179487179,0.14747252747252745,0.6382417582417582
1.799005513996235,0.19179487179487179,0.14747252747252745,0.6382417582417582
1.79919264199998,0.19179487179487179,0.14747252747252745,0.6382417582417582
1.8053030359951663,0.19179487179487179,0.14747252747252745,0.6382417582417582
1.810141580994241,0.19179487179487179,0.14747252747252745,0.6382417582417582
1.815975908000837,1.5883516483516482,0.8308424908424907,0.8767765567765567
1.8162051719991723,0.2224175824175824,0.15956043956043955,0.8123076923076923
1.821088996999606,0.2224175824175824,0.15956043956043955,0.8123076923076923
1.826741321994632,0.048351648351648346,0.2224175824175824,0.2079120879120879
1.8276087319973158,0.0,0.21597069597069596,0.23853479853479853
1.8292142459977185,0.0,0.21597069597069596,0.23853479853479853
1.8331438829991384,0.0,0.21597069597069596,0.23853479853479853
1.8370832729997346,0.0,0.21597069597069596,0.23853479853479853
1.8409376130002784,0.3908424908424908,0.13457875457875457,1.2136263736263737
1.8455982209998183,0.3908424908424908,0.13457875457875457,1.2136263736263737
1.8458862099942053,0.3908424908424908,0.13457875457875457,1.2136263736263737
1.8516573319939198,0.3908424908424908,0.13457875457875457,1.2136263736263737
1.8518036620007479,1.9622710622710622,1.1056410256410254,0.5463736263736263
1.856698953997693,1.9622710622710622,1.1056410256410254,0.5463736263736263
1.862269737997849,1.797069597069597,1.0717948717948718,0.4593406593406593
1.8625588809954934,1.797069597069597,1.0717948717948718,0.4593406593406593
1.867532135998772,1.797069597069597,1.0717948717948718,0.4593406593406593
1.8725046409963397,0.9694505494505494,0.809084249084249,0.767985347985348
1.8773077509977156,0.9694505494505494,0.809084249084249,0.767985347985348
1.8833738499961328,0.9694505494505494,0.809084249084249,0.767985347985348
1.887966187998245,0.0,0.19904761904761903,0.25142857142857145
1.8881933689990547,0.8018315018315018,0.772014652014652,0.8477655677655677
1.8936436899966793,0.8018315018315018,0.772014652014652,0.8477655677655677
1.8960148639962426,0.8018315018315018,0.772014652014652,0.8477655677655677
1.896234148000076,0.8018315018315018,0.772014652014652,0.8477655677655677
1.900971331000619,0.8018315018315018,0.772014652014652,0.8477655677655677
1.9012507289953646,0.8018315018315018,0.772014652014652,0.8477655677655677
1.90666296499694,0.8018315018315018,0.772014652014652,0.8477655677655677
1.9084603399969637,0.5133333333333333,0.5076923076923077,1.8929670329670327
1.9115683470008662,0.5133333333333333,0.5076923076923077,1.8929670329670327
1.9133800209965557,0.5133333333333333,0.5076923076923077,1.8929670329670327
1.916726978000952,0.448058608058608,0.2111355311355311,1.1306227106227105
1.9176819419953972,0.448058608058608,0.2111355311355311,1.1306227106227105
1.9185987019955064,0.448058608058608,0.2111355311355311,1.1306227106227105
1.92024420099915,0.448058608058608,0.2111355311355311,1.1306227106227105
1.924166653996508,0.448058608058608,0.2111355311355311,1.1306227106227105
1.9291996699976153,0.448058608058608,0.2111355311355311,1.1306227106227105
1.9331780419961433,1.4465201465201465,0.689010989010989,0.9783150183150182
1.936466750994441,1.4465201465201465,0.689010989010989,0.9783150183150182
1.937337261995708,1.4465201465201465,0.689010989010989,0.9783150183150182
1.9383877169966581,1.4465201465201465,0.689010989010989,0.9783150183150182
1.9392752369967639,1.4465201465201465,0.689010989010989,0.9783150183150182
1.9409032279945677,1.4465201465201465,0.689010989010989,0.9783150183150182
1.9448436530001345,1.4465201465201465,0.689010989010989,0.9783150183150182
1.9496519819949754,1.4465201465201465,0.689010989010989,0.9783150183150182
1.9550703419954516,1.4465201465201465,0.689010989010989,0.9783150183150182
1.956700759998057,1.4465201465201465,0.689010989010989,0.9783150183150182
1.9613759200001368,1.4465201465201465,0.689010989010989,0.9783150183150182
1.9615315810005995,1.4465201465201465,0.689010989010989,0.9783150183150182
1.9663276789942756,1.4465201465201465,0.689010989010989,0.9783150183150182
1.9665336319958442,1.4868131868131869,0.7276923076923076,2.3845421245421243
1.9713058869965607,1.4868131868131869,0.7276923076923076,2.3845421245421243
1.9715165919988067,1.4868131868131869,0.7276923076923076,2.3845421245421243
1.9762709709975752,1.4868131868131869,0.7276923076923076,2.3845421245421243
1.9817060229979688,0.28608058608058606,0.14586080586080585,1.2764835164835164
1.9847753059948445,0.28608058608058606,0.14586080586080585,1.2764835164835164
1.9864718559983885,0.28608058608058606,0.14586080586080585,1.2764835164835164
1.9903087149941712,0.28608058608058606,0.14586080586080585,1.2764835164835164
1.9952012819994707,0.28608058608058606,0.14586080586080585,1.2764835164835164
2.0008823609969113,0.2071062271062271,0.09912087912087912,0.6132600732600733
2.0017337949975627,0.2071062271062271,0.09912087912087912,0.6132600732600733
2.0033833220004453,0.2071062271062271,0.09912087912087912,0.6132600732600733
2.0073536099953344,0.46095238095238095,0.38358974358974357,0.7147985347985348
2.0106280659965705,0.46095238095238095,0.38358974358974357,0.7147985347985348
2.0122700709980563,0.46095238095238095,0.38358974358974357,0.7147985347985348
2.016508000000613,0.46095238095238095,0.38358974358974357,0.7147985347985348
2.0182365809960174,0.46095238095238095,0.38358974358974357,0.7147985347985348
2.0223782649991335,0.46095238095238095,0.38358974358974357,0.7147985347985348
2.024143554001057,0.46095238095238095,0.38358974358974357,0.7147985347985348
2.0265797469983227,0.46095238095238095,0.38358974358974357,0.7147985347985348
2.026806289999513,0.46095238095238095,0.38358974358974357,0.7147985347985348
2.0322162419979577,0.46095238095238095,0.38358974358974357,0.7147985347985348
2.0339216889988165,0.46095238095238095,0.38358974358974357,0.7147985347985348
2.0377829979988746,0.46095238095238095,0.38358974358974357,0.7147985347985348
2.041628553000919,0.46095238095238095,0.38358974358974357,0.7147985347985348
2.0462370269960957,0.05963369963369963,0.22967032967032966,0.3231501831501831
2.0464436799957184,0.05963369963369963,0.22967032967032966,0.3231501831501831
2.051841381995473,0.05963369963369963,0.22967032967032966,0.3231501831501831
2.0540923939988716,0.05963369963369963,0.22967032967032966,0.3231501831501831
2.054335392997018,0.05963369963369963,0.22967032967032966,0.3231501831501831
2.059386988999904,0.05963369963369963,0.22967032967032966,0.3231501831501831
2.064413149993925,0.05963369963369963,0.22967032967032966,0.3231501831501831
2.068542153996532,0.05963369963369963,0.22967032967032966,0.3231501831501831
2.0709936559942435,0.05963369963369963,0.22967032967032966,0.3231501831501831
2.071186241999385,0.05963369963369963,0.22967032967032966,0.3231501831501831
2.0768434790006722,0.05963369963369963,0.22967032967032966,0.3231501831501831
2.0777028079974116,0.913040293040293,0.3376556776556776,1.2434432234432233
2.078703248000238,0.913040293040293,0.3376556776556776,1.2434432234432233
2.0796543179967557,0.913040293040293,0.3376556776556776,1.2434432234432233
2.0805987549974816,0.913040293040293,0.3376556776556776,1.2434432234432233
2.082243421995372,0.913040293040293,0.3376556776556776,1.2434432234432233
2.0863012080008048,0.913040293040293,0.3376556776556776,1.2434432234432233
2.090208210996934,0.6519413919413919,0.614065934065934,1.7495238095238095
2.0941277489982895,2.9824908424908423,1.5996336996336995,0.1772893772893773
2.098135732994706,2.9824908424908423,1.5996336996336995,0.1772893772893773
2.1020940449961927,2.9824908424908423,1.5996336996336995,0.1772893772893773
2.1052846079983283,2.9824908424908423,1.5996336996336995,0.1772893772893773
2.1070662139973138,2.9824908424908423,1.5996336996336995,0.1772893772893773
2.109481193998363,2.9824908424908423,1.5996336996336995,0.1772893772893773
2.1096508389964583,2.9824908424908423,1.5996336996336995,0.1772893772893773
2.1153779159940314,2.9824908424908423,1.5996336996336995,0.1772893772893773
2.1155115279980237,2.9824908424908423,1.5996336996336995,0.1772893772893773
2.1205392490010126,2.9824908424908423,1.5996336996336995,0.1772893772893773
2.1249746319954284,2.9824908424908423,1.5996336996336995,0.1772893772893773
2.1265781479960424,2.9824908424908423,1.5996336996336995,0.1772893772893773
2.1307453499975963,2.9824908424908423,1.5996336996336995,0.1772893772893773
2.133170044995495,1.577875457875458,0.7244688644688644,0.6720879120879121
2.133382187996176,1.577875457875458,0.7244688644688644,0.6720879120879121
2.1382503130007535,1.577875457875458,0.7244688644688644,0.6720879120879121
2.143180332001066,1.577875457875458,0.7244688644688644,0.6720879120879121
2.1482769829963217,1.577875457875458,0.7244688644688644,0.6720879120879121
2.1523793779997504,1.577875457875458,0.7244688644688644,0.6720879120879121
2.154749866997008,1.577875457875458,0.7244688644688644,0.6720879120879121
2.155032347996894,0.2683516483516483,0.12007326007326008,0.6511355311355311
2.1606881679981598,0.2683516483516483,0.12007326007326008,0.6511355311355311
2.1615408930010744,0.2683516483516483,0.12007326007326008,0.6511355311355311
2.1631880259956233,0.2683516483516483,0.12007326007326008,0.6511355311355311
2.1672553489988786,0.2683516483516483,0.12007326007326008,0.6511355311355311
2.170461763998901,0.2683516483516483,0.12007326007326008,0.6511355311355311
2.172118246999162,0.2683516483516483,0.12007326007326008,0.6511355311355311
2.1768627089986694,0.2683516483516483,0.12007326007326008,0.6511355311355311
2.1770410499957507,0.2683516483516483,0.12007326007326008,0.6511355311355311
2.1826441129960585,0.2683516483516483,0.12007326007326008,0.6511355311355311
2.1836940569992294,0.2683516483516483,0.12007326007326008,0.6511355311355311
2.1845501349962433,0.2683516483516483,0.12007326007326008,0.6511355311355311
2.1855519409946282,0.2683516483516483,0.12007326007326008,0.6511355311355311
2.18730019099894,0.2683516483516483,0.12007326007326008,0.6511355311355311
2.1906341629946837,0.2683516483516483,0.12007326007326008,0.6511355311355311
2.1922263789965655,0.2683516483516483,0.12007326007326008,0.6511355311355311
2.1962429650011472,1.1854212454212454,0.3706959706959707,1.4030036630036629
2.1994821929984028,1.1854212454212454,0.3706959706959707,1.4030036630036629
2.200348476995714,1.1854212454212454,0.3706959706959707,1.4030036630036629
2.20201745799568,1.1854212454212454,0.3706959706959707,1.4030036630036629
2.2058905989979394,1.1854212454212454,0.3706959706959707,1.4030036630036629
2.209824232995743,1.1854212454212454,0.3706959706959707,1.4030036630036629
2.214589789000456,1.1854212454212454,0.3706959706959707,1.4030036630036629
2.2147449420008343,0.7615384615384615,0.24256410256410255,1.1515750915750915
2.2203376409961493,0.7615384615384615,0.24256410256410255,1.1515750915750915
2.220660090999445,0.7615384615384615,0.24256410256410255,1.1515750915750915
2.226245082994865,0.7615384615384615,0.24256410256410255,1.1515750915750915
2.227118460999918,0.7615384615384615,0.24256410256410255,1.1515750915750915
2.228116993996082,0.7615384615384615,0.24256410256410255,1.1515750915750915
2.2290994430004503,0.7615384615384615,0.24256410256410255,1.1515750915750915
2.2301693619956495,0.7615384615384615,0.24256410256410255,1.1515750915750915
2.230399015999865,0.7615384615384615,0.24256410256410255,1.1515750915750915
2.2359663019960863,0.7615384615384615,0.24256410256410255,1.1515750915750915
2.2377206699966337,0.28849816849816845,0.13377289377289378,0.9613919413919414
2.240178920998005,0.03465201465201465,0.18776556776556774,0.6591941391941392
2.2403087799975765,0.03465201465201465,0.18776556776556774,0.6591941391941392
2.245998079000856,0.03465201465201465,0.18776556776556774,0.6591941391941392
2.246300758997677,0.03465201465201465,0.18776556776556774,0.6591941391941392
2.251339103997452,0.03465201465201465,0.18776556776556774,0.6591941391941392
2.255640246999974,0.03465201465201465,0.18776556776556774,0.6591941391941392
2.2571829539956525,0.34813186813186814,0.1402197802197802,0.9775091575091575
2.2614888370007975,0.34813186813186814,0.1402197802197802,0.9775091575091575
2.2631607839939534,0.34813186813186814,0.1402197802197802,0.9775091575091575
2.267405382997822,0.34813186813186814,0.1402197802197802,0.9775091575091575
2.2695696959999623,0.34813186813186814,0.1402197802197802,0.9775091575091575
2.269898087994079,0.34813186813186814,0.1402197802197802,0.9775091575091575
2.274874717993953,0.34813186813186814,0.1402197802197802,0.9775091575091575
2.2798719040001743,0.5705494505494505,0.21999999999999997,1.025054945054945
2.2841574099948048,0.5705494505494505,0.21999999999999997,1.025054945054945
2.2864314089965774,0.5705494505494505,0.21999999999999997,1.025054945054945
2.286647824999818,0.5705494505494505,0.21999999999999997,1.025054945054945
2.2917106629975024,0.5705494505494505,0.21999999999999997,1.025054945054945
2.296050924996962,0.5705494505494505,0.21999999999999997,1.025054945054945
2.2982533819958917,0.5705494505494505,0.21999999999999997,1.025054945054945
2.2990960929964785,0.5705494505494505,0.21999999999999997,1.025054945054945
2.3012620079971384,0.5705494505494505,0.21999999999999997,1.025054945054945
2.302093963997322,0.5705494505494505,0.21999999999999997,1.025054945054945
2.304484323998622,0.5705494505494505,0.21999999999999997,1.025054945054945
2.31024507300026,0.5705494505494505,0.21999999999999997,1.025054945054945
2.3105264420009917,0.5705494505494505,0.21999999999999997,1.025054945054945
2.3159508039971115,0.5705494505494505,0.21999999999999997,1.025054945054945
2.318342266997206,0.963003663003663,0.32476190476190475,1.1394871794871795
2.3238425189992995,0.963003663003663,0.32476190476190475,1.1394871794871795
2.3247555749985622,0.963003663003663,0.32476190476190475,1.1394871794871795
2.3264475319956546,0.963003663003663,0.32476190476190475,1.1394871794871795
2.330660125997383,0.6994871794871794,0.5439560439560439,1.328058608058608
2.333041568999761,0.6994871794871794,0.5439560439560439,1.328058608058608
2.3332331659985357,1.2394139194139193,0.33604395604395604,0.8799999999999999
2.3382914479952888,1.2394139194139193,0.33604395604395604,0.8799999999999999
2.3414878399998997,1.2394139194139193,0.33604395604395604,0.8799999999999999
2.343346305999148,0.4827106227106227,0.386007326007326,0.09912087912087912
2.3457437449978897,0.4827106227106227,0.386007326007326,0.09912087912087912
2.3459814969974104,0.4827106227106227,0.386007326007326,0.09912087912087912
2.3515442089992575,0.4827106227106227,0.386007326007326,0.09912087912087912
2.352632326997991,0.4827106227106227,0.386007326007326,0.09912087912087912
2.3536386829946423,0.4827106227106227,0.386007326007326,0.09912087912087912
2.3545213010002044,0.4827106227106227,0.386007326007326,0.09912087912087912
2.35550018199865,0.4827106227106227,0.386007326007326,0.09912087912087912
2.3566022369996062,0.4827106227106227,0.386007326007326,0.09912087912087912
2.357572512999468,0.4827106227106227,0.386007326007326,0.09912087912087912
2.3585157569978037,0.4827106227106227,0.386007326007326,0.09912087912087912
2.359485383996798,0.4827106227106227,0.386007326007326,0.09912087912087912
2.3604877709949506,0.4827106227106227,0.386007326007326,0.09912087912087912
2.362094247000641,0.4827106227106227,0.386007326007326,0.09912087912087912
2.3661713369947392,0.4827106227106227,0.386007326007326,0.09912087912087912
2.3694756159966346,0.7043223443223443,0.5165567765567766,1.2095970695970695
2.3705552909959806,0.7043223443223443,0.5165567765567766,1.2095970695970695
2.370919797998795,0.7043223443223443,0.5165567765567766,1.2095970695970695
2.376521229998616,0.7043223443223443,0.5165567765567766,1.2095970695970695
2.37692328599951,0.3416849816849817,0.12571428571428572,0.6229304029304029
2.382362234995526,0.3416849816849817,0.12571428571428572,0.6229304029304029
2.3841704779988504,0.016117216117216115,0.20468864468864467,0.05721611721611722
2.3874879209979554,0.016117216117216115,0.20468864468864467,0.05721611721611722
2.387729992995446,0.016117216117216115,0.20468864468864467,0.05721611721611722
2.3934295660001226,0.016117216117216115,0.20468864468864467,0.05721611721611722
2.3935390159967938,0.016117216117216115,0.20468864468864467,0.05721611721611722
2.399260862999654,0.016117216117216115,0.20468864468864467,0.05721611721611722
2.3994808139977977,2.6424175824175826,1.6028571428571428,0.23853479853479853
2.4045762329988065,2.6424175824175826,1.6028571428571428,0.23853479853479853
2.40860832099861,2.6424175824175826,1.6028571428571428,0.23853479853479853
2.4125193879954168,2.6424175824175826,1.6028571428571428,0.23853479853479853
2.4166635949950432,2.6424175824175826,1.6028571428571428,0.23853479853479853
2.419096246994741,2.6424175824175826,1.6028571428571428,0.23853479853479853
2.4192053349979687,2.6424175824175826,1.6028571428571428,0.23853479853479853
2.423950047996186,2.6424175824175826,1.6028571428571428,0.23853479853479853
2.4241032709978754,2.6424175824175826,1.6028571428571428,0.23853479853479853
2.4291922789998353,2.6424175824175826,1.6028571428571428,0.23853479853479853
2.433295635994,2.6424175824175826,1.6028571428571428,0.23853479853479853
2.4365514629971585,2.6424175824175826,1.6028571428571428,0.23853479853479853
2.437574953000876,0.3578021978021978,0.1386080586080586,0.8082783882783882
2.438513196997519,0.3578021978021978,0.1386080586080586,0.8082783882783882
2.4394164369950886,0.3578021978021978,0.1386080586080586,0.8082783882783882
2.44037008399755,0.3578021978021978,0.1386080586080586,0.8082783882783882
2.4419915179969394,0.3578021978021978,0.1386080586080586,0.8082783882783882
2.4459904889954487,0.3578021978021978,0.1386080586080586,0.8082783882783882
2.449126810999587,0.3578021978021978,0.1386080586080586,0.8082783882783882
2.451568585995119,0.3578021978021978,0.1386080586080586,0.8082783882783882
2.451744685000449,0.3578021978021978,0.1386080586080586,0.8082783882783882
2.4571862160009914,0.3578021978021978,0.1386080586080586,0.8082783882783882
2.4587983050005278,0.3578021978021978,0.1386080586080586,0.8082783882783882
2.462806575000286,0.3578021978021978,0.1386080586080586,0.8082783882783882
2.4661375129944645,0.0,0.27882783882783885,0.17003663003663003
2.466448709994438,0.0,0.27882783882783885,0.17003663003663003
2.4719948599959025,0.0,0.27882783882783885,0.17003663003663003
2.4730091269957484,3.0034432234432233,1.6431501831501831,0.3473260073260073
2.473902334997547,3.0034432234432233,1.6431501831501831,0.3473260073260073
2.47486143399874,3.0034432234432233,1.6431501831501831,0.3473260073260073
2.4758203710007365,3.0034432234432233,1.6431501831501831,0.3473260073260073
2.477609097993991,3.0034432234432233,1.6431501831501831,0.3473260073260073
2.4800691029959125,3.0034432234432233,1.6431501831501831,0.3473260073260073
2.4856975469956524,3.0034432234432233,1.6431501831501831,0.3473260073260073
2.4859770809998736,3.0034432234432233,1.6431501831501831,0.3473260073260073
2.491019733999565,3.0034432234432233,1.6431501831501831,0.3473260073260073
2.4959986789981485,3.0034432234432233,1.6431501831501831,0.3473260073260073
2.500958215998253,3.0034432234432233,1.6431501831501831,0.3473260073260073
2.5049505659990245,3.0034432234432233,1.6431501831501831,0.3473260073260073
2.5089655900010257,3.0034432234432233,1.6431501831501831,0.3473260073260073
2.511430113998358,3.0034432234432233,1.6431501831501831,0.3473260073260073
2.511589076995733,1.4070329670329669,0.7002930402930403,0.8098901098901098
2.5173177019969444,1.4070329670329669,0.7002930402930403,0.8098901098901098
2.517462957999669,1.4070329670329669,0.7002930402930403,0.8098901098901098
2.52236755299964,1.4070329670329669,0.7002930402930403,0.8098901098901098
2.528198367996083,1.4070329670329669,0.7002930402930403,0.8098901098901098
2.528460482993978,1.4070329670329669,0.7002930402930403,0.8098901098901098
2.53361693899933,1.4070329670329669,0.7002930402930403,0.8098901098901098
2.537585965998005,1.4070329670329669,0.7002930402930403,0.8098901098901098
2.5415428649939713,1.4070329670329669,0.7002930402930403,0.8098901098901098
2.5455406719993334,1.4070329670329669,0.7002930402930403,0.8098901098901098
2.5494501180000952,1.5947985347985347,0.689010989010989,1.4142857142857141
2.5533975819998886,1.5947985347985347,0.689010989010989,1.4142857142857141
2.557343046995811,0.29413919413919415,0.09186813186813186,0.5794139194139193
2.560506641995744,0.2079120879120879,0.09589743589743589,0.7873260073260073
2.5627559419954196,0.2079120879120879,0.09589743589743589,0.7873260073260073
2.563626306000515,0.2079120879120879,0.09589743589743589,0.7873260073260073
2.565187608000997,0.2079120879120879,0.09589743589743589,0.7873260073260073
2.5696152379969135,0.2079120879120879,0.09589743589743589,0.7873260073260073
2.5704872729984345,0.2079120879120879,0.09589743589743589,0.7873260073260073
2.572022187996481,0.2079120879120879,0.09589743589743589,0.7873260073260073
2.5763433149986668,1.0806593406593406,0.48432234432234433,1.062930402930403
2.5772231969967834,0.43999999999999995,0.30622710622710625,0.8397069597069596
2.5787977169966325,0.43999999999999995,0.30622710622710625,0.8397069597069596
2.58385866000026,0.43999999999999995,0.30622710622710625,0.8397069597069596
2.5874401580003905,0.24095238095238095,0.2208058608058608,0.05399267399267399
2.587535462997039,0.24095238095238095,0.2208058608058608,0.05399267399267399
2.59255295299954,0.24095238095238095,0.2208058608058608,0.05399267399267399
2.596978385998227,0.24095238095238095,0.2208058608058608,0.05399267399267399
2.5985196830006316,0.24095238095238095,0.2208058608058608,0.05399267399267399
2.6028159399938886,0.8098901098901098,0.6551648351648351,0.19824175824175824
2.604401846998371,0.8098901098901098,0.6551648351648351,0.19824175824175824
2.6080637949999073,0.8098901098901098,0.6551648351648351,0.19824175824175824
2.6082127769986982,0.8098901098901098,0.6551648351648351,0.19824175824175824
2.6131219870003406,0.8098901098901098,0.6551648351648351,0.19824175824175824
2.61324713799695,0.9718681318681318,0.386007326007326,1.1233699633699634
2.618258442998922,0.9718681318681318,0.386007326007326,1.1233699633699634
2.621888105997641,0.9718681318681318,0.386007326007326,1.1233699633699634
2.622070261000772,0.9718681318681318,0.386007326007326,1.1233699633699634
2.6271299039945006,0.9718681318681318,0.386007326007326,1.1233699633699634
2.6320015539968153,0.9718681318681318,0.386007326007326,1.1233699633699634
2.6368475380004384,3.058241758241758,1.7068131868131868,0.42065934065934063
2.6423389989940915,3.058241758241758,1.7068131868131868,0.42065934065934063
2.642649474000791,3.058241758241758,1.7068131868131868,0.42065934065934063
2.6485550659999717,3.058241758241758,1.7068131868131868,0.42065934065934063
2.653108444996178,0.3199267399267399,0.4528937728937729,1.0073260073260073
2.654000973998336,0.8654945054945055,0.24901098901098898,1.1604395604395605
2.6561737769952742,0.8654945054945055,0.24901098901098898,1.1604395604395605
2.6570734400011133,0.8654945054945055,0.24901098901098898,1.1604395604395605
2.658658952997939,0.8654945054945055,0.24901098901098898,1.1604395604395605
2.663012899996829,0.8654945054945055,0.24901098901098898,1.1604395604395605
2.6645684039976913,0.8654945054945055,0.24901098901098898,1.1604395604395605
2.6690260819959803,0.8654945054945055,0.24901098901098898,1.1604395604395605
2.669325327995466,0.8654945054945055,0.24901098901098898,1.1604395604395605
2.6753086499957135,0.8654945054945055,0.24901098901098898,1.1604395604395605
2.679979963999358,0.8654945054945055,0.24901098901098898,1.1604395604395605
2.680233806997421,0.19340659340659339,0.12893772893772892,0.6519413919413919
2.6850177589949453,0.19340659340659339,0.12893772893772892,0.6519413919413919
2.6851685169967823,0.19340659340659339,0.12893772893772892,0.6519413919413919
2.690631815996312,0.19340659340659339,0.12893772893772892,0.6519413919413919
2.692343021997658,0.19340659340659339,0.12893772893772892,0.6519413919413919
2.695545349997701,0.19340659340659339,0.12893772893772892,0.6519413919413919
2.697286982998776,0.19340659340659339,0.12893772893772892,0.6519413919413919
2.7005983179988107,0.19340659340659339,0.12893772893772892,0.6519413919413919
2.701536436994502,0.19340659340659339,0.12893772893772892,0.6519413919413919
2.7031458589990507,0.19340659340659339,0.12893772893772892,0.6519413919413919
2.7070293159995344,0.19340659340659339,0.12893772893772892,0.6519413919413919
2.7116874279963668,0.19340659340659339,0.12893772893772892,0.6519413919413919
2.7119501999986824,1.091135531135531,0.4126007326007326,1.2547252747252746
2.7166206909969333,1.091135531135531,0.4126007326007326,1.2547252747252746
2.7168003330007195,0.4964102564102564,0.19824175824175824,1.0057142857142858
2.7217472049960634,0.4964102564102564,0.19824175824175824,1.0057142857142858
2.7278354029986076,0.4964102564102564,0.19824175824175824,1.0057142857142858
2.731782717994065,0.4964102564102564,0.19824175824175824,1.0057142857142858
2.7355977249972057,0.4964102564102564,0.19824175824175824,1.0057142857142858
2.7408011149964295,0.4964102564102564,0.19824175824175824,1.0057142857142858
2.7444169230002444,0.4964102564102564,0.19824175824175824,1.0057142857142858
2.7500464859986096,0.4964102564102564,0.19824175824175824,1.0057142857142858
2.7502525729942136,0.4964102564102564,0.19824175824175824,1.0057142857142858
2.755969150995952,0.4964102564102564,0.19824175824175824,1.0057142857142858
2.7561452419977286,0.4964102564102564,0.19824175824175824,1.0057142857142858
2.761896045994945,0.4964102564102564,0.19824175824175824,1.0057142857142858
2.767464137999923,2.851941391941392,1.7326007326007327,0.5036630036630036
2.7677515179966576,2.851941391941392,1.7326007326007327,0.5036630036630036
2.772613487999479,2.851941391941392,1.7326007326007327,0.5036630036630036
2.7814507669972954,2.851941391941392,1.7326007326007327,0.5036630036630036
2.786300065999967,2.851941391941392,1.7326007326007327,0.5036630036630036
2.786487737997959,2.851941391941392,1.7326007326007327,0.5036630036630036
2.790707456995733,2.851941391941392,1.7326007326007327,0.5036630036630036
2.79331661699689,2.851941391941392,1.7326007326007327,0.5036630036630036
2.79930402199534,2.851941391941392,1.7326007326007327,0.5036630036630036
2.8046668129973114,0.5012454212454212,0.39809523809523806,0.07736263736263736
2.807220801994845,0.5012454212454212,0.39809523809523806,0.07736263736263736
2.81223241299449,3.0276190476190474,1.5827106227106227,0.5375091575091575
2.8165050449970295,3.0276190476190474,1.5827106227106227,0.5375091575091575
2.8175546809943626,3.0276190476190474,1.5827106227106227,0.5375091575091575
2.8185005609993823,3.0276190476190474,1.5827106227106227,0.5375091575091575
2.819584512995789,3.0276190476190474,1.5827106227106227,0.5375091575091575
2.820515050996619,3.0276190476190474,1.5827106227106227,0.5375091575091575
2.8213852049957495,3.0276190476190474,1.5827106227106227,0.5375091575091575
2.823032913998759,3.0276190476190474,1.5827106227106227,0.5375091575091575
2.8272940409951843,3.0276190476190474,1.5827106227106227,0.5375091575091575
2.829062881995924,0.38278388278388276,0.4464468864468864,1.2652014652014651
2.831673843997123,0.38278388278388276,0.4464468864468864,1.2652014652014651
2.8391363639966585,0.38278388278388276,0.4464468864468864,1.2652014652014651
2.8432737449984415,0.38278388278388276,0.4464468864468864,1.2652014652014651
2.8483173979984713,0.08139194139194139,0.2087179487179487,0.5141391941391941
2.8532027959954576,0.1821245421245421,0.3932600732600733,0.8727472527472527
2.863289379994967,1.1201465201465202,0.5391208791208791,1.1676923076923076
2.8730885539989686,0.26754578754578756,0.10315018315018315,0.9541391941391941
2.885545369994361,1.6463736263736264,0.6938461538461538,1.9775824175824175
2.9008532509978977,0.224029304029304,0.08703296703296703,0.8848351648351648
2.916220628998417,0.224029304029304,0.08703296703296703,0.8848351648351648
2.9290073399970424,1.498901098901099,0.7615384615384615,1.5585347985347984
2.940948234994721,1.498901098901099,0.7615384615384615,1.5585347985347984
2.9491510070001823,0.759120879120879,0.22967032967032966,1.4215384615384616
2.953872865997255,0.759120879120879,0.22967032967032966,1.4215384615384616
2.9619882830011193,0.759120879120879,0.22967032967032966,1.4215384615384616
2.967330678999133,0.16117216117216115,0.13377289377289378,0.9621978021978022
2.9700880559976213,0.16117216117216115,0.13377289377289378,0.9621978021978022
2.974361410997517,0.16117216117216115,0.13377289377289378,0.9621978021978022
2.9747331389953615,0.16117216117216115,0.13377289377289378,0.9621978021978022
2.9864291829944705,0.3046153846153846,0.1668131868131868,1.0065201465201465
2.993628522999643,0.3046153846153846,0.1668131868131868,1.0065201465201465
3.001398854998115,0.24256410256410255,0.10395604395604395,0.7043223443223443
3.0060487739974633,0.24256410256410255,0.10395604395604395,0.7043223443223443
3.006234754997422,0.39567765567765567,0.4528937728937729,1.5802930402930402
3.016413705998275,0.39567765567765567,0.4528937728937729,1.5802930402930402
3.022103404000518,0.39567765567765567,0.4528937728937729,1.5802930402930402
3.022245430998737,0.39567765567765567,0.4528937728937729,1.5802930402930402
3.0296791270011454,0.39567765567765567,0.4528937728937729,1.5802930402930402
3.033422124994104,0.39567765567765567,0.4528937728937729,1.5802930402930402
3.0381343199987896,0.39567765567765567,0.4528937728937729,1.5802930402930402
3.0445156459973077,0.39567765567765567,0.4528937728937729,1.5802930402930402
3.048746440996183,0.39567765567765567,0.4528937728937729,1.5802930402930402
3.0504523540002992,0.39567765567765567,0.4528937728937729,1.5802930402930402
3.054390147997765,0.39567765567765567,0.4528937728937729,1.5802930402930402
3.058323573997768,0.1821245421245421,0.09831501831501832,0.6487179487179486
3.067513112000597,0.28849816849816845,0.1104029304029304,1.0242490842490841
3.072161648000474,0.0,0.17084249084249084,0.2498168498168498
3.072389793000184,1.2740659340659342,0.4859340659340659,1.054065934065934
3.0793573839982855,1.2740659340659342,0.4859340659340659,1.054065934065934
3.085510205994069,0.012893772893772894,0.14263736263736262,0.6922344322344323
3.091326930996729,0.3602197802197802,0.3416849816849817,0.12893772893772892
3.101985057001002,0.3602197802197802,0.3416849816849817,0.12893772893772892
3.1116393560005235,0.3223443223443223,0.13699633699633698,1.0153846153846153
3.1192409680006676,0.3223443223443223,0.13699633699633698,1.0153846153846153
3.126657424996665,0.3223443223443223,0.13699633699633698,1.0153846153846153
3.13365586999862,0.3223443223443223,0.13699633699633698,1.0153846153846153
3.139612875995226,0.27882783882783885,0.15069597069597068,0.5834432234432234
3.148244692994922,0.8695238095238095,0.6535531135531135,0.1523076923076923
3.152326705996529,0.8695238095238095,0.6535531135531135,0.1523076923076923
3.1562805629946524,0.8695238095238095,0.6535531135531135,0.1523076923076923
3.1625040159997297,0.01934065934065934,0.11684981684981684,0.5898901098901098
3.1686687449982855,0.5044688644688645,0.4117948717948718,0.06043956043956044
3.1721547659981297,0.5044688644688645,0.4117948717948718,0.06043956043956044
3.1723407030003727,0.5044688644688645,0.4117948717948718,0.06043956043956044
3.178785224998137,0.5044688644688645,0.4117948717948718,0.06043956043956044
3.18386795999686,0.5044688644688645,0.4117948717948718,0.06043956043956044
3.1867544729975634,0.5044688644688645,0.4117948717948718,0.06043956043956044
3.1903164079994895,0.332014652014652,0.46095238095238095,1.0580952380952382
3.1989457960007712,1.3361172161172161,0.5906959706959707,0.7849084249084248
3.203785910998704,0.1095970695970696,0.12893772893772892,0.42065934065934063
3.209724232998269,0.1095970695970696,0.12893772893772892,0.42065934065934063
3.2166182799992384,0.1095970695970696,0.12893772893772892,0.42065934065934063
3.2206008799985284,0.1095970695970696,0.12893772893772892,0.42065934065934063
3.2246467039949493,0.1095970695970696,0.12893772893772892,0.42065934065934063
3.232929117999447,0.1095970695970696,0.12893772893772892,0.42065934065934063
3.238435801999003,0.1095970695970696,0.12893772893772892,0.42065934065934063
3.238743333000457,0.1095970695970696,0.12893772893772892,0.42065934065934063
3.24655003999942,0.1095970695970696,0.12893772893772892,0.42065934065934063
3.2499502659993595,0.0419047619047619,0.17567765567765567,0.083003663003663
3.2509458040003665,0.0419047619047619,0.17567765567765567,0.083003663003663
3.252029647999734,0.0419047619047619,0.17567765567765567,0.083003663003663
3.252299289997609,0.0419047619047619,0.17567765567765567,0.083003663003663
3.257940776995383,0.6648351648351648,0.3304029304029304,0.971062271062271
3.2588586450001458,0.6648351648351648,0.3304029304029304,0.971062271062271
3.2609501349943457,0.6648351648351648,0.3304029304029304,0.971062271062271
3.26228882799478,0.4891575091575091,0.29413919413919415,0.03868131868131868
3.271178080998652,0.4891575091575091,0.29413919413919415,0.03868131868131868
3.2760279110007104,0.4891575091575091,0.29413919413919415,0.03868131868131868
3.283513870999741,0.4899633699633699,0.24256410256410255,0.8195604395604396
3.2889710140007082,0.4899633699633699,0.24256410256410255,0.8195604395604396
3.2905768339987844,0.4899633699633699,0.24256410256410255,0.8195604395604396
3.2950749279989395,0.4899633699633699,0.24256410256410255,0.8195604395604396
3.2954570750007406,0.4899633699633699,0.24256410256410255,0.8195604395604396
3.303673611000704,0.4899633699633699,0.24256410256410255,0.8195604395604396
3.3094840650010156,0.4899633699633699,0.24256410256410255,0.8195604395604396
3.318830309995974,1.4513553113553113,0.7438095238095238,0.5399267399267399
3.323674185994605,1.232967032967033,0.8574358974358974,0.17003663003663003
3.330925911999657,1.5722344322344322,0.7389743589743589,1.2095970695970695
3.3344325629950617,2.9454212454212456,1.714065934065934,0.3046153846153846
3.3345845160001772,2.9454212454212456,1.714065934065934,0.3046153846153846
3.340326803998323,2.9454212454212456,1.714065934065934,0.3046153846153846
3.340444479996222,0.356996336996337,0.3191208791208791,0.04996336996336996
3.3493965009984095,0.10073260073260072,0.2063003663003663,0.05399267399267399
3.355034923995845,0.10073260073260072,0.2063003663003663,0.05399267399267399
3.355294014996616,0.10073260073260072,0.2063003663003663,0.05399267399267399
3.3621363009951892,0.10073260073260072,0.2063003663003663,0.05399267399267399
3.367549227994459,0.10073260073260072,0.2063003663003663,0.05399267399267399
3.367669699000544,0.34813186813186814,0.4085714285714286,1.0935531135531134
3.373635015996115,0.34813186813186814,0.4085714285714286,1.0935531135531134
3.381736887000443,0.5947252747252747,0.28608058608058606,0.8348717948717947
3.3866423859944916,0.5947252747252747,0.28608058608058606,0.8348717948717947
3.391298153997923,0.5947252747252747,0.28608058608058606,0.8348717948717947
3.3914787829999113,0.5947252747252747,0.28608058608058606,0.8348717948717947
3.400788613995246,0.5947252747252747,0.28608058608058606,0.8348717948717947
3.4069630989979487,0.5947252747252747,0.28608058608058606,0.8348717948717947
3.413573108999117,0.5947252747252747,0.28608058608058606,0.8348717948717947
3.418089501996292,0.5947252747252747,0.28608058608058606,0.8348717948717947
3.4182564799993997,2.1830769230769227,1.1136996336996337,0.3755311355311355
3.4231404530000873,2.1830769230769227,1.1136996336996337,0.3755311355311355
3.4314313939976273,2.1830769230769227,1.1136996336996337,0.3755311355311355
3.4384773060010048,2.1830769230769227,1.1136996336996337,0.3755311355311355
3.445107391999045,1.1024175824175824,0.7712087912087912,0.10637362637362638
3.448998973995913,0.14263736263736262,0.2111355311355311,0.11926739926739927
3.453858533001039,0.14263736263736262,0.2111355311355311,0.11926739926739927
3.4593058379978174,0.166007326007326,0.14102564102564102,0.6390476190476191
3.460943613994459,0.166007326007326,0.14102564102564102,0.6390476190476191
3.467484364999109,0.166007326007326,0.14102564102564102,0.6390476190476191
3.4716228149991366,0.166007326007326,0.14102564102564102,0.6390476190476191
3.4747813129943097,1.2192673992673992,0.5689377289377289,1.062930402930403
3.477210078999633,0.23934065934065935,0.12974358974358974,0.4754578754578754
3.4834040079949773,0.23934065934065935,0.12974358974358974,0.4754578754578754
3.487461623000854,0.23934065934065935,0.12974358974358974,0.4754578754578754
3.4914062059979187,0.20065934065934066,0.3731135531135531,0.7752380952380952
3.496024698994006,0.20065934065934066,0.3731135531135531,0.7752380952380952
3.496241586995893,0.20065934065934066,0.3731135531135531,0.7752380952380952
3.50134532499942,0.20065934065934066,0.3731135531135531,0.7752380952380952
3.5045935319940327,0.20065934065934066,0.3731135531135531,0.7752380952380952
3.505501419000211,0.20065934065934066,0.3731135531135531,0.7752380952380952
3.5065065899980254,0.20065934065934066,0.3731135531135531,0.7752380952380952
3.507421976995829,0.20065934065934066,0.3731135531135531,0.7752380952380952
3.5083722259951173,0.20065934065934066,0.3731135531135531,0.7752380952380952
3.510049006996269,0.20065934065934066,0.3731135531135531,0.7752380952380952
3.5151949809951475,0.20065934065934066,0.3731135531135531,0.7752380952380952
3.5169957949983655,0.20065934065934066,0.3731135531135531,0.7752380952380952
3.5202468809948186,0.20065934065934066,0.3731135531135531,0.7752380952380952
3.522006936997059,0.20065934065934066,0.3731135531135531,0.7752380952380952
3.525570613994205,0.20065934065934066,0.3731135531135531,0.7752380952380952
3.5361729599972023,0.20065934065934066,0.3731135531135531,0.7752380952380952
3.541946008997911,0.20065934065934066,0.3731135531135531,0.7752380952380952
3.5421383009961573,2.4909157509157507,1.41992673992674,0.3199267399267399
3.5508721229998628,2.4909157509157507,1.41992673992674,0.3199267399267399
3.556060899994918,2.9389743589743587,1.6213919413919413,0.3441025641025641
3.558963983996364,0.2836630036630036,0.17567765567765567,0.838095238095238
3.56440801199642,0.2836630036630036,0.17567765567765567,0.838095238095238
3.5646863769943593,0.2836630036630036,0.17567765567765567,0.838095238095238
3.5705966649984475,0.2836630036630036,0.17567765567765567,0.838095238095238
3.5770199519974994,0.2836630036630036,0.17567765567765567,0.838095238095238
3.5816597809971427,0.2836630036630036,0.17567765567765567,0.838095238095238
3.5818033199975616,0.2836630036630036,0.17567765567765567,0.838095238095238
3.5869572879964835,0.2836630036630036,0.17567765567765567,0.838095238095238
3.591004609996162,0.2836630036630036,0.17567765567765567,0.838095238095238
3.5947983549995115,0.2836630036630036,0.17567765567765567,0.838095238095238
3.602399997995235,0.2836630036630036,0.17567765567765567,0.838095238095238
3.606817460997263,0.2111355311355311,0.16197802197802197,0.7695970695970695
3.608571885000856,1.676190476190476,0.763956043956044,1.3506227106227104
3.6145727599941893,1.676190476190476,0.763956043956044,1.3506227106227104
3.618304580995755,1.676190476190476,0.763956043956044,1.3506227106227104
3.6239497939968714,3.0276190476190474,1.5545054945054944,0.46095238095238095
3.624112655998033,0.11362637362637362,0.2747985347985348,0.12087912087912088
3.6321992899975157,0.11362637362637362,0.2747985347985348,0.12087912087912088
3.637041506000969,1.5528937728937728,0.6422710622710622,0.7486446886446886
3.637193764996482,0.24014652014652016,0.12571428571428572,0.581025641025641
3.6441357859948766,0.24014652014652016,0.12571428571428572,0.581025641025641
3.648802126997907,0.10315018315018315,0.3763369963369963,0.07172161172161172
3.6539515879994724,0.10315018315018315,0.3763369963369963,0.07172161172161172
3.6571719279963872,0.10315018315018315,0.3763369963369963,0.07172161172161172
3.6588061479997123,0.2909157509157509,0.16117216117216115,0.772014652014652
3.6656647589989007,0.2909157509157509,0.16117216117216115,0.772014652014652
3.6699407609994523,0.2909157509157509,0.16117216117216115,0.772014652014652
3.6711079179949593,0.2909157509157509,0.16117216117216115,0.772014652014652
3.671379002997128,0.2909157509157509,0.16117216117216115,0.772014652014652
3.6767691419954645,0.2909157509157509,0.16117216117216115,0.772014652014652
3.679298540999298,0.2909157509157509,0.16117216117216115,0.772014652014652
3.6849175809984445,0.2909157509157509,0.16117216117216115,0.772014652014652
3.68505837200064,0.2909157509157509,0.16117216117216115,0.772014652014652
3.6907023870007833,0.2909157509157509,0.16117216117216115,0.772014652014652
3.690995626995573,0.2909157509157509,0.16117216117216115,0.772014652014652
3.6990588959961315,0.9388278388278387,0.3602197802197802,0.9347985347985347
3.704129145000479,0.9920146520146519,0.7276923076923076,0.21355311355311357
3.70883292399958,1.49003663003663,0.7526739926739926,1.5786813186813187
3.720617068996944,1.49003663003663,0.7526739926739926,1.5786813186813187
3.7294519809947815,1.49003663003663,0.7526739926739926,1.5786813186813187
3.73496833799436,1.49003663003663,0.7526739926739926,1.5786813186813187
3.7359935290005524,0.9855677655677655,0.42388278388278383,1.0846886446886446
3.7369005199943786,0.9855677655677655,0.42388278388278383,1.0846886446886446
3.7385904689945164,0.9855677655677655,0.42388278388278383,1.0846886446886446
3.7418836249999003,0.9855677655677655,0.42388278388278383,1.0846886446886446
3.7428468529979,0.9855677655677655,0.42388278388278383,1.0846886446886446
3.7444241199991666,0.9855677655677655,0.42388278388278383,1.0846886446886446
3.749105373994098,1.510989010989011,0.7631501831501831,1.5287179487179487
3.753834464994725,0.20307692307692307,0.4005128205128205,0.8252014652014652
3.754059993996634,0.9235164835164835,0.2635164835164835,1.3619047619047617
3.760474656999577,0.9235164835164835,0.2635164835164835,1.3619047619047617
3.76500179899449,0.029816849816849816,0.1402197802197802,0.6334065934065934
3.7651898529948085,0.029816849816849816,0.1402197802197802,0.6334065934065934
3.771030117000919,0.029816849816849816,0.1402197802197802,0.6334065934065934
3.7784453019994544,0.029816849816849816,0.1402197802197802,0.6334065934065934
3.782693257999199,1.7624175824175823,1.1443223443223443,0.3755311355311355
3.785137673999998,1.7624175824175823,1.1443223443223443,0.3755311355311355
3.7912149819967453,1.7624175824175823,1.1443223443223443,0.3755311355311355
3.7972288289965945,1.54,0.7663736263736264,0.5423443223443223
3.8013171709972084,1.4787545787545788,0.8469597069597068,0.3344322344322344
3.8048252619992127,0.6454945054945055,0.46820512820512816,0.1249084249084249
3.8049423589982325,0.6454945054945055,0.46820512820512816,0.1249084249084249
3.8107044319986016,0.6454945054945055,0.46820512820512816,0.1249084249084249
3.8109115150000434,0.6454945054945055,0.46820512820512816,0.1249084249084249
3.816757417996996,0.6454945054945055,0.46820512820512816,0.1249084249084249
3.8169361219988787,0.6454945054945055,0.46820512820512816,0.1249084249084249
3.821880997995322,0.6454945054945055,0.46820512820512816,0.1249084249084249
3.829465541995887,0.6454945054945055,0.46820512820512816,0.1249084249084249
3.833390249994409,0.6454945054945055,0.46820512820512816,0.1249084249084249
3.837562665998121,1.0298901098901099,0.42468864468864465,1.3498168498168497
3.8399980579997646,1.0298901098901099,0.42468864468864465,1.3498168498168497
3.8402024949973566,0.3465201465201465,0.2796336996336996,0.09992673992673992
3.8467589110005065,0.3465201465201465,0.2796336996336996,0.09992673992673992
3.8522767789982026,0.3465201465201465,0.2796336996336996,0.09992673992673992
3.8524009819957428,0.3465201465201465,0.2796336996336996,0.09992673992673992
3.85795018600038,0.3465201465201465,0.2796336996336996,0.09992673992673992
3.858819893997861,0.3465201465201465,0.2796336996336996,0.09992673992673992
3.8598052309971536,0.3465201465201465,0.2796336996336996,0.09992673992673992
3.8610686370011535,0.3465201465201465,0.2796336996336996,0.09992673992673992
3.8614647619979223,0.3465201465201465,0.2796336996336996,0.09992673992673992
3.8660842739991494,0.3465201465201465,0.2796336996336996,0.09992673992673992
3.866271273996972,0.3465201465201465,0.2796336996336996,0.09992673992673992
3.8723246399968048,0.3465201465201465,0.2796336996336996,0.09992673992673992
3.8775714639996295,0.3465201465201465,0.2796336996336996,0.09992673992673992
3.8795197809959063,0.3465201465201465,0.2796336996336996,0.09992673992673992
3.8813417669953196,0.3465201465201465,0.2796336996336996,0.09992673992673992
3.8839312239942956,0.3465201465201465,0.2796336996336996,0.09992673992673992
3.8895673859951785,0.3465201465201465,0.2796336996336996,0.09992673992673992
3.8906617859975086,0.3465201465201465,0.2796336996336996,0.09992673992673992
3.890989510997315,0.3465201465201465,0.2796336996336996,0.09992673992673992
3.8999086679978063,0.3465201465201465,0.2796336996336996,0.09992673992673992
3.903911153996887,0.22886446886446887,0.18373626373626373,0.6463003663003662
3.907324323998182,0.22886446886446887,0.18373626373626373,0.6463003663003662
3.907505012997717,0.22886446886446887,0.18373626373626373,0.6463003663003662
3.9159858849961893,0.22886446886446887,0.18373626373626373,0.6463003663003662
3.9209288229976664,0.22886446886446887,0.18373626373626373,0.6463003663003662
3.9277634319951176,0.22886446886446887,0.18373626373626373,0.6463003663003662
3.9320667309948476,1.378021978021978,0.7196336996336996,1.85025641025641
3.9329792259959504,0.788937728937729,0.31347985347985347,1.324029304029304
3.934662086998287,0.788937728937729,0.31347985347985347,1.324029304029304
3.9379516459957813,0.788937728937729,0.31347985347985347,1.324029304029304
3.9395041949974257,0.10073260073260072,0.166007326007326,0.6261538461538461
3.9447662609964027,0.10073260073260072,0.166007326007326,0.6261538461538461
3.9466870319956797,0.10073260073260072,0.166007326007326,0.6261538461538461
3.94938942999579,0.10073260073260072,0.166007326007326,0.6261538461538461
3.953487655999197,0.10073260073260072,0.166007326007326,0.6261538461538461
3.9560070789957535,0.10073260073260072,0.166007326007326,0.6261538461538461
3.956130474995007,0.10073260073260072,0.166007326007326,0.6261538461538461
3.9628421399975196,0.10073260073260072,0.166007326007326,0.6261538461538461
3.9665167089988245,0.3336263736263736,0.3352380952380952,0.1095970695970696
3.9720931029951316,0.3336263736263736,0.3352380952380952,0.1095970695970696
3.973039399999834,1.5045421245421244,0.6736996336996337,0.776043956043956
3.977264777997334,1.5045421245421244,0.6736996336996337,0.776043956043956
3.977683488999901,1.5045421245421244,0.6736996336996337,0.776043956043956
3.9831161459951545,1.5045421245421244,0.6736996336996337,0.776043956043956
3.983431337001093,1.5045421245421244,0.6736996336996337,0.776043956043956
3.988106724995305,1.5045421245421244,0.6736996336996337,0.776043956043956
3.98832616800064,1.5045421245421244,0.6736996336996337,0.776043956043956
3.994546971996897,1.5045421245421244,0.6736996336996337,0.776043956043956
3.998781711998163,1.5045421245421244,0.6736996336996337,0.776043956043956
4.000408438994782,1.5045421245421244,0.6736996336996337,0.776043956043956
4.0044065799957025,1.5045421245421244,0.6736996336996337,0.776043956043956
4.008834865999233,1.5045421245421244,0.6736996336996337,0.776043956043956
4.011282922998362,1.5045421245421244,0.6736996336996337,0.776043956043956
4.0174098829957074,0.9557509157509158,0.365054945054945,1.6455677655677654
4.021569293996436,0.30864468864468864,0.1265201465201465,1.0258608058608059
4.024896942995838,0.6003663003663003,0.44402930402930396,0.05882783882783882
4.0261267839960055,0.6003663003663003,0.44402930402930396,0.05882783882783882
4.026669803999539,0.6003663003663003,0.44402930402930396,0.05882783882783882
4.030114676999801,0.6003663003663003,0.44402930402930396,0.05882783882783882
4.0302775769960135,0.6003663003663003,0.44402930402930396,0.05882783882783882
4.036138221999863,0.6003663003663003,0.44402930402930396,0.05882783882783882
4.04211003799719,0.6003663003663003,0.44402930402930396,0.05882783882783882
4.049927101994399,0.6003663003663003,0.44402930402930396,0.05882783882783882
4.054697577994375,0.6003663003663003,0.44402930402930396,0.05882783882783882
4.054903093994653,0.11443223443223444,0.1571428571428571,0.5520146520146519
4.062017702999583,0.11443223443223444,0.1571428571428571,0.5520146520146519
4.068154891996528,0.11443223443223444,0.1571428571428571,0.5520146520146519
4.071405062000849,0.11443223443223444,0.1571428571428571,0.5520146520146519
4.072337287994742,1.1789743589743589,0.4351648351648352,1.3876923076923076
4.074053564996575,1.0065201465201465,0.31750915750915754,1.303076923076923
4.0779633700003615,1.0065201465201465,0.31750915750915754,1.303076923076923
4.083198663996882,1.0065201465201465,0.31750915750915754,1.303076923076923
4.085605449996365,1.0065201465201465,0.31750915750915754,1.303076923076923
4.085805600996537,1.0065201465201465,0.31750915750915754,1.303076923076923
4.091133864996664,1.0065201465201465,0.31750915750915754,1.303076923076923
4.094794020995323,1.0065201465201465,0.31750915750915754,1.303076923076923
4.1007668469974305,1.0065201465201465,0.31750915750915754,1.303076923076923
4.105620745998749,1.0065201465201465,0.31750915750915754,1.303076923076923
4.112432257999899,0.224029304029304,0.356996336996337,0.9041758241758242
4.116058364998025,1.1402930402930402,0.4827106227106227,1.0685714285714285
4.121793240999978,1.1402930402930402,0.4827106227106227,1.0685714285714285
4.122025379998377,2.5158974358974358,1.2643956043956044,0.3545787545787546
4.128374678999535,2.5158974358974358,1.2643956043956044,0.3545787545787546
4.133079013998213,2.5158974358974358,1.2643956043956044,0.3545787545787546
4.137938286999997,2.5158974358974358,1.2643956043956044,0.3545787545787546
4.143541364996054,2.5158974358974358,1.2643956043956044,0.3545787545787546
4.1438619420005125,2.5158974358974358,1.2643956043956044,0.3545787545787546
4.149944676995801,2.5158974358974358,1.2643956043956044,0.3545787545787546
4.155197738997231,2.5158974358974358,1.2643956043956044,0.3545787545787546
4.1572053259951645,2.5158974358974358,1.2643956043956044,0.3545787545787546
4.158128887000203,2.5158974358974358,1.2643956043956044,0.3545787545787546
4.16012274500099,2.5158974358974358,1.2643956043956044,0.3545787545787546
4.1620979189974605,2.5158974358974358,1.2643956043956044,0.3545787545787546
4.163534178995178,2.5158974358974358,1.2643956043956044,0.3545787545787546
4.168794197998068,2.5158974358974358,1.2643956043956044,0.3545787545787546
4.172044824998011,2.5158974358974358,1.2643956043956044,0.3545787545787546
4.172951052998542,2.5158974358974358,1.2643956043956044,0.3545787545787546
4.174621223995928,2.5158974358974358,1.2643956043956044,0.3545787545787546
4.181074805994285,0.3723076923076923,0.21194139194139192,0.6326007326007326
4.1844583909987705,0.3723076923076923,0.21194139194139192,0.6326007326007326
4.184743511999841,0.3723076923076923,0.21194139194139192,0.6326007326007326
4.190781696997874,0.3723076923076923,0.21194139194139192,0.6326007326007326
4.197479574999306,0.3723076923076923,0.21194139194139192,0.6326007326007326
4.200765106994368,0.17164835164835165,0.16278388278388278,0.4448351648351648
4.202435967999918,0.17164835164835165,0.16278388278388278,0.4448351648351648
4.205866302996583,0.17164835164835165,0.16278388278388278,0.4448351648351648
4.206142222996277,0.17164835164835165,0.16278388278388278,0.4448351648351648
4.213345544994809,0.17164835164835165,0.16278388278388278,0.4448351648351648
4.217498029996932,0.17164835164835165,0.16278388278388278,0.4448351648351648
4.221019779994094,0.17164835164835165,0.16278388278388278,0.4448351648351648
4.221164176997263,0.17164835164835165,0.16278388278388278,0.4448351648351648
4.2283662619956885,0.17164835164835165,0.16278388278388278,0.4448351648351648
4.233169745995838,3.066300366300366,1.6624908424908424,0.36344322344322344
4.238451997000084,0.32717948717948714,0.18454212454212454,0.6463003663003662
4.24173935399449,0.32717948717948714,0.18454212454212454,0.6463003663003662
4.2433076789966435,0.32717948717948714,0.18454212454212454,0.6463003663003662
4.251217755998368,0.32717948717948714,0.18454212454212454,0.6463003663003662
4.257979741996678,0.32717948717948714,0.18454212454212454,0.6463003663003662
4.264078606000112,0.32717948717948714,0.18454212454212454,0.6463003663003662
4.2680488219994,0.32717948717948714,0.18454212454212454,0.6463003663003662
4.272089336998761,0.32717948717948714,0.18454212454212454,0.6463003663003662
4.276009601999249,1.1467399267399265,0.39003663003663,1.0548717948717947
4.280166854994604,1.1467399267399265,0.39003663003663,1.0548717948717947
4.282987827995385,1.1467399267399265,0.39003663003663,1.0548717948717947
4.286137053997663,1.1467399267399265,0.39003663003663,1.0548717948717947
4.287113676997251,1.3498168498168497,0.6454945054945055,1.548058608058608
4.288022111999453,1.3498168498168497,0.6454945054945055,1.548058608058608
4.2897505090004415,1.3498168498168497,0.6454945054945055,1.548058608058608
4.294142467995698,1.324029304029304,0.5971428571428571,0.9009523809523808
4.295234532997711,1.324029304029304,0.5971428571428571,0.9009523809523808
4.295611055997142,1.324029304029304,0.5971428571428571,0.9009523809523808
4.301298132995726,0.1926007326007326,0.14263736263736262,0.7333333333333333
4.301497271997505,0.2868864468864469,0.3078388278388278,0.0709157509157509
4.307146339997416,0.2868864468864469,0.3078388278388278,0.0709157509157509
4.3074072989984415,0.2868864468864469,0.3078388278388278,0.0709157509157509
4.316782597998099,0.2868864468864469,0.3078388278388278,0.0709157509157509
4.321564916994248,0.2868864468864469,0.3078388278388278,0.0709157509157509
4.329321293000248,0.2868864468864469,0.3078388278388278,0.0709157509157509
4.3368447619941435,0.2868864468864469,0.3078388278388278,0.0709157509157509
4.344702668997343,1.1225641025641024,0.5076923076923077,0.9202930402930403
4.351956038997741,1.1225641025641024,0.5076923076923077,0.9202930402930403
4.356910590999178,1.1225641025641024,0.5076923076923077,0.9202930402930403
4.366078428996843,0.49802197802197795,0.2836630036630036,0.9025641025641026
4.370342324000376,0.1539194139194139,0.1789010989010989,0.17326007326007326
4.3714054219963145,0.1539194139194139,0.1789010989010989,0.17326007326007326
4.371742333998554,0.1539194139194139,0.1789010989010989,0.17326007326007326
4.38052566099941,0.1539194139194139,0.1789010989010989,0.17326007326007326
4.387376079001115,0.1539194139194139,0.1789010989010989,0.17326007326007326
4.3926402229990344,0.1539194139194139,0.1789010989010989,0.17326007326007326
4.3961730070004705,0.1539194139194139,0.1789010989010989,0.17326007326007326
4.401292234993889,0.016117216117216115,0.14908424908424908,0.5068864468864469
4.404623542999616,0.1523076923076923,0.17326007326007326,0.04915750915750916
4.405503167996358,0.1523076923076923,0.17326007326007326,0.04915750915750916
4.406662453999161,0.1523076923076923,0.17326007326007326,0.04915750915750916
4.407005843000661,0.1523076923076923,0.17326007326007326,0.04915750915750916
4.413912579999305,0.1523076923076923,0.17326007326007326,0.04915750915750916
4.418409384998085,0.1523076923076923,0.17326007326007326,0.04915750915750916
4.418634522000502,0.1523076923076923,0.17326007326007326,0.04915750915750916
4.424402024000301,0.1523076923076923,0.17326007326007326,0.04915750915750916
4.4246025789980195,0.1523076923076923,0.17326007326007326,0.04915750915750916
4.431880315998569,0.1523076923076923,0.17326007326007326,0.04915750915750916
4.436312532998272,0.1523076923076923,0.17326007326007326,0.04915750915750916
4.437267329994938,0.1523076923076923,0.17326007326007326,0.04915750915750916
4.438203822996002,0.1523076923076923,0.17326007326007326,0.04915750915750916
4.439219921994663,3.098534798534798,1.767252747252747,0.3690842490842491
4.439547613998002,3.098534798534798,1.767252747252747,0.3690842490842491
4.445097477000672,3.098534798534798,1.767252747252747,0.3690842490842491
4.446421538996219,3.098534798534798,1.767252747252747,0.3690842490842491
4.451804436997918,3.098534798534798,1.767252747252747,0.3690842490842491
4.453479153999069,3.098534798534798,1.767252747252747,0.3690842490842491
4.457570062993909,3.098534798534798,1.767252747252747,0.3690842490842491
4.463465041000745,3.098534798534798,1.767252747252747,0.3690842490842491
4.469300308999664,3.098534798534798,1.767252747252747,0.3690842490842491
4.473741351997887,3.098534798534798,1.767252747252747,0.3690842490842491
4.474842882998928,3.098534798534798,1.767252747252747,0.3690842490842491
4.475032262998866,3.098534798534798,1.767252747252747,0.3690842490842491
4.484226158994716,3.098534798534798,1.767252747252747,0.3690842490842491
4.4889311119986814,0.28205128205128205,0.3263736263736263,0.11846153846153845
4.4971625760008465,0.19179487179487179,0.3876190476190476,0.7397802197802198
4.501191185998323,0.5769963369963369,0.2095238095238095,0.7832967032967032
4.505241783001111,0.5769963369963369,0.2095238095238095,0.7832967032967032
4.508746034996875,1.7736996336996336,0.7792673992673992,1.4207326007326007
4.508970416994998,1.7736996336996336,0.7792673992673992,1.4207326007326007
4.5183926909958245,1.7736996336996336,0.7792673992673992,1.4207326007326007
4.523899599000288,0.6632234432234432,0.27399267399267396,0.9186813186813186
4.524866462998034,0.6632234432234432,0.27399267399267396,0.9186813186813186
4.525843701994745,0.6632234432234432,0.27399267399267396,0.9186813186813186
4.527580286994635,0.6632234432234432,0.27399267399267396,0.9186813186813186
4.532056427997304,0.6632234432234432,0.27399267399267396,0.9186813186813186
4.537982683999871,0.6632234432234432,0.27399267399267396,0.9186813186813186
4.543907011000556,0.6632234432234432,0.27399267399267396,0.9186813186813186
4.5440469089953694,0.6632234432234432,0.27399267399267396,0.9186813186813186
4.549257333994319,0.6632234432234432,0.27399267399267396,0.9186813186813186
4.552908371995727,0.6632234432234432,0.27399267399267396,0.9186813186813186
4.559198605995334,0.6632234432234432,0.27399267399267396,0.9186813186813186
4.563838220994512,0.5641025641025641,0.423076923076923,0.0693040293040293
4.5695602639971185,0.5641025641025641,0.423076923076923,0.0693040293040293
4.569798938995518,0.5641025641025641,0.423076923076923,0.0693040293040293
4.574498390000372,0.5641025641025641,0.423076923076923,0.0693040293040293
4.57462194099935,0.5641025641025641,0.423076923076923,0.0693040293040293
4.58152381999389,0.5641025641025641,0.423076923076923,0.0693040293040293
4.585819199994148,0.5641025641025641,0.423076923076923,0.0693040293040293
4.587482012997498,0.5641025641025641,0.423076923076923,0.0693040293040293
4.590964496994275,0.5641025641025641,0.423076923076923,0.0693040293040293
4.5911873019940685,0.5641025641025641,0.423076923076923,0.0693040293040293
4.596793101998628,0.5641025641025641,0.423076923076923,0.0693040293040293
4.597041248998721,0.5641025641025641,0.423076923076923,0.0693040293040293
4.602577883997583,0.5641025641025641,0.423076923076923,0.0693040293040293
4.603500479999639,0.5641025641025641,0.423076923076923,0.0693040293040293
4.604488757999206,0.5641025641025641,0.423076923076923,0.0693040293040293
4.606107305997284,0.5641025641025641,0.423076923076923,0.0693040293040293
4.610978608994628,0.5641025641025641,0.423076923076923,0.0693040293040293
4.616525217999879,1.5295238095238095,0.7768498168498168,0.6245421245421244
4.61665918899962,1.5295238095238095,0.7768498168498168,0.6245421245421244
4.622828497995215,1.5295238095238095,0.7768498168498168,0.6245421245421244
4.6274751809978625,1.5295238095238095,0.7768498168498168,0.6245421245421244
4.6275935509984265,1.5295238095238095,0.7768498168498168,0.6245421245421244
4.6334701890009455,2.731062271062271,1.5174358974358972,0.4142124542124542
4.639049551995413,2.731062271062271,1.5174358974358972,0.4142124542124542
4.6399170009972295,0.6745054945054945,0.5375091575091575,0.11523809523809524
4.641658853994159,0.30542124542124544,0.33604395604395604,0.07978021978021978
4.647631804000412,0.30542124542124544,0.33604395604395604,0.07978021978021978
4.651600890996633,0.30542124542124544,0.33604395604395604,0.07978021978021978
4.6550177159952,0.30542124542124544,0.33604395604395604,0.07978021978021978
4.655271256997366,0.518974358974359,0.21355311355311357,0.8243956043956043
4.661301248001109,0.518974358974359,0.21355311355311357,0.8243956043956043
4.665929887996754,0.518974358974359,0.21355311355311357,0.8243956043956043
4.666109926998615,0.518974358974359,0.21355311355311357,0.8243956043956043
4.670891964000475,0.518974358974359,0.21355311355311357,0.8243956043956043
4.677162931999192,0.8284249084249083,0.381978021978022,0.9613919413919414
4.681426213996019,0.22967032967032966,0.1378021978021978,0.7349450549450549
4.682297788996948,0.22967032967032966,0.1378021978021978,0.7349450549450549
4.68396987599408,0.22967032967032966,0.1378021978021978,0.7349450549450549
4.688161724996462,0.22967032967032966,0.1378021978021978,0.7349450549450549
4.690317707994836,0.22967032967032966,0.1378021978021978,0.7349450549450549
4.691352559995721,0.22967032967032966,0.1378021978021978,0.7349450549450549
4.691611293994356,0.22967032967032966,0.1378021978021978,0.7349450549450549
4.699694411996461,0.22967032967032966,0.1378021978021978,0.7349450549450549
4.704322736994072,0.0,0.19340659340659339,0.5262271062271061
4.704535782999301,0.0,0.19340659340659339,0.5262271062271061
4.712000849998731,0.0,0.19340659340659339,0.5262271062271061
4.716279941996618,0.0,0.19340659340659339,0.5262271062271061
4.717203779997362,0.0,0.19340659340659339,0.5262271062271061
4.71882349599764,0.0,0.19340659340659339,0.5262271062271061
4.722633273995598,0.0,0.19340659340659339,0.5262271062271061
4.729048980996595,0.0,0.19340659340659339,0.5262271062271061
4.7327580169949215,0.0,0.19340659340659339,0.5262271062271061
4.737648573995102,0.0,0.19340659340659339,0.5262271062271061
4.744598063996818,0.20065934065934066,0.2071062271062271,0.6084249084249085
4.749750458999188,0.20065934065934066,0.2071062271062271,0.6084249084249085
4.753097843997239,0.20065934065934066,0.2071062271062271,0.6084249084249085
4.753402081994864,0.20065934065934066,0.2071062271062271,0.6084249084249085
4.758694172996911,0.20065934065934066,0.2071062271062271,0.6084249084249085
4.764422403997742,0.20065934065934066,0.2071062271062271,0.6084249084249085
4.769508692996169,0.0,0.17245421245421244,0.1539194139194139
4.772734639998816,0.0,0.17245421245421244,0.1539194139194139
4.773672768998949,0.7204395604395604,0.30945054945054945,1.1282051282051282
4.7753749749972485,0.3102564102564102,0.18615384615384614,0.6680586080586081
4.781020085996715,0.20065934065934066,0.1249084249084249,0.8413186813186813
4.781142569998337,0.20065934065934066,0.1249084249084249,0.8413186813186813
4.786085407999053,0.20065934065934066,0.1249084249084249,0.8413186813186813
4.792604178001056,1.4932600732600732,0.7671794871794871,1.8873260073260072
4.7980411289972835,1.4932600732600732,0.7671794871794871,1.8873260073260072
4.798312216997147,1.4932600732600732,0.7671794871794871,1.8873260073260072
4.803281041997252,1.4932600732600732,0.7671794871794871,1.8873260073260072
4.8076031129967305,1.4932600732600732,0.7671794871794871,1.8873260073260072
4.810439932996815,1.4932600732600732,0.7671794871794871,1.8873260073260072
4.814543773994956,1.4932600732600732,0.7671794871794871,1.8873260073260072
4.8162757479949505,1.4932600732600732,0.7671794871794871,1.8873260073260072
4.819468021996727,1.4932600732600732,0.7671794871794871,1.8873260073260072
4.821144326997455,1.4932600732600732,0.7671794871794871,1.8873260073260072
4.825189395000052,1.4932600732600732,0.7671794871794871,1.8873260073260072
4.8299975949994405,1.4932600732600732,0.7671794871794871,1.8873260073260072
4.834175588999642,1.4690842490842488,0.6882051282051282,0.8155311355311355
4.835828732000664,1.4690842490842488,0.6882051282051282,0.8155311355311355
4.839127617000486,1.4690842490842488,0.6882051282051282,0.8155311355311355
4.840253088994359,1.4690842490842488,0.6882051282051282,0.8155311355311355
4.840526449996105,1.4690842490842488,0.6882051282051282,0.8155311355311355
4.847582942995359,1.4690842490842488,0.6882051282051282,0.8155311355311355
4.851568215999578,0.3932600732600733,0.45772893772893775,1.365128205128205
4.854967540995858,0.3932600732600733,0.45772893772893775,1.365128205128205
4.855317914996704,0.3932600732600733,0.45772893772893775,1.365128205128205
4.861126969000907,0.2063003663003663,0.13377289377289378,0.8920879120879119
4.861324090998096,0.2063003663003663,0.13377289377289378,0.8920879120879119
4.867014851995918,0.2063003663003663,0.13377289377289378,0.8920879120879119
4.8672587769979145,0.2063003663003663,0.13377289377289378,0.8920879120879119
4.87281304699718,0.2063003663003663,0.13377289377289378,0.8920879120879119
4.873826639995968,1.5802930402930402,0.7937728937728937,0.6261538461538461
4.874721887994383,1.5802930402930402,0.7937728937728937,0.6261538461538461
4.87714449899795,1.5802930402930402,0.7937728937728937,0.6261538461538461
4.883458464995783,1.5802930402930402,0.7937728937728937,0.6261538461538461
4.8879038089944515,2.7697435897435896,1.4368498168498167,0.3908424908424908
4.8888150329948985,1.3562637362637362,0.8276190476190476,0.5495970695970696
4.889884071999404,1.3562637362637362,0.8276190476190476,0.5495970695970696
4.890980509997462,1.3562637362637362,0.8276190476190476,0.5495970695970696
4.891288431994326,1.3562637362637362,0.8276190476190476,0.5495970695970696
4.8986432349993265,1.3562637362637362,0.8276190476190476,0.5495970695970696
4.903573093994055,1.3562637362637362,0.8276190476190476,0.5495970695970696
4.909800825000275,1.3562637362637362,0.8276190476190476,0.5495970695970696
4.913552174999495,1.3562637362637362,0.8276190476190476,0.5495970695970696
4.9175467349996325,1.3562637362637362,0.8276190476190476,0.5495970695970696
4.922348837993923,1.3562637362637362,0.8276190476190476,0.5495970695970696
4.922469885997998,0.796996336996337,0.6027838827838827,0.21274725274725276
4.929809146997286,0.796996336996337,0.6027838827838827,0.21274725274725276
4.9335654379974585,2.9381684981684977,1.4852014652014651,0.3191208791208791
4.937641157994221,2.9381684981684977,1.4852014652014651,0.3191208791208791
4.941292680996412,0.11684981684981684,0.1241025641025641,0.8445421245421244
4.9494612769995,0.11684981684981684,0.1241025641025641,0.8445421245421244
4.955146988999331,0.11684981684981684,0.1241025641025641,0.8445421245421244
4.955418664998433,1.0701831501831502,0.4448351648351648,1.2474725274725273
4.9625561439970625,1.0701831501831502,0.4448351648351648,1.2474725274725273
4.966217859000608,1.0701831501831502,0.4448351648351648,1.2474725274725273
4.966446701000677,1.4529670329670328,0.7430036630036629,1.6544322344322344
4.971497042999545,1.4529670329670328,0.7430036630036629,1.6544322344322344
4.975615236995509,1.4529670329670328,0.7430036630036629,1.6544322344322344
4.981041733997699,1.4529670329670328,0.7430036630036629,1.6544322344322344
4.98126213499927,1.4529670329670328,0.7430036630036629,1.6544322344322344
4.987487762999081,1.4529670329670328,0.7430036630036629,1.6544322344322344
4.990796514997783,3.1186813186813183,1.6689377289377287,0.3972893772893773
4.993634275000659,3.1186813186813183,1.6689377289377287,0.3972893772893773
4.997632815000543,3.1186813186813183,1.6689377289377287,0.3972893772893773
5.000403867998102,3.1186813186813183,1.6689377289377287,0.3972893772893773
5.004946641995048,3.1186813186813183,1.6689377289377287,0.3972893772893773
5.005044499994256,0.083003663003663,0.2594871794871795,0.46175824175824176
5.012449417998141,0.083003663003663,0.2594871794871795,0.46175824175824176
5.017514825995022,1.543223443223443,0.7615384615384615,0.6882051282051282
5.020939011999872,0.22644688644688646,0.11846153846153845,0.8582417582417583
5.021098463999806,0.22644688644688646,0.11846153846153845,0.8582417582417583
5.026674869994167,0.22644688644688646,0.11846153846153845,0.8582417582417583
5.027617289997579,0.3158974358974359,0.44080586080586076,1.232161172161172
5.029319258996111,0.3158974358974359,0.44080586080586076,1.232161172161172
5.033215062998352,0.3158974358974359,0.44080586080586076,1.232161172161172
5.037925774995529,0.3158974358974359,0.44080586080586076,1.232161172161172
5.038097083001048,0.3158974358974359,0.44080586080586076,1.232161172161172
5.043679927999619,0.3158974358974359,0.44080586080586076,1.232161172161172
5.044558929999766,0.3158974358974359,0.44080586080586076,1.232161172161172
5.046398357000726,0.3158974358974359,0.44080586080586076,1.232161172161172
5.048840739000298,0.3158974358974359,0.44080586080586076,1.232161172161172
5.04909754399705,0.3158974358974359,0.44080586080586076,1.232161172161172
5.054447059999802,1.303076923076923,0.5504029304029303,1.0548717948717947
5.056863197998609,1.303076923076923,0.5504029304029303,1.0548717948717947
5.057022702996619,1.303076923076923,0.5504029304029303,1.0548717948717947
5.061838556001021,1.303076923076923,0.5504029304029303,1.0548717948717947
5.062039990996709,1.303076923076923,0.5504029304029303,1.0548717948717947
5.06894899100007,1.303076923076923,0.5504029304029303,1.0548717948717947
5.074232967999706,3.00021978021978,1.5956043956043955,0.38681318681318677
5.077345922996756,3.00021978021978,1.5956043956043955,0.38681318681318677
5.077669307996985,3.00021978021978,1.5956043956043955,0.38681318681318677
5.084215053997468,3.00021978021978,1.5956043956043955,0.38681318681318677
5.088220047997311,3.00021978021978,1.5956043956043955,0.38681318681318677
5.093230500999198,3.00021978021978,1.5956043956043955,0.38681318681318677
5.097940526997263,0.16036630036630037,0.1523076923076923,0.46820512820512816
5.104220125998836,0.16036630036630037,0.1523076923076923,0.46820512820512816
5.108351010996557,0.16036630036630037,0.1523076923076923,0.46820512820512816
5.111737818995607,0.16036630036630037,0.1523076923076923,0.46820512820512816
5.1125793469982455,0.16036630036630037,0.1523076923076923,0.46820512820512816
5.114277955995931,0.16036630036630037,0.1523076923076923,0.46820512820512816
5.1181500909951865,0.16036630036630037,0.1523076923076923,0.46820512820512816
5.1229253569981665,0.16036630036630037,0.1523076923076923,0.46820512820512816
5.123060057994735,0.16036630036630037,0.1523076923076923,0.46820512820512816
5.128542145997926,1.6254212454212453,0.8058608058608058,1.46021978021978
5.130267948996334,1.6254212454212453,0.8058608058608058,1.46021978021978
5.13349799199932,1.6254212454212453,0.8058608058608058,1.46021978021978
5.134422204995644,1.6254212454212453,0.8058608058608058,1.46021978021978
5.136039518998587,1.6254212454212453,0.8058608058608058,1.46021978021978
5.139678804996947,1.6254212454212453,0.8058608058608058,1.46021978021978
5.139794996997807,3.175897435897436,1.6584615384615384,0.3892307692307692
5.144856699997035,3.175897435897436,1.6584615384615384,0.3892307692307692
5.149541221995605,1.0258608058608059,0.6632234432234432,1.6979487179487176
5.155426286997681,1.0258608058608059,0.6632234432234432,1.6979487179487176
5.155559768994863,0.24175824175824176,0.1676190476190476,0.6616117216117217
5.161518142995192,0.24175824175824176,0.1676190476190476,0.6616117216117217
5.166456465994997,0.24175824175824176,0.1676190476190476,0.6616117216117217
5.171942886998295,0.24175824175824176,0.1676190476190476,0.6616117216117217
5.172241966996808,0.24175824175824176,0.1676190476190476,0.6616117216117217
5.177780783000344,0.24175824175824176,0.1676190476190476,0.6616117216117217
5.1794185639955685,0.24175824175824176,0.1676190476190476,0.6616117216117217
5.183262102000299,0.24175824175824176,0.1676190476190476,0.6616117216117217
5.187968328995339,0.24175824175824176,0.1676190476190476,0.6616117216117217
5.1881639739949605,0.24175824175824176,0.1676190476190476,0.6616117216117217
5.193653721995361,0.24175824175824176,0.1676190476190476,0.6616117216117217
5.195270939999318,0.24175824175824176,0.1676190476190476,0.6616117216117217
5.199226712997188,0.24175824175824176,0.1676190476190476,0.6616117216117217
5.203789319995849,0.24175824175824176,0.1676190476190476,0.6616117216117217
5.204640675998235,0.24175824175824176,0.1676190476190476,0.6616117216117217
5.206364899000619,0.24175824175824176,0.1676190476190476,0.6616117216117217
5.209584425996582,0.24175824175824176,0.1676190476190476,0.6616117216117217
5.2113243819985655,0.24175824175824176,0.1676190476190476,0.6616117216117217
5.21460773400031,0.24175824175824176,0.1676190476190476,0.6616117216117217
5.215530952998961,0.24175824175824176,0.1676190476190476,0.6616117216117217
5.216623025000445,0.24175824175824176,0.1676190476190476,0.6616117216117217
5.216891158997896,0.24175824175824176,0.1676190476190476,0.6616117216117217
5.222792501001095,0.24175824175824176,0.1676190476190476,0.6616117216117217
5.228314223997586,0.24175824175824176,0.1676190476190476,0.6616117216117217
5.229215624000062,1.3514285714285714,0.6938461538461538,0.311062271062271
5.230892948995461,1.3514285714285714,0.6938461538461538,0.311062271062271
5.234792939998442,1.3514285714285714,0.6938461538461538,0.311062271062271
5.239478796996991,1.3514285714285714,0.6938461538461538,0.311062271062271
5.239618383995548,1.3514285714285714,0.6938461538461538,0.311062271062271
5.245101961998444,1.3514285714285714,0.6938461538461538,0.311062271062271
5.246731797000393,1.0887179487179486,0.6994871794871794,1.543223443223443
5.251581115997396,0.3545787545787546,0.506080586080586,1.0999999999999999
5.256375122000463,0.3545787545787546,0.506080586080586,1.0999999999999999
5.262075465994712,0.3545787545787546,0.506080586080586,1.0999999999999999
5.262989473994821,0.3545787545787546,0.506080586080586,1.0999999999999999
5.264119013998425,0.3545787545787546,0.506080586080586,1.0999999999999999
5.264406556998438,0.3545787545787546,0.506080586080586,1.0999999999999999
5.273287379997782,0.3545787545787546,0.506080586080586,1.0999999999999999
5.278012775997922,2.8825641025641024,1.6302564102564103,0.3779487179487179
5.278218154999195,0.42388278388278383,0.4553113553113553,0.28769230769230764
5.2837061879981775,0.42388278388278383,0.4553113553113553,0.28769230769230764
5.286054027994396,0.42388278388278383,0.4553113553113553,0.28769230769230764
5.286224568000762,0.42388278388278383,0.4553113553113553,0.28769230769230764
5.290879811000195,0.42388278388278383,0.4553113553113553,0.28769230769230764
5.2917588939963025,1.095164835164835,0.4722344322344322,0.9871794871794871
5.292714179995528,1.095164835164835,0.4722344322344322,0.9871794871794871
5.294355829995766,1.095164835164835,0.4722344322344322,0.9871794871794871
5.298223009995127,1.095164835164835,0.4722344322344322,0.9871794871794871
5.3030036950003705,0.12732600732600732,0.13538461538461538,0.6213186813186813
5.303138158000365,0.12732600732600732,0.13538461538461538,0.6213186813186813
5.308621747994039,0.12732600732600732,0.13538461538461538,0.6213186813186813
5.310307166000712,0.12732600732600732,0.13538461538461538,0.6213186813186813
5.314260408995324,0.12732600732600732,0.13538461538461538,0.6213186813186813
5.318283941000118,0.24578754578754577,0.15875457875457877,0.6422710622710622
5.323636975001136,0.24578754578754577,0.15875457875457877,0.6422710622710622
5.32527183899947,0.24578754578754577,0.15875457875457877,0.6422710622710622
5.329890584995155,0.24578754578754577,0.15875457875457877,0.6422710622710622
5.330156777999946,1.5915750915750915,0.9227106227106227,0.38681318681318677
5.33932573099446,1.5915750915750915,0.9227106227106227,0.38681318681318677
5.350651253997057,0.2602930402930403,0.10798534798534798,0.7035164835164834
5.360802356997738,0.2602930402930403,0.10798534798534798,0.7035164835164834
5.366022501999396,0.2602930402930403,0.10798534798534798,0.7035164835164834
5.3685985099946265,0.2602930402930403,0.10798534798534798,0.7035164835164834
5.376155739999376,0.2602930402930403,0.10798534798534798,0.7035164835164834
5.38131959799648,0.25465201465201465,0.08783882783882783,0.5866666666666667
5.383795777997875,0.25465201465201465,0.08783882783882783,0.5866666666666667
5.389572799998859,0.025787545787545788,0.14989010989010987,0.1555311355311355
5.389929451994249,0.025787545787545788,0.14989010989010987,0.1555311355311355
5.3957090209951275,0.025787545787545788,0.14989010989010987,0.1555311355311355
5.405163823998009,0.025787545787545788,0.14989010989010987,0.1555311355311355
5.4138191629972425,0.025787545787545788,0.14989010989010987,0.1555311355311355
5.418592759997409,0.025787545787545788,0.14989010989010987,0.1555311355311355
5.425237474999449,0.025787545787545788,0.14989010989010987,0.1555311355311355
5.432595448000939,1.6076923076923075,0.6906227106227106,1.4634432234432233
5.437298245997226,1.0178021978021978,0.7244688644688644,0.5326739926739926
5.445132568995177,1.0178021978021978,0.7244688644688644,0.5326739926739926
5.449439317999349,1.0178021978021978,0.7244688644688644,0.5326739926739926
5.453365043998929,2.9357509157509156,1.5706227106227104,0.3376556776556776
5.457477067000582,2.9357509157509156,1.5706227106227104,0.3376556776556776
5.459722360996238,0.02901098901098901,0.16842490842490843,0.5093040293040293
5.47028694099572,0.02901098901098901,0.16842490842490843,0.5093040293040293
5.480930442994577,1.5835164835164834,0.7945787545787546,0.5923076923076923
5.485954206000315,1.5835164835164834,0.7945787545787546,0.5923076923076923
5.48985600299784,1.5835164835164834,0.6898168498168498,1.547252747252747
5.4960151509949355,1.5835164835164834,0.6898168498168498,1.547252747252747
5.498544055997627,1.5835164835164834,0.6898168498168498,1.547252747252747
5.504074522999872,1.5835164835164834,0.6898168498168498,1.547252747252747
5.505282083999191,1.5835164835164834,0.6898168498168498,1.547252747252747
5.505547092994675,1.5835164835164834,0.6898168498168498,1.547252747252747
5.5128447669994785,1.5835164835164834,0.6898168498168498,1.547252747252747
5.516242205994786,1.5835164835164834,0.6898168498168498,1.547252747252747
5.517348722998577,1.5835164835164834,0.6898168498168498,1.547252747252747
5.517533043996082,1.5835164835164834,0.6898168498168498,1.547252747252747
5.522225887994864,1.5835164835164834,0.6898168498168498,1.547252747252747
5.522379627996997,1.5835164835164834,0.6898168498168498,1.547252747252747
5.529141532999347,1.5835164835164834,0.6898168498168498,1.547252747252747
5.534874578996096,1.5835164835164834,0.6898168498168498,1.547252747252747
5.540604239999084,1.5835164835164834,0.6898168498168498,1.547252747252747
5.540755075999186,1.5835164835164834,0.6898168498168498,1.547252747252747
5.548569619000773,1.5835164835164834,0.6898168498168498,1.547252747252747
5.553346527995018,1.5835164835164834,0.6898168498168498,1.547252747252747
5.553585114997986,1.5835164835164834,0.6898168498168498,1.547252747252747
5.5600330460001715,0.18695970695970696,0.1241025641025641,0.5544322344322344
5.564060074997542,0.18695970695970696,0.1241025641025641,0.5544322344322344
5.567572845000541,0.18695970695970696,0.1241025641025641,0.5544322344322344
5.567741834995104,0.18695970695970696,0.1241025641025641,0.5544322344322344
5.574063419997401,0.18695970695970696,0.1241025641025641,0.5544322344322344
5.581200335000176,0.18695970695970696,0.1241025641025641,0.5544322344322344
5.585122339994996,0.18695970695970696,0.1241025641025641,0.5544322344322344
5.588955705999979,0.18695970695970696,0.1241025641025641,0.5544322344322344
5.593251186000998,0.18695970695970696,0.1241025641025641,0.5544322344322344
5.595247262994235,0.18695970695970696,0.1241025641025641,0.5544322344322344
5.596951364001143,0.18695970695970696,0.1241025641025641,0.5544322344322344
5.601084779998928,0.18695970695970696,0.1241025641025641,0.5544322344322344
5.603531512999325,0.18695970695970696,0.1241025641025641,0.5544322344322344
5.603741596998589,0.18695970695970696,0.1241025641025641,0.5544322344322344
5.610580034997838,0.18695970695970696,0.1241025641025641,0.5544322344322344
5.614968820998911,0.18695970695970696,0.1241025641025641,0.5544322344322344
5.615335855996818,0.18695970695970696,0.1241025641025641,0.5544322344322344
5.620343000999128,0.18695970695970696,0.1241025641025641,0.5544322344322344
5.62472660200001,0.18695970695970696,0.1241025641025641,0.5544322344322344
5.626633223000681,0.18695970695970696,0.1241025641025641,0.5544322344322344
5.629695188996266,0.18695970695970696,0.1241025641025641,0.5544322344322344
5.6312211159965955,0.18695970695970696,0.1241025641025641,0.5544322344322344
5.636980625000433,0.18695970695970696,0.1241025641025641,0.5544322344322344
5.637165837993962,0.18695970695970696,0.1241025641025641,0.5544322344322344
5.6465165539993905,0.18695970695970696,0.1241025641025641,0.5544322344322344
5.650799258997722,0.5906959706959707,0.5979487179487178,0.6358241758241758
5.653251431998797,0.5906959706959707,0.5979487179487178,0.6358241758241758
5.653426946999389,0.5971428571428571,0.19340659340659339,0.8977289377289376
5.660049353995419,0.5971428571428571,0.19340659340659339,0.8977289377289376
5.665859137996449,0.5971428571428571,0.19340659340659339,0.8977289377289376
5.670671093997953,0.5971428571428571,0.19340659340659339,0.8977289377289376
5.677037346998986,1.2515018315018314,0.4496703296703296,1.2555311355311354
5.681472784999642,1.2515018315018314,0.4496703296703296,1.2555311355311354
5.681653904000996,1.2515018315018314,0.4496703296703296,1.2555311355311354
5.687742882997554,1.2515018315018314,0.4496703296703296,1.2555311355311354
5.692889293000917,1.2515018315018314,0.4496703296703296,1.2555311355311354
5.697451325999282,1.2515018315018314,0.4496703296703296,1.2555311355311354
5.704814951001026,1.2515018315018314,0.4496703296703296,1.2555311355311354
5.710490671997832,1.2515018315018314,0.4496703296703296,1.2555311355311354
5.710605964995921,1.2515018315018314,0.4496703296703296,1.2555311355311354
