time,emg1,emg2,emg3
0.01567738399899099,0.0,0.11846153846153845,1.3522344322344322
0.03439469400473172,0.16358974358974357,0.4214652014652014,2.5602197802197804
0.046772931003943086,0.8775824175824175,0.6237362637362637,2.5553846153846154
0.05366774900176097,0.8775824175824175,0.6237362637362637,2.5553846153846154
0.058776456004125066,0.8534065934065934,0.5866666666666667,2.5787545787545785
0.06174387899955036,0.11604395604395604,0.12087912087912088,3.0977289377289376
0.0646035399986431,0.2087179487179487,0.19018315018315018,3.3
0.06838633699953789,0.2087179487179487,0.19018315018315018,3.3
0.0739307390031172,0.2087179487179487,0.19018315018315018,3.3
0.0742405730052269,0.2087179487179487,0.19018315018315018,3.3
0.08057701100187842,0.2087179487179487,0.19018315018315018,3.3
0.0842043860029662,0.02901098901098901,0.14505494505494507,2.4433699633699635
0.09098050800093915,0.02901098901098901,0.14505494505494507,2.4433699633699635
0.09605109900439857,0.0,0.1418315018315018,2.299120879120879
0.10031521700148005,0.0,0.1418315018315018,2.299120879120879
0.10210716900473926,0.0,0.1418315018315018,2.299120879120879
0.10468464600126026,0.0,0.195018315018315,1.8776556776556774
0.11055980500532314,0.0,0.195018315018315,1.8776556776556774
0.11070793900580611,0.0,0.195018315018315,1.8776556776556774
0.11631162800040329,0.0,0.195018315018315,1.8776556776556774
0.11717867400147952,0.0,0.195018315018315,1.8776556776556774
0.11884830000053626,0.0,0.195018315018315,1.8776556776556774
0.1221777300015674,0.0,0.195018315018315,1.8776556776556774
0.1230875500041293,0.0,0.195018315018315,1.8776556776556774
0.12468562600406585,0.0,0.195018315018315,1.8776556776556774
0.12933492199954344,0.0,0.195018315018315,1.8776556776556774
0.1294655470046564,0.0,0.195018315018315,1.8776556776556774
0.13518317700072657,1.1241758241758242,0.6978754578754578,2.573919413919414
0.13537853299931157,1.1241758241758242,0.6978754578754578,2.573919413919414
0.14046419900114415,1.1241758241758242,0.6978754578754578,2.573919413919414
0.1448737329992582,0.19904761904761903,0.1821245421245421,3.3
0.1464044099993771,0.0,0.2369230769230769,3.2218315018315016
0.15440857400244568,0.0,0.2369230769230769,3.2218315018315016
0.15994512500037672,0.0,0.2369230769230769,3.2218315018315016
0.1607887690042844,0.0,0.2369230769230769,3.2218315018315016
0.16240868900058558,0.0,0.2369230769230769,3.2218315018315016
0.16696539999975357,0.0,0.2369230769230769,3.2218315018315016
0.1671901310037356,0.0,0.2369230769230769,3.2218315018315016
0.17281712900148705,0.0,0.2369230769230769,3.2218315018315016
0.1736725290029426,0.0,0.2369230769230769,3.2218315018315016
0.1753407910000533,0.0,0.2369230769230769,3.2218315018315016
0.17923655200138455,0.0,0.2369230769230769,3.2218315018315016
0.18399489400326274,0.4045421245421245,0.1942124542124542,2.552967032967033
0.1841187780009932,0.4045421245421245,0.1942124542124542,2.552967032967033
0.18966427400300745,0.0,0.28285714285714286,3.3
0.19057521899958374,1.1886446886446886,0.6632234432234432,2.5755311355311354
0.19229993200133322,1.1886446886446886,0.6632234432234432,2.5755311355311354
0.19762673800141783,1.1886446886446886,0.6632234432234432,2.5755311355311354
0.19912671600468457,1.1886446886446886,0.6632234432234432,2.5755311355311354
0.20359073400322814,1.1886446886446886,0.6632234432234432,2.5755311355311354
0.20376710500568151,1.1886446886446886,0.6632234432234432,2.5755311355311354
0.21015422400523676,1.058901098901099,1.17010989010989,2.254798534798535
0.21538622400112217,0.4964102564102564,0.3997069597069597,2.5795604395604395
0.21882057200127747,0.4964102564102564,0.3997069597069597,2.5795604395604395
0.2190411000046879,0.9444688644688644,0.43274725274725273,2.5755311355311354
0.2299447789991973,0.9444688644688644,0.43274725274725273,2.5755311355311354
0.23767842799861683,0.9444688644688644,0.43274725274725273,2.5755311355311354
0.24516146200039657,0.9444688644688644,0.43274725274725273,2.5755311355311354
0.2507705660027568,0.0,0.1378021978021978,1.2780952380952382
0.25097429499874124,0.0,0.1378021978021978,1.2780952380952382
0.2575783339998452,0.0,0.1378021978021978,1.2780952380952382
0.2626157230042736,0.8534065934065934,0.5254212454212454,2.569084249084249
0.265852991004067,0.8534065934065934,0.5254212454212454,2.569084249084249
0.2667884740003501,0.8534065934065934,0.5254212454212454,2.569084249084249
0.2677487140026642,0.8534065934065934,0.5254212454212454,2.569084249084249
0.2687631330045406,0.8534065934065934,0.5254212454212454,2.569084249084249
0.26964212500024587,0.8534065934065934,0.5254212454212454,2.569084249084249
0.27131129700137535,0.8534065934065934,0.5254212454212454,2.569084249084249
0.2770330589992227,0.8534065934065934,0.5254212454212454,2.569084249084249
0.2822477340014302,0.8534065934065934,0.5254212454212454,2.569084249084249
0.2856232670019381,0.29736263736263735,0.18695970695970696,2.548937728937729
0.2865124259988079,0.29736263736263735,0.18695970695970696,2.548937728937729
0.2882864109997172,0.29736263736263735,0.18695970695970696,2.548937728937729
0.29275467499974184,0.29736263736263735,0.18695970695970696,2.548937728937729
0.2928870320029091,0.0,0.3465201465201465,2.573113553113553
0.29901199899904896,1.1499633699633698,1.3272527472527473,1.4892307692307691
0.302283252000052,1.1499633699633698,1.3272527472527473,1.4892307692307691
0.30402844100171933,1.1499633699633698,1.3272527472527473,1.4892307692307691
0.3097280250003678,1.1499633699633698,1.3272527472527473,1.4892307692307691
0.3150678300007712,1.1402930402930402,0.6994871794871794,2.5763369963369964
0.3167201050018775,1.1402930402930402,0.6994871794871794,2.5763369963369964
0.3200540110046859,1.1402930402930402,0.6994871794871794,2.5763369963369964
0.32097690099908505,0.5778021978021978,0.3263736263736263,2.573919413919414
0.3228532659995835,0.5778021978021978,0.3263736263736263,2.573919413919414
0.32606266400398454,0.0,0.1523076923076923,2.8019780219780217
0.3270294130052207,0.0,0.1523076923076923,2.8019780219780217
0.32736338700487977,0.0,0.1523076923076923,2.8019780219780217
0.3333576470031403,0.0,0.2087179487179487,1.9816117216117215
0.33744346300227335,0.0,0.2087179487179487,1.9816117216117215
0.34164782000152627,0.0,0.2087179487179487,1.9816117216117215
0.3428520360030234,0.0,0.2087179487179487,1.9816117216117215
0.3430694950002362,0.0,0.2087179487179487,1.9816117216117215
0.34829654400527943,0.0,0.2087179487179487,1.9816117216117215
0.35163517099863384,0.0,0.2087179487179487,1.9816117216117215
0.35191382600169163,0.0,0.46014652014652013,3.3
0.3584270240025944,0.0,0.46014652014652013,3.3
0.36206710200349335,0.9041758241758242,0.6938461538461538,2.5594139194139194
0.3679766019995441,0.0,0.18695970695970696,1.7890109890109889
0.3749548820051132,0.0,0.2063003663003663,1.3151648351648353
0.37859579900396056,0.0,0.2063003663003663,1.3151648351648353
0.38461276599991834,0.0,0.2063003663003663,1.3151648351648353
0.38947107599960873,0.02336996336996337,0.2925274725274725,3.3
0.3897187379989191,0.0,0.2208058608058608,2.1911355311355307
0.39573694100545254,0.0,0.2208058608058608,2.1911355311355307
0.40011005400447175,0.0,0.2208058608058608,2.1911355311355307
0.4004320940002799,0.0,0.2208058608058608,2.1911355311355307
0.41165274000377394,0.0,0.2208058608058608,2.1911355311355307
0.4202204020039062,0.0,0.2208058608058608,2.1911355311355307
0.4283401100037736,0.0,0.2208058608058608,2.1911355311355307
0.43311566099873744,0.0,0.2208058608058608,2.1911355311355307
0.44018470700393664,0.0,0.2208058608058608,2.1911355311355307
0.44460771300509805,0.684981684981685,0.332014652014652,2.573919413919414
0.4448517749988241,0.684981684981685,0.332014652014652,2.573919413919414
0.45010283699957654,0.684981684981685,0.332014652014652,2.573919413919414
0.45342381200316595,0.684981684981685,0.332014652014652,2.573919413919414
0.45438556700537447,0.684981684981685,0.332014652014652,2.573919413919414
0.45595626599970274,0.929157509157509,1.2515018315018314,3.021172161172161
0.4613888610037975,0.9017582417582416,0.6068131868131869,2.5561904761904763
0.4617543940039468,0.9017582417582416,0.6068131868131869,2.5561904761904763
0.4695399720003479,0.9017582417582416,0.6068131868131869,2.5561904761904763
0.4759648860053858,0.0,0.1926007326007326,1.3538461538461537
0.48200229800568195,0.0,0.1926007326007326,1.3538461538461537
0.48540922500251327,0.0,0.1926007326007326,1.3538461538461537
0.48571284000354353,0.0,0.1926007326007326,1.3538461538461537
0.4917779790048371,0.0,0.22967032967032966,2.344249084249084
0.497950889999629,0.0,0.22967032967032966,2.344249084249084
0.5031241000033333,0.0,0.22967032967032966,2.344249084249084
0.5045279539990588,0.0,0.22967032967032966,2.344249084249084
0.5125508390046889,0.02901098901098901,0.2989743589743589,2.3466666666666667
0.5177105760012637,1.0838827838827838,0.6326007326007326,2.577948717948718
0.5211626770033035,1.0838827838827838,0.6326007326007326,2.577948717948718
0.521441370001412,1.0838827838827838,0.6326007326007326,2.577948717948718
0.5300292020037887,1.0838827838827838,0.6326007326007326,2.577948717948718
0.5349487429994042,1.0838827838827838,0.6326007326007326,2.577948717948718
0.5433321860036813,1.0838827838827838,0.6326007326007326,2.577948717948718
0.5477676750015235,1.0838827838827838,0.6326007326007326,2.577948717948718
0.5488064689998282,1.0838827838827838,0.6326007326007326,2.577948717948718
0.5491459770055371,1.0838827838827838,0.6326007326007326,2.577948717948718
0.5544714770003338,1.0838827838827838,0.6326007326007326,2.577948717948718
0.5582171460046084,1.0838827838827838,0.6326007326007326,2.577948717948718
0.5658965620023082,1.0838827838827838,0.6326007326007326,2.577948717948718
0.5718496580011561,1.0838827838827838,0.6326007326007326,2.577948717948718
0.5774772250006208,1.0838827838827838,0.6326007326007326,2.577948717948718
0.5835160950009595,0.34007326007326005,0.7986080586080586,0.8912820512820512
0.5887350990014966,0.34007326007326005,0.7986080586080586,0.8912820512820512
0.5928533840051387,0.34007326007326005,0.7986080586080586,0.8912820512820512
0.5939489869997487,0.34007326007326005,0.7986080586080586,0.8912820512820512
0.5941364560057991,0.34007326007326005,0.7986080586080586,0.8912820512820512
0.5995664990041405,0.34007326007326005,0.7986080586080586,0.8912820512820512
0.6021408860033262,0.7276923076923076,0.40534798534798533,2.565860805860806
0.6096690839985968,0.7276923076923076,0.40534798534798533,2.565860805860806
0.6161514100022032,0.0,0.17326007326007326,2.872893772893773
0.6210614849987905,0.8082783882783882,0.39890109890109887,2.573919413919414
0.6272870430038893,0.8082783882783882,0.39890109890109887,2.573919413919414
0.6303497650005738,0.8082783882783882,0.39890109890109887,2.573919413919414
0.6321221309990506,0.6374358974358975,0.45692307692307693,2.553772893772894
0.6349004389994661,0.0,0.311062271062271,3.3
0.6431109170007403,0.0,0.311062271062271,3.3
0.6474558990012156,0.0,0.311062271062271,3.3
0.6491760520002572,0.0,0.311062271062271,3.3
0.6532415120018413,0.0,0.311062271062271,3.3
0.6581049900050857,0.0,0.311062271062271,3.3
0.6630110500045703,0.0,0.311062271062271,3.3
0.6664396030028001,0.6035897435897435,0.6648351648351648,0.5689377289377289
0.6667516010056715,0.6035897435897435,0.6648351648351648,0.5689377289377289
0.6731610140050179,0.6035897435897435,0.6648351648351648,0.5689377289377289
0.6775245070020901,0.8074725274725274,0.4561172161172161,2.5787545787545785
0.6777693289986928,0.8074725274725274,0.4561172161172161,2.5787545787545785
0.6830865390002145,0.8074725274725274,0.4561172161172161,2.5787545787545785
0.6864177370007383,0.2498168498168498,0.1789010989010989,3.3
0.6873545310008922,0.2498168498168498,0.1789010989010989,3.3
0.689080770003784,0.2498168498168498,0.1789010989010989,3.3
0.6929769320049672,0.5866666666666667,0.42710622710622714,2.552967032967033
0.6963959400018211,0.5866666666666667,0.42710622710622714,2.552967032967033
0.6966959190031048,0.8437362637362636,0.518974358974359,2.561025641025641
0.7017054759999155,0.8437362637362636,0.518974358974359,2.561025641025641
0.7069967870047549,0.8437362637362636,0.518974358974359,2.561025641025641
0.7093620580053539,0.8437362637362636,0.518974358974359,2.561025641025641
0.7154894080013037,1.0782417582417583,0.5874725274725274,2.5787545787545785
0.7204299840013846,1.0782417582417583,0.5874725274725274,2.5787545787545785
0.7260838020010851,1.0782417582417583,0.5874725274725274,2.5787545787545785
0.7263317830002052,1.0782417582417583,0.5874725274725274,2.5787545787545785
0.7314406049990794,1.0782417582417583,0.5874725274725274,2.5787545787545785
0.7349348450006801,0.9033699633699634,0.6591941391941392,2.5706959706959704
0.7351718010031618,0.9033699633699634,0.6591941391941392,2.5706959706959704
0.7404539440030931,0.9033699633699634,0.6591941391941392,2.5706959706959704
0.7433915420042467,0.9033699633699634,0.6591941391941392,2.5706959706959704
0.746680517004279,0.9033699633699634,0.6591941391941392,2.5706959706959704
0.7468664990010438,0.9033699633699634,0.6591941391941392,2.5706959706959704
0.7518198090037913,0.9033699633699634,0.6591941391941392,2.5706959706959704
0.7573510900037945,0.14747252747252745,0.7188278388278388,0.7091575091575092
0.7590551719986252,0.14747252747252745,0.7188278388278388,0.7091575091575092
0.7629232360050082,0.14747252747252745,0.7188278388278388,0.7091575091575092
0.7664233230025275,0.14747252747252745,0.7188278388278388,0.7091575091575092
0.7724552970030345,0.14747252747252745,0.7188278388278388,0.7091575091575092
0.7790993740054546,0.14747252747252745,0.7188278388278388,0.7091575091575092
0.7825893650006037,0.14747252747252745,0.7188278388278388,0.7091575091575092
0.782764554998721,0.14747252747252745,0.7188278388278388,0.7091575091575092
0.7886337570016622,0.14747252747252745,0.7188278388278388,0.7091575091575092
0.7969281650002813,1.108058608058608,1.2047619047619047,1.9227838827838828
0.8020631600011257,0.8082783882783882,0.5697435897435897,2.5553846153846154
0.8055148060011561,0.0,0.11604395604395604,1.5343589743589743
0.8056923770054709,0.0,0.11604395604395604,1.5343589743589743
0.8122161600040272,0.0,0.18615384615384614,2.4941391941391937
0.8163640390048386,0.0,0.18615384615384614,2.4941391941391937
0.8189064440011862,0.8243956043956043,0.7002930402930403,3.3
0.8257897420044173,0.8243956043956043,0.7002930402930403,3.3
0.8293901400029426,0.8477655677655677,1.129010989010989,1.9461538461538461
0.8351826460057055,0.8477655677655677,1.129010989010989,1.9461538461538461
0.835328818000562,0.8477655677655677,1.129010989010989,1.9461538461538461
0.840415695005504,0.8477655677655677,1.129010989010989,1.9461538461538461
0.8450256639989675,0.8477655677655677,1.129010989010989,1.9461538461538461
0.8452239940015716,0.8477655677655677,1.129010989010989,1.9461538461538461
0.8511565030057682,0.8477655677655677,1.129010989010989,1.9461538461538461
0.8562353470042581,0.8477655677655677,1.129010989010989,1.9461538461538461
0.8613952560044709,0.8477655677655677,1.129010989010989,1.9461538461538461
0.8632083039992722,0.8477655677655677,1.129010989010989,1.9461538461538461
0.8666036540016648,0.8477655677655677,1.129010989010989,1.9461538461538461
0.8668360619994928,0.8477655677655677,1.129010989010989,1.9461538461538461
0.8717134700054885,0.8477655677655677,1.129010989010989,1.9461538461538461
0.8787625550030498,0.8477655677655677,1.129010989010989,1.9461538461538461
0.882827683002688,0.8477655677655677,1.129010989010989,1.9461538461538461
0.8853255460053333,0.06688644688644689,0.09831501831501832,3.0767765567765566
0.8854783499991754,0.0,0.2804395604395604,3.3
0.8921124280022923,0.0,0.2804395604395604,3.3
0.8955943430046318,0.0,0.2804395604395604,3.3
0.8958234240053571,0.0,0.2804395604395604,3.3
0.9015021860031993,0.0,0.2804395604395604,3.3
0.9018269760053954,0.13619047619047617,0.12087912087912088,3.3
0.9069729969996843,0.13619047619047617,0.12087912087912088,3.3
0.9119671290027327,0.13619047619047617,0.12087912087912088,3.3
0.9161877570004435,0.3529670329670329,0.43113553113553116,2.5715018315018314
0.9187414840052952,0.3529670329670329,0.43113553113553116,2.5715018315018314
0.9257767590024741,0.3529670329670329,0.43113553113553116,2.5715018315018314
0.9302190730013535,1.232161172161172,1.4223443223443224,1.847032967032967
0.9312021290024859,1.232161172161172,1.4223443223443224,1.847032967032967
0.9321781740000006,1.232161172161172,1.4223443223443224,1.847032967032967
0.933178532999591,1.232161172161172,1.4223443223443224,1.847032967032967
0.9341747260041302,1.232161172161172,1.4223443223443224,1.847032967032967
0.9351274799992098,1.232161172161172,1.4223443223443224,1.847032967032967
0.9360974570008693,1.232161172161172,1.4223443223443224,1.847032967032967
0.936996251999517,1.232161172161172,1.4223443223443224,1.847032967032967
0.9379763350007124,1.232161172161172,1.4223443223443224,1.847032967032967
0.9398935780045576,1.232161172161172,1.4223443223443224,1.847032967032967
0.9424463320028735,1.232161172161172,1.4223443223443224,1.847032967032967
0.9482928900033585,1.232161172161172,1.4223443223443224,1.847032967032967
0.9524292050045915,1.232161172161172,1.4223443223443224,1.847032967032967
0.955010816003778,1.232161172161172,1.4223443223443224,1.847032967032967
0.9646171019994654,1.232161172161172,1.4223443223443224,1.847032967032967
0.9714554620004492,1.232161172161172,1.4223443223443224,1.847032967032967
0.9761940130047151,0.0,0.15472527472527473,1.7906227106227104
0.9850977169990074,0.0,0.15472527472527473,1.7906227106227104
0.9941065910024918,0.0,0.15472527472527473,1.7906227106227104
0.9995380680047674,0.0,0.14989010989010987,1.4658608058608058
1.000447370002803,0.0,0.14989010989010987,1.4658608058608058
1.0021352500043577,0.0,0.14989010989010987,1.4658608058608058
1.0056596310023451,0.0,0.14989010989010987,1.4658608058608058
1.0058898520001094,0.0,0.14989010989010987,1.4658608058608058
1.0116448420012603,0.0,0.14989010989010987,1.4658608058608058
1.01176254600432,0.0,0.14989010989010987,1.4658608058608058
1.0173586980017717,0.0,0.14989010989010987,1.4658608058608058
1.0182118060038192,0.0,0.14989010989010987,1.4658608058608058
1.019866003000061,0.0,0.14989010989010987,1.4658608058608058
1.0251783800049452,0.0,0.14989010989010987,1.4658608058608058
1.0261694120054017,0.0,0.14989010989010987,1.4658608058608058
1.0271690299996408,0.0,0.21597069597069596,2.0444688644688642
1.0281493729999056,0.0,0.21597069597069596,2.0444688644688642
1.0291636680049123,0.0,0.21597069597069596,2.0444688644688642
1.0301385880011367,0.0,0.21597069597069596,2.0444688644688642
1.0310702300048433,0.0,0.21597069597069596,2.0444688644688642
1.0321020820047124,0.0,0.21597069597069596,2.0444688644688642
1.0330484619989875,0.0,0.21597069597069596,2.0444688644688642
1.0340539620010532,0.0,0.21597069597069596,2.0444688644688642
1.03582793300302,0.0,0.21597069597069596,2.0444688644688642
1.0384476610051934,0.0,0.21597069597069596,2.0444688644688642
1.044907660005265,0.0,0.21597069597069596,2.0444688644688642
1.0490615349990549,0.0,0.21597069597069596,2.0444688644688642
1.051527014002204,0.0,0.21597069597069596,2.0444688644688642
1.0516633730003377,0.0,0.21597069597069596,2.0444688644688642
1.0588119520034525,0.0,0.21597069597069596,2.0444688644688642
1.0623264110035961,0.0,0.21597069597069596,2.0444688644688642
1.0624896619992796,0.0,0.21597069597069596,2.0444688644688642
1.068059818004258,0.25142857142857145,0.5076923076923077,0.43758241758241756
1.0689228190021822,0.0,0.19663003663003664,2.6238827838827836
1.0706301590034855,0.0,0.19663003663003664,2.6238827838827836
1.0745359690045007,0.0,0.19663003663003664,2.6238827838827836
1.0783686639988446,0.8977289377289376,0.5673260073260072,2.5481318681318683
1.0833110660023522,0.8977289377289376,0.5673260073260072,2.5481318681318683
1.087437927002611,0.8977289377289376,0.5673260073260072,2.5481318681318683
1.0901242670006468,0.8977289377289376,0.5673260073260072,2.5481318681318683
1.0945928729997831,0.8977289377289376,0.5673260073260072,2.5481318681318683
1.09552388600423,0.8977289377289376,0.5673260073260072,2.5481318681318683
1.098312223002722,0.8977289377289376,0.5673260073260072,2.5481318681318683
1.1023350370014668,0.8977289377289376,0.5673260073260072,2.5481318681318683
1.104981715005124,0.8977289377289376,0.5673260073260072,2.5481318681318683
1.1117158699998981,0.8977289377289376,0.5673260073260072,2.5481318681318683
1.116534467000747,0.8977289377289376,0.5673260073260072,2.5481318681318683
1.1230709049996221,0.7841025641025641,0.423076923076923,2.5626373626373624
1.1284551370044937,0.7841025641025641,0.423076923076923,2.5626373626373624
1.1298530300045968,0.7841025641025641,0.423076923076923,2.5626373626373624
1.1365968540048925,0.7841025641025641,0.423076923076923,2.5626373626373624
1.1420554100041045,0.7841025641025641,0.423076923076923,2.5626373626373624
1.1423778600001242,0.34087912087912087,0.1813186813186813,3.3
1.1510698390047764,0.34087912087912087,0.1813186813186813,3.3
1.1580915830054437,0.34087912087912087,0.1813186813186813,3.3
1.1634366880025482,0.34087912087912087,0.1813186813186813,3.3
1.164913325002999,0.34087912087912087,0.1813186813186813,3.3
1.1716135970054893,0.34087912087912087,0.1813186813186813,3.3
1.1789400550042046,0.34087912087912087,0.1813186813186813,3.3
1.1844238490011776,0.34087912087912087,0.1813186813186813,3.3
1.1847353050034144,0.34087912087912087,0.1813186813186813,3.3
1.1950739640014945,0.34087912087912087,0.1813186813186813,3.3
1.2012970020005014,0.34087912087912087,0.1813186813186813,3.3
1.2064409550002893,0.34087912087912087,0.1813186813186813,3.3
1.2104920130004757,0.34087912087912087,0.1813186813186813,3.3
1.212056358002883,0.0,0.17245421245421244,1.2966300366300365
1.2195890720031457,0.0,0.17245421245421244,1.2966300366300365
1.2247619520057924,0.0,0.17245421245421244,1.2966300366300365
1.2276077030037413,0.0,0.17245421245421244,1.2966300366300365
1.230087641000864,0.0,0.12974358974358974,1.6568498168498167
1.2302027110054041,0.0,0.12974358974358974,1.6568498168498167
1.2353227620042162,0.0,0.12974358974358974,1.6568498168498167
1.2396991770001478,0.0,0.12974358974358974,1.6568498168498167
1.240563702005602,0.2836630036630036,0.14505494505494507,3.3
1.2427165760018397,0.2836630036630036,0.14505494505494507,3.3
1.2435663319993182,0.6712820512820512,0.6551648351648351,0.7156043956043956
1.2457194710004842,0.6712820512820512,0.6551648351648351,0.7156043956043956
1.2465467000001809,0.6712820512820512,0.6551648351648351,0.7156043956043956
1.2487569060031092,0.6712820512820512,0.6551648351648351,0.7156043956043956
1.2495608079989324,0.6712820512820512,0.6551648351648351,0.7156043956043956
1.25106763200165,0.6712820512820512,0.6551648351648351,0.7156043956043956
1.2560411619997467,0.0,0.29816849816849816,3.028424908424908
1.2609691840043524,0.0,0.29816849816849816,3.028424908424908
1.265995866000594,0.0,0.29816849816849816,3.028424908424908
1.2703201719996287,0.0,0.29816849816849816,3.028424908424908
1.2718988710039412,0.0,0.13216117216117215,2.2193406593406593
1.2761746430041967,0.0,0.13216117216117215,2.2193406593406593
1.2783859219998703,0.83003663003663,1.120952380952381,2.8583882783882784
1.2786963480029954,0.83003663003663,1.120952380952381,2.8583882783882784
1.2831665740013705,0.83003663003663,1.120952380952381,2.8583882783882784
1.284702171004028,0.83003663003663,1.120952380952381,2.8583882783882784
1.2883761180055444,0.83003663003663,1.120952380952381,2.8583882783882784
1.2885012090046075,0.83003663003663,1.120952380952381,2.8583882783882784
1.2929059470043285,0.83003663003663,1.120952380952381,2.8583882783882784
1.2937771920041996,0.83003663003663,1.120952380952381,2.8583882783882784
1.2953534600019339,0.83003663003663,1.120952380952381,2.8583882783882784
1.2998014080003486,0.83003663003663,1.120952380952381,2.8583882783882784
1.3006289930053754,0.83003663003663,1.120952380952381,2.8583882783882784
1.302279012001236,0.83003663003663,1.120952380952381,2.8583882783882784
1.3059635550016537,0.83003663003663,1.120952380952381,2.8583882783882784
1.311141136000515,0.83003663003663,1.120952380952381,2.8583882783882784
1.3155612609989475,0.83003663003663,1.120952380952381,2.8583882783882784
1.315858569003467,0.7349450549450549,0.5004395604395604,2.5521611721611723
1.3247688640039996,0.7349450549450549,0.5004395604395604,2.5521611721611723
1.3326378030033084,0.7349450549450549,0.5004395604395604,2.5521611721611723
1.3381080460021622,0.7349450549450549,0.5004395604395604,2.5521611721611723
1.3384138620021986,0.8872527472527472,0.6011721611721611,2.5432967032967033
1.346078499998839,0.0,0.12329670329670328,1.8671794871794871
1.352937251002004,0.0,0.12329670329670328,1.8671794871794871
1.3568461969989585,0.3529670329670329,0.423076923076923,2.5706959706959704
1.3624897670015343,0.8727472527472527,0.3698901098901099,2.5755311355311354
1.3716798370005563,0.7615384615384615,0.7252747252747253,0.751062271062271
1.3792352380041848,0.0,0.17164835164835165,1.2837362637362637
1.3854113269990194,0.0,0.17164835164835165,1.2837362637362637
1.390756507003971,0.0,0.17164835164835165,1.2837362637362637
1.391058578999946,0.718021978021978,0.5012454212454212,2.5755311355311354
1.398979960998986,0.718021978021978,0.5012454212454212,2.5755311355311354
1.405748338002013,0.718021978021978,0.5012454212454212,2.5755311355311354
1.4111363620031625,0.718021978021978,0.5012454212454212,2.5755311355311354
1.411512243001198,0.7663736263736264,0.5504029304029303,2.573919413919414
1.4200119630040717,0.7663736263736264,0.5504029304029303,2.573919413919414
1.4246821679989807,1.1427106227106225,1.2063736263736262,1.5754578754578754
1.4248778850014787,0.5278388278388277,0.8429304029304028,2.345054945054945
1.430264802002057,0.5278388278388277,0.8429304029304028,2.345054945054945
1.4338274180045119,0.7808791208791208,0.5689377289377289,2.5755311355311354
1.4401047060018755,0.7808791208791208,0.5689377289377289,2.5755311355311354
1.4445355890056817,0.12249084249084248,0.11362637362637362,3.291135531135531
1.4460687480022898,0.8936996336996336,0.842124542124542,0.9912087912087911
1.4497671680001076,0.8936996336996336,0.842124542124542,0.9912087912087911
1.4499336340013542,0.0,0.15472527472527473,1.6632967032967032
1.4549996400019154,0.0,0.15472527472527473,1.6632967032967032
1.4586050340003567,0.29816849816849816,0.7091575091575092,0.6511355311355311
1.4588092990015866,0.4593406593406593,0.20065934065934066,2.5594139194139194
1.464375971001573,0.4593406593406593,0.20065934065934066,2.5594139194139194
1.46597086499969,0.0,0.11765567765567764,1.4956776556776556
1.4698025130055612,0.0,0.11765567765567764,1.4956776556776556
1.474447737004084,0.0,0.11282051282051282,1.6157509157509156
1.4747009280035854,0.0,0.11282051282051282,1.6157509157509156
1.4801215440020314,0.0,0.11282051282051282,1.6157509157509156
1.481756145003601,0.0,0.11282051282051282,1.6157509157509156
1.4853668130017468,0.0,0.11282051282051282,1.6157509157509156
1.4855419080049614,0.0,0.11282051282051282,1.6157509157509156
1.4905603080042056,0.0,0.11282051282051282,1.6157509157509156
1.494887535001908,0.0,0.1386080586080586,1.4376556776556777
1.4964408580053714,0.3529670329670329,0.7438095238095238,0.8558241758241758
1.501361924005323,0.3529670329670329,0.7438095238095238,0.8558241758241758
1.5014830450018053,0.047545787545787546,0.11926739926739927,2.382930402930403
1.5065088430055766,0.047545787545787546,0.11926739926739927,2.382930402930403
1.5107986330040148,0.047545787545787546,0.11926739926739927,2.382930402930403
1.5130079260052298,0.047545787545787546,0.11926739926739927,2.382930402930403
1.5138475920030032,0.047545787545787546,0.11926739926739927,2.382930402930403
1.5161067320004804,0.047545787545787546,0.11926739926739927,2.382930402930403
1.5163510909987963,0.047545787545787546,0.11926739926739927,2.382930402930403
1.5216240230001858,0.047545787545787546,0.11926739926739927,2.382930402930403
1.5245738000012352,0.047545787545787546,0.11926739926739927,2.382930402930403
1.5276024230042822,0.047545787545787546,0.11926739926739927,2.382930402930403
1.5304775440017693,0.047545787545787546,0.11926739926739927,2.382930402930403
1.5341033440054161,0.047545787545787546,0.11926739926739927,2.382930402930403
1.5343011730001308,0.047545787545787546,0.11926739926739927,2.382930402930403
1.5399572550013545,0.047545787545787546,0.11926739926739927,2.382930402930403
1.5403080670002964,0.047545787545787546,0.11926739926739927,2.382930402930403
1.5458335220027948,0.047545787545787546,0.11926739926739927,2.382930402930403
1.5475541760024498,0.0,0.2361172161172161,2.7665201465201466
1.5505159240055946,0.0,0.2361172161172161,2.7665201465201466
1.5534354090050329,0.0,0.2361172161172161,2.7665201465201466
1.5564243300032103,0.0,0.2361172161172161,2.7665201465201466
1.5594016850009211,0.0,0.2361172161172161,2.7665201465201466
1.5623653980001109,0.0,0.2361172161172161,2.7665201465201466
1.5652844270007336,0.0,0.2361172161172161,2.7665201465201466
1.568288902999484,0.0,0.2361172161172161,2.7665201465201466
1.5705099750048248,0.0,0.2361172161172161,2.7665201465201466
1.571312101004878,0.0,0.2361172161172161,2.7665201465201466
1.5734941650007386,0.0,0.2361172161172161,2.7665201465201466
1.5743044460032252,0.0,0.2361172161172161,2.7665201465201466
1.5758548459998565,0.0,0.2361172161172161,2.7665201465201466
1.5801777610031422,0.0,0.2361172161172161,2.7665201465201466
1.5827911680025863,0.0032234432234432234,0.1418315018315018,1.7890109890109889
1.5875037900041207,0.0032234432234432234,0.1418315018315018,1.7890109890109889
1.5876244239989319,0.0032234432234432234,0.1418315018315018,1.7890109890109889
1.5934812679988681,0.0,0.12329670329670328,1.8051282051282052
1.5936009540018858,0.0,0.12329670329670328,1.8051282051282052
1.599609519005753,0.0,0.12329670329670328,1.8051282051282052
1.6041659980037366,0.0,0.1386080586080586,1.4295970695970697
1.6044898190011736,0.0,0.1386080586080586,1.4295970695970697
1.6099412949988618,0.0,0.1386080586080586,1.4295970695970697
1.6108305410016328,0.0,0.1386080586080586,1.4295970695970697
1.6124658180051483,0.0,0.1386080586080586,1.4295970695970697
1.6170534859993495,0.0,0.1386080586080586,1.4295970695970697
1.6172089770043385,0.0,0.1386080586080586,1.4295970695970697
1.622733338001126,0.0,0.1386080586080586,1.4295970695970697
1.6243285930031561,0.0,0.1386080586080586,1.4295970695970697
1.628191918003722,0.19663003663003664,0.6503296703296703,2.673040293040293
1.6329678290057927,0.19663003663003664,0.6503296703296703,2.673040293040293
1.633162452999386,0.0,0.3747252747252747,3.3
1.63806392600236,0.0,0.3747252747252747,3.3
1.6438600580004277,0.5681318681318681,0.3021978021978022,2.565860805860806
1.6439854039999773,0.0,0.10315018315018315,1.556117216117216
1.6503727870003786,0.0,0.10315018315018315,1.556117216117216
1.654025793002802,0.904981684981685,0.5931135531135531,2.573919413919414
1.6588548130021081,0.904981684981685,0.5931135531135531,2.573919413919414
1.6590736409998499,0.904981684981685,0.5931135531135531,2.573919413919414
1.664234119001776,0.904981684981685,0.5931135531135531,2.573919413919414
1.667437381001946,0.904981684981685,0.5931135531135531,2.573919413919414
1.6690828390055685,0.904981684981685,0.5931135531135531,2.573919413919414
1.6729868030015496,0.904981684981685,0.5931135531135531,2.573919413919414
1.6772283190002781,0.904981684981685,0.5931135531135531,2.573919413919414
1.678849103001994,0.904981684981685,0.5931135531135531,2.573919413919414
1.6831777620027424,0.904981684981685,0.5931135531135531,2.573919413919414
1.6847134550043847,0.904981684981685,0.5931135531135531,2.573919413919414
1.6891360520021408,0.904981684981685,0.5931135531135531,2.573919413919414
1.6900558780034771,0.904981684981685,0.5931135531135531,2.573919413919414
1.6920962889998918,0.904981684981685,0.5931135531135531,2.573919413919414
1.6930143350036815,0.904981684981685,0.5931135531135531,2.573919413919414
1.6945129900050233,0.904981684981685,0.5931135531135531,2.573919413919414
1.699405368999578,1.3038827838827838,1.456190476190476,2.6085714285714285
1.7050274520006496,1.3038827838827838,1.456190476190476,2.6085714285714285
1.7053253800040693,1.3038827838827838,1.456190476190476,2.6085714285714285
1.7101456829987,1.3038827838827838,1.456190476190476,2.6085714285714285
1.7148336669997661,1.3038827838827838,1.456190476190476,2.6085714285714285
1.7150023130016052,1.3038827838827838,1.456190476190476,2.6085714285714285
1.7204135350038996,1.3038827838827838,1.456190476190476,2.6085714285714285
1.7225631600013003,1.3038827838827838,1.456190476190476,2.6085714285714285
1.7229271210017032,1.3038827838827838,1.456190476190476,2.6085714285714285
1.7309124000021257,1.3038827838827838,1.456190476190476,2.6085714285714285
1.7360331200034125,1.3038827838827838,1.456190476190476,2.6085714285714285
1.738525724002102,0.7494505494505495,0.4383882783882784,2.561025641025641
1.7386657090028166,0.7494505494505495,0.4383882783882784,2.561025641025641
1.7441230650001671,0.7494505494505495,0.4383882783882784,2.561025641025641
1.7451274140039459,0.7494505494505495,0.4383882783882784,2.561025641025641
1.7461229850014206,0.7494505494505495,0.4383882783882784,2.561025641025641
1.7471194550016662,0.7494505494505495,0.4383882783882784,2.561025641025641
1.7487483150034677,0.7494505494505495,0.4383882783882784,2.561025641025641
1.7526225149995298,0.7494505494505495,0.4383882783882784,2.561025641025641
1.756543640003656,0.7494505494505495,0.4383882783882784,2.561025641025641
1.7604631810027058,0.5697435897435897,0.2989743589743589,2.5521611721611723
1.7651714800012996,0.5697435897435897,0.2989743589743589,2.5521611721611723
1.770937129003869,0.5697435897435897,0.2989743589743589,2.5521611721611723
1.7711404709989438,0.5697435897435897,0.2989743589743589,2.5521611721611723
1.776655308000045,0.08703296703296703,0.3771428571428571,3.3
1.7783231050052564,0.6148717948717949,0.3424908424908425,2.5513553113553114
1.7822172730011516,0.6148717948717949,0.3424908424908425,2.5513553113553114
1.7861849570035702,0.6148717948717949,0.3424908424908425,2.5513553113553114
1.790097228004015,0.0,0.19179487179487179,2.092014652014652
1.793935131005128,0.0,0.19179487179487179,2.092014652014652
1.798596569999063,0.0,0.19179487179487179,2.092014652014652
1.7987825570016867,0.0,0.19179487179487179,2.092014652014652
1.8085366590021295,0.0,0.19179487179487179,2.092014652014652
1.8169392570052878,0.17084249084249084,0.12087912087912088,3.3
1.8226171120040817,0.17084249084249084,0.12087912087912088,3.3
1.8227639230026398,0.016923076923076923,0.10476190476190475,2.432087912087912
1.8281604330040864,0.9412454212454211,0.8163369963369963,1.1475457875457875
1.8298152179995668,0.9412454212454211,0.8163369963369963,1.1475457875457875
1.8329883110054652,0.9412454212454211,0.8163369963369963,1.1475457875457875
1.8347060369997052,0.9412454212454211,0.8163369963369963,1.1475457875457875
1.8386061050041462,0.9412454212454211,0.8163369963369963,1.1475457875457875
1.8425857670008554,0.9412454212454211,0.8163369963369963,1.1475457875457875
1.845830313002807,0.9412454212454211,0.8163369963369963,1.1475457875457875
1.8474756440045894,0.9412454212454211,0.8163369963369963,1.1475457875457875
1.850824557004671,0.9412454212454211,0.8163369963369963,1.1475457875457875
1.8517783730058,0.9412454212454211,0.8163369963369963,1.1475457875457875
1.852836247999221,0.9412454212454211,0.8163369963369963,1.1475457875457875
1.8537407840049127,0.9412454212454211,0.8163369963369963,1.1475457875457875
1.8546791810003924,0.9412454212454211,0.8163369963369963,1.1475457875457875
1.8563319360036985,0.9412454212454211,0.8163369963369963,1.1475457875457875
1.8603818300034618,0.9412454212454211,0.8163369963369963,1.1475457875457875
1.8636853240022901,0.9412454212454211,0.8163369963369963,1.1475457875457875
1.8639528339990648,0.9412454212454211,0.8163369963369963,1.1475457875457875
1.8690614090010058,0.9412454212454211,0.8163369963369963,1.1475457875457875
1.8732026680008858,0.9412454212454211,0.8163369963369963,1.1475457875457875
1.8764643590038759,0.9412454212454211,0.8163369963369963,1.1475457875457875
1.8773258430010173,0.9412454212454211,0.8163369963369963,1.1475457875457875
1.879167867002252,0.9412454212454211,0.8163369963369963,1.1475457875457875
1.8815789020009106,0.9412454212454211,0.8163369963369963,1.1475457875457875
1.8874541230034083,0.33926739926739924,0.5544322344322344,0.5971428571428571
1.8933490900017205,0.0,0.1676190476190476,1.7994871794871792
1.8935046960032196,0.0,0.1676190476190476,1.7994871794871792
1.8989970340044238,0.0,0.1676190476190476,1.7994871794871792
1.8998352749986225,0.0,0.1676190476190476,1.7994871794871792
1.901463791000424,0.0,0.1676190476190476,1.7994871794871792
1.9055042370018782,0.0,0.1676190476190476,1.7994871794871792
1.9089328560003196,0.0,0.1676190476190476,1.7994871794871792
1.9091395680006826,0.0,0.1821245421245421,1.257142857142857
1.9148363300046185,0.0,0.1821245421245421,1.257142857142857
1.9151091900057509,0.0,0.1821245421245421,1.257142857142857
1.9204962369985878,0.0,0.1821245421245421,1.257142857142857
1.9221963970048819,0.0,0.1821245421245421,1.257142857142857
1.926181175003876,0.0,0.1821245421245421,1.257142857142857
1.9294257310029934,0.0,0.1821245421245421,1.257142857142857
1.9311015510029392,0.0,0.1821245421245421,1.257142857142857
1.935024425998563,0.0,0.1821245421245421,1.257142857142857
1.9388456560045597,0.0,0.1821245421245421,1.257142857142857
1.9436983810010133,0.0,0.1821245421245421,1.257142857142857
1.9494185830044444,0.0,0.1821245421245421,1.257142857142857
1.9496777120002662,0.0,0.1821245421245421,1.257142857142857
1.9553561499997159,0.0,0.1821245421245421,1.257142857142857
1.9555704170052195,0.0,0.1821245421245421,1.257142857142857
1.9613497290047235,0.0,0.1821245421245421,1.257142857142857
1.961556031004875,0.0,0.1821245421245421,1.257142857142857
1.9670927680053865,0.0,0.1821245421245421,1.257142857142857
1.9679600070012384,0.0,0.1821245421245421,1.257142857142857
1.969593136003823,0.0,0.1821245421245421,1.257142857142857
1.9734967410040554,0.0,0.1821245421245421,1.257142857142857
1.9773444700040272,0.0,0.1821245421245421,1.257142857142857
1.981988489998912,0.0,0.1821245421245421,1.257142857142857
1.982209289999446,0.0,0.1821245421245421,1.257142857142857
1.9876540990007925,0.0,0.1821245421245421,1.257142857142857
1.9893194530013716,0.0,0.1821245421245421,1.257142857142857
1.993886543001281,0.0,0.1821245421245421,1.257142857142857
1.9940353830024833,0.0,0.1821245421245421,1.257142857142857
1.9994609400018817,0.0,0.1821245421245421,1.257142857142857
2.001831083005527,0.40695970695970696,0.20388278388278389,2.557802197802198
2.0019724340018,0.40695970695970696,0.20388278388278389,2.557802197802198
2.007452395002474,0.40695970695970696,0.20388278388278389,2.557802197802198
2.008378108002944,0.40695970695970696,0.20388278388278389,2.557802197802198
2.010027722004452,0.40695970695970696,0.20388278388278389,2.557802197802198
2.013975289002701,0.9219047619047619,0.6124542124542125,2.5795604395604395
2.0179094609993626,0.9219047619047619,0.6124542124542125,2.5795604395604395
2.021172717002628,0.9219047619047619,0.6124542124542125,2.5795604395604395
2.0230111990022124,0.0,0.13699633699633698,0.5310622710622711
2.0254154260037467,0.0,0.13699633699633698,0.5310622710622711
2.0256547310054884,0.0,0.13699633699633698,0.5310622710622711
2.031192567999824,0.0,0.13699633699633698,0.5310622710622711
2.032213712001976,0.6898168498168498,0.4778754578754579,2.5747252747252745
2.032535670005018,0.6898168498168498,0.4778754578754579,2.5747252747252745
2.038142078999954,0.6898168498168498,0.4778754578754579,2.5747252747252745
2.0384148720040685,0.6898168498168498,0.4778754578754579,2.5747252747252745
2.043831366005179,0.6898168498168498,0.4778754578754579,2.5747252747252745
2.0448174660050427,0.6898168498168498,0.4778754578754579,2.5747252747252745
2.045865993000916,0.6898168498168498,0.4778754578754579,2.5747252747252745
2.0468671550042927,0.6898168498168498,0.4778754578754579,2.5747252747252745
2.047766390001925,0.6898168498168498,0.4778754578754579,2.5747252747252745
2.0493570160033414,0.0,0.14989010989010987,1.4956776556776556
2.0541519580001477,0.0,0.14989010989010987,1.4956776556776556
2.0598230579998926,0.0,0.14989010989010987,1.4956776556776556
2.0600837070014677,0.0,0.14989010989010987,1.4956776556776556
2.065582192000875,0.0,0.14989010989010987,1.4956776556776556
2.067174635005358,0.0,0.14989010989010987,1.4956776556776556
2.071771932001866,0.0,0.14989010989010987,1.4956776556776556
2.071960952001973,0.0,0.14989010989010987,1.4956776556776556
2.0774852450049366,0.0,0.14989010989010987,1.4956776556776556
2.0784236840045196,0.6052014652014651,0.28124542124542123,2.5674725274725274
2.0801085980056087,0.6052014652014651,0.28124542124542123,2.5674725274725274
2.083273852003913,0.0,0.10315018315018315,1.5456410256410256
2.0856874930032063,0.0,0.10315018315018315,1.5456410256410256
2.0858502730043256,0.0,0.10315018315018315,1.5456410256410256
2.0912540030039963,0.0,0.10315018315018315,1.5456410256410256
2.0937212290009484,0.7849084249084248,0.5213919413919413,2.5747252747252745
2.099466076004319,0.7808791208791208,0.6809523809523809,3.3
2.099741288002406,0.4964102564102564,0.2594871794871795,2.552967032967033
2.1053197200017166,0.4964102564102564,0.2594871794871795,2.552967032967033
2.1056069699989166,0.4964102564102564,0.2594871794871795,2.552967032967033
2.1113802890031366,0.4964102564102564,0.2594871794871795,2.552967032967033
2.111470403004205,0.0,0.1241025641025641,1.80029304029304
2.1169145180028863,0.0,0.1241025641025641,1.80029304029304
2.117779011001403,0.8622710622710623,0.5487912087912087,2.556996336996337
2.119368981999287,0.8622710622710623,0.5487912087912087,2.556996336996337
2.1233314820055966,0.3078388278388278,0.21597069597069596,3.3
2.1272258649987634,0.0,0.1418315018315018,1.3884981684981685
2.131315190999885,0.0,0.1418315018315018,1.3884981684981685
2.1346378560047015,0.0,0.1418315018315018,1.3884981684981685
2.1355073080048896,0.0,0.1418315018315018,1.3884981684981685
2.137148444002378,0.0,0.1418315018315018,1.3884981684981685
2.141072146005172,0.0,0.1418315018315018,1.3884981684981685
2.1450372800027253,0.0,0.1418315018315018,1.3884981684981685
2.149229129005107,0.0,0.1418315018315018,1.3884981684981685
2.1516555970010813,0.0,0.1418315018315018,1.3884981684981685
2.1574368459987454,0.0,0.1418315018315018,1.3884981684981685
2.1577061909993063,0.0,0.1418315018315018,1.3884981684981685
2.1632193030018243,0.0,0.1418315018315018,1.3884981684981685
2.1648793510030373,0.0,0.1418315018315018,1.3884981684981685
2.1681429320015013,0.0,0.1418315018315018,1.3884981684981685
2.169116753000708,0.0,0.1692307692307692,2.0815384615384613
2.1701207910009543,0.0,0.1692307692307692,2.0815384615384613
2.171846640005242,0.7035164835164834,0.5262271062271061,2.573919413919414
2.175188467001135,0.08622710622710622,0.5786080586080585,0.3183150183150183
2.1768798020057147,1.087106227106227,1.2917948717948717,1.8816849816849814
2.180008389004797,1.087106227106227,1.2917948717948717,1.8816849816849814
2.181654181003978,1.087106227106227,1.2917948717948717,1.8816849816849814
2.185668637001072,1.087106227106227,1.2917948717948717,1.8816849816849814
2.1889530170010403,1.087106227106227,1.2917948717948717,1.8816849816849814
2.1892344190055155,1.087106227106227,1.2917948717948717,1.8816849816849814
2.1948731810043682,1.087106227106227,1.2917948717948717,1.8816849816849814
2.1951200410039746,1.087106227106227,1.2917948717948717,1.8816849816849814
2.200001347999205,1.087106227106227,1.2917948717948717,1.8816849816849814
2.205565934003971,1.087106227106227,1.2917948717948717,1.8816849816849814
2.205852065999352,1.087106227106227,1.2917948717948717,1.8816849816849814
2.2105740530023468,1.087106227106227,1.2917948717948717,1.8816849816849814
2.2107815550043597,1.087106227106227,1.2917948717948717,1.8816849816849814
2.2156262080025044,1.087106227106227,1.2917948717948717,1.8816849816849814
2.2211079699991387,0.6487179487179486,0.40534798534798533,2.5626373626373624
2.2230126930007827,0.23531135531135527,0.1555311355311355,3.3
2.225457787004416,0.23531135531135527,0.1555311355311355,3.3
2.22569045900309,0.23531135531135527,0.1555311355311355,3.3
2.230542711004091,0.23531135531135527,0.1555311355311355,3.3
2.2362226320037735,0.7953846153846154,0.5689377289377289,2.565860805860806
2.236453302000882,0.3449084249084249,0.8671062271062271,0.9412454212454211
2.2413302260029013,0.3449084249084249,0.8671062271062271,0.9412454212454211
2.2491364230008912,0.3449084249084249,0.8671062271062271,0.9412454212454211
2.2553050839997013,0.3449084249084249,0.8671062271062271,0.9412454212454211
2.2602413409986184,0.3449084249084249,0.8671062271062271,0.9412454212454211
2.2641569420011365,0.3449084249084249,0.8671062271062271,0.9412454212454211
2.268023403004918,0.3449084249084249,0.8671062271062271,0.9412454212454211
2.2731324690030306,0.04915750915750916,0.25384615384615383,2.215311355311355
2.2770193430042127,0.5157509157509157,0.9581684981684981,1.324029304029304
2.2809227800025837,0.5157509157509157,0.9581684981684981,1.324029304029304
2.2838643990035052,0.5157509157509157,0.9581684981684981,1.324029304029304
2.28616386000067,0.5157509157509157,0.9581684981684981,1.324029304029304
2.2870680920023005,0.5157509157509157,0.9581684981684981,1.324029304029304
2.288630385999568,0.5157509157509157,0.9581684981684981,1.324029304029304
2.2930939910002053,0.5157509157509157,0.9581684981684981,1.324029304029304
2.29396541800088,0.5157509157509157,0.9581684981684981,1.324029304029304
2.2954983939998783,0.5157509157509157,0.9581684981684981,1.324029304029304
2.300147141002526,0.5157509157509157,0.9581684981684981,1.324029304029304
2.300423305001459,0.5157509157509157,0.9581684981684981,1.324029304029304
2.3048583070049062,0.5157509157509157,0.9581684981684981,1.324029304029304
2.305753808002919,0.5157509157509157,0.9581684981684981,1.324029304029304
2.3072956680043717,0.5157509157509157,0.9581684981684981,1.324029304029304
2.3116697810037294,0.5157509157509157,0.9581684981684981,1.324029304029304
2.3131877330015413,0.5157509157509157,0.9581684981684981,1.324029304029304
2.3175877899993793,0.5157509157509157,0.9581684981684981,1.324029304029304
2.3191358110052533,0.5157509157509157,0.9581684981684981,1.324029304029304
2.324446598002396,0.12249084249084248,0.1378021978021978,3.038095238095238
2.326480943003844,0.12249084249084248,0.1378021978021978,3.038095238095238
2.3281157150049694,0.12249084249084248,0.1378021978021978,3.038095238095238
2.331981846000417,0.0,0.14586080586080585,1.5214652014652015
2.336813156005519,0.0,0.14586080586080585,1.5214652014652015
2.342699676999473,0.5995604395604395,0.9855677655677655,3.004249084249084
2.34969094000553,0.037875457875457874,0.112014652014652,2.4667399267399266
2.354813827005273,0.037875457875457874,0.112014652014652,2.4667399267399266
2.3591173230015556,0.037875457875457874,0.112014652014652,2.4667399267399266
2.359428478004702,0.037875457875457874,0.112014652014652,2.4667399267399266
2.3678763290008646,0.037875457875457874,0.112014652014652,2.4667399267399266
2.376145321999502,0.037875457875457874,0.112014652014652,2.4667399267399266
2.383325718001288,1.166080586080586,1.4610256410256408,2.071062271062271
2.389835463000054,1.166080586080586,1.4610256410256408,2.071062271062271
2.3956574550029472,1.166080586080586,1.4610256410256408,2.071062271062271
2.4048430910042953,1.166080586080586,1.4610256410256408,2.071062271062271
2.4131250840000575,0.0,0.23531135531135527,1.892161172161172
2.4191496429994004,0.0,0.17164835164835165,1.7914285714285711
2.426719707000302,0.3167032967032967,0.1797069597069597,3.3
2.431887929000368,0.0556043956043956,0.1386080586080586,2.5078388278388277
2.4345305180031573,0.018534798534798533,0.3884249084249084,3.3
2.4424914180053747,0.018534798534798533,0.3884249084249084,3.3
2.4500383220001822,0.018534798534798533,0.3884249084249084,3.3
2.4560163670030306,0.018534798534798533,0.3884249084249084,3.3
2.462017575002392,0.018534798534798533,0.3884249084249084,3.3
2.46798020600545,0.018534798534798533,0.3884249084249084,3.3
2.473282446000667,1.3208058608058608,1.2547252747252746,1.7092307692307693
2.473626648003119,1.3208058608058608,1.2547252747252746,1.7092307692307693
2.481607902998803,1.3208058608058608,1.2547252747252746,1.7092307692307693
2.489454848000605,1.3208058608058608,1.2547252747252746,1.7092307692307693
2.4972303940012353,1.3208058608058608,1.2547252747252746,1.7092307692307693
2.5016365390038118,1.3208058608058608,1.2547252747252746,1.7092307692307693
2.501886521000415,1.3208058608058608,1.2547252747252746,1.7092307692307693
2.509765447000973,1.3208058608058608,1.2547252747252746,1.7092307692307693
2.5172894460047246,1.3208058608058608,1.2547252747252746,1.7092307692307693
2.523331390999374,1.3208058608058608,1.2547252747252746,1.7092307692307693
2.5265847129994654,1.3208058608058608,1.2547252747252746,1.7092307692307693
2.527544456999749,1.3208058608058608,1.2547252747252746,1.7092307692307693
2.529206930004875,1.3208058608058608,1.2547252747252746,1.7092307692307693
2.533284694000031,1.3208058608058608,1.2547252747252746,1.7092307692307693
2.5364377470032196,1.3208058608058608,1.2547252747252746,1.7092307692307693
2.5381891090000863,1.3208058608058608,1.2547252747252746,1.7092307692307693
2.541470966003544,1.3208058608058608,1.2547252747252746,1.7092307692307693
2.5432944370040786,1.3208058608058608,1.2547252747252746,1.7092307692307693
2.5458578690013383,1.3208058608058608,1.2547252747252746,1.7092307692307693
2.5507189220006694,1.3208058608058608,1.2547252747252746,1.7092307692307693
2.5557967480053776,1.3208058608058608,1.2547252747252746,1.7092307692307693
2.5607987620023778,0.0,0.3352380952380952,1.701978021978022
2.564899252000032,0.1797069597069597,0.1386080586080586,3.3
2.5674598129990045,0.1797069597069597,0.1386080586080586,3.3
2.5675507790001575,0.0,0.20227106227106226,1.7277655677655677
2.573414671998762,0.0,0.20227106227106226,1.7277655677655677
2.579096739005763,0.0,0.20227106227106226,1.7277655677655677
2.5792177120019915,0.0,0.20227106227106226,1.7277655677655677
2.585029050002049,0.0,0.20227106227106226,1.7277655677655677
2.585134177003056,0.0,0.20227106227106226,1.7277655677655677
2.5908756050048396,0.0,0.20227106227106226,1.7277655677655677
2.5910416940023424,0.7792673992673992,0.6567765567765567,2.577948717948718
2.596634288005589,0.7792673992673992,0.6567765567765567,2.577948717948718
2.5974984120039153,0.7792673992673992,0.6567765567765567,2.577948717948718
2.5984277130046394,0.7792673992673992,0.6567765567765567,2.577948717948718
2.6009972780011594,0.7792673992673992,0.6567765567765567,2.577948717948718
2.6052593830027035,0.0,0.14908424908424908,1.4586080586080585
2.60769168400293,0.02095238095238095,0.2917216117216117,3.150915750915751
2.6078101950042765,0.02095238095238095,0.2917216117216117,3.150915750915751
2.613400399000966,0.6116483516483516,0.5931135531135531,2.552967032967033
2.6144581920016208,0.0,0.3416849816849817,1.6447619047619046
2.6154585420008516,0.8598534798534798,0.6817582417582417,2.5465201465201464
2.616397773999779,0.8598534798534798,0.6817582417582417,2.5465201465201464
2.617315556999529,0.6148717948717949,0.38036630036630037,2.5545787545787544
2.618965140005457,0.6148717948717949,0.38036630036630037,2.5545787545787544
2.6229441040050006,0.6148717948717949,0.38036630036630037,2.5545787545787544
2.6269381579986657,0.6148717948717949,0.38036630036630037,2.5545787545787544
2.630859117998625,0.6148717948717949,0.38036630036630037,2.5545787545787544
2.6358394929993665,0.0,0.3924542124542124,3.3
2.6408842410019133,0.0,0.3924542124542124,3.3
2.6448477400044794,0.45772893772893775,0.24739926739926738,2.557802197802198
2.6491858110020985,0.45772893772893775,0.24739926739926738,2.557802197802198
2.650837152999884,0.45772893772893775,0.24739926739926738,2.557802197802198
2.6548383150002337,0.10153846153846154,0.3892307692307692,2.553772893772894
2.6582116940044216,0.10153846153846154,0.3892307692307692,2.553772893772894
2.6591344410044258,0.10153846153846154,0.3892307692307692,2.553772893772894
2.6601309070028947,0.10153846153846154,0.3892307692307692,2.553772893772894
2.661057821002032,0.10153846153846154,0.3892307692307692,2.553772893772894
2.662227619999612,0.14586080586080585,0.1539194139194139,3.3
2.6625417820032453,0.14586080586080585,0.1539194139194139,3.3
2.667430790999788,0.14586080586080585,0.1539194139194139,3.3
2.672686320998764,0.14586080586080585,0.1539194139194139,3.3
2.675170716000139,0.0,0.3424908424908425,1.692307692307692
2.6753021539989277,0.0,0.3424908424908425,1.692307692307692
2.6823329540056875,0.0,0.3424908424908425,1.692307692307692
2.687399339003605,0.4545054945054945,0.26593406593406593,2.5553846153846154
2.691477856998972,0.4545054945054945,0.26593406593406593,2.5553846153846154
2.6942036700056633,0.4545054945054945,0.26593406593406593,2.5553846153846154
2.6989582310052356,0.4545054945054945,0.26593406593406593,2.5553846153846154
2.699101286001678,0.7405860805860806,0.38358974358974357,2.5594139194139194
2.70429117900494,0.7405860805860806,0.38358974358974357,2.5594139194139194
2.7081429110039608,0.7405860805860806,0.38358974358974357,2.5594139194139194
2.7133415319985943,0.7405860805860806,0.38358974358974357,2.5594139194139194
2.7165670309987036,0.7405860805860806,0.38358974358974357,2.5594139194139194
2.7182351570008905,0.7405860805860806,0.38358974358974357,2.5594139194139194
2.7223474249985884,0.7405860805860806,0.38358974358974357,2.5594139194139194
2.72491835099936,0.25545787545787546,0.4964102564102564,0.29010989010989013
2.730319441005122,0.25545787545787546,0.4964102564102564,0.29010989010989013
2.732167444002698,0.0,0.15794871794871795,1.9824175824175823
2.734625747005339,0.0,0.15794871794871795,1.9824175824175823
2.7403525980043923,0.6463003663003662,1.0073260073260073,1.423956043956044
2.740538005004055,0.6463003663003662,1.0073260073260073,1.423956043956044
2.745616420004808,0.6463003663003662,1.0073260073260073,1.423956043956044
2.7494830950017786,0.6463003663003662,1.0073260073260073,1.423956043956044
2.7534236520004924,0.9887912087912087,0.6076190476190476,2.5787545787545785
2.757405065000057,0.9887912087912087,0.6076190476190476,2.5787545787545785
2.7612994400042226,0.7921611721611721,0.5705494505494505,2.5586080586080584
2.7653195490056532,0.18695970695970696,0.15069597069597068,3.3
2.7692412180040265,0.18695970695970696,0.15069597069597068,3.3
2.7739821350041893,0.026593406593406595,0.2071062271062271,2.6456410256410257
2.7740872830036096,0.026593406593406595,0.2071062271062271,2.6456410256410257
2.7855574499990325,0.5624908424908425,0.8034432234432234,3.2460073260073257
2.793955202003417,0.5624908424908425,0.8034432234432234,3.2460073260073257
2.8015468459998374,0.5721611721611721,0.49238095238095236,2.54974358974359
2.8071145940048154,0.6326007326007326,0.36344322344322344,2.5594139194139194
2.814743829003419,0.33282051282051284,0.5246153846153846,0.33684981684981685
2.8194488890003413,0.33282051282051284,0.5246153846153846,0.33684981684981685
2.8196668590026093,0.33282051282051284,0.5246153846153846,0.33684981684981685
2.825165153000853,0.33282051282051284,0.5246153846153846,0.33684981684981685
2.826973874005489,1.0806593406593406,1.1628571428571428,2.0235164835164836
2.829862361999403,1.0806593406593406,1.1628571428571428,2.0235164835164836
2.833821733998775,1.0806593406593406,1.1628571428571428,2.0235164835164836
2.8380709570046747,1.0806593406593406,1.1628571428571428,2.0235164835164836
2.838359619003313,0.26109890109890105,0.18615384615384614,3.3
2.847763773002953,0.26109890109890105,0.18615384615384614,3.3
2.857960149005521,0.26109890109890105,0.18615384615384614,3.3
2.866505802005122,0.26109890109890105,0.18615384615384614,3.3
2.8756977260054555,0.26109890109890105,0.18615384615384614,3.3
2.880936945002759,0.26109890109890105,0.18615384615384614,3.3
2.88274189200456,0.083003663003663,0.15472527472527473,2.092014652014652
2.8861072979998426,0.083003663003663,0.15472527472527473,2.092014652014652
2.8870117140031653,0.083003663003663,0.15472527472527473,2.092014652014652
2.888698660004593,0.083003663003663,0.15472527472527473,2.092014652014652
2.893019244002062,0.0,0.15069597069597068,1.759194139194139
2.8933341299998574,0.0,0.15069597069597068,1.759194139194139
2.898330715004704,0.0,0.15069597069597068,1.759194139194139
2.903197662999446,0.0,0.15069597069597068,1.759194139194139
2.9110111750051146,1.692307692307692,1.456190476190476,1.6439560439560439
2.9160963149988675,1.692307692307692,1.456190476190476,1.6439560439560439
2.9211372380013927,0.9275457875457875,0.5818315018315018,2.548937728937729
2.9287724790046923,0.9275457875457875,0.5818315018315018,2.548937728937729
2.9331470309989527,0.9275457875457875,0.5818315018315018,2.548937728937729
2.934221333998721,0.9275457875457875,0.5818315018315018,2.548937728937729
2.9344862590005505,1.3578754578754577,1.423956043956044,2.339413919413919
2.9413294160040095,1.3578754578754577,1.423956043956044,2.339413919413919
2.94563386200025,1.3578754578754577,1.423956043956044,2.339413919413919
2.9459095960046398,1.3578754578754577,1.423956043956044,2.339413919413919
2.950842038000701,1.3578754578754577,1.423956043956044,2.339413919413919
2.957095912002842,1.3578754578754577,1.423956043956044,2.339413919413919
2.961149517002923,0.9597802197802198,0.630989010989011,2.5441025641025643
2.963661460998992,0.9597802197802198,0.630989010989011,2.5441025641025643
2.9693118700015475,0.9597802197802198,0.630989010989011,2.5441025641025643
2.9701760259995353,0.9597802197802198,0.630989010989011,2.5441025641025643
2.972788197999762,0.9597802197802198,0.630989010989011,2.5441025641025643
2.9794686259992886,0.9597802197802198,0.630989010989011,2.5441025641025643
2.9833782040004735,0.9597802197802198,0.630989010989011,2.5441025641025643
2.9879126500018174,0.9597802197802198,0.630989010989011,2.5441025641025643
2.9884077710012207,0.9597802197802198,0.630989010989011,2.5441025641025643
2.9957055160048185,0.9597802197802198,0.630989010989011,2.5441025641025643
2.999867302001803,0.8372893772893772,0.6205128205128204,2.573919413919414
3.003166692004015,0.8372893772893772,0.6205128205128204,2.573919413919414
3.0042368750000605,0.8372893772893772,0.6205128205128204,2.573919413919414
3.0044805979996454,0.8372893772893772,0.6205128205128204,2.573919413919414
3.010533120002947,0.8372893772893772,0.6205128205128204,2.573919413919414
3.014443077001488,0.8372893772893772,0.6205128205128204,2.573919413919414
3.018415938000544,0.8372893772893772,0.6205128205128204,2.573919413919414
3.02319713900215,0.8372893772893772,0.6205128205128204,2.573919413919414
3.02839872000186,0.8372893772893772,0.6205128205128204,2.573919413919414
3.030750424004509,0.8372893772893772,0.6205128205128204,2.573919413919414
3.0309976610005833,0.8372893772893772,0.6205128205128204,2.573919413919414
3.0360882070017396,0.13538461538461538,0.40695970695970696,3.3
3.0418670139988535,0.9436630036630036,1.1443223443223443,2.6633699633699632
3.0502835160004906,0.0547985347985348,0.15311355311355312,2.3797069597069593
3.0576233730025706,0.07494505494505493,0.28769230769230764,2.0315750915750916
3.0610611160009285,0.834065934065934,0.5318681318681319,2.5561904761904763
3.061482163000619,0.834065934065934,0.5318681318681319,2.5561904761904763
3.0655098960050964,0.834065934065934,0.5318681318681319,2.5561904761904763
3.0686929120056448,0.0,0.23531135531135527,2.697216117216117
3.0705330810014857,0.0,0.23531135531135527,2.697216117216117
3.0749183279986028,0.0,0.23531135531135527,2.697216117216117
3.0751455030040233,0.0,0.23531135531135527,2.697216117216117
3.0806837519994588,0.0,0.23531135531135527,2.697216117216117
3.083099825998943,0.5665201465201465,0.29655677655677654,2.5561904761904763
3.083316045005631,0.5665201465201465,0.29655677655677654,2.5561904761904763
3.089200778005761,0.5665201465201465,0.29655677655677654,2.5561904761904763
3.0951868600022863,0.5665201465201465,0.29655677655677654,2.5561904761904763
3.103480010002386,0.8477655677655677,0.630989010989011,2.5795604395604395
3.110105615000066,0.07655677655677656,0.14666666666666667,2.436923076923077
3.113370365004812,0.942051282051282,0.6156776556776556,2.557802197802198
3.1143235019990243,0.942051282051282,0.6156776556776556,2.557802197802198
3.1159806400028174,0.942051282051282,0.6156776556776556,2.557802197802198
3.1196257880001212,0.942051282051282,0.6156776556776556,2.557802197802198
3.1280472630023723,0.942051282051282,0.6156776556776556,2.557802197802198
3.1329235680022975,1.6624908424908424,1.3917216117216116,1.6955311355311353
3.1396939600017504,1.6624908424908424,1.3917216117216116,1.6955311355311353
3.1460003160027554,0.25545787545787546,0.17164835164835165,3.3
3.150181449003867,0.25545787545787546,0.17164835164835165,3.3
3.15186558500136,0.25545787545787546,0.17164835164835165,3.3
3.1582190150002134,0.026593406593406595,0.386007326007326,3.3
3.1617263080042903,0.026593406593406595,0.386007326007326,3.3
3.1674788930031355,0.026593406593406595,0.386007326007326,3.3
3.167770987005497,0.0,0.1668131868131868,1.6165567765567763
3.175880752001831,0.0,0.1668131868131868,1.6165567765567763
3.181292752000445,0.0,0.1668131868131868,1.6165567765567763
3.183014492999064,0.0,0.1668131868131868,1.6165567765567763
3.186553386003652,0.0,0.1668131868131868,1.6165567765567763
3.196844140999019,0.0,0.1668131868131868,1.6165567765567763
3.2025957260048017,0.35135531135531134,0.18454212454212454,3.3
3.2028683009993983,0.35135531135531134,0.18454212454212454,3.3
3.210027205001097,0.35135531135531134,0.18454212454212454,3.3
3.2139718570033438,0.35135531135531134,0.18454212454212454,3.3
3.2181541550016846,0.11362637362637362,0.4029304029304029,3.3
3.2201451869987068,0.11362637362637362,0.4029304029304029,3.3
3.2223346550017595,0.11362637362637362,0.4029304029304029,3.3
3.2239320689986926,0.11362637362637362,0.4029304029304029,3.3
3.2295233640033985,0.11362637362637362,0.4029304029304029,3.3
3.2296325440038345,0.11362637362637362,0.4029304029304029,3.3
3.235108526001568,0.11362637362637362,0.4029304029304029,3.3
3.2367920149990823,0.11362637362637362,0.4029304029304029,3.3
3.2427560729993274,0.11362637362637362,0.4029304029304029,3.3
3.246311703005631,0.11362637362637362,0.4029304029304029,3.3
3.2464388540029177,1.2273260073260073,1.1419047619047618,1.9082783882783882
3.2513243470020825,1.2273260073260073,1.1419047619047618,1.9082783882783882
3.259872268004983,0.04271062271062271,0.46095238095238095,1.0532600732600732
3.2670162150025135,0.17003663003663003,0.14827838827838827,3.3
3.2717610969993984,0.0,0.2191941391941392,2.722197802197802
3.277962022999418,0.0,0.3698901098901099,2.9526739926739927
3.2812784500056296,0.0,0.3698901098901099,2.9526739926739927
3.28216697100288,0.0,0.3698901098901099,2.9526739926739927
3.283853690001706,0.0,0.3698901098901099,2.9526739926739927
3.2877515250002034,0.0,0.3698901098901099,2.9526739926739927
3.2933793970005354,0.0,0.3698901098901099,2.9526739926739927
3.2935561260019313,0.0,0.3698901098901099,2.9526739926739927
3.2991358610015595,0.0,0.3698901098901099,2.9526739926739927
3.29946973999904,0.0,0.3698901098901099,2.9526739926739927
3.3056539980025264,0.0,0.3698901098901099,2.9526739926739927
3.309753540001111,0.0,0.3698901098901099,2.9526739926739927
3.311481870005082,0.0,0.3698901098901099,2.9526739926739927
3.314715740001702,0.0,0.3626373626373626,1.5964102564102562
3.3163610359988525,0.0,0.3626373626373626,1.5964102564102562
3.321174497999891,0.0,0.3626373626373626,1.5964102564102562
3.3277430000016466,0.0,0.3626373626373626,1.5964102564102562
3.331840334001754,0.0,0.3626373626373626,1.5964102564102562
3.3349897640000563,0.07252747252747253,0.4528937728937729,3.3
3.336634719998983,0.07252747252747253,0.4528937728937729,3.3
3.343516806999105,0.5504029304029303,0.303003663003663,2.54974358974359
3.3475172000034945,0.5504029304029303,0.303003663003663,2.54974358974359
3.3514981510015787,0.5504029304029303,0.303003663003663,2.54974358974359
3.3563412630028324,0.5504029304029303,0.303003663003663,2.54974358974359
3.361798133002594,0.5504029304029303,0.303003663003663,2.54974358974359
3.362047196002095,0.5504029304029303,0.303003663003663,2.54974358974359
3.36698399099987,0.5504029304029303,0.303003663003663,2.54974358974359
3.367095165005594,0.5504029304029303,0.303003663003663,2.54974358974359
3.374686761002522,0.5504029304029303,0.303003663003663,2.54974358974359
3.3791396570013603,0.5504029304029303,0.303003663003663,2.54974358974359
3.3794887800031574,0.5504029304029303,0.303003663003663,2.54974358974359
3.3846227930043824,0.5504029304029303,0.303003663003663,2.54974358974359
3.3903209089985467,0.5504029304029303,0.303003663003663,2.54974358974359
3.3906146779991104,0.2949450549450549,0.3795604395604395,3.3
3.3948825800034683,0.2949450549450549,0.3795604395604395,3.3
3.396889891002502,0.2949450549450549,0.3795604395604395,3.3
3.3978644590024487,0.2949450549450549,0.3795604395604395,3.3
3.399483439003234,0.2949450549450549,0.3795604395604395,3.3
3.403406574005203,0.2949450549450549,0.3795604395604395,3.3
3.409190958002,0.2949450549450549,0.3795604395604395,3.3
3.4143467180037987,0.0,0.13377289377289378,1.701978021978022
3.4182113089991617,0.0,0.13377289377289378,1.701978021978022
3.424727839999832,0.5238095238095237,0.2772161172161172,2.5481318681318683
3.42861348700535,0.5238095238095237,0.2772161172161172,2.5481318681318683
3.431963178998558,0.5238095238095237,0.2772161172161172,2.5481318681318683
3.4322651010006666,0.5238095238095237,0.2772161172161172,2.5481318681318683
3.438516549002088,0.5238095238095237,0.2772161172161172,2.5481318681318683
3.4438212660024874,0.06043956043956044,0.11765567765567764,2.1717948717948716
3.444747654000821,0.06043956043956044,0.11765567765567764,2.1717948717948716
3.4464506479998818,0.06043956043956044,0.11765567765567764,2.1717948717948716
3.449622432999604,0.06043956043956044,0.11765567765567764,2.1717948717948716
3.4522191710057086,0.06043956043956044,0.11765567765567764,2.1717948717948716
3.459894042003725,0.06043956043956044,0.11765567765567764,2.1717948717948716
3.4643334350039368,0.06043956043956044,0.11765567765567764,2.1717948717948716
3.465380735004146,0.06043956043956044,0.11765567765567764,2.1717948717948716
3.4663238700013608,0.06043956043956044,0.11765567765567764,2.1717948717948716
3.4672951140018995,0.06043956043956044,0.11765567765567764,2.1717948717948716
3.4691912900016177,0.06043956043956044,0.11765567765567764,2.1717948717948716
3.4734078910041717,0.06043956043956044,0.11765567765567764,2.1717948717948716
3.475010934002057,1.1693040293040293,1.2079853479853477,1.3506227106227104
3.479147402998933,1.1693040293040293,1.2079853479853477,1.3506227106227104
3.480805383005645,1.1693040293040293,1.2079853479853477,1.3506227106227104
3.4864257130029728,1.1693040293040293,1.2079853479853477,1.3506227106227104
3.495073988000513,1.1693040293040293,1.2079853479853477,1.3506227106227104
3.499942171998555,1.1693040293040293,1.2079853479853477,1.3506227106227104
3.506708790002449,0.0032234432234432234,0.1112087912087912,1.80996336996337
3.5116808349994244,0.0032234432234432234,0.1112087912087912,1.80996336996337
3.5161583020017133,0.0032234432234432234,0.1112087912087912,1.80996336996337
3.524299715005327,0.0032234432234432234,0.1112087912087912,1.80996336996337
3.5301697090035304,0.23369963369963367,0.16036630036630037,3.274212454212454
3.534966389001056,0.23369963369963367,0.16036630036630037,3.274212454212454
3.54402519800351,0.14989010989010987,0.3843956043956044,3.3
3.5522769050003262,0.1676190476190476,0.4045421245421245,0.4827106227106227
3.5594775560020935,0.1676190476190476,0.4045421245421245,0.4827106227106227
3.5637078110012226,0.1676190476190476,0.4045421245421245,0.4827106227106227
3.565336763000232,0.1676190476190476,0.4045421245421245,0.4827106227106227
3.5705911810000543,0.1676190476190476,0.4045421245421245,0.4827106227106227
3.575650808001228,0.1676190476190476,0.4045421245421245,0.4827106227106227
3.5766827690022183,0.1676190476190476,0.4045421245421245,0.4827106227106227
3.577670691003732,0.1676190476190476,0.4045421245421245,0.4827106227106227
3.579086236000876,0.1676190476190476,0.4045421245421245,0.4827106227106227
3.587014894001186,0.1676190476190476,0.4045421245421245,0.4827106227106227
3.5955021690024296,0.1676190476190476,0.4045421245421245,0.4827106227106227
3.6010832380052307,0.9396336996336996,0.5520146520146519,2.5561904761904763
3.601193955000781,0.9396336996336996,0.5520146520146519,2.5561904761904763
3.6114639100051136,0.9396336996336996,0.5520146520146519,2.5561904761904763
3.617222903005313,0.7228571428571429,0.7252747252747253,0.3755311355311355
3.6173790259999805,1.4545787545787545,1.4924542124542124,2.2225641025641028
3.623896371005685,1.4545787545787545,1.4924542124542124,2.2225641025641028
3.6280533780009137,0.07575091575091575,0.12974358974358974,2.457875457875458
3.630517928999325,0.0,0.15875457875457877,1.44007326007326
3.6362326870003017,1.162051282051282,0.6382417582417582,2.5787545787545785
3.6373288840040914,1.162051282051282,0.6382417582417582,2.5787545787545785
3.6376507470049546,1.162051282051282,0.6382417582417582,2.5787545787545785
3.6469830330024706,1.162051282051282,0.6382417582417582,2.5787545787545785
3.656290514001739,1.162051282051282,0.6382417582417582,2.5787545787545785
3.6625056539996876,1.162051282051282,0.6382417582417582,2.5787545787545785
3.6683421280031325,1.162051282051282,0.6382417582417582,2.5787545787545785
3.676926045001892,0.0,0.1643956043956044,1.2982417582417582
3.681541511999967,1.004102564102564,0.5641025641025641,2.5787545787545785
3.681736145001196,1.004102564102564,0.5641025641025641,2.5787545787545785
3.686403211002471,1.004102564102564,0.5641025641025641,2.5787545787545785
3.686662776002777,1.004102564102564,0.5641025641025641,2.5787545787545785
3.693588340000133,1.004102564102564,0.5641025641025641,2.5787545787545785
3.697624247004569,0.1539194139194139,0.3658608058608058,3.3
3.7021704310027417,0.8453479853479853,0.3432967032967033,2.565054945054945
3.7024528379988624,0.8453479853479853,0.3432967032967033,2.565054945054945
3.7104475460000685,0.8453479853479853,0.3432967032967033,2.565054945054945
3.7144988310028566,0.8453479853479853,0.3432967032967033,2.565054945054945
3.7176425389989163,0.9791208791208791,0.5520146520146519,2.5481318681318683
3.719360767005128,0.9791208791208791,0.5520146520146519,2.5481318681318683
3.7270713559992146,0.9791208791208791,0.5520146520146519,2.5481318681318683
3.731580069004849,0.14263736263736262,0.34087912087912087,3.1767032967032964
3.732472815005167,0.14263736263736262,0.34087912087912087,3.1767032967032964
3.734568128005776,0.008058608058608058,0.36344322344322344,1.4860073260073259
3.7356704070043634,0.008058608058608058,0.36344322344322344,1.4860073260073259
3.7358632780014887,0.008058608058608058,0.36344322344322344,1.4860073260073259
3.7440137510056957,0.008058608058608058,0.36344322344322344,1.4860073260073259
3.748752958003024,0.07413919413919413,0.1241025641025641,2.436923076923077
3.748992711000028,0.07413919413919413,0.1241025641025641,2.436923076923077
3.755847549000464,0.07413919413919413,0.1241025641025641,2.436923076923077
3.7608653490024153,0.07413919413919413,0.1241025641025641,2.436923076923077
3.763287132002006,0.07413919413919413,0.1241025641025641,2.436923076923077
3.7692383200046606,0.07413919413919413,0.1241025641025641,2.436923076923077
3.778812658005336,0.07413919413919413,0.1241025641025641,2.436923076923077
3.7834647570052766,0.0,0.12249084249084248,1.3079120879120878
3.7843025460024364,0.0,0.12249084249084248,1.3079120879120878
3.7859756050020223,0.0,0.12249084249084248,1.3079120879120878
3.792397418001201,0.016117216117216115,0.23853479853479853,1.7342124542124542
3.796986821005703,0.9364102564102563,1.0347252747252746,1.2893772893772892
3.802805197003181,0.8663003663003663,0.4851282051282051,2.561025641025641
3.802924310002709,0.8663003663003663,0.4851282051282051,2.561025641025641
3.811436086005415,0.8663003663003663,0.4851282051282051,2.561025641025641
3.8169939260042156,0.8663003663003663,0.4851282051282051,2.561025641025641
3.8178510650031967,0.8663003663003663,0.4851282051282051,2.561025641025641
3.8195195000007516,0.8663003663003663,0.4851282051282051,2.561025641025641
3.8262324850002187,0.8663003663003663,0.4851282051282051,2.561025641025641
3.830952973999956,0.0975091575091575,0.12168498168498168,2.4345054945054945
3.8358911070026807,0.0975091575091575,0.12168498168498168,2.4345054945054945
3.8429753860036726,0.0975091575091575,0.12168498168498168,2.4345054945054945
3.8470073780044913,0.0975091575091575,0.12168498168498168,2.4345054945054945
3.8502774670050712,0.04029304029304029,0.21274725274725276,2.8994871794871795
3.852751734004414,0.04029304029304029,0.21274725274725276,2.8994871794871795
3.8599726800021017,0.10395604395604395,0.4182417582417582,1.0427838827838827
3.864056623002398,0.9984615384615383,0.5641025641025641,2.556996336996337
3.8672466470015934,0.9984615384615383,0.5641025641025641,2.556996336996337
3.869094784000481,0.9984615384615383,0.5641025641025641,2.556996336996337
3.8723606010025833,0.9984615384615383,0.5641025641025641,2.556996336996337
3.873695131005661,0.9984615384615383,0.5641025641025641,2.556996336996337
3.879013584002678,0.9984615384615383,0.5641025641025641,2.556996336996337
3.8821943799994187,0.9984615384615383,0.5641025641025641,2.556996336996337
3.882479312000214,0.9984615384615383,0.5641025641025641,2.556996336996337
3.8874025240002084,0.9984615384615383,0.5641025641025641,2.556996336996337
3.8947944450046634,0.9984615384615383,0.5641025641025641,2.556996336996337
3.8994788640047773,0.9984615384615383,0.5641025641025641,2.556996336996337
3.8996654389993637,0.7027106227106227,0.32798534798534795,2.5553846153846154
3.908045326003048,0.7027106227106227,0.32798534798534795,2.5553846153846154
3.912260832999891,0.0547985347985348,0.23208791208791207,2.888205128205128
3.9156461330057937,0.0547985347985348,0.23208791208791207,2.888205128205128
3.915917687001638,0.0547985347985348,0.23208791208791207,2.888205128205128
3.9218588220028323,0.0547985347985348,0.23208791208791207,2.888205128205128
3.93024419300491,0.0547985347985348,0.23208791208791207,2.888205128205128
3.935133939005027,0.0547985347985348,0.23208791208791207,2.888205128205128
3.9415964580039144,0.0547985347985348,0.23208791208791207,2.888205128205128
3.946709282005031,0.0547985347985348,0.23208791208791207,2.888205128205128
3.949746017002326,0.0547985347985348,0.23208791208791207,2.888205128205128
3.951432639005361,0.0547985347985348,0.23208791208791207,2.888205128205128
3.9571959579989198,0.0547985347985348,0.23208791208791207,2.888205128205128
3.9622164600004908,0.8284249084249083,0.826007326007326,3.137216117216117
3.966164513003605,0.8284249084249083,0.826007326007326,3.137216117216117
3.9694739740007208,0.8284249084249083,0.826007326007326,3.137216117216117
3.970409710003878,0.8284249084249083,0.826007326007326,3.137216117216117
3.9721596770032193,0.8284249084249083,0.826007326007326,3.137216117216117
3.9757678890018724,0.8284249084249083,0.826007326007326,3.137216117216117
3.9759786880022148,0.8284249084249083,0.826007326007326,3.137216117216117
3.9809357710037148,0.8284249084249083,0.826007326007326,3.137216117216117
3.9849355460028164,0.34813186813186814,0.1789010989010989,3.3
3.9914660270005697,0.012893772893772894,0.2079120879120879,2.6835164835164833
3.997053778002737,0.012893772893772894,0.2079120879120879,2.6835164835164833
4.005324177000148,0.842124542124542,0.42952380952380953,2.5594139194139194
4.013884649000829,0.842124542124542,0.42952380952380953,2.5594139194139194
4.022088630001235,0.842124542124542,0.42952380952380953,2.5594139194139194
4.028603900005692,0.4126007326007326,0.5584615384615385,0.2602930402930403
4.0344168200026616,0.4722344322344322,0.6720879120879121,2.573113553113553
4.040946979002911,0.4722344322344322,0.6720879120879121,2.573113553113553
4.04655251600343,0.6551648351648351,0.29816849816849816,2.5682783882783884
4.058619852999982,0.0,0.1813186813186813,2.067032967032967
4.065236478003499,0.0,0.1813186813186813,2.067032967032967
4.069455593002203,0.0,0.1813186813186813,2.067032967032967
4.074133428002824,0.0,0.1813186813186813,2.067032967032967
4.082318136999675,1.5416117216117216,1.2926007326007325,1.5496703296703296
4.088954279002792,1.5416117216117216,1.2926007326007325,1.5496703296703296
4.094346930003667,1.1177289377289377,0.6116483516483516,2.5787545787545785
4.0946669510012725,1.1177289377289377,0.6116483516483516,2.5787545787545785
4.10128668800462,1.1177289377289377,0.6116483516483516,2.5787545787545785
4.107977498999389,0.3223443223443223,0.19340659340659339,3.3
4.112393404000613,0.3223443223443223,0.19340659340659339,3.3
4.112713567003084,0.3223443223443223,0.19340659340659339,3.3
4.12266478100355,0.3223443223443223,0.19340659340659339,3.3
4.128745291003725,1.0677655677655677,0.4754578754578754,2.5706959706959704
4.1346450870041735,1.0677655677655677,0.4754578754578754,2.5706959706959704
4.141583928001637,1.0677655677655677,0.4754578754578754,2.5706959706959704
4.145022336000693,1.0677655677655677,0.4754578754578754,2.5706959706959704
4.14596069700201,1.0677655677655677,0.4754578754578754,2.5706959706959704
4.14615239900013,1.0677655677655677,0.4754578754578754,2.5706959706959704
4.151806382003997,1.0677655677655677,0.4754578754578754,2.5706959706959704
4.152039294000133,1.0677655677655677,0.4754578754578754,2.5706959706959704
4.159384802005661,1.0677655677655677,0.4754578754578754,2.5706959706959704
4.162689462005801,1.0677655677655677,0.4754578754578754,2.5706959706959704
4.163606214002357,1.0677655677655677,0.4754578754578754,2.5706959706959704
4.165338604005228,1.0677655677655677,0.4754578754578754,2.5706959706959704
4.1691181490023155,1.0677655677655677,0.4754578754578754,2.5706959706959704
4.176749891004874,1.0677655677655677,0.4754578754578754,2.5706959706959704
4.180874222998682,1.0677655677655677,0.4754578754578754,2.5706959706959704
4.1833628860040335,1.0677655677655677,0.4754578754578754,2.5706959706959704
4.183486455003731,1.0677655677655677,0.4754578754578754,2.5706959706959704
4.189506791000895,1.0677655677655677,0.4754578754578754,2.5706959706959704
4.194655580999097,1.0677655677655677,0.4754578754578754,2.5706959706959704
4.197992940004042,1.0677655677655677,0.4754578754578754,2.5706959706959704
4.1984119530025055,1.0677655677655677,0.4754578754578754,2.5706959706959704
4.203188371000579,1.0677655677655677,0.4754578754578754,2.5706959706959704
4.203342183005589,1.0677655677655677,0.4754578754578754,2.5706959706959704
4.210289577000367,1.0677655677655677,0.4754578754578754,2.5706959706959704
4.2145384950053995,1.0677655677655677,0.4754578754578754,2.5706959706959704
4.216282182998839,1.0677655677655677,0.4754578754578754,2.5706959706959704
4.2194912350023515,1.0677655677655677,0.4754578754578754,2.5706959706959704
4.223825640001451,1.0677655677655677,0.4754578754578754,2.5706959706959704
4.224135663003835,1.735018315018315,1.2555311355311354,1.3296703296703296
4.228732251998736,1.735018315018315,1.2555311355311354,1.3296703296703296
4.228899939000257,1.735018315018315,1.2555311355311354,1.3296703296703296
4.233683778998966,1.735018315018315,1.2555311355311354,1.3296703296703296
4.241421345002891,1.0476190476190474,1.070989010989011,1.303076923076923
4.2461948140044115,0.0,0.13538461538461538,0.7776556776556776
4.246352257003309,0.0,0.13538461538461538,0.7776556776556776
4.252007749004406,0.0,0.13538461538461538,0.7776556776556776
4.252211887003796,0.0,0.13538461538461538,0.7776556776556776
4.260517613001866,0.0,0.13538461538461538,0.7776556776556776
4.265315952005039,0.0,0.13538461538461538,0.7776556776556776
4.272078612004407,0.0,0.12571428571428572,1.7172893772893774
4.2766417270031525,0.0,0.12571428571428572,1.7172893772893774
4.282458296998811,0.0,0.12571428571428572,1.7172893772893774
4.282703502998629,0.0,0.12571428571428572,1.7172893772893774
4.289422188005119,0.0,0.12571428571428572,1.7172893772893774
4.294465602004493,0.0,0.12571428571428572,1.7172893772893774
4.2970018240012,0.13054945054945052,0.5093040293040293,0.45772893772893775
4.303042903004098,0.13054945054945052,0.5093040293040293,0.45772893772893775
4.310895437003637,1.7849816849816849,1.4827838827838828,1.444102564102564
4.315859658003319,1.7849816849816849,1.4827838827838828,1.444102564102564
4.321385911003745,1.7849816849816849,1.4827838827838828,1.444102564102564
4.3217946410004515,1.7849816849816849,1.4827838827838828,1.444102564102564
4.3273884459995315,1.7849816849816849,1.4827838827838828,1.444102564102564
4.332941330001631,0.0,0.1386080586080586,1.6213919413919413
4.3339071570007945,0.0,0.1386080586080586,1.6213919413919413
4.334854026004905,0.0,0.1386080586080586,1.6213919413919413
4.335720504001074,0.0,0.1386080586080586,1.6213919413919413
4.337885150001966,0.0,0.1386080586080586,1.6213919413919413
4.339481039001839,0.0,0.1386080586080586,1.6213919413919413
4.344040217998554,0.0,0.1386080586080586,1.6213919413919413
4.344157559004088,0.0,0.1386080586080586,1.6213919413919413
4.349777249000908,0.0,0.1386080586080586,1.6213919413919413
4.350629856999149,0.0,0.22805860805860806,2.1806593406593406
4.351570847000403,0.0,0.22805860805860806,2.1806593406593406
4.3532563030021265,0.0,0.22805860805860806,2.1806593406593406
4.360790241000359,0.0,0.22805860805860806,2.1806593406593406
4.364890737000678,0.0,0.22805860805860806,2.1806593406593406
4.369003201005398,0.0,0.22805860805860806,2.1806593406593406
4.370409943003324,0.0,0.18454212454212454,2.5432967032967033
4.378230444002838,0.0,0.18454212454212454,2.5432967032967033
4.384119062000536,0.0,0.18454212454212454,2.5432967032967033
4.384226933005266,0.0,0.18454212454212454,2.5432967032967033
4.392270576005103,0.0,0.18454212454212454,2.5432967032967033
4.396654504002072,0.0,0.18454212454212454,2.5432967032967033
4.39755686600256,0.0,0.18454212454212454,2.5432967032967033
4.399383395000768,0.0,0.18454212454212454,2.5432967032967033
4.401882343001489,0.0,0.18454212454212454,2.5432967032967033
4.410354507002921,0.29655677655677654,0.14666666666666667,3.3
4.415481051000825,1.818021978021978,1.5383882783882783,1.3933333333333333
4.4188251509986,1.818021978021978,1.5383882783882783,1.3933333333333333
4.419100509003329,1.818021978021978,1.5383882783882783,1.3933333333333333
4.4274979480032925,1.818021978021978,1.5383882783882783,1.3933333333333333
4.431764002001728,0.2111355311355311,0.5197802197802197,2.8172893772893772
4.433522808001726,0.2111355311355311,0.5197802197802197,2.8172893772893772
4.436921776999952,0.7945787545787546,0.8566300366300367,3.1783150183150184
4.437158466003893,0.7945787545787546,0.8566300366300367,3.1783150183150184
4.44451452800422,0.7945787545787546,0.8566300366300367,3.1783150183150184
4.449516512999253,0.7945787545787546,0.8566300366300367,3.1783150183150184
4.453681412000151,0.7945787545787546,0.8566300366300367,3.1783150183150184
4.457623608999711,0.7945787545787546,0.8566300366300367,3.1783150183150184
4.460436753004615,0.9444688644688644,0.5939194139194138,2.5602197802197804
4.464555411999754,0.9444688644688644,0.5939194139194138,2.5602197802197804
4.4678467940029805,0.24578754578754577,0.48432234432234433,0.2683516483516483
4.468792038001993,0.0,0.15956043956043955,1.3909157509157508
4.471025545004522,0.0,0.15956043956043955,1.3909157509157508
4.471474265003053,0.8896703296703296,0.5721611721611721,2.577948717948718
4.4767913590039825,0.11684981684981684,0.5157509157509157,3.3
4.477055385999847,0.11684981684981684,0.5157509157509157,3.3
4.482165102999716,0.11684981684981684,0.5157509157509157,3.3
4.490388179001457,0.11684981684981684,0.5157509157509157,3.3
4.494337222000468,0.0,0.23934065934065935,2.166153846153846
4.4975659560004715,0.747032967032967,0.8147252747252747,3.3
4.4992390500046895,0.747032967032967,0.8147252747252747,3.3
4.503294561000075,0.747032967032967,0.8147252747252747,3.3
4.509202790002746,0.747032967032967,0.8147252747252747,3.3
4.5127599020052,0.0,0.14747252747252745,2.864029304029304
4.5128814530035015,0.0,0.14747252747252745,2.864029304029304
4.518559126001492,1.4690842490842488,1.3747985347985348,1.8373626373626373
4.519431557004282,0.469010989010989,0.2562637362637363,3.3
4.522281183002633,0.469010989010989,0.2562637362637363,3.3
4.525393553005415,0.469010989010989,0.2562637362637363,3.3
4.527592976002779,0.469010989010989,0.2562637362637363,3.3
4.527911021003092,0.02901098901098901,0.2772161172161172,1.4868131868131869
4.532755004998762,0.02901098901098901,0.2772161172161172,1.4868131868131869
4.532958280004095,0.02901098901098901,0.2772161172161172,1.4868131868131869
4.540802524003084,0.02901098901098901,0.2772161172161172,1.4868131868131869
4.544634873003815,0.02901098901098901,0.2772161172161172,1.4868131868131869
4.548095755002578,0.02901098901098901,0.2772161172161172,1.4868131868131869
4.548363988003985,0.02901098901098901,0.2772161172161172,1.4868131868131869
4.555285495000135,0.02901098901098901,0.2772161172161172,1.4868131868131869
4.5599880299996585,0.02901098901098901,0.2772161172161172,1.4868131868131869
4.565629371005343,0.02901098901098901,0.2772161172161172,1.4868131868131869
4.566472867001721,0.02901098901098901,0.2772161172161172,1.4868131868131869
4.568132196000079,0.0,0.2756043956043956,1.8397802197802198
4.57428184300079,0.0,0.2756043956043956,1.8397802197802198
4.577547377004521,0.0,0.2756043956043956,1.8397802197802198
4.577817130004405,0.0,0.2756043956043956,1.8397802197802198
4.583461390000593,0.0,0.2756043956043956,1.8397802197802198
4.58367089300009,0.18373626373626373,0.14586080586080585,2.984908424908425
4.591464883000299,0.18373626373626373,0.14586080586080585,2.984908424908425
4.595932260999689,1.195091575091575,0.6865934065934066,2.5626373626373624
4.5967830840018,1.195091575091575,0.6865934065934066,2.5626373626373624
4.598488370000268,1.195091575091575,0.6865934065934066,2.5626373626373624
4.602605268002662,1.195091575091575,0.6865934065934066,2.5626373626373624
4.60490664900135,1.195091575091575,0.6865934065934066,2.5626373626373624
4.6050793009999325,1.195091575091575,0.6865934065934066,2.5626373626373624
4.613933906999591,1.195091575091575,0.6865934065934066,2.5626373626373624
4.621596437005792,1.195091575091575,0.6865934065934066,2.5626373626373624
4.630432065001514,1.195091575091575,0.6865934065934066,2.5626373626373624
4.636927042003663,1.195091575091575,0.6865934065934066,2.5626373626373624
4.643470223003533,1.195091575091575,0.6865934065934066,2.5626373626373624
4.646809202000441,1.195091575091575,0.6865934065934066,2.5626373626373624
4.647071321000112,1.195091575091575,0.6865934065934066,2.5626373626373624
4.651927326005534,1.195091575091575,0.6865934065934066,2.5626373626373624
4.652159753000888,1.299047619047619,0.6608058608058608,2.5763369963369964
4.663028203998692,1.299047619047619,0.6608058608058608,2.5763369963369964
4.671817813999951,1.299047619047619,0.6608058608058608,2.5763369963369964
4.6804858860050444,1.299047619047619,0.6608058608058608,2.5763369963369964
4.686966387998837,1.299047619047619,0.6608058608058608,2.5763369963369964
4.691640144003031,0.13699633699633698,0.3997069597069597,3.2935531135531133
4.69179005100159,0.13699633699633698,0.3997069597069597,3.2935531135531133
4.69680870600132,0.13699633699633698,0.3997069597069597,3.2935531135531133
4.700995289000275,0.9219047619047619,0.46739926739926735,2.553772893772894
4.7035488710025675,0.9219047619047619,0.46739926739926735,2.553772893772894
4.71092817200406,0.7172161172161172,0.8203663003663003,0.6511355311355311
4.7161921260048985,1.2603663003663002,0.6277655677655677,2.5706959706959704
4.722236036999675,1.2603663003663002,0.6277655677655677,2.5706959706959704
4.727301310005714,0.0,0.1926007326007326,2.6577289377289377
4.729774151004676,0.0,0.37875457875457874,2.046080586080586
4.736168448005628,0.8147252747252747,0.7051282051282051,2.573919413919414
4.742232166005124,0.9863736263736262,0.6745054945054945,3.3
4.746568906004541,1.0339194139194139,0.3231501831501831,2.56989010989011
4.746914898001705,1.0339194139194139,0.3231501831501831,2.56989010989011
4.752264305003337,1.0339194139194139,0.3231501831501831,2.56989010989011
4.75524713100458,0.2602930402930403,0.6277655677655677,0.7131868131868132
4.7584874060048605,0.9557509157509158,0.6720879120879121,2.5674725274725274
4.758761002005485,0.8276190476190476,0.5737728937728938,2.569084249084249
4.763958349998575,0.8276190476190476,0.5737728937728938,2.569084249084249
4.767139471005066,0.8276190476190476,0.5737728937728938,2.569084249084249
4.7692882800038205,0.8276190476190476,0.5737728937728938,2.569084249084249
4.770901743002469,0.8276190476190476,0.5737728937728938,2.569084249084249
4.777402327003074,0.8276190476190476,0.5737728937728938,2.569084249084249
4.782532353005081,0.8614652014652014,0.6438827838827839,2.553772893772894
4.784158262002165,0.8614652014652014,0.6438827838827839,2.553772893772894
4.7904466620020685,0.8614652014652014,0.6438827838827839,2.553772893772894
4.795998332003364,0.8614652014652014,0.6438827838827839,2.553772893772894
4.796236551999755,0.8614652014652014,0.6438827838827839,2.553772893772894
4.801971257002151,0.8614652014652014,0.6438827838827839,2.553772893772894
4.802167918001942,0.8614652014652014,0.6438827838827839,2.553772893772894
4.809199693001574,0.8614652014652014,0.6438827838827839,2.553772893772894
4.812541518003854,0.8614652014652014,0.6438827838827839,2.553772893772894
4.8128675510015455,0.8614652014652014,0.6438827838827839,2.553772893772894
4.817813859001035,0.8614652014652014,0.6438827838827839,2.553772893772894
4.825126152005396,0.8614652014652014,0.6438827838827839,2.553772893772894
4.8308548080021865,0.8614652014652014,0.6438827838827839,2.553772893772894
4.838086480005586,0.8614652014652014,0.6438827838827839,2.553772893772894
4.844888239000284,0.8614652014652014,0.6438827838827839,2.553772893772894
4.850631938003062,0.3295970695970696,0.1643956043956044,3.3
4.8580692750038,0.3295970695970696,0.1643956043956044,3.3
4.8624947010030155,0.3295970695970696,0.1643956043956044,3.3
4.863440157001605,1.3756043956043955,0.8880586080586079,0.8711355311355311
4.865132771003118,1.9413186813186813,1.3925274725274726,1.3151648351648353
4.868421370003489,1.9413186813186813,1.3925274725274726,1.3151648351648353
4.870529215004353,1.9413186813186813,1.3925274725274726,1.3151648351648353
4.870951023003727,0.8824175824175824,0.5246153846153846,2.573113553113553
4.878675441999803,0.0693040293040293,0.4126007326007326,3.3
4.882720806002908,0.0693040293040293,0.4126007326007326,3.3
4.885974659999192,0.0693040293040293,0.4126007326007326,3.3
4.887061673005519,0.0693040293040293,0.4126007326007326,3.3
4.887560230999952,0.0693040293040293,0.4126007326007326,3.3
4.894249183002103,0.0693040293040293,0.4126007326007326,3.3
4.900724587001605,0.0693040293040293,0.4126007326007326,3.3
4.907173267005419,0.11282051282051282,0.12249084249084248,2.775384615384615
4.914082906005206,0.028205128205128206,0.22725274725274724,2.946227106227106
4.919153836002806,0.028205128205128206,0.22725274725274724,2.946227106227106
4.923620608999045,0.028205128205128206,0.22725274725274724,2.946227106227106
4.923991822004609,0.028205128205128206,0.22725274725274724,2.946227106227106
4.931911831001344,0.028205128205128206,0.22725274725274724,2.946227106227106
4.9358965960054775,0.028205128205128206,0.22725274725274724,2.946227106227106
4.9448592600019765,1.5077655677655677,1.1838095238095236,1.7680586080586078
4.949699214004795,1.5077655677655677,1.1838095238095236,1.7680586080586078
4.955920332999085,0.967032967032967,0.5769963369963369,2.5763369963369964
4.962428580998676,0.9065934065934066,1.1112820512820514,1.4231501831501832
4.965625329001341,0.9065934065934066,1.1112820512820514,1.4231501831501832
4.9679917140019825,0.0,0.26915750915750913,1.6665201465201465
4.977503123998758,0.0,0.26915750915750913,1.6665201465201465
4.983809413002746,0.0,0.26915750915750913,1.6665201465201465
4.988430286000948,0.12249084249084248,0.15069597069597068,2.6343589743589746
4.988707818003604,0.12249084249084248,0.15069597069597068,2.6343589743589746
4.996232236000651,0.12249084249084248,0.15069597069597068,2.6343589743589746
5.0012047280033585,0.8324542124542124,0.7147985347985348,3.3
5.008394247000979,0.8324542124542124,0.7147985347985348,3.3
5.012584039002832,1.49003663003663,1.1652747252747253,1.3707692307692307
5.015135638001084,1.49003663003663,1.1652747252747253,1.3707692307692307
5.019910840004741,1.49003663003663,1.1652747252747253,1.3707692307692307
5.02828564200172,1.49003663003663,1.1652747252747253,1.3707692307692307
5.033880180999404,1.49003663003663,1.1652747252747253,1.3707692307692307
5.034083714002918,1.49003663003663,1.1652747252747253,1.3707692307692307
5.041018078998604,1.49003663003663,1.1652747252747253,1.3707692307692307
5.044955957004277,1.49003663003663,1.1652747252747253,1.3707692307692307
5.049680030999298,0.14505494505494507,0.3642490842490842,0.5995604395604395
5.055531727004563,0.14505494505494507,0.3642490842490842,0.5995604395604395
5.061187334998976,0.14505494505494507,0.3642490842490842,0.5995604395604395
5.061366171001282,0.14505494505494507,0.3642490842490842,0.5995604395604395
5.067234400004963,0.14505494505494507,0.3642490842490842,0.5995604395604395
5.072627048000868,0.14505494505494507,0.3642490842490842,0.5995604395604395
5.074834160004684,0.14505494505494507,0.3642490842490842,0.5995604395604395
5.075116808002349,0.14505494505494507,0.3642490842490842,0.5995604395604395
5.080158235999988,0.14505494505494507,0.3642490842490842,0.5995604395604395
5.083849957998609,0.7019047619047618,0.39809523809523806,2.552967032967033
5.084011571001611,0.7019047619047618,0.39809523809523806,2.552967032967033
5.0890792589998455,0.7019047619047618,0.39809523809523806,2.552967032967033
5.0933699020024505,0.7019047619047618,0.39809523809523806,2.552967032967033
5.095989040004497,0.7019047619047618,0.39809523809523806,2.552967032967033
5.102730329999758,0.7019047619047618,0.39809523809523806,2.552967032967033
5.110708934000286,0.7019047619047618,0.39809523809523806,2.552967032967033
5.114595044004091,0.0,0.2345054945054945,2.5553846153846154
5.121744413001579,0.9686446886446887,0.5890842490842491,2.5465201465201464
5.125580778003496,0.0,0.13941391941391942,0.8558241758241758
5.129453838999325,0.0,0.13941391941391942,0.8558241758241758
5.133364428998902,1.224102564102564,0.6213186813186813,2.5787545787545785
5.136553094002011,1.224102564102564,0.6213186813186813,2.5787545787545785
5.138988519000122,1.224102564102564,0.6213186813186813,2.5787545787545785
5.1446003840028425,1.224102564102564,0.6213186813186813,2.5787545787545785
5.145501415005128,1.224102564102564,0.6213186813186813,2.5787545787545785
5.146420732002298,1.224102564102564,0.6213186813186813,2.5787545787545785
5.148474872003135,1.224102564102564,0.6213186813186813,2.5787545787545785
5.149383054005739,1.224102564102564,0.6213186813186813,2.5787545787545785
5.15033265400416,1.224102564102564,0.6213186813186813,2.5787545787545785
5.151989828002115,1.224102564102564,0.6213186813186813,2.5787545787545785
5.155962479999289,1.224102564102564,0.6213186813186813,2.5787545787545785
5.159135066001909,1.224102564102564,0.6213186813186813,2.5787545787545785
5.160813888003759,1.224102564102564,0.6213186813186813,2.5787545787545785
5.16484868000407,1.224102564102564,0.6213186813186813,2.5787545787545785
5.16822903999855,0.07494505494505493,0.34087912087912087,0.8679120879120878
5.169119215999672,0.07494505494505493,0.34087912087912087,0.8679120879120878
5.1707514980007545,0.07494505494505493,0.34087912087912087,0.8679120879120878
5.174870986003953,1.0113553113553113,0.5479853479853479,2.5787545787545785
5.177238705000491,0.06043956043956044,0.43999999999999995,1.2643956043956044
5.17745308400481,0.06043956043956044,0.43999999999999995,1.2643956043956044
5.182434463000391,0.06043956043956044,0.43999999999999995,1.2643956043956044
5.188268777004851,0.07897435897435898,0.14989010989010987,1.5166300366300365
5.188360676002048,0.0,0.1692307692307692,1.9034432234432233
5.193754390005779,0.0,0.1692307692307692,1.9034432234432233
5.196115670005383,0.0,0.1692307692307692,1.9034432234432233
5.196354197003529,0.0,0.1692307692307692,1.9034432234432233
5.2026669930055505,0.0,0.1692307692307692,1.9034432234432233
5.206509640003787,0.0,0.1692307692307692,1.9034432234432233
5.211153112002648,0.0,0.1692307692307692,1.9034432234432233
5.211304044998542,0.0,0.1692307692307692,1.9034432234432233
5.216716496004665,0.0,0.1692307692307692,1.9034432234432233
5.218415432005713,0.0,0.1692307692307692,1.9034432234432233
5.222329575000913,0.0,0.1692307692307692,1.9034432234432233
5.226543586999469,0.0,0.1692307692307692,1.9034432234432233
5.230781898004352,0.0,0.1692307692307692,1.9034432234432233
5.231131407002977,0.0,0.1692307692307692,1.9034432234432233
5.23887800599914,0.004835164835164835,0.3432967032967033,2.643223443223443
5.245952645003854,0.0,0.09831501831501832,0.7454212454212454
5.252432017005049,0.0,0.09831501831501832,0.7454212454212454
5.258016988998861,0.0,0.09831501831501832,0.7454212454212454
5.265199567002128,0.8477655677655677,0.42630036630036633,2.5634432234432234
5.2700187520022155,0.8477655677655677,0.42630036630036633,2.5634432234432234
5.275644950001151,0.8477655677655677,0.42630036630036633,2.5634432234432234
5.275978206002037,0.8477655677655677,0.42630036630036633,2.5634432234432234
5.280716096000106,0.8477655677655677,0.42630036630036633,2.5634432234432234
5.280907198000932,0.8477655677655677,0.42630036630036633,2.5634432234432234
5.285863582001184,0.8477655677655677,0.42630036630036633,2.5634432234432234
5.286057745004655,0.8477655677655677,0.42630036630036633,2.5634432234432234
5.293872704998648,0.8477655677655677,0.42630036630036633,2.5634432234432234
5.302449271999649,0.15794871794871795,0.41340659340659336,3.3
5.307892461998563,0.9315750915750916,0.47706959706959706,2.5626373626373624
5.3082088450028095,0.9315750915750916,0.47706959706959706,2.5626373626373624
5.3165223079995485,0.9315750915750916,0.47706959706959706,2.5626373626373624
5.323439148000034,0.9315750915750916,0.47706959706959706,2.5626373626373624
5.327409073004674,0.9315750915750916,0.47706959706959706,2.5626373626373624
5.331759434004198,0.9315750915750916,0.47706959706959706,2.5626373626373624
5.331952779000858,0.9315750915750916,0.47706959706959706,2.5626373626373624
5.33989121200284,0.9315750915750916,0.47706959706959706,2.5626373626373624
5.345969337002316,0.9315750915750916,0.47706959706959706,2.5626373626373624
5.351460757003224,0.0,0.21516483516483517,2.185494505494505
5.351797659001022,0.0,0.21516483516483517,2.185494505494505
5.357133443001658,0.0,0.21516483516483517,2.185494505494505
5.360791163002432,0.0,0.21516483516483517,2.185494505494505
5.36823433200334,0.0,0.21516483516483517,2.185494505494505
5.377146520004317,0.7663736263736264,0.8566300366300367,0.5383150183150183
5.3856271379991085,1.4432967032967032,1.365128205128205,1.7833699633699631
5.3921820989999105,0.02336996336996337,0.16278388278388278,1.68021978021978
5.39555450300395,0.02336996336996337,0.16278388278388278,1.68021978021978
5.395768352005689,0.02336996336996337,0.16278388278388278,1.68021978021978
5.401307279003959,0.02336996336996337,0.16278388278388278,1.68021978021978
5.403111798004829,0.02336996336996337,0.16278388278388278,1.68021978021978
5.406094447003852,0.02336996336996337,0.16278388278388278,1.68021978021978
5.407884745000047,0.02336996336996337,0.16278388278388278,1.68021978021978
5.410492025999702,0.02336996336996337,0.16278388278388278,1.68021978021978
5.416056248999666,0.02336996336996337,0.16278388278388278,1.68021978021978
5.416961232003814,0.02336996336996337,0.16278388278388278,1.68021978021978
5.418691908002074,0.02336996336996337,0.16278388278388278,1.68021978021978
5.422548309004924,0.02336996336996337,0.16278388278388278,1.68021978021978
5.427082498004893,0.02336996336996337,0.16278388278388278,1.68021978021978
5.427315323002404,0.02336996336996337,0.16278388278388278,1.68021978021978
5.433065173005161,0.02336996336996337,0.16278388278388278,1.68021978021978
5.433317604001786,0.02336996336996337,0.16278388278388278,1.68021978021978
5.440358880005078,0.02336996336996337,0.16278388278388278,1.68021978021978
5.4458014629999525,0.02336996336996337,0.16278388278388278,1.68021978021978
5.445926669002802,0.02336996336996337,0.16278388278388278,1.68021978021978
5.451604460999079,0.02336996336996337,0.16278388278388278,1.68021978021978
5.451841563000926,0.0,0.33604395604395604,2.394212454212454
5.458585411004606,0.0,0.33604395604395604,2.394212454212454
5.463148533002823,0.0,0.33604395604395604,2.394212454212454
5.468776494999474,0.2071062271062271,0.4448351648351648,0.3078388278388278
5.469037162998575,0.2071062271062271,0.4448351648351648,0.3078388278388278
5.476721462000569,0.2071062271062271,0.4448351648351648,0.3078388278388278
5.480760204001854,0.2071062271062271,0.4448351648351648,0.3078388278388278
5.484756310004741,0.2071062271062271,0.4448351648351648,0.3078388278388278
5.488433744001668,0.2071062271062271,0.4448351648351648,0.3078388278388278
5.494311305999872,0.2071062271062271,0.4448351648351648,0.3078388278388278
5.494453402003273,0.2071062271062271,0.4448351648351648,0.3078388278388278
5.499889083002927,0.2071062271062271,0.4448351648351648,0.3078388278388278
5.501671543002885,0.2071062271062271,0.4448351648351648,0.3078388278388278
5.506799041002523,0.2071062271062271,0.4448351648351648,0.3078388278388278
5.508568264005589,0.02175824175824176,0.2683516483516483,2.0742857142857143
5.511892027003341,0.02175824175824176,0.2683516483516483,2.0742857142857143
5.512269626000489,0.02175824175824176,0.2683516483516483,2.0742857142857143
5.516937076004979,0.02175824175824176,0.2683516483516483,2.0742857142857143
5.517047361005098,0.02175824175824176,0.2683516483516483,2.0742857142857143
5.5237095929987845,0.02175824175824176,0.2683516483516483,2.0742857142857143
5.52782057600416,0.09186813186813186,0.1555311355311355,2.437728937728938
5.530402283999138,0.09186813186813186,0.1555311355311355,2.437728937728938
5.5362894580030115,0.15794871794871795,0.39003663003663,2.5481318681318683
5.536423336001462,0.15794871794871795,0.39003663003663,2.5481318681318683
5.543739341999753,0.15794871794871795,0.39003663003663,2.5481318681318683
5.547915016999468,0.15794871794871795,0.39003663003663,2.5481318681318683
5.550466462002078,0.15794871794871795,0.39003663003663,2.5481318681318683
5.557970788999228,0.15794871794871795,0.39003663003663,2.5481318681318683
5.561983898005565,0.15794871794871795,0.39003663003663,2.5481318681318683
5.566089398002077,0.15794871794871795,0.39003663003663,2.5481318681318683
5.568722285999684,0.15794871794871795,0.39003663003663,2.5481318681318683
5.576766885002144,1.224102564102564,0.6777289377289377,2.5763369963369964
5.5817079359985655,1.3643223443223442,1.3296703296703296,1.5915750915750915
5.586990422001691,1.3643223443223442,1.3296703296703296,1.5915750915750915
5.5913825320021715,0.0,0.2079120879120879,2.2967032967032965
5.591612745003658,1.2063736263736262,0.70996336996337,2.569084249084249
5.596589546999894,1.2063736263736262,0.70996336996337,2.569084249084249
5.600771119003184,1.2063736263736262,0.70996336996337,2.569084249084249
5.60248136100563,0.11926739926739927,0.17164835164835165,2.1766300366300366
5.608688806001737,0.11926739926739927,0.17164835164835165,2.1766300366300366
5.612024374000612,0.0,0.19340659340659339,1.5875457875457875
5.612356937999721,0.0,0.19340659340659339,1.5875457875457875
5.618003194998892,0.0,0.19340659340659339,1.5875457875457875
5.618232004002493,0.0,0.19340659340659339,1.5875457875457875
5.6265203560033115,0.0,0.19340659340659339,1.5875457875457875
5.631288475000474,0.0,0.19340659340659339,1.5875457875457875
5.637703450003755,0.0,0.19340659340659339,1.5875457875457875
5.6423805029990035,1.1467399267399265,1.2998534798534798,2.7979487179487177
5.6489112339986605,1.1467399267399265,1.2998534798534798,2.7979487179487177
5.65740643600293,1.1467399267399265,1.2998534798534798,2.7979487179487177
5.664769546005118,1.1467399267399265,1.2998534798534798,2.7979487179487177
5.67052930900536,0.30864468864468864,0.18776556776556774,3.3
5.682339692000824,0.09186813186813186,0.18534798534798536,2.4087179487179484
5.693029127003683,1.0113553113553113,0.6108424908424909,2.5473260073260073
5.701501316005306,1.0113553113553113,0.6108424908424909,2.5473260073260073
5.7092385120049585,1.0113553113553113,0.6108424908424909,2.5473260073260073
5.7135361960026785,1.0113553113553113,0.6108424908424909,2.5473260073260073
5.714971829998831,1.340952380952381,1.2652014652014651,1.5254945054945055
5.721802904001379,0.9984615384615383,0.5673260073260072,2.5602197802197804
5.72992204700131,0.9984615384615383,0.5673260073260072,2.5602197802197804
5.73498255800223,0.9984615384615383,0.5673260073260072,2.5602197802197804
5.739757367002312,0.9984615384615383,0.5673260073260072,2.5602197802197804
5.745616457003052,0.9984615384615383,0.5673260073260072,2.5602197802197804
5.752024430999882,0.17326007326007326,0.5165567765567766,2.9228571428571426
5.760474840004463,0.0,0.16036630036630037,1.730989010989011
5.767647733999183,0.0,0.16036630036630037,1.730989010989011
5.774030389999098,0.0,0.16036630036630037,1.730989010989011
5.779046205003397,0.0,0.16036630036630037,1.730989010989011
5.781613219005521,0.8243956043956043,0.4287179487179487,2.5545787545787544
5.788620095001534,0.8243956043956043,0.4287179487179487,2.5545787545787544
5.796781283999735,0.8243956043956043,0.4287179487179487,2.5545787545787544
5.815137875004439,0.8243956043956043,0.4287179487179487,2.5545787545787544
5.815558317000978,0.8243956043956043,0.4287179487179487,2.5545787545787544
5.827939136004716,0.8243956043956043,0.4287179487179487,2.5545787545787544
5.842596767004579,0.16842490842490843,0.16117216117216115,2.6077655677655676
5.850795856000332,0.012893772893772894,0.14908424908424908,1.7865934065934064
5.861789916998532,0.012893772893772894,0.14908424908424908,1.7865934065934064
5.864765393998823,0.917069597069597,0.4851282051282051,2.5602197802197804
5.8675885340053355,0.02498168498168498,0.26190476190476186,2.2958974358974356
5.871646056002646,0.02498168498168498,0.26190476190476186,2.2958974358974356
5.874566564001725,0.02498168498168498,0.26190476190476186,2.2958974358974356
5.879029150004499,0.02498168498168498,0.26190476190476186,2.2958974358974356
5.879382263003208,0.02498168498168498,0.26190476190476186,2.2958974358974356
5.884954986999219,0.02498168498168498,0.26190476190476186,2.2958974358974356
5.886057784999139,1.3917216117216116,1.3272527472527473,1.9356776556776556
5.886432873005106,1.3917216117216116,1.3272527472527473,1.9356776556776556
5.893957375003083,1.3917216117216116,1.3272527472527473,1.9356776556776556
5.898545132004074,1.3917216117216116,1.3272527472527473,1.9356776556776556
5.898840122004913,0.9082051282051282,0.4794871794871795,2.557802197802198
5.904933527002868,0.9082051282051282,0.4794871794871795,2.557802197802198
5.9123263280052925,0.12168498168498168,0.419047619047619,2.7939194139194137
5.918393419000495,0.0,0.19179487179487179,1.4827838827838828
5.923060024004371,0.0,0.19179487179487179,1.4827838827838828
5.929058720001194,0.0,0.19179487179487179,1.4827838827838828
5.93322910900315,0.0,0.19179487179487179,1.4827838827838828
5.935697033004544,0.0,0.19179487179487179,1.4827838827838828
5.93586449000577,0.0,0.19179487179487179,1.4827838827838828
5.942790209002851,0.0,0.19179487179487179,1.4827838827838828
5.946908779005753,0.0,0.19179487179487179,1.4827838827838828
5.950109375000466,0.0,0.19179487179487179,1.4827838827838828
5.951724418002414,0.0,0.19179487179487179,1.4827838827838828
5.956560001002799,0.0,0.19179487179487179,1.4827838827838828
5.962304710999888,0.0,0.19179487179487179,1.4827838827838828
5.962399550000555,0.0,0.19179487179487179,1.4827838827838828
5.967833287999383,0.0,0.19179487179487179,1.4827838827838828
5.968738455005223,0.0,0.19179487179487179,1.4827838827838828
5.970541578004486,0.0,0.19179487179487179,1.4827838827838828
5.974845525001001,0.0,0.19179487179487179,1.4827838827838828
5.975188866999815,1.5093772893772892,1.4908424908424909,2.4312820512820514
5.980857032998756,1.5093772893772892,1.4908424908424909,2.4312820512820514
5.981087189000391,1.5093772893772892,1.4908424908424909,2.4312820512820514
5.985998855001526,1.5093772893772892,1.4908424908424909,2.4312820512820514
5.992604056002165,1.5093772893772892,1.4908424908424909,2.4312820512820514
5.996874320000643,1.5093772893772892,1.4908424908424909,2.4312820512820514
5.998667265004769,1.5093772893772892,1.4908424908424909,2.4312820512820514
6.002129430002242,1.5093772893772892,1.4908424908424909,2.4312820512820514
6.002405213999737,1.5093772893772892,1.4908424908424909,2.4312820512820514
6.008014094004466,1.5093772893772892,1.4908424908424909,2.4312820512820514
6.008228058999521,1.5093772893772892,1.4908424908424909,2.4312820512820514
6.013016914999753,1.5093772893772892,1.4908424908424909,2.4312820512820514
6.018764193002426,1.5093772893772892,1.4908424908424909,2.4312820512820514
6.018943540999317,0.9758974358974358,0.5786080586080585,2.5505494505494504
6.026318381002056,0.9758974358974358,0.5786080586080585,2.5505494505494504
6.03126355400309,0.9758974358974358,0.5786080586080585,2.5505494505494504
6.036041648003447,0.9758974358974358,0.5786080586080585,2.5505494505494504
6.043761380999058,0.9758974358974358,0.5786080586080585,2.5505494505494504
6.04978267000115,0.9758974358974358,0.5786080586080585,2.5505494505494504
6.055412439003703,0.9758974358974358,0.5786080586080585,2.5505494505494504
6.055678142001852,0.9758974358974358,0.5786080586080585,2.5505494505494504
6.060632237000391,0.9758974358974358,0.5786080586080585,2.5505494505494504
6.064675708003051,0.9758974358974358,0.5786080586080585,2.5505494505494504
6.067808435000188,0.07575091575091575,0.3892307692307692,0.5616849816849817
6.0694998190010665,0.0,0.1523076923076923,2.1548717948717946
6.074994128000981,0.701098901098901,0.5052747252747253,2.573113553113553
6.075171620002948,0.0,0.3441025641025641,2.424835164835165
6.080881519999821,0.0,0.3441025641025641,2.424835164835165
6.08109505000175,0.0,0.3441025641025641,2.424835164835165
6.086411363001389,0.0,0.3441025641025641,2.424835164835165
6.090669399003673,0.0,0.3441025641025641,2.424835164835165
6.092039672003011,0.0,0.3441025641025641,2.424835164835165
6.097835846005182,0.0,0.3441025641025641,2.424835164835165
6.097929395000392,0.0,0.3441025641025641,2.424835164835165
6.104348020002362,0.0,0.3441025641025641,2.424835164835165
6.108176608999202,0.1539194139194139,0.32476190476190475,2.909157509157509
6.11165896300372,0.0,0.2079120879120879,1.9493772893772894
6.111903365999751,0.0,0.2079120879120879,1.9493772893772894
6.117469714001345,0.0,0.2079120879120879,1.9493772893772894
6.118473724003707,1.3965567765567766,1.5593406593406591,2.0605860805860803
6.11876148400188,1.3965567765567766,1.5593406593406591,2.0605860805860803
6.126897341004224,1.3965567765567766,1.5593406593406591,2.0605860805860803
6.131948325004487,0.630989010989011,0.6334065934065934,0.33604395604395604
6.13595436700416,0.630989010989011,0.6334065934065934,0.33604395604395604
6.142111086002842,0.630989010989011,0.6334065934065934,0.33604395604395604
6.145391105004819,0.630989010989011,0.6334065934065934,0.33604395604395604
6.147058643000491,0.630989010989011,0.6334065934065934,0.33604395604395604
6.151342290002503,0.0,0.1958241758241758,1.6230036630036628
6.153810492003686,0.0,0.1958241758241758,1.6230036630036628
6.160451158000797,1.0677655677655677,0.7188278388278388,3.3
6.164564714003063,0.31509157509157504,0.17809523809523808,3.3
6.167857722000917,0.31509157509157504,0.17809523809523808,3.3
6.168803789005324,0.31509157509157504,0.17809523809523808,3.3
6.169741568002792,0.31509157509157504,0.17809523809523808,3.3
6.171485591999954,0.31509157509157504,0.17809523809523808,3.3
6.1747156950004864,0.31509157509157504,0.17809523809523808,3.3
6.17565438800375,0.31509157509157504,0.17809523809523808,3.3
6.177269507003075,0.31509157509157504,0.17809523809523808,3.3
6.1813008800018,0.8663003663003663,0.44080586080586076,2.5634432234432234
6.18566547500086,0.8663003663003663,0.44080586080586076,2.5634432234432234
6.185935765999602,0.8663003663003663,0.44080586080586076,2.5634432234432234
6.190862959003425,0.8663003663003663,0.44080586080586076,2.5634432234432234
6.196747715999663,0.8663003663003663,0.44080586080586076,2.5634432234432234
6.202576928000781,0.7841025641025641,0.3916483516483516,2.5561904761904763
6.202765152003849,0.5036630036630036,0.24014652014652016,3.3
6.208297650999157,0.5036630036630036,0.24014652014652016,3.3
6.208591376998811,0.11604395604395604,0.3553846153846154,2.8704761904761904
6.214221262001956,0.11604395604395604,0.3553846153846154,2.8704761904761904
6.216181111005426,0.11604395604395604,0.3553846153846154,2.8704761904761904
6.21803488900332,0.11604395604395604,0.3553846153846154,2.8704761904761904
6.219839007004339,0.11604395604395604,0.3553846153846154,2.8704761904761904
6.2237213920016075,0.0,0.11523809523809524,0.9347985347985347
6.228331222999259,0.0,0.11523809523809524,0.9347985347985347
6.228508452004462,0.0,0.11523809523809524,0.9347985347985347
6.234441560001869,0.0,0.11523809523809524,0.9347985347985347
6.241270903003169,0.0,0.11523809523809524,0.9347985347985347
6.245665573005681,0.0,0.15633699633699633,1.3764102564102565
6.247255706002761,0.0,0.15633699633699633,1.3764102564102565
6.251198295001814,0.0,0.15633699633699633,1.3764102564102565
6.2566422860036255,1.1016117216117214,0.6841758241758242,2.5787545787545785
6.2576182870034245,0.5157509157509157,0.27318681318681315,3.3
6.258814861001156,0.5157509157509157,0.27318681318681315,3.3
6.258984509004222,0.5157509157509157,0.27318681318681315,3.3
6.263883755003917,0.5157509157509157,0.27318681318681315,3.3
6.268922656003269,0.1676190476190476,0.16117216117216115,2.7238095238095235
6.274008760003198,0.1676190476190476,0.16117216117216115,2.7238095238095235
6.278182943999127,0.1676190476190476,0.16117216117216115,2.7238095238095235
6.280661911005154,0.958974358974359,0.5608791208791208,2.5545787545787544
6.28649066700018,0.958974358974359,0.5608791208791208,2.5545787545787544
6.286647789005656,0.958974358974359,0.5608791208791208,2.5545787545787544
6.291713213999174,0.958974358974359,0.5608791208791208,2.5545787545787544
6.296638268002425,1.1983150183150182,0.7309157509157509,2.5666666666666664
6.300747280998621,0.9662271062271062,0.5979487179487178,2.548937728937729
6.303263995003363,0.10153846153846154,0.15956043956043955,1.9969230769230766
6.3033679490035865,0.10153846153846154,0.15956043956043955,1.9969230769230766
6.3090476260040305,0.10153846153846154,0.15956043956043955,1.9969230769230766
6.309233567000774,0.10153846153846154,0.15956043956043955,1.9969230769230766
6.314977435999026,0.10153846153846154,0.15956043956043955,1.9969230769230766
6.315105546003906,0.9581684981684981,0.5769963369963369,2.5545787545787544
6.320248670999717,0.9581684981684981,0.5769963369963369,2.5545787545787544
6.325078343004861,0.32798534798534795,0.1797069597069597,3.3
6.331004398001824,0.6213186813186813,0.697069597069597,0.3465201465201465
6.336628868004482,0.0,0.17084249084249084,1.8156043956043957
6.337523533002241,0.0,0.17084249084249084,1.8156043956043957
6.339165723999031,0.0,0.17084249084249084,1.8156043956043957
6.34325027900195,0.0,0.17084249084249084,1.8156043956043957
6.346377384004882,0.0,0.17084249084249084,1.8156043956043957
6.348211770004127,0.0,0.17084249084249084,1.8156043956043957
6.351453754999966,0.0,0.17084249084249084,1.8156043956043957
6.352484121998714,0.0,0.17084249084249084,1.8156043956043957
6.353365887000109,0.0,0.17084249084249084,1.8156043956043957
6.354981074000534,0.0,0.17084249084249084,1.8156043956043957
6.35917089600116,0.0,0.17084249084249084,1.8156043956043957
6.361592125998868,0.0,0.17084249084249084,1.8156043956043957
6.3672610690045985,0.0,0.1523076923076923,1.672161172161172
6.368190825000056,1.5077655677655677,1.481172161172161,1.4505494505494505
6.369182868002099,1.5077655677655677,1.481172161172161,1.4505494505494505
6.370908306002093,1.5077655677655677,1.481172161172161,1.4505494505494505
6.3742159260000335,1.5077655677655677,1.481172161172161,1.4505494505494505
6.375082149999798,1.5077655677655677,1.481172161172161,1.4505494505494505
6.376198931000545,1.5077655677655677,1.481172161172161,1.4505494505494505
6.376482177998696,0.8179487179487179,0.42952380952380953,2.5553846153846154
6.381469546002336,0.8179487179487179,0.42952380952380953,2.5553846153846154
6.386073000001488,0.8179487179487179,0.42952380952380953,2.5553846153846154
6.386239430001297,0.8179487179487179,0.42952380952380953,2.5553846153846154
6.391647272001137,0.8179487179487179,0.42952380952380953,2.5553846153846154
6.393489079004212,1.1709157509157508,0.6326007326007326,2.5763369963369964
6.395933652005624,1.1709157509157508,0.6326007326007326,2.5763369963369964
6.396076069999253,0.954945054945055,0.581025641025641,2.5521611721611723
6.401002063001215,0.954945054945055,0.581025641025641,2.5521611721611723
6.4060415089988965,0.07655677655677656,0.1241025641025641,2.174212454212454
6.410292831998959,0.07655677655677656,0.1241025641025641,2.174212454212454
6.4119595480005955,0.07655677655677656,0.1241025641025641,2.174212454212454
6.4160359660018,0.07655677655677656,0.1241025641025641,2.174212454212454
6.419241644005524,0.07655677655677656,0.1241025641025641,2.174212454212454
6.421629544005555,0.0,0.1265201465201465,0.506080586080586
6.421758528005739,0.0,0.1265201465201465,0.506080586080586
6.427289806000772,0.0,0.1265201465201465,0.506080586080586
6.428291481002816,1.796263736263736,1.5053479853479852,1.315970695970696
6.42932806799945,1.796263736263736,1.5053479853479852,1.315970695970696
6.430263342001126,1.796263736263736,1.5053479853479852,1.315970695970696
6.43188020800153,1.796263736263736,1.5053479853479852,1.315970695970696
6.436035628001264,1.796263736263736,1.5053479853479852,1.315970695970696
6.438420381004107,1.796263736263736,1.5053479853479852,1.315970695970696
6.438603528004023,1.796263736263736,1.5053479853479852,1.315970695970696
6.443580750004912,1.796263736263736,1.5053479853479852,1.315970695970696
6.447686448998866,1.6342857142857143,1.3764102564102565,1.834945054945055
6.45013168600417,1.6342857142857143,1.3764102564102565,1.834945054945055
6.450368124998931,0.5866666666666667,0.4827106227106227,2.5706959706959704
6.455896063998807,0.5866666666666667,0.4827106227106227,2.5706959706959704
6.456181382003706,0.5866666666666667,0.4827106227106227,2.5706959706959704
6.461767926004541,0.5866666666666667,0.4827106227106227,2.5706959706959704
6.462647487998765,0.17164835164835165,0.14263736263736262,2.514285714285714
6.464296875004948,0.17164835164835165,0.14263736263736262,2.514285714285714
6.468142957004602,0.17164835164835165,0.14263736263736262,2.514285714285714
6.472739916003775,0.0,0.1515018315018315,2.1830769230769227
6.472913222001807,0.0,0.1515018315018315,2.1830769230769227
6.478334717001417,0.0,0.1515018315018315,2.1830769230769227
6.480708499999309,0.0,0.1515018315018315,2.1830769230769227
6.480829270003596,0.0,0.1515018315018315,2.1830769230769227
6.486509990005288,0.0,0.1515018315018315,2.1830769230769227
6.486802277999232,1.7680586080586078,1.5158241758241757,1.4747252747252748
6.491877170999942,1.7680586080586078,1.5158241758241757,1.4747252747252748
6.4957847250043415,1.7680586080586078,1.5158241758241757,1.4747252747252748
6.499019490998762,1.7680586080586078,1.5158241758241757,1.4747252747252748
6.499972798003,0.0846153846153846,0.15472527472527473,1.730989010989011
6.5009236600017175,0.2989743589743589,0.21032967032967032,3.3
6.502717915005633,0.0016117216117216117,0.13699633699633698,1.581904761904762
6.506035545004124,0.0016117216117216117,0.13699633699633698,1.581904761904762
6.506910292999237,0.0016117216117216117,0.13699633699633698,1.581904761904762
6.508574038998631,0.0016117216117216117,0.13699633699633698,1.581904761904762
