time,emg1,emg2,emg3
0.032116506998136174,1.4755311355311356,0.4585347985347985,3.3
0.03286564299924066,1.4755311355311356,0.4585347985347985,3.3
0.03681203999440186,2.245128205128205,0.0821978021978022,2.1645421245421246
0.04017758899863111,2.087985347985348,0.1805128205128205,2.00014652014652
0.0504503019983531,0.1402197802197802,0.19179487179487179,0.12249084249084248
0.057431512999755796,3.3,0.5004395604395604,3.2331135531135526
0.06201292499463307,3.3,0.5004395604395604,3.2331135531135526
0.062351966997084673,3.3,0.5004395604395604,3.2331135531135526
0.06779380700027104,2.378095238095238,0.40534798534798533,2.237069597069597
0.06958484200004023,1.4094505494505494,0.4802930402930403,0.5826373626373627
0.07150546000048053,1.4094505494505494,0.4802930402930403,0.5826373626373627
0.07417075299599674,1.4094505494505494,0.4802930402930403,0.5826373626373627
0.07853301499562804,1.4094505494505494,0.4802930402930403,0.5826373626373627
0.07947331099421717,1.4094505494505494,0.4802930402930403,0.5826373626373627
0.08042147800006205,1.4094505494505494,0.4802930402930403,0.5826373626373627
0.08146242499788059,1.4094505494505494,0.4802930402930403,0.5826373626373627
0.08184200699906796,1.4094505494505494,0.4802930402930403,0.5826373626373627
0.08690096299687866,1.4094505494505494,0.4802930402930403,0.5826373626373627
0.09155089699925156,1.4094505494505494,0.4802930402930403,0.5826373626373627
0.10145559100055834,1.7720879120879118,0.18776556776556774,1.9308424908424908
0.10635229199397145,1.7720879120879118,0.18776556776556774,1.9308424908424908
0.1110424599974067,1.8768498168498167,0.3142857142857142,1.2700366300366301
0.11115035799593898,2.2273992673992673,0.28769230769230764,2.485274725274725
0.11577862799458671,2.2273992673992673,0.28769230769230764,2.485274725274725
0.11602944799960824,2.2273992673992673,0.28769230769230764,2.485274725274725
0.12053653699695133,2.2273992673992673,0.28769230769230764,2.485274725274725
0.12138852099451469,2.2273992673992673,0.28769230769230764,2.485274725274725
0.1229573780001374,2.2273992673992673,0.28769230769230764,2.485274725274725
0.1274040879943641,2.2273992673992673,0.28769230769230764,2.485274725274725
0.1284265049980604,1.7414652014652015,0.2917216117216117,1.1306227106227105
0.12872053300088737,1.7414652014652015,0.2917216117216117,1.1306227106227105
0.1341715859962278,1.7414652014652015,0.2917216117216117,1.1306227106227105
0.13573090499994578,1.7414652014652015,0.2917216117216117,1.1306227106227105
0.14009616499970434,1.7414652014652015,0.2917216117216117,1.1306227106227105
0.14103093599987915,1.7414652014652015,0.2917216117216117,1.1306227106227105
0.1426622020007926,1.7414652014652015,0.2917216117216117,1.1306227106227105
0.15079563999461243,1.7414652014652015,0.2917216117216117,1.1306227106227105
0.154035091996775,0.10234432234432234,0.25465201465201465,0.12087912087912088
0.15557513399835443,0.10234432234432234,0.25465201465201465,0.12087912087912088
0.15942199299752247,0.10234432234432234,0.25465201465201465,0.12087912087912088
0.16483750099723693,0.10234432234432234,0.25465201465201465,0.12087912087912088
0.16723378699680325,0.10234432234432234,0.25465201465201465,0.12087912087912088
0.16744287199981045,0.10234432234432234,0.25465201465201465,0.12087912087912088
0.17271706799510866,0.10234432234432234,0.25465201465201465,0.12087912087912088
0.17575482599932002,0.10234432234432234,0.25465201465201465,0.12087912087912088
0.17873206899821525,0.10234432234432234,0.25465201465201465,0.12087912087912088
0.1824782289986615,0.10234432234432234,0.25465201465201465,0.12087912087912088
0.1871146379999118,0.10234432234432234,0.25465201465201465,0.12087912087912088
0.18743572699895594,0.10234432234432234,0.25465201465201465,0.12087912087912088
0.19297085899597732,0.10234432234432234,0.25465201465201465,0.12087912087912088
0.19463583899778314,1.5762637362637362,0.13619047619047617,1.6858608058608056
0.19824060599785298,1.5762637362637362,0.13619047619047617,1.6858608058608056
0.20413251299760304,1.5762637362637362,0.13619047619047617,1.6858608058608056
0.20431563499732874,0.0,0.083003663003663,0.38036630036630037
0.21005650699953549,0.0,0.083003663003663,0.38036630036630037
0.21023823699943023,3.032454212454212,0.2232234432234432,2.9438095238095237
0.2184688319975976,3.032454212454212,0.2232234432234432,2.9438095238095237
0.22548196199932136,2.0895970695970694,0.15633699633699633,2.0315750915750916
0.23303125299571548,0.0838095238095238,0.06769230769230769,0.4819047619047619
0.23805493099644082,0.0838095238095238,0.06769230769230769,0.4819047619047619
0.24493216799601214,0.0838095238095238,0.06769230769230769,0.4819047619047619
0.24938327499694424,0.0838095238095238,0.06769230769230769,0.4819047619047619
0.24950400200032163,1.2885714285714285,0.3158974358974359,1.4271794871794872
0.2544145599968033,1.2885714285714285,0.3158974358974359,1.4271794871794872
0.2598070159947383,1.2885714285714285,0.3158974358974359,1.4271794871794872
0.26176090000080876,1.2885714285714285,0.3158974358974359,1.4271794871794872
0.2648829019963159,1.2885714285714285,0.3158974358974359,1.4271794871794872
0.2657681409982615,1.2885714285714285,0.3158974358974359,1.4271794871794872
0.2673344119975809,1.2885714285714285,0.3158974358974359,1.4271794871794872
0.27172818499821005,1.2885714285714285,0.3158974358974359,1.4271794871794872
0.27398058099788614,1.2885714285714285,0.3158974358974359,1.4271794871794872
0.2741920469998149,1.2885714285714285,0.3158974358974359,1.4271794871794872
0.2823713289981242,1.2885714285714285,0.3158974358974359,1.4271794871794872
0.28736085199489025,1.2885714285714285,0.3158974358974359,1.4271794871794872
0.29135632699762937,1.5166300366300365,0.51010989010989,0.5882783882783883
0.295758226995531,1.5166300366300365,0.51010989010989,0.5882783882783883
0.29616233200067654,1.5166300366300365,0.51010989010989,0.5882783882783883
0.2999965919952956,1.5166300366300365,0.51010989010989,0.5882783882783883
0.30419229199469555,1.5166300366300365,0.51010989010989,0.5882783882783883
0.3072944729938172,1.5166300366300365,0.51010989010989,0.5882783882783883
0.30904986999667017,1.5166300366300365,0.51010989010989,0.5882783882783883
0.3124262209967128,1.5166300366300365,0.51010989010989,0.5882783882783883
0.3128210869981558,1.5166300366300365,0.51010989010989,0.5882783882783883
0.31870499199430924,1.5166300366300365,0.51010989010989,0.5882783882783883
0.323586794998846,1.5166300366300365,0.51010989010989,0.5882783882783883
0.3301367109961575,0.6019780219780219,0.0419047619047619,0.7978021978021977
0.33378045599965844,0.6019780219780219,0.0419047619047619,0.7978021978021977
0.33961137799633434,1.4175091575091574,0.14908424908424908,1.464249084249084
0.33989339899562765,1.4175091575091574,0.14908424908424908,1.464249084249084
0.3467454409983475,1.4175091575091574,0.14908424908424908,1.464249084249084
0.35024149699893314,1.4175091575091574,0.14908424908424908,1.464249084249084
0.3563353669960634,1.4175091575091574,0.14908424908424908,1.464249084249084
0.36394726999424165,2.0396336996336997,0.1676190476190476,1.7648351648351648
0.3683102279974264,2.0396336996336997,0.1676190476190476,1.7648351648351648
0.36920833999465685,0.5504029304029303,0.3473260073260073,0.6608058608058608
0.3709270379986265,0.5504029304029303,0.3473260073260073,0.6608058608058608
0.3751450449999538,0.5504029304029303,0.3473260073260073,0.6608058608058608
0.3775570119978511,0.5504029304029303,0.3473260073260073,0.6608058608058608
0.3865184489986859,0.07897435897435898,0.1523076923076923,0.26996336996336995
0.39204230799805373,0.17648351648351646,0.03545787545787545,0.5512087912087912
0.39593090699781897,0.43999999999999995,0.33282051282051284,0.5084981684981685
0.39906697999686,0.43999999999999995,0.33282051282051284,0.5084981684981685
0.40002535699750297,0.43999999999999995,0.33282051282051284,0.5084981684981685
0.40099362199543975,0.43999999999999995,0.33282051282051284,0.5084981684981685
0.4019661299971631,0.43999999999999995,0.33282051282051284,0.5084981684981685
0.40370354499464156,0.43999999999999995,0.33282051282051284,0.5084981684981685
0.40723732100013876,0.43999999999999995,0.33282051282051284,0.5084981684981685
0.4073973129998194,1.9252014652014653,0.26673992673992675,1.5408058608058608
0.4141826669947477,1.9252014652014653,0.26673992673992675,1.5408058608058608
0.42029992299649166,1.9252014652014653,0.26673992673992675,1.5408058608058608
0.42668283799866913,1.9252014652014653,0.26673992673992675,1.5408058608058608
0.4324285599941504,3.232307692307692,0.2328937728937729,3.2452014652014647
0.4375541669942322,2.1476190476190475,0.3183150183150183,2.5424908424908423
0.4415823969975463,2.1476190476190475,0.3183150183150183,2.5424908424908423
0.4443955719980295,2.1476190476190475,0.3183150183150183,2.5424908424908423
0.4489904019937967,3.3,0.3972893772893773,3.3
0.44914536499709357,1.7092307692307693,0.4964102564102564,0.9025641025641026
0.4542340959960711,1.7092307692307693,0.4964102564102564,0.9025641025641026
0.4602746819946333,1.7092307692307693,0.4964102564102564,0.9025641025641026
0.4657123059951118,0.0,0.14505494505494507,0.27802197802197803
0.4659593069955008,0.0,0.14505494505494507,0.27802197802197803
0.47169121699698735,0.0,0.14505494505494507,0.27802197802197803
0.4787691499950597,0.0,0.14505494505494507,0.27802197802197803
0.48439636200055247,0.0,0.14505494505494507,0.27802197802197803
0.48999856199952774,0.21435897435897436,0.01531135531135531,0.5947252747252747
0.49025548699864885,0.21435897435897436,0.01531135531135531,0.5947252747252747
0.496800599998096,0.21435897435897436,0.01531135531135531,0.5947252747252747
0.5003632179941633,0.21435897435897436,0.01531135531135531,0.5947252747252747
0.5005413350008894,0.21435897435897436,0.01531135531135531,0.5947252747252747
0.5063615139952162,0.21435897435897436,0.01531135531135531,0.5947252747252747
0.5149528969996027,1.8494505494505493,0.30622710622710625,1.4553846153846153
0.5191632179994485,1.8494505494505493,0.30622710622710625,1.4553846153846153
0.520920891998685,1.8494505494505493,0.30622710622710625,1.4553846153846153
0.5259405990000232,1.8494505494505493,0.30622710622710625,1.4553846153846153
0.5294047799980035,1.8494505494505493,0.30622710622710625,1.4553846153846153
0.5411963000005926,0.6197069597069597,0.3287912087912088,0.805054945054945
0.5499774079944473,0.6197069597069597,0.3287912087912088,0.805054945054945
0.5552406019996852,0.6197069597069597,0.3287912087912088,0.805054945054945
0.5593070689938031,2.419194139194139,0.18615384615384614,2.851941391941392
0.5630378360001487,2.419194139194139,0.18615384615384614,2.851941391941392
0.5676654419949045,3.2903296703296703,0.3997069597069597,3.3
0.5733511929938686,1.7736996336996336,0.2232234432234432,1.814798534798535
0.5736109509962262,2.1395604395604395,0.2643223443223443,2.735897435897436
0.5809035709971795,2.1395604395604395,0.2643223443223443,2.735897435897436
0.5841468629951123,2.1395604395604395,0.2643223443223443,2.735897435897436
0.5858236469939584,2.1395604395604395,0.2643223443223443,2.735897435897436
0.5891079159991932,3.1057875457875457,0.18454212454212454,3.3
0.5900386029970832,1.0443956043956042,0.29655677655677654,1.3457875457875457
0.590993473000708,1.0443956043956042,0.29655677655677654,1.3457875457875457
0.5919867519987747,1.0443956043956042,0.29655677655677654,1.3457875457875457
0.5935289939952781,1.0443956043956042,0.29655677655677654,1.3457875457875457
0.5997738539954298,1.0443956043956042,0.29655677655677654,1.3457875457875457
0.6049650549975922,1.0443956043956042,0.29655677655677654,1.3457875457875457
0.6072946549975313,1.0443956043956042,0.29655677655677654,1.3457875457875457
0.6075470459982171,2.1717948717948716,0.10798534798534798,2.436923076923077
0.615213943994604,2.1717948717948716,0.10798534798534798,2.436923076923077
0.6193343849954545,1.842197802197802,0.16117216117216115,2.445787545787546
0.6218505059950985,1.842197802197802,0.16117216117216115,2.445787545787546
0.6282649149943609,1.842197802197802,0.16117216117216115,2.445787545787546
0.6343572499972652,1.842197802197802,0.16117216117216115,2.445787545787546
0.6375691599969286,1.842197802197802,0.16117216117216115,2.445787545787546
0.6405932739944546,1.842197802197802,0.16117216117216115,2.445787545787546
0.6415658170008101,1.842197802197802,0.16117216117216115,2.445787545787546
0.64272029499989,1.842197802197802,0.16117216117216115,2.445787545787546
0.6430591379976249,1.842197802197802,0.16117216117216115,2.445787545787546
0.6497107629984384,1.842197802197802,0.16117216117216115,2.445787545787546
0.653936270995473,1.6157509157509156,0.2715750915750916,2.17018315018315
0.6556266240004334,2.0976556776556774,0.17567765567765567,2.2967032967032965
0.6588035329987179,2.0976556776556774,0.17567765567765567,2.2967032967032965
0.6612095479940763,2.0976556776556774,0.17567765567765567,2.2967032967032965
0.6683133990009082,2.0976556776556774,0.17567765567765567,2.2967032967032965
0.6729813799975091,2.0976556776556774,0.17567765567765567,2.2967032967032965
0.6731377439937205,2.0976556776556774,0.17567765567765567,2.2967032967032965
0.6817105219961377,2.0976556776556774,0.17567765567765567,2.2967032967032965
0.6868415009957971,2.0976556776556774,0.17567765567765567,2.2967032967032965
0.6900356559999636,2.0976556776556774,0.17567765567765567,2.2967032967032965
0.6916600479962653,2.0976556776556774,0.17567765567765567,2.2967032967032965
0.6973051929962821,2.0976556776556774,0.17567765567765567,2.2967032967032965
0.6975033470007475,2.0976556776556774,0.17567765567765567,2.2967032967032965
0.7024786789988866,2.0976556776556774,0.17567765567765567,2.2967032967032965
0.7065511439941474,0.2111355311355311,0.025787545787545788,0.5479853479853479
0.7128913720007404,3.1823443223443224,0.195018315018315,3.3
0.717010776999814,1.822051282051282,0.1789010989010989,2.3853479853479853
0.719479589999537,1.822051282051282,0.1789010989010989,2.3853479853479853
0.7250081679958384,1.822051282051282,0.1789010989010989,2.3853479853479853
0.7275577389955288,1.822051282051282,0.1789010989010989,2.3853479853479853
0.7335824769979808,1.822051282051282,0.1789010989010989,2.3853479853479853
0.7382078519949573,1.822051282051282,0.1789010989010989,2.3853479853479853
0.7384910769978887,1.822051282051282,0.1789010989010989,2.3853479853479853
0.7439329989938415,1.822051282051282,0.1789010989010989,2.3853479853479853
0.7472257449990138,0.2079120879120879,0.037875457875457874,0.618095238095238
0.7474722449987894,0.2079120879120879,0.037875457875457874,0.618095238095238
0.7524036159957177,1.9574358974358974,0.5737728937728938,1.083076923076923
0.7569909759986331,1.9574358974358974,0.5737728937728938,1.083076923076923
0.7571908089958015,1.9574358974358974,0.5737728937728938,1.083076923076923
0.7638855429977411,1.9574358974358974,0.5737728937728938,1.083076923076923
0.7691439059999539,1.9574358974358974,0.5737728937728938,1.083076923076923
0.7700182729968219,1.4835897435897436,0.5012454212454212,0.5858608058608058
0.7718874259953736,1.4835897435897436,0.5012454212454212,0.5858608058608058
0.7742984759970568,1.4835897435897436,0.5012454212454212,0.5858608058608058
0.774457588995574,1.4835897435897436,0.5012454212454212,0.5858608058608058
0.7819765969979926,1.4835897435897436,0.5012454212454212,0.5858608058608058
0.7861183419954614,1.4835897435897436,0.5012454212454212,0.5858608058608058
0.7885205700004008,1.4835897435897436,0.5012454212454212,0.5858608058608058
0.7886477349966299,1.8849084249084247,0.5439560439560439,1.1024175824175824
0.7945768759964267,1.8849084249084247,0.5439560439560439,1.1024175824175824
0.8061264429998118,1.6745787545787545,0.25142857142857145,2.024322344322344
0.8163666049949825,1.6745787545787545,0.25142857142857145,2.024322344322344
0.826131854999403,1.6745787545787545,0.25142857142857145,2.024322344322344
0.8345679159974679,1.6745787545787545,0.25142857142857145,2.024322344322344
0.840208438996342,2.332967032967033,0.15875457875457877,2.449010989010989
0.8492081090007559,2.332967032967033,0.15875457875457877,2.449010989010989
0.85694046599383,1.39010989010989,0.2909157509157509,1.5246886446886447
0.8655627839980298,2.457069597069597,0.19179487179487179,2.432893772893773
0.8698333270003786,2.457069597069597,0.19179487179487179,2.432893772893773
0.8722540859962464,2.457069597069597,0.19179487179487179,2.432893772893773
0.879008032999991,2.457069597069597,0.19179487179487179,2.432893772893773
0.8853344629969797,2.457069597069597,0.19179487179487179,2.432893772893773
0.8896706929954235,0.08783882783882783,0.08058608058608058,0.5334798534798535
0.8916885099970386,0.08783882783882783,0.08058608058608058,0.5334798534798535
0.8932495419940096,0.08783882783882783,0.08058608058608058,0.5334798534798535
0.9006775419984479,0.08783882783882783,0.08058608058608058,0.5334798534798535
0.9055252979960642,0.08783882783882783,0.08058608058608058,0.5334798534798535
0.9117643459976534,0.08783882783882783,0.08058608058608058,0.5334798534798535
0.916621304997534,0.08783882783882783,0.08058608058608058,0.5334798534798535
0.9209073029996944,1.5754578754578754,0.06527472527472526,1.4505494505494505
0.9225360619966523,0.1515018315018315,0.14666666666666667,0.12893772893772892
0.9265508559983573,0.1515018315018315,0.14666666666666667,0.12893772893772892
0.9332830989951617,0.1515018315018315,0.14666666666666667,0.12893772893772892
0.9383164779937943,1.0806593406593406,0.3763369963369963,0.3416849816849817
0.9455003379989648,1.0806593406593406,0.3763369963369963,0.3416849816849817
0.9508887639967725,1.0806593406593406,0.3763369963369963,0.3416849816849817
0.9512555729961605,1.8945787545787542,0.5778021978021978,0.9936263736263735
0.9600498099971446,1.8945787545787542,0.5778021978021978,0.9936263736263735
0.9693444529984845,1.8945787545787542,0.5778021978021978,0.9936263736263735
0.9745916429965291,1.8945787545787542,0.5778021978021978,0.9936263736263735
0.9805331249954179,2.324908424908425,0.14505494505494507,2.1186080586080585
0.9863103069947101,2.324908424908425,0.14505494505494507,2.1186080586080585
0.9924953269946855,2.324908424908425,0.14505494505494507,2.1186080586080585
1.0000865689944476,2.324908424908425,0.14505494505494507,2.1186080586080585
1.006179408999742,0.8985347985347985,0.5318681318681319,0.36344322344322344
1.0126683459966443,0.8985347985347985,0.5318681318681319,0.36344322344322344
1.0167149729968514,0.8985347985347985,0.5318681318681319,0.36344322344322344
1.019212447994505,0.8985347985347985,0.5318681318681319,0.36344322344322344
1.0245973529963521,0.16842490842490843,0.13941391941391942,0.112014652014652
1.0263116589994752,0.16842490842490843,0.13941391941391942,0.112014652014652
1.0316951969944057,0.16842490842490843,0.13941391941391942,0.112014652014652
1.0318903399966075,0.16842490842490843,0.13941391941391942,0.112014652014652
1.0376129529977334,0.16842490842490843,0.13941391941391942,0.112014652014652
1.037828193999303,0.16842490842490843,0.13941391941391942,0.112014652014652
1.0436403790008626,0.12732600732600732,0.16842490842490843,0.14102564102564102
1.0438555009968695,0.12732600732600732,0.16842490842490843,0.14102564102564102
1.050419224993675,0.12732600732600732,0.16842490842490843,0.14102564102564102
1.0544607779957005,0.12732600732600732,0.16842490842490843,0.14102564102564102
1.057569140997657,0.12732600732600732,0.16842490842490843,0.14102564102564102
1.0596656809939304,0.12732600732600732,0.16842490842490843,0.14102564102564102
1.0618669249961386,0.12732600732600732,0.16842490842490843,0.14102564102564102
1.062107459998515,0.028205128205128206,0.05318681318681319,0.4254945054945055
1.0675895889944513,0.2957509157509157,0.01934065934065934,0.622124542124542
1.068492790000164,0.2957509157509157,0.01934065934065934,0.622124542124542
1.070083970000269,0.2957509157509157,0.01934065934065934,0.622124542124542
1.0746209930002806,0.2957509157509157,0.01934065934065934,0.622124542124542
1.0748278369937907,0.2957509157509157,0.01934065934065934,0.622124542124542
1.0803603969980031,0.2957509157509157,0.01934065934065934,0.622124542124542
1.0812365029996727,0.2957509157509157,0.01934065934065934,0.622124542124542
1.0828224020006019,0.2957509157509157,0.01934065934065934,0.622124542124542
1.0872701889966265,0.2957509157509157,0.01934065934065934,0.622124542124542
1.088816470997699,0.2957509157509157,0.01934065934065934,0.622124542124542
1.0933703419941594,0.2957509157509157,0.01934065934065934,0.622124542124542
1.0942212699956144,0.2957509157509157,0.01934065934065934,0.622124542124542
1.0957842849966255,2.423223443223443,0.1772893772893773,2.3603663003663002
1.1007087539983331,2.423223443223443,0.1772893772893773,2.3603663003663002
1.1051346029998967,0.0,0.13457875457875457,0.3626373626373626
1.10658197599696,0.0,0.13457875457875457,0.3626373626373626
1.1120195999974385,0.0,0.13457875457875457,0.3626373626373626
1.1137469019959099,1.7487179487179487,0.2191941391941392,1.8897435897435895
1.1176066080006422,1.7487179487179487,0.2191941391941392,1.8897435897435895
1.122328943994944,1.0145787545787546,0.13135531135531134,1.1483516483516483
1.1226092279976,1.0145787545787546,0.13135531135531134,1.1483516483516483
1.1273633780001546,1.0145787545787546,0.13135531135531134,1.1483516483516483
1.1275113379961113,1.0145787545787546,0.13135531135531134,1.1483516483516483
1.1321105210008682,1.0145787545787546,0.13135531135531134,1.1483516483516483
1.132987011995283,1.0145787545787546,0.13135531135531134,1.1483516483516483
1.1347399160003988,1.0145787545787546,0.13135531135531134,1.1483516483516483
1.13709466799628,1.0145787545787546,0.13135531135531134,1.1483516483516483
1.1372892989966203,1.0145787545787546,0.13135531135531134,1.1483516483516483
1.1425406299968017,1.0145787545787546,0.13135531135531134,1.1483516483516483
1.1448437349972664,1.0145787545787546,0.13135531135531134,1.1483516483516483
1.1451835589978145,1.0145787545787546,0.13135531135531134,1.1483516483516483
1.1506358069964335,1.0145787545787546,0.13135531135531134,1.1483516483516483
1.1534086239989847,1.0145787545787546,0.13135531135531134,1.1483516483516483
1.1560875049981405,1.9654945054945054,0.22564102564102564,2.1919413919413917
1.1604948249951121,1.9654945054945054,0.22564102564102564,2.1919413919413917
1.161425132995646,1.9654945054945054,0.22564102564102564,2.1919413919413917
1.1630542499988223,1.9654945054945054,0.22564102564102564,2.1919413919413917
1.1677157569938572,1.9654945054945054,0.22564102564102564,2.1919413919413917
1.1751447299975553,2.2136996336996333,0.06043956043956044,2.2967032967032965
1.1833905479943496,2.2136996336996333,0.06043956043956044,2.2967032967032965
1.1885254669978167,2.2136996336996333,0.06043956043956044,2.2967032967032965
1.1909287529997528,3.3,0.4279120879120879,3.3
1.1912041869945824,3.3,0.4279120879120879,3.3
1.1983949179993942,1.7946520146520144,0.2328937728937729,2.063003663003663
1.2029145599954063,1.7946520146520144,0.2328937728937729,2.063003663003663
1.2037367629964137,0.36344322344322344,0.020146520146520144,0.6543589743589743
1.2054065189950052,2.8213186813186812,0.3972893772893773,2.8382417582417583
1.210142834999715,2.8213186813186812,0.3972893772893773,2.8382417582417583
1.210287359994254,2.8213186813186812,0.3972893772893773,2.8382417582417583
1.2146641129947966,2.8213186813186812,0.3972893772893773,2.8382417582417583
1.216224356998282,2.8213186813186812,0.3972893772893773,2.8382417582417583
1.2204787119990215,2.8213186813186812,0.3972893772893773,2.8382417582417583
1.2225965469988296,2.8213186813186812,0.3972893772893773,2.8382417582417583
1.2240444849958294,2.8213186813186812,0.3972893772893773,2.8382417582417583
1.228291409999656,2.8213186813186812,0.3972893772893773,2.8382417582417583
1.230452329997206,2.8213186813186812,0.3972893772893773,2.8382417582417583
1.2320373039983679,2.8213186813186812,0.3972893772893773,2.8382417582417583
1.236708815995371,2.8213186813186812,0.3972893772893773,2.8382417582417583
1.2441273169970373,2.444175824175824,0.19904761904761903,2.614212454212454
1.2489459229982458,0.14666666666666667,0.04593406593406593,0.4996336996336996
1.256463685997005,0.14666666666666667,0.04593406593406593,0.4996336996336996
1.2640212810001685,0.14666666666666667,0.04593406593406593,0.4996336996336996
1.2686036890008836,3.3,0.40937728937728934,3.3
1.2688356889993884,3.3,0.40937728937728934,3.3
1.2752160019954317,3.3,0.40937728937728934,3.3
1.2799946309969528,1.3401465201465201,0.09428571428571428,1.6036630036630035
1.2859921459967154,1.3401465201465201,0.09428571428571428,1.6036630036630035
1.2899547069973778,1.3401465201465201,0.09428571428571428,1.6036630036630035
1.2941987239973969,1.3401465201465201,0.09428571428571428,1.6036630036630035
1.2953755349954008,1.3401465201465201,0.09428571428571428,1.6036630036630035
1.2956164290008019,1.3401465201465201,0.09428571428571428,1.6036630036630035
1.3036448399943765,1.3401465201465201,0.09428571428571428,1.6036630036630035
1.3112025459995493,1.3401465201465201,0.09428571428571428,1.6036630036630035
1.318739087000722,1.3401465201465201,0.09428571428571428,1.6036630036630035
1.3255738299994846,1.3401465201465201,0.09428571428571428,1.6036630036630035
1.3297503399953712,1.3401465201465201,0.09428571428571428,1.6036630036630035
1.3333152150007663,1.3401465201465201,0.09428571428571428,1.6036630036630035
1.339126913000655,1.788205128205128,0.2175824175824176,2.2241758241758243
1.3467664509953465,1.788205128205128,0.2175824175824176,2.2241758241758243
1.353198318000068,0.14827838827838827,0.03948717948717949,0.5673260073260072
1.358500203998119,1.4553846153846153,0.2635164835164835,1.834139194139194
1.3605624579940923,1.6028571428571428,0.10073260073260072,1.818827838827839
1.360940139995364,1.6028571428571428,0.10073260073260072,1.818827838827839
1.3687599639961263,1.6028571428571428,0.10073260073260072,1.818827838827839
1.3743569559956086,1.6028571428571428,0.10073260073260072,1.818827838827839
1.3745467129992903,1.6028571428571428,0.10073260073260072,1.818827838827839
1.3805655489995843,1.6028571428571428,0.10073260073260072,1.818827838827839
1.385658651997801,1.6028571428571428,0.10073260073260072,1.818827838827839
1.388501704997907,0.018534798534798533,0.06285714285714286,0.40776556776556777
1.393635442997038,0.018534798534798533,0.06285714285714286,0.40776556776556777
1.3950602959957905,0.018534798534798533,0.06285714285714286,0.40776556776556777
1.4049051990004955,0.018534798534798533,0.06285714285714286,0.40776556776556777
1.412599062998197,0.018534798534798533,0.06285714285714286,0.40776556776556777
1.4190988139962428,1.9284249084249083,0.23853479853479853,1.7108424908424908
1.4228745059954235,1.9284249084249083,0.23853479853479853,1.7108424908424908
1.430501862996607,1.9284249084249083,0.23853479853479853,1.7108424908424908
1.4354399049989297,1.9284249084249083,0.23853479853479853,1.7108424908424908
1.4389664650007035,1.9284249084249083,0.23853479853479853,1.7108424908424908
1.4392839619977167,1.9284249084249083,0.23853479853479853,1.7108424908424908
1.4440870999969775,1.9284249084249083,0.23853479853479853,1.7108424908424908
1.444207827997161,0.04271062271062271,0.1087912087912088,0.4496703296703296
1.4490360639974824,0.04271062271062271,0.1087912087912088,0.4496703296703296
1.4492203209956642,0.04271062271062271,0.1087912087912088,0.4496703296703296
1.4540448400002788,0.04271062271062271,0.1087912087912088,0.4496703296703296
1.4541675119980937,0.04271062271062271,0.1087912087912088,0.4496703296703296
1.4588955559956958,0.04271062271062271,0.1087912087912088,0.4496703296703296
1.4591120449986192,0.04271062271062271,0.1087912087912088,0.4496703296703296
1.4639735519958776,0.04271062271062271,0.1087912087912088,0.4496703296703296
1.4640589329937939,0.04271062271062271,0.1087912087912088,0.4496703296703296
1.4688429960006033,0.04271062271062271,0.1087912087912088,0.4496703296703296
1.46892867799761,0.04271062271062271,0.1087912087912088,0.4496703296703296
1.4736676280008396,0.04271062271062271,0.1087912087912088,0.4496703296703296
1.473812343996542,0.04271062271062271,0.1087912087912088,0.4496703296703296
1.478591785999015,0.04271062271062271,0.1087912087912088,0.4496703296703296
1.4788277379993815,0.8356776556776556,0.4778754578754579,0.3586080586080586
1.4838281079937587,0.8356776556776556,0.4778754578754579,0.3586080586080586
1.4930483639982413,0.8356776556776556,0.4778754578754579,0.3586080586080586
1.501033288994222,0.8356776556776556,0.4778754578754579,0.3586080586080586
1.5080294809959014,0.8356776556776556,0.4778754578754579,0.3586080586080586
1.5121325139989494,0.8356776556776556,0.4778754578754579,0.3586080586080586
1.5161255869970773,0.8356776556776556,0.4778754578754579,0.3586080586080586
1.5193306329965708,0.8356776556776556,0.4778754578754579,0.3586080586080586
1.521592643999611,0.8356776556776556,0.4778754578754579,0.3586080586080586
1.5307417149961111,0.8356776556776556,0.4778754578754579,0.3586080586080586
1.5369820699997945,0.8356776556776556,0.4778754578754579,0.3586080586080586
1.541551217000233,2.481245421245421,0.190989010989011,2.659340659340659
1.5500209370002267,2.481245421245421,0.190989010989011,2.659340659340659
1.5557696589967236,2.481245421245421,0.190989010989011,2.659340659340659
1.564365040998382,2.481245421245421,0.190989010989011,2.659340659340659
1.572639876998437,2.481245421245421,0.190989010989011,2.659340659340659
1.5787837659954675,2.481245421245421,0.190989010989011,2.659340659340659
1.5836121659958735,2.481245421245421,0.190989010989011,2.659340659340659
1.5911676889954833,2.8616117216117214,0.41340659340659336,2.803589743589743
1.5975906439998653,2.8616117216117214,0.41340659340659336,2.803589743589743
1.6028060199969332,2.8616117216117214,0.41340659340659336,2.803589743589743
1.6053457019952475,2.8616117216117214,0.41340659340659336,2.803589743589743
1.6147686149997753,2.8616117216117214,0.41340659340659336,2.803589743589743
1.6217223899948294,2.8616117216117214,0.41340659340659336,2.803589743589743
1.625662876998831,2.8616117216117214,0.41340659340659336,2.803589743589743
1.630476282996824,2.8616117216117214,0.41340659340659336,2.803589743589743
1.636800319996837,2.8616117216117214,0.41340659340659336,2.803589743589743
1.641013666994695,1.7954578754578752,0.1829304029304029,1.9066666666666663
1.643487199995434,1.7954578754578752,0.1829304029304029,1.9066666666666663
1.6505179619998671,1.7954578754578752,0.1829304029304029,1.9066666666666663
1.6562994189953315,1.5722344322344322,0.33926739926739924,1.6866666666666665
1.6637234459994943,2.2362637362637363,0.18695970695970696,2.0944322344322344
1.6685084339987952,0.0,0.12168498168498168,0.29816849816849816
1.676514769998903,0.0,0.12168498168498168,0.29816849816849816
1.683969553996576,1.2498901098901098,0.3424908424908425,1.2643956043956044
1.6911264549999032,0.0,0.09347985347985348,0.46014652014652013
1.698532274000172,0.0,0.09347985347985348,0.46014652014652013
1.705392297997605,1.6431501831501831,0.07575091575091575,1.5851282051282052
1.7111929679958848,1.6431501831501831,0.07575091575091575,1.5851282051282052
1.7199179659946822,2.4312820512820514,0.07655677655677656,2.5134798534798533
1.7272649869992165,2.0621978021978022,0.15069597069597068,2.0775091575091573
1.7326455329966848,2.0621978021978022,0.15069597069597068,2.0775091575091573
1.7330034929982503,2.0621978021978022,0.15069597069597068,2.0775091575091573
1.739308329000778,2.0621978021978022,0.15069597069597068,2.0775091575091573
1.7431450359945302,2.0621978021978022,0.15069597069597068,2.0775091575091573
1.7477689549996285,2.0621978021978022,0.15069597069597068,2.0775091575091573
1.7480530289976741,2.0621978021978022,0.15069597069597068,2.0775091575091573
1.752520657995774,2.0621978021978022,0.15069597069597068,2.0775091575091573
1.7533776450000005,0.5479853479853479,0.356996336996337,0.6479120879120879
1.7557769179984462,0.5479853479853479,0.356996336996337,0.6479120879120879
1.7559597559957183,0.5479853479853479,0.356996336996337,0.6479120879120879
1.7612525739968987,0.5479853479853479,0.356996336996337,0.6479120879120879
1.7645007259998238,0.10798534798534798,0.16842490842490843,0.1942124542124542
1.765369931999885,0.10798534798534798,0.16842490842490843,0.1942124542124542
1.7671769070002483,0.10798534798534798,0.16842490842490843,0.1942124542124542
1.7694980029991711,2.71010989010989,0.12007326007326008,2.8753113553113554
1.7697195939981611,2.71010989010989,0.12007326007326008,2.8753113553113554
1.7753308409955935,2.71010989010989,0.12007326007326008,2.8753113553113554
1.776948356993671,2.265274725274725,0.15472527472527473,2.5626373626373624
1.782611791997624,2.265274725274725,0.15472527472527473,2.5626373626373624
1.7881716139963828,0.23208791208791207,0.014505494505494505,0.5463736263736263
1.7891417009959696,2.341025641025641,0.3457142857142857,2.4385347985347985
1.7899512660005712,2.341025641025641,0.3457142857142857,2.4385347985347985
1.7915011980003328,2.341025641025641,0.3457142857142857,2.4385347985347985
1.7952920690004248,2.341025641025641,0.3457142857142857,2.4385347985347985
1.8006648079972365,2.341025641025641,0.3457142857142857,2.4385347985347985
1.8031514409958618,0.06205128205128205,0.14586080586080585,0.20146520146520144
1.8032661019969964,0.06205128205128205,0.14586080586080585,0.20146520146520144
1.8086695249949116,0.06205128205128205,0.14586080586080585,0.20146520146520144
1.8129294440004742,3.0614652014652015,0.1652014652014652,3.2186080586080585
1.813191322995408,1.71003663003663,0.22886446886446887,2.133919413919414
1.8216115499963053,1.71003663003663,0.22886446886446887,2.133919413919414
1.8304395949962782,1.71003663003663,0.22886446886446887,2.133919413919414
1.8363407199940411,1.71003663003663,0.22886446886446887,2.133919413919414
1.8404875179985538,1.7954578754578752,0.14666666666666667,2.1951648351648347
1.8432968569977675,1.7954578754578752,0.14666666666666667,2.1951648351648347
1.8474322099937126,1.7954578754578752,0.14666666666666667,2.1951648351648347
1.8503638490001322,1.7954578754578752,0.14666666666666667,2.1951648351648347
1.8534006150002824,1.0403663003663002,0.38278388278388276,0.3747252747252747
1.8563698859943543,1.0403663003663002,0.38278388278388276,0.3747252747252747
1.8588601149967872,1.0403663003663002,0.38278388278388276,0.3747252747252747
1.8591049769966048,1.0403663003663002,0.38278388278388276,0.3747252747252747
1.8642584089975571,1.0403663003663002,0.38278388278388276,0.3747252747252747
1.8681862569937948,1.0403663003663002,0.38278388278388276,0.3747252747252747
1.8719642299984116,1.0403663003663002,0.38278388278388276,0.3747252747252747
1.8765099359952728,1.0403663003663002,0.38278388278388276,0.3747252747252747
1.8768840179982362,1.0403663003663002,0.38278388278388276,0.3747252747252747
1.8824958669938496,1.0403663003663002,0.38278388278388276,0.3747252747252747
1.8836068759992486,1.0403663003663002,0.38278388278388276,0.3747252747252747
1.8839603969972814,1.0403663003663002,0.38278388278388276,0.3747252747252747
1.8911208089994034,3.3,0.4931868131868131,3.3
1.8974809779974748,3.3,0.4931868131868131,3.3
1.9018798920005793,3.3,0.4931868131868131,3.3
1.9033339109955705,0.0,0.11926739926739927,0.3924542124542124
1.9100844299973687,0.0,0.11926739926739927,0.3924542124542124
1.9150026019997313,0.0,0.11926739926739927,0.3924542124542124
1.9212307769994368,0.0,0.11926739926739927,0.3924542124542124
1.926587201996881,0.083003663003663,0.19743589743589743,0.12571428571428572
1.9269405259983614,0.083003663003663,0.19743589743589743,0.12571428571428572
1.9349865539988969,0.083003663003663,0.19743589743589743,0.12571428571428572
1.9388767700002063,0.083003663003663,0.19743589743589743,0.12571428571428572
1.9433778589955182,0.083003663003663,0.19743589743589743,0.12571428571428572
1.9442961669992656,0.083003663003663,0.19743589743589743,0.12571428571428572
1.9458934599970235,0.083003663003663,0.19743589743589743,0.12571428571428572
1.9502841549983714,0.083003663003663,0.19743589743589743,0.12571428571428572
1.9520070989965461,0.083003663003663,0.19743589743589743,0.12571428571428572
1.9556861979945097,0.083003663003663,0.19743589743589743,0.12571428571428572
1.9558241880004061,0.083003663003663,0.19743589743589743,0.12571428571428572
1.9609750089948648,0.083003663003663,0.19743589743589743,0.12571428571428572
1.9647870769986184,0.083003663003663,0.19743589743589743,0.12571428571428572
1.970016745995963,0.083003663003663,0.19743589743589743,0.12571428571428572
1.9736542779937736,0.083003663003663,0.19743589743589743,0.12571428571428572
1.97382407799887,0.083003663003663,0.19743589743589743,0.12571428571428572
1.9789303750003455,0.083003663003663,0.19743589743589743,0.12571428571428572
1.9832726280001225,0.083003663003663,0.19743589743589743,0.12571428571428572
1.9848599979959545,0.083003663003663,0.19743589743589743,0.12571428571428572
1.9892687579995254,0.083003663003663,0.19743589743589743,0.12571428571428572
1.9908546000006027,0.083003663003663,0.19743589743589743,0.12571428571428572
1.9953042179986369,0.083003663003663,0.19743589743589743,0.12571428571428572
1.9968581309949514,0.083003663003663,0.19743589743589743,0.12571428571428572
2.001442196997232,0.083003663003663,0.19743589743589743,0.12571428571428572
2.002256044994283,0.083003663003663,0.19743589743589743,0.12571428571428572
2.00386200799403,0.083003663003663,0.19743589743589743,0.12571428571428572
2.008303350994538,0.083003663003663,0.19743589743589743,0.12571428571428572
2.009859031997621,0.083003663003663,0.19743589743589743,0.12571428571428572
2.014421579995542,0.083003663003663,0.19743589743589743,0.12571428571428572
2.0152579700006754,0.083003663003663,0.19743589743589743,0.12571428571428572
2.0168611310000415,0.083003663003663,0.19743589743589743,0.12571428571428572
2.0215275269947597,0.083003663003663,0.19743589743589743,0.12571428571428572
2.0218244829957257,0.083003663003663,0.19743589743589743,0.12571428571428572
2.026992335995601,0.083003663003663,0.19743589743589743,0.12571428571428572
2.0308904929988785,0.083003663003663,0.19743589743589743,0.12571428571428572
2.035665828996571,0.083003663003663,0.19743589743589743,0.12571428571428572
2.0358182599957217,0.083003663003663,0.19743589743589743,0.12571428571428572
2.0406100149994018,0.083003663003663,0.19743589743589743,0.12571428571428572
2.0407516229970497,0.083003663003663,0.19743589743589743,0.12571428571428572
2.0456434079969767,0.083003663003663,0.19743589743589743,0.12571428571428572
2.0505423699942185,0.083003663003663,0.19743589743589743,0.12571428571428572
2.056091540995112,0.083003663003663,0.19743589743589743,0.12571428571428572
2.0584504989965353,2.4675457875457876,0.26754578754578756,2.141978021978022
2.0639346089956234,2.4675457875457876,0.26754578754578756,2.141978021978022
2.0662115149971214,0.0,0.08945054945054945,0.3618315018315018
2.066415142995538,0.0,0.08945054945054945,0.3618315018315018
2.0717729879979743,0.0,0.08945054945054945,0.3618315018315018
2.0740275849966565,1.315970695970696,0.3432967032967033,1.2192673992673992
2.074371678994794,1.315970695970696,0.3432967032967033,1.2192673992673992
2.0789024339974276,1.315970695970696,0.3432967032967033,1.2192673992673992
2.079216357997211,1.315970695970696,0.3432967032967033,1.2192673992673992
2.0845131059977575,1.315970695970696,0.3432967032967033,1.2192673992673992
2.087705415993696,0.10073260073260072,0.03706959706959707,0.42468864468864465
2.0894117829957395,0.10073260073260072,0.03706959706959707,0.42468864468864465
2.0930279919994064,0.10073260073260072,0.03706959706959707,0.42468864468864465
2.0931686999974772,0.10073260073260072,0.03706959706959707,0.42468864468864465
2.0986685509997187,0.10073260073260072,0.03706959706959707,0.42468864468864465
2.0997190389971365,0.10073260073260072,0.03706959706959707,0.42468864468864465
2.1006759309966583,0.10073260073260072,0.03706959706959707,0.42468864468864465
2.101625277995481,0.10073260073260072,0.03706959706959707,0.42468864468864465
2.1025822649971815,0.10073260073260072,0.03706959706959707,0.42468864468864465
2.104314150994469,0.10073260073260072,0.03706959706959707,0.42468864468864465
2.1074780149938306,0.10073260073260072,0.03706959706959707,0.42468864468864465
2.1099496869937866,3.2895238095238093,0.25787545787545785,2.73992673992674
2.1153451909995056,3.2895238095238093,0.25787545787545785,2.73992673992674
2.1179498189958395,3.2895238095238093,0.25787545787545785,2.73992673992674
2.1226606359996367,0.9912087912087911,0.5971428571428571,0.3876190476190476
2.122829924999678,0.9912087912087911,0.5971428571428571,0.3876190476190476
2.128208658999938,0.9912087912087911,0.5971428571428571,0.3876190476190476
2.129722204997961,3.3,0.4625641025641025,3.04051282051282
2.1334568289967137,3.3,0.4625641025641025,3.04051282051282
2.1378737189952517,1.373992673992674,0.33604395604395604,1.187032967032967
2.139389380994544,1.373992673992674,0.33604395604395604,1.187032967032967
2.1430726739999955,1.373992673992674,0.33604395604395604,1.187032967032967
2.1432098139994196,1.373992673992674,0.33604395604395604,1.187032967032967
2.1483268730007694,1.373992673992674,0.33604395604395604,1.187032967032967
2.1519503999952576,1.373992673992674,0.33604395604395604,1.187032967032967
2.1520840890007094,1.373992673992674,0.33604395604395604,1.187032967032967
2.1569912409977405,1.373992673992674,0.33604395604395604,1.187032967032967
2.161710922999191,1.373992673992674,0.33604395604395604,1.187032967032967
2.1619087500002934,1.373992673992674,0.33604395604395604,1.187032967032967
2.1665643339947565,1.373992673992674,0.33604395604395604,1.187032967032967
2.1667337189937825,0.7792673992673992,0.09831501831501832,0.9025641025641026
2.1714348399982555,0.7792673992673992,0.09831501831501832,0.9025641025641026
2.171631969998998,0.7792673992673992,0.09831501831501832,0.9025641025641026
2.176362266000069,0.7792673992673992,0.09831501831501832,0.9025641025641026
2.1765662249963498,2.013846153846154,0.2683516483516483,1.8156043956043957
2.1814032509937533,2.013846153846154,0.2683516483516483,1.8156043956043957
2.181529353998485,0.8163369963369963,0.24659340659340656,0.7583150183150182
2.1862699519988382,0.8163369963369963,0.24659340659340656,0.7583150183150182
2.186509634993854,0.8163369963369963,0.24659340659340656,0.7583150183150182
2.191309100999206,0.8163369963369963,0.24659340659340656,0.7583150183150182
2.191466648997448,0.8163369963369963,0.24659340659340656,0.7583150183150182
2.196140732994536,0.8163369963369963,0.24659340659340656,0.7583150183150182
2.1964048160007223,0.8163369963369963,0.24659340659340656,0.7583150183150182
2.2017069719950086,0.8163369963369963,0.24659340659340656,0.7583150183150182
2.2044801599986386,0.8163369963369963,0.24659340659340656,0.7583150183150182
2.2081460159970447,0.8163369963369963,0.24659340659340656,0.7583150183150182
2.208301392995054,3.10014652014652,0.22644688644688646,2.743150183150183
2.213006524994853,3.10014652014652,0.22644688644688646,2.743150183150183
2.2132310979941394,1.6673260073260072,0.2796336996336996,1.66007326007326
2.2179000559990527,1.6673260073260072,0.2796336996336996,1.66007326007326
2.2181549739980255,1.6673260073260072,0.2796336996336996,1.66007326007326
2.222865264993743,1.6673260073260072,0.2796336996336996,1.66007326007326
2.223100473995146,0.0,0.1104029304029304,0.253040293040293
2.227762302994961,0.0,0.1104029304029304,0.253040293040293
2.228015080996556,3.3,0.5391208791208791,3.3
2.232781883998541,3.3,0.5391208791208791,3.3
2.2329426430005697,3.3,0.5391208791208791,3.3
2.2378465219953796,3.3,0.5391208791208791,3.3
2.2419262699986575,3.3,0.5391208791208791,3.3
2.245367452997016,3.3,0.5391208791208791,3.3
2.245585063996259,3.3,0.5391208791208791,3.3
2.250689970998792,3.3,0.5391208791208791,3.3
2.2554003240002203,3.3,0.5391208791208791,3.3
2.255514296994079,3.3,0.5391208791208791,3.3
2.260993514995789,3.3,0.5391208791208791,3.3
2.2626361699949484,3.3,0.5391208791208791,3.3
2.266507748994627,3.3,0.5391208791208791,3.3
2.271099282996147,3.3,0.5391208791208791,3.3
2.271369957998104,3.3,0.5391208791208791,3.3
2.2759656829948653,3.3,0.5391208791208791,3.3
2.276845685999433,3.3,0.5391208791208791,3.3
2.2784908469984657,3.3,0.5391208791208791,3.3
2.282344823994208,3.3,0.5391208791208791,3.3
2.2862025299982633,3.3,0.5391208791208791,3.3
2.290042941000138,3.3,0.5391208791208791,3.3
2.2945305009998265,3.3,0.5391208791208791,3.3
2.295431581995217,3.3,0.5391208791208791,3.3
2.2969933899948956,3.3,0.5391208791208791,3.3
2.3009054849972017,3.3,0.5391208791208791,3.3
2.305409061998944,3.3,0.5391208791208791,3.3
2.3057171069958713,0.0,0.06527472527472526,0.4504761904761904
2.315125936998811,0.0,0.06527472527472526,0.4504761904761904
2.3223577639946598,0.0,0.06527472527472526,0.4504761904761904
2.326658686994051,0.0,0.06527472527472526,0.4504761904761904
2.327020315999107,0.0,0.06527472527472526,0.4504761904761904
2.3353419819977717,0.0,0.06527472527472526,0.4504761904761904
2.3420105919940397,0.0,0.06527472527472526,0.4504761904761904
2.3463367219956126,0.0,0.06527472527472526,0.4504761904761904
2.347182318997511,0.0,0.06527472527472526,0.4504761904761904
2.349422797000443,0.0,0.06527472527472526,0.4504761904761904
2.3495700229977956,0.0,0.06527472527472526,0.4504761904761904
2.3564581099999486,0.0,0.06527472527472526,0.4504761904761904
2.360924560998683,0.0,0.06527472527472526,0.4504761904761904
2.362573489997885,0.0,0.11362637362637362,0.47062271062271055
2.365762387998984,0.0,0.11362637362637362,0.47062271062271055
2.3688604829949327,0.0,0.11362637362637362,0.47062271062271055
2.370392508993973,0.0,0.11362637362637362,0.47062271062271055
2.375111476998427,0.0,0.11362637362637362,0.47062271062271055
2.3803670329944,0.0,0.11362637362637362,0.47062271062271055
2.3832095689940616,0.6124542124542125,0.3739194139194139,0.3158974358974359
2.3866609190008603,0.6124542124542125,0.3739194139194139,0.3158974358974359
2.387544255994726,3.3,0.4657875457875458,3.3
2.3890696210000897,3.3,0.4657875457875458,3.3
2.393850864995329,3.3,0.4657875457875458,3.3
2.393988924995938,3.3,0.4657875457875458,3.3
2.3987070549992495,3.3,0.4657875457875458,3.3
2.398878682994109,2.249157509157509,0.20388278388278389,2.556996336996337
2.403634604997933,2.249157509157509,0.20388278388278389,2.556996336996337
2.403744803996233,2.249157509157509,0.20388278388278389,2.556996336996337
2.4084938399973908,2.249157509157509,0.20388278388278389,2.556996336996337
2.408587958998396,2.249157509157509,0.20388278388278389,2.556996336996337
2.413324287997966,2.249157509157509,0.20388278388278389,2.556996336996337
2.4134802459957427,2.249157509157509,0.20388278388278389,2.556996336996337
2.418198916995607,2.249157509157509,0.20388278388278389,2.556996336996337
2.4184649449962308,2.249157509157509,0.20388278388278389,2.556996336996337
2.423267317994032,2.249157509157509,0.20388278388278389,2.556996336996337
2.4234409439959563,0.23853479853479853,0.04996336996336996,0.5560439560439561
2.4285731189957005,0.23853479853479853,0.04996336996336996,0.5560439560439561
2.4323052749969065,3.296776556776557,0.23369963369963367,3.3
2.4376359729940305,1.3675457875457875,0.3465201465201465,1.763223443223443
2.440658175997669,1.3675457875457875,0.3465201465201465,1.763223443223443
2.443707544996869,0.16842490842490843,0.2063003663003663,0.06446886446886446
2.4459392599965213,0.16842490842490843,0.2063003663003663,0.06446886446886446
2.446728497998265,0.16842490842490843,0.2063003663003663,0.06446886446886446
2.448966637995909,3.3,0.24659340659340656,3.3
2.4492314879971673,1.8196336996336997,0.4214652014652014,1.232161172161172
2.4543668759943102,1.8196336996336997,0.4214652014652014,1.232161172161172
2.458123776996217,1.6262271062271063,0.33926739926739924,2.0557509157509157
2.462706660000549,2.258827838827839,0.18695970695970696,2.565860805860806
2.462977786999545,2.258827838827839,0.18695970695970696,2.565860805860806
2.4681617559981532,2.258827838827839,0.18695970695970696,2.565860805860806
2.4713531589950435,2.4796336996336996,0.10395604395604395,2.7076923076923074
2.4722554740001215,2.4796336996336996,0.10395604395604395,2.7076923076923074
2.4738515979988733,2.4796336996336996,0.10395604395604395,2.7076923076923074
2.478413131997513,2.212087912087912,0.26109890109890105,2.7504029304029305
2.478586778997851,2.212087912087912,0.26109890109890105,2.7504029304029305
2.483759953000117,2.212087912087912,0.26109890109890105,2.7504029304029305
2.488357411995821,0.17648351648351646,0.045128205128205125,0.5906959706959707
2.488508655995247,0.17648351648351646,0.045128205128205125,0.5906959706959707
2.493570610997267,0.17648351648351646,0.045128205128205125,0.5906959706959707
2.497685142996488,1.8655677655677654,0.21435897435897436,2.262857142857143
2.5011239319937886,1.8655677655677654,0.21435897435897436,2.262857142857143
2.501887756996439,1.8655677655677654,0.21435897435897436,2.262857142857143
2.5045897679956397,1.8655677655677654,0.21435897435897436,2.262857142857143
2.5086684389971197,0.3731135531135531,0.03062271062271062,0.6527472527472526
2.5115224109977135,0.7583150183150182,0.32476190476190475,0.3843956043956044
2.5149618859941256,1.236996336996337,0.32395604395604394,1.5053479853479852
2.5157409940002253,1.236996336996337,0.32395604395604394,1.5053479853479852
2.5178544509981293,1.236996336996337,0.32395604395604394,1.5053479853479852
2.518690268996579,2.178241758241758,0.17003663003663003,2.4175824175824174
2.52085798799817,2.178241758241758,0.17003663003663003,2.4175824175824174
2.52163891899545,2.178241758241758,0.17003663003663003,2.4175824175824174
2.523190978994535,2.178241758241758,0.17003663003663003,2.4175824175824174
2.5272875749942614,2.178241758241758,0.17003663003663003,2.4175824175824174
2.530771272999118,2.178241758241758,0.17003663003663003,2.4175824175824174
2.5310510439958307,2.178241758241758,0.17003663003663003,2.4175824175824174
2.5360858909989474,2.178241758241758,0.17003663003663003,2.4175824175824174
2.5396016349986894,2.178241758241758,0.17003663003663003,2.4175824175824174
2.5398797199959517,2.178241758241758,0.17003663003663003,2.4175824175824174
2.5446413479949115,2.178241758241758,0.17003663003663003,2.4175824175824174
2.544831016995886,2.178241758241758,0.17003663003663003,2.4175824175824174
2.5495495769937406,2.178241758241758,0.17003663003663003,2.4175824175824174
2.549744803996873,2.178241758241758,0.17003663003663003,2.4175824175824174
2.5546604429982835,1.1177289377289377,0.3449084249084249,1.386080586080586
2.558851791996858,1.1177289377289377,0.3449084249084249,1.386080586080586
2.560994628998742,2.1685714285714286,0.22725274725274724,2.4304761904761905
2.562484672998835,2.1685714285714286,0.22725274725274724,2.4304761904761905
2.5672598119999748,2.1685714285714286,0.22725274725274724,2.4304761904761905
2.5674543419954716,2.626300366300366,0.43274725274725273,2.6802930402930403
2.5716048009999213,1.858315018315018,0.3449084249084249,1.2926007326007325
2.5744328340006177,1.858315018315018,0.3449084249084249,1.2926007326007325
2.5779044019946014,2.0638095238095238,0.2087179487179487,2.5175091575091573
2.5781834419976803,2.0638095238095238,0.2087179487179487,2.5175091575091573
2.582984355998633,2.0638095238095238,0.2087179487179487,2.5175091575091573
2.5831022119964473,2.0638095238095238,0.2087179487179487,2.5175091575091573
2.587865545996465,2.0638095238095238,0.2087179487179487,2.5175091575091573
2.58802768500027,2.0638095238095238,0.2087179487179487,2.5175091575091573
2.5927318289977848,2.0638095238095238,0.2087179487179487,2.5175091575091573
2.592939653994108,2.0638095238095238,0.2087179487179487,2.5175091575091573
2.597815716995683,2.0638095238095238,0.2087179487179487,2.5175091575091573
2.6032042899969383,2.0638095238095238,0.2087179487179487,2.5175091575091573
2.605344003997743,0.6785347985347985,0.09589743589743589,0.8574358974358974
2.6061070910000126,2.9486446886446886,0.4545054945054945,2.8164835164835162
2.608212118000665,2.9486446886446886,0.4545054945054945,2.8164835164835162
2.6096554510004353,2.9486446886446886,0.4545054945054945,2.8164835164835162
2.6144379929974093,2.9486446886446886,0.4545054945054945,2.8164835164835162
2.6145849379972788,2.9486446886446886,0.4545054945054945,2.8164835164835162
2.619313102994056,2.9486446886446886,0.4545054945054945,2.8164835164835162
2.6195140470008482,2.9486446886446886,0.4545054945054945,2.8164835164835162
2.624229490997095,2.9486446886446886,0.4545054945054945,2.8164835164835162
2.6244269529997837,2.9486446886446886,0.4545054945054945,2.8164835164835162
2.6291682489973027,2.9486446886446886,0.4545054945054945,2.8164835164835162
2.629357068995887,2.9486446886446886,0.4545054945054945,2.8164835164835162
2.634303947997978,2.9486446886446886,0.4545054945054945,2.8164835164835162
2.6384209409952746,2.9486446886446886,0.4545054945054945,2.8164835164835162
2.6412624059958034,2.9486446886446886,0.4545054945054945,2.8164835164835162
2.6446843890007585,2.9486446886446886,0.4545054945054945,2.8164835164835162
2.644969967994257,2.9486446886446886,0.4545054945054945,2.8164835164835162
2.6501115089995437,2.9486446886446886,0.4545054945054945,2.8164835164835162
2.653211745993758,1.0967765567765566,0.4158241758241758,0.3908424908424908
2.655520540996804,1.0967765567765566,0.4158241758241758,0.3908424908424908
2.655881122998835,1.0967765567765566,0.4158241758241758,0.3908424908424908
2.6610082339975634,1.0967765567765566,0.4158241758241758,0.3908424908424908
2.6647533520008437,1.0967765567765566,0.4158241758241758,0.3908424908424908
2.669885572999192,1.0967765567765566,0.4158241758241758,0.3908424908424908
2.6742884919949574,1.0967765567765566,0.4158241758241758,0.3908424908424908
2.6765466399956495,1.0967765567765566,0.4158241758241758,0.3908424908424908
2.6768290439940756,1.0967765567765566,0.4158241758241758,0.3908424908424908
2.6821113639962277,1.0967765567765566,0.4158241758241758,0.3908424908424908
2.6847185109945713,1.0967765567765566,0.4158241758241758,0.3908424908424908
2.6899110640006256,1.0967765567765566,0.4158241758241758,0.3908424908424908
2.69287519199861,2.6069597069597066,0.13296703296703297,2.317655677655677
2.6951863289941684,2.6069597069597066,0.13296703296703297,2.317655677655677
2.6954387320001842,2.6069597069597066,0.13296703296703297,2.317655677655677
2.700583347999782,2.6069597069597066,0.13296703296703297,2.317655677655677
2.704288500994153,2.6069597069597066,0.13296703296703297,2.317655677655677
2.7095062649968895,0.04673992673992674,0.06769230769230769,0.38278388278388276
2.7125273259953246,0.04673992673992674,0.06769230769230769,0.38278388278388276
2.715487689994916,0.04673992673992674,0.06769230769230769,0.38278388278388276
2.718440656994062,0.04673992673992674,0.06769230769230769,0.38278388278388276
2.7206916180002736,0.04673992673992674,0.06769230769230769,0.38278388278388276
2.721527444999083,0.04673992673992674,0.06769230769230769,0.38278388278388276
2.723091564999777,0.04673992673992674,0.06769230769230769,0.38278388278388276
2.7274620229945867,0.25706959706959703,0.03545787545787545,0.61003663003663
2.727819059997273,0.25706959706959703,0.03545787545787545,0.61003663003663
2.733224801995675,0.25706959706959703,0.03545787545787545,0.61003663003663
2.735561224995763,0.25706959706959703,0.03545787545787545,0.61003663003663
2.7358112250003614,0.25706959706959703,0.03545787545787545,0.61003663003663
2.7442625599942403,0.25706959706959703,0.03545787545787545,0.61003663003663
2.7511145879980177,0.25706959706959703,0.03545787545787545,0.61003663003663
2.7566636409974308,0.25706959706959703,0.03545787545787545,0.61003663003663
2.7568171639941284,0.25706959706959703,0.03545787545787545,0.61003663003663
2.764690468997287,0.25706959706959703,0.03545787545787545,0.61003663003663
2.768818124997779,0.0,0.08703296703296703,0.3465201465201465
2.7711449720009114,0.0,0.08703296703296703,0.3465201465201465
2.7714307389978785,0.0,0.08703296703296703,0.3465201465201465
2.7759581739956047,1.8607326007326006,0.3183150183150183,1.701978021978022
2.7768503970000893,1.8607326007326006,0.3183150183150183,1.701978021978022
2.77844317999552,2.254798534798535,0.20065934065934066,1.8204395604395605
2.78478736699617,1.0492307692307692,0.6648351648351648,0.4222710622710622
2.7905402819960727,1.0492307692307692,0.6648351648351648,0.4222710622710622
2.7941882199957035,1.0492307692307692,0.6648351648351648,0.4222710622710622
2.799425392993726,1.0492307692307692,0.6648351648351648,0.4222710622710622
2.8024021919991355,2.440952380952381,0.2079120879120879,1.9663003663003662
2.805410588000086,0.0,0.1539194139194139,0.3457142857142857
2.808383169998706,2.1427838827838825,0.39487179487179486,1.830915750915751
2.811514435998106,3.3,0.24175824175824176,2.904322344322344
2.813227148995793,0.5197802197802197,0.3602197802197802,0.4383882783882784
2.8171151989954524,0.5197802197802197,0.3602197802197802,0.4383882783882784
2.8218120129968156,0.5197802197802197,0.3602197802197802,0.4383882783882784
2.8220436759947916,0.1418315018315018,0.1829304029304029,0.2248351648351648
2.8275971179973567,0.1418315018315018,0.1829304029304029,0.2248351648351648
2.8278768609961844,0.1418315018315018,0.1829304029304029,0.2248351648351648
2.833067289997416,0.1418315018315018,0.1829304029304029,0.2248351648351648
2.8362984749983298,0.1418315018315018,0.1829304029304029,0.2248351648351648
2.8380112649974762,0.1418315018315018,0.1829304029304029,0.2248351648351648
2.841783709998708,0.1418315018315018,0.1829304029304029,0.2248351648351648
2.8462155159941176,0.1418315018315018,0.1829304029304029,0.2248351648351648
2.8478058580003562,0.1418315018315018,0.1829304029304029,0.2248351648351648
2.8552640639973106,0.1418315018315018,0.1829304029304029,0.2248351648351648
2.863077854999574,0.1418315018315018,0.1829304029304029,0.2248351648351648
2.8689171559963142,0.1418315018315018,0.1829304029304029,0.2248351648351648
2.872716688994842,2.049304029304029,0.1095970695970696,1.838974358974359
2.881585727998754,2.049304029304029,0.1095970695970696,1.838974358974359
2.8883685319960932,2.049304029304029,0.1095970695970696,1.838974358974359
2.8939821219973965,2.049304029304029,0.1095970695970696,1.838974358974359
2.8942504549995647,2.049304029304029,0.1095970695970696,1.838974358974359
2.900232533000235,1.4739194139194138,0.14344322344322344,1.3216117216117216
2.9049095009977464,2.0678388278388278,0.2111355311355311,1.872014652014652
2.9125400409975555,2.0678388278388278,0.2111355311355311,1.872014652014652
2.917241461997037,2.003369963369963,0.6172893772893773,0.8920879120879119
2.922620385994378,2.173406593406593,0.18695970695970696,1.9614652014652014
2.9259071119959117,2.173406593406593,0.18695970695970696,1.9614652014652014
2.9272729059957783,2.173406593406593,0.18695970695970696,1.9614652014652014
2.9336650619952707,2.173406593406593,0.18695970695970696,1.9614652014652014
2.937778820996755,2.173406593406593,0.18695970695970696,1.9614652014652014
2.940712423995137,2.173406593406593,0.18695970695970696,1.9614652014652014
2.946650165999017,2.173406593406593,0.18695970695970696,1.9614652014652014
2.951866022995091,2.173406593406593,0.18695970695970696,1.9614652014652014
2.952754862999427,2.173406593406593,0.18695970695970696,1.9614652014652014
2.9537093929975526,2.173406593406593,0.18695970695970696,1.9614652014652014
2.9552872689964715,2.418388278388278,0.311062271062271,2.324908424908425
2.9609410849952837,2.418388278388278,0.311062271062271,2.324908424908425
2.967975743995339,2.418388278388278,0.311062271062271,2.324908424908425
2.9725328360000276,2.418388278388278,0.311062271062271,2.324908424908425
2.9728946260001976,2.418388278388278,0.311062271062271,2.324908424908425
2.9810453199970652,2.418388278388278,0.311062271062271,2.324908424908425
2.9854897990007885,2.418388278388278,0.311062271062271,2.324908424908425
2.985737598995911,2.418388278388278,0.311062271062271,2.324908424908425
2.9913124079976114,2.418388278388278,0.311062271062271,2.324908424908425
2.9942969029943924,2.418388278388278,0.311062271062271,2.324908424908425
2.9975944139951025,2.418388278388278,0.311062271062271,2.324908424908425
2.9978367069998058,2.418388278388278,0.311062271062271,2.324908424908425
3.0037570479980786,2.418388278388278,0.311062271062271,2.324908424908425
3.0084845109959133,2.418388278388278,0.311062271062271,2.324908424908425
3.0157757509950898,2.418388278388278,0.311062271062271,2.324908424908425
3.01986585999839,0.9388278388278387,0.3424908424908425,1.1136996336996337
3.0230102879941114,0.9388278388278387,0.3424908424908425,1.1136996336996337
3.024699638997845,0.9388278388278387,0.3424908424908425,1.1136996336996337
3.030881289996614,0.9388278388278387,0.3424908424908425,1.1136996336996337
3.0340273379988503,0.9388278388278387,0.3424908424908425,1.1136996336996337
3.0357549369946355,1.8204395604395605,0.19663003663003664,2.071868131868132
3.0388706249941606,1.8204395604395605,0.19663003663003664,2.071868131868132
3.0427168069945765,1.8204395604395605,0.19663003663003664,2.071868131868132
3.048290572995029,1.8204395604395605,0.19663003663003664,2.071868131868132
3.0484114110004157,1.8204395604395605,0.19663003663003664,2.071868131868132
3.052997298000264,1.8204395604395605,0.19663003663003664,2.071868131868132
3.05386295599601,1.8204395604395605,0.19663003663003664,2.071868131868132
3.0554453669974464,1.8204395604395605,0.19663003663003664,2.071868131868132
3.0598077079994255,2.249157509157509,0.17648351648351646,2.283003663003663
3.061398123994877,2.249157509157509,0.17648351648351646,2.283003663003663
3.0661961250007153,2.249157509157509,0.17648351648351646,2.283003663003663
3.0707204029968125,2.249157509157509,0.17648351648351646,2.283003663003663
3.0715957279971917,0.6648351648351648,0.3432967032967033,0.8485714285714284
3.073112415993819,0.6648351648351648,0.3432967032967033,0.8485714285714284
3.081061660996056,0.6648351648351648,0.3432967032967033,0.8485714285714284
3.085784425995371,0.6648351648351648,0.3432967032967033,0.8485714285714284
3.085997388996475,0.6648351648351648,0.3432967032967033,0.8485714285714284
3.091182623997156,0.6648351648351648,0.3432967032967033,0.8485714285714284
3.0964351359943976,0.6648351648351648,0.3432967032967033,0.8485714285714284
3.0974266759949387,2.4780219780219777,0.24739926739926738,2.4981684981684977
3.0977657409966923,2.4780219780219777,0.24739926739926738,2.4981684981684977
3.1031232479945174,2.4780219780219777,0.24739926739926738,2.4981684981684977
3.1053949349952745,2.4780219780219777,0.24739926739926738,2.4981684981684977
3.105620819995238,3.3,0.5479853479853479,3.27018315018315
3.1122660609980812,3.3,0.5479853479853479,3.27018315018315
3.1158069709999836,3.3,0.5479853479853479,3.27018315018315
3.1159452389983926,3.3,0.5479853479853479,3.27018315018315
3.121186371994554,3.3,0.5479853479853479,3.27018315018315
3.123570899995684,3.3,0.5479853479853479,3.27018315018315
3.1236928349972004,3.3,0.5479853479853479,3.27018315018315
3.1334681249936693,3.3,0.5479853479853479,3.27018315018315
3.1401022289937828,3.3,0.5479853479853479,3.27018315018315
3.1477396009941003,3.3,0.5479853479853479,3.27018315018315
3.1514606019991334,3.3,0.5479853479853479,3.27018315018315
3.156707785994513,2.0235164835164836,0.630989010989011,1.0145787545787546
3.1607219020006596,2.207252747252747,0.19018315018315018,2.1838827838827837
3.1634495569960563,2.207252747252747,0.19018315018315018,2.1838827838827837
3.1680081019949284,0.01531135531135531,0.06608058608058608,0.40695970695970696
3.1682705899947905,0.01531135531135531,0.06608058608058608,0.40695970695970696
3.173488679000002,0.01531135531135531,0.06608058608058608,0.40695970695970696
3.1760930889940937,0.01531135531135531,0.06608058608058608,0.40695970695970696
3.1821916999979294,0.01531135531135531,0.06608058608058608,0.40695970695970696
3.1859712730001775,0.01531135531135531,0.06608058608058608,0.40695970695970696
3.1914854329952504,0.01531135531135531,0.06608058608058608,0.40695970695970696
3.192407460999675,2.025128205128205,0.21435897435897436,1.66007326007326
3.1935151259967824,2.025128205128205,0.21435897435897436,1.66007326007326
3.1940751250003814,2.025128205128205,0.21435897435897436,1.66007326007326
3.1983955439936835,2.025128205128205,0.21435897435897436,1.66007326007326
3.1992333099988173,2.025128205128205,0.21435897435897436,1.66007326007326
3.2008278939974844,2.025128205128205,0.21435897435897436,1.66007326007326
3.2053099979966646,2.025128205128205,0.21435897435897436,1.66007326007326
3.2055944449966773,2.025128205128205,0.21435897435897436,1.66007326007326
3.211865110999497,2.025128205128205,0.21435897435897436,1.66007326007326
3.2151179110005614,2.025128205128205,0.21435897435897436,1.66007326007326
3.216011587996036,2.025128205128205,0.21435897435897436,1.66007326007326
3.2176142879980034,2.025128205128205,0.21435897435897436,1.66007326007326
3.222195116999501,1.872014652014652,0.16036630036630037,1.755164835164835
3.222985296997649,1.872014652014652,0.16036630036630037,1.755164835164835
3.224808890998247,1.872014652014652,0.16036630036630037,1.755164835164835
3.22869921799429,1.872014652014652,0.16036630036630037,1.755164835164835
3.232770836999407,1.872014652014652,0.16036630036630037,1.755164835164835
3.2345614439982455,0.6438827838827839,0.36344322344322344,0.7438095238095238
3.237580736000382,0.6438827838827839,0.36344322344322344,0.7438095238095238
3.2399352609936614,0.6438827838827839,0.36344322344322344,0.7438095238095238
3.240099767994252,0.6438827838827839,0.36344322344322344,0.7438095238095238
3.2510968529968522,0.045128205128205125,0.1676190476190476,0.25223443223443226
3.2563508300008834,3.3,0.5093040293040293,3.3
3.261531083997397,3.3,0.5093040293040293,3.3
3.2646519240006455,3.3,0.5093040293040293,3.3
3.264970110998547,3.3,0.5093040293040293,3.3
3.2701051129988628,3.3,0.5093040293040293,3.3
3.2725013329982175,0.28930402930402926,0.22725274725274724,0.18776556776556774
3.2726309599966044,0.28930402930402926,0.22725274725274724,0.18776556776556774
3.2804485029992065,0.28930402930402926,0.22725274725274724,0.18776556776556774
3.285937529995863,1.8832967032967032,0.19018315018315018,1.7761172161172158
3.286167989994283,0.0,0.10153846153846154,0.38278388278388276
3.2913207300007343,3.3,0.3167032967032967,3.3
3.2968825719945016,1.4755311355311356,0.3336263736263736,1.5988278388278387
3.2971889289983665,1.8123809523809524,0.3432967032967033,1.955018315018315
3.3016049299985752,1.8123809523809524,0.3432967032967033,1.955018315018315
3.3032728760008467,0.9871794871794871,0.6446886446886446,0.5358974358974359
3.3074127250001766,0.9871794871794871,0.6446886446886446,0.5358974358974359
3.3118447929955437,2.9438095238095237,0.5334798534798535,2.756849816849817
3.31214979399374,2.9438095238095237,0.5334798534798535,2.756849816849817
3.317134836994228,2.9438095238095237,0.5334798534798535,2.756849816849817
3.320160355993721,2.9438095238095237,0.5334798534798535,2.756849816849817
3.3231403949976084,2.9438095238095237,0.5334798534798535,2.756849816849817
3.3272756449950975,2.9438095238095237,0.5334798534798535,2.756849816849817
3.330403595995449,2.9438095238095237,0.5334798534798535,2.756849816849817
3.3313379129976965,2.9438095238095237,0.5334798534798535,2.756849816849817
3.3328929679992143,2.9438095238095237,0.5334798534798535,2.756849816849817
3.337411508000514,2.9438095238095237,0.5334798534798535,2.756849816849817
3.3389230280008633,2.9438095238095237,0.5334798534798535,2.756849816849817
3.344142315996578,1.0016849816849815,0.6358241758241758,0.46095238095238095
3.3471116489963606,1.0016849816849815,0.6358241758241758,0.46095238095238095
3.3500057790006394,1.0016849816849815,0.6358241758241758,0.46095238095238095
3.354115259993705,0.6261538461538461,0.3771428571428571,0.751062271062271
3.3569518649965175,0.6261538461538461,0.3771428571428571,0.751062271062271
3.361259010998765,0.6261538461538461,0.3771428571428571,0.751062271062271
3.3626492349940236,0.0,0.15633699633699633,0.27399267399267396
3.367216765997,0.0,0.15633699633699633,0.27399267399267396
3.3674819619991467,3.3,0.5044688644688645,3.3
3.3719840919948183,3.3,0.5044688644688645,3.3
3.3743728889967315,3.3,0.5044688644688645,3.3
3.374599563998345,3.3,0.5044688644688645,3.3
3.380450706994452,3.3,0.5044688644688645,3.3
3.384974656997656,2.5424908424908423,0.25384615384615383,2.5642490842490844
3.3857737009966513,0.0,0.08139194139194139,0.4085714285714286
3.388164103998861,0.0,0.08139194139194139,0.4085714285714286
3.3883823629948893,0.0,0.08139194139194139,0.4085714285714286
3.3932925219996832,1.8534798534798533,0.3505494505494505,1.2523076923076921
3.398412021997501,2.523150183150183,0.311062271062271,2.234652014652015
3.4007216120007797,2.234652014652015,0.20146520146520144,2.173406593406593
3.4010070399963297,2.234652014652015,0.20146520146520144,2.173406593406593
3.4055043919943273,0.08542124542124542,0.1378021978021978,0.5560439560439561
3.4070385129962233,3.141245421245421,0.5447619047619047,3.024395604395604
3.4139459719954175,2.601318681318681,0.15633699633699633,2.5835897435897435
3.4172349129949,2.601318681318681,0.15633699633699633,2.5835897435897435
3.418782316999568,2.601318681318681,0.15633699633699633,2.5835897435897435
3.4240236049954547,2.601318681318681,0.15633699633699633,2.5835897435897435
3.4298249849962303,2.601318681318681,0.15633699633699633,2.5835897435897435
3.4362372969990247,2.601318681318681,0.15633699633699633,2.5835897435897435
3.4413039069986553,2.601318681318681,0.15633699633699633,2.5835897435897435
3.4465272309971624,2.601318681318681,0.15633699633699633,2.5835897435897435
3.446924683994439,2.601318681318681,0.15633699633699633,2.5835897435897435
3.4515589289949276,2.601318681318681,0.15633699633699633,2.5835897435897435
3.451703164995706,2.601318681318681,0.15633699633699633,2.5835897435897435
3.456845781998709,1.7382417582417582,0.311062271062271,2.024322344322344
3.4621769069999573,1.7382417582417582,0.311062271062271,2.024322344322344
3.4631404019964975,1.7382417582417582,0.311062271062271,2.024322344322344
3.464792763996229,1.7382417582417582,0.311062271062271,2.024322344322344
3.4679612679974525,1.7382417582417582,0.311062271062271,2.024322344322344
3.470311191995279,1.7382417582417582,0.311062271062271,2.024322344322344
3.4706121790004545,1.7382417582417582,0.311062271062271,2.024322344322344
3.475874534997274,1.7382417582417582,0.311062271062271,2.024322344322344
3.4796138079982484,1.7382417582417582,0.311062271062271,2.024322344322344
3.483561863999057,1.7382417582417582,0.311062271062271,2.024322344322344
3.4873206419943017,1.7382417582417582,0.311062271062271,2.024322344322344
3.4935618859963142,1.7382417582417582,0.311062271062271,2.024322344322344
3.497078916996543,1.7382417582417582,0.311062271062271,2.024322344322344
3.497241278993897,1.7382417582417582,0.311062271062271,2.024322344322344
3.501863402998424,1.7382417582417582,0.311062271062271,2.024322344322344
3.502163565994124,1.7382417582417582,0.311062271062271,2.024322344322344
3.50736613299523,1.7382417582417582,0.311062271062271,2.024322344322344
3.5111954339954536,1.7382417582417582,0.311062271062271,2.024322344322344
3.514459997000813,1.3046886446886445,0.3578021978021978,1.539194139194139
3.5153489579970483,1.3046886446886445,0.3578021978021978,1.539194139194139
3.5169146599946544,1.3046886446886445,0.3578021978021978,1.539194139194139
3.5212713929940946,1.3046886446886445,0.3578021978021978,1.539194139194139
3.522865831000672,0.7438095238095238,0.2651282051282051,1.0677655677655677
3.528169879995403,0.7438095238095238,0.2651282051282051,1.0677655677655677
3.5304466969973873,0.7438095238095238,0.2651282051282051,1.0677655677655677
3.530620462996012,0.7438095238095238,0.2651282051282051,1.0677655677655677
3.536017477999849,0.7438095238095238,0.2651282051282051,1.0677655677655677
3.538989402994048,0.7438095238095238,0.2651282051282051,1.0677655677655677
3.542828716999793,0.7438095238095238,0.2651282051282051,1.0677655677655677
3.5472530409970204,0.7438095238095238,0.2651282051282051,1.0677655677655677
3.547508708994428,0.7438095238095238,0.2651282051282051,1.0677655677655677
3.5527914609992877,2.731062271062271,0.14827838827838827,2.789084249084249
3.556813556999259,2.731062271062271,0.14827838827838827,2.789084249084249
3.560384794996935,2.731062271062271,0.14827838827838827,2.789084249084249
3.566760452995368,2.731062271062271,0.14827838827838827,2.789084249084249
3.5706511219977983,0.04673992673992674,0.06608058608058608,0.43597069597069593
3.57493319799687,0.04673992673992674,0.06608058608058608,0.43597069597069593
3.579589955996198,2.1508424908424906,0.23853479853479853,2.4514285714285715
3.586311528997612,2.1508424908424906,0.23853479853479853,2.4514285714285715
3.590238333999878,3.235531135531135,0.24739926739926738,3.3
3.596958137997717,3.235531135531135,0.24739926739926738,3.3
3.6019881409956724,3.235531135531135,0.24739926739926738,3.3
3.607106281997403,0.6833699633699634,0.29333333333333333,0.9227106227106227
3.6119477649990586,1.5335531135531135,0.32395604395604394,1.535970695970696
3.615685710996331,1.5335531135531135,0.32395604395604394,1.535970695970696
3.6186996499964152,1.5335531135531135,0.32395604395604394,1.535970695970696
3.6218143749938463,1.5335531135531135,0.32395604395604394,1.535970695970696
3.6233912459938438,1.5335531135531135,0.32395604395604394,1.535970695970696
3.633748383996135,1.5335531135531135,0.32395604395604394,1.535970695970696
3.6411998229959863,1.5335531135531135,0.32395604395604394,1.535970695970696
3.6471114099986153,0.7035164835164834,0.303003663003663,0.9912087912087911
3.6547116759975324,0.7035164835164834,0.303003663003663,0.9912087912087911
3.659807919000741,0.7035164835164834,0.303003663003663,0.9912087912087911
3.6641980849963147,0.7035164835164834,0.303003663003663,0.9912087912087911
3.669317530999251,0.7035164835164834,0.303003663003663,0.9912087912087911
3.6730643789996975,2.1975824175824172,0.1241025641025641,2.1129670329670325
3.680543848000525,2.1975824175824172,0.1241025641025641,2.1129670329670325
3.685206965994439,2.1975824175824172,0.1241025641025641,2.1129670329670325
3.685484841997095,2.1975824175824172,0.1241025641025641,2.1129670329670325
3.6903576599943335,2.1975824175824172,0.1241025641025641,2.1129670329670325
3.6904609109988087,2.1975824175824172,0.1241025641025641,2.1129670329670325
3.6973121169939986,2.1975824175824172,0.1241025641025641,2.1129670329670325
3.7015444839998963,1.551282051282051,0.3578021978021978,1.7930402930402929
3.703874711995013,1.551282051282051,0.3578021978021978,1.7930402930402929
3.7040628059985465,1.551282051282051,0.3578021978021978,1.7930402930402929
3.712677919997077,1.551282051282051,0.3578021978021978,1.7930402930402929
3.716551728997729,3.3,0.506080586080586,3.3
3.7197268629970495,2.1717948717948716,0.195018315018315,2.0904029304029303
3.72158697899431,2.1717948717948716,0.195018315018315,2.0904029304029303
3.7247934869956225,0.0,0.112014652014652,0.29736263736263735
3.727648843996576,0.0,0.112014652014652,0.29736263736263735
3.7306080819980707,0.0,0.112014652014652,0.29736263736263735
3.7334143269981723,0.0,0.112014652014652,0.29736263736263735
3.736647300000186,0.0,0.112014652014652,0.29736263736263735
3.7369059069969808,0.0,0.112014652014652,0.29736263736263735
3.74245813399466,0.0,0.112014652014652,0.29736263736263735
3.742725921998499,0.04673992673992674,0.07413919413919413,0.4488644688644688
3.7489160249970155,0.04673992673992674,0.07413919413919413,0.4488644688644688
3.752690633999009,3.3,0.518974358974359,2.9953846153846153
3.7571705669979565,1.7108424908424908,0.35135531135531134,1.8212454212454212
3.7580928309980663,1.7108424908424908,0.35135531135531134,1.8212454212454212
3.7601573309948435,1.7108424908424908,0.35135531135531134,1.8212454212454212
3.7615246639979887,1.7108424908424908,0.35135531135531134,1.8212454212454212
3.7662398549946374,0.0024175824175824176,0.12087912087912088,0.49157509157509155
3.7663687029998982,0.0024175824175824176,0.12087912087912088,0.49157509157509155
3.771586151997326,0.0024175824175824176,0.12087912087912088,0.49157509157509155
3.774516904995835,0.0024175824175824176,0.12087912087912088,0.49157509157509155
3.777432147995569,0.0024175824175824176,0.12087912087912088,0.49157509157509155
3.7817317149965675,0.0024175824175824176,0.12087912087912088,0.49157509157509155
3.7819888109952444,0.0024175824175824176,0.12087912087912088,0.49157509157509155
3.7901931909946143,0.0024175824175824176,0.12087912087912088,0.49157509157509155
3.7968889179974212,0.0024175824175824176,0.12087912087912088,0.49157509157509155
3.80234148499585,0.0024175824175824176,0.12087912087912088,0.49157509157509155
3.8025756099959835,0.0024175824175824176,0.12087912087912088,0.49157509157509155
3.8106668979962706,0.0024175824175824176,0.12087912087912088,0.49157509157509155
3.818712145999598,0.1378021978021978,0.029816849816849816,0.46739926739926735
3.826969305999228,2.484468864468864,0.3763369963369963,2.440952380952381
3.8331063329969766,1.6649084249084247,0.3344322344322344,1.5424175824175823
3.836968497998896,1.6649084249084247,0.3344322344322344,1.5424175824175823
3.843956065000384,1.6649084249084247,0.3344322344322344,1.5424175824175823
3.8492161670001224,1.6649084249084247,0.3344322344322344,1.5424175824175823
3.851390920994163,1.6649084249084247,0.3344322344322344,1.5424175824175823
3.8516346649994375,0.6229304029304029,0.4198534798534798,0.6551648351648351
3.8569797439995455,0.6229304029304029,0.4198534798534798,0.6551648351648351
3.8602393900000607,0.6229304029304029,0.4198534798534798,0.6551648351648351
3.86058057199989,0.6229304029304029,0.4198534798534798,0.6551648351648351
3.868777670999407,0.6229304029304029,0.4198534798534798,0.6551648351648351
3.875512078993779,0.6229304029304029,0.4198534798534798,0.6551648351648351
3.8807885559945134,0.6229304029304029,0.4198534798534798,0.6551648351648351
3.881947413996386,0.0,0.15311355311355312,0.29816849816849816
3.8821968369957176,0.0,0.15311355311355312,0.29816849816849816
3.8881737949996023,0.0,0.15311355311355312,0.29816849816849816
3.893100475994288,0.0,0.15311355311355312,0.29816849816849816
3.898220364993904,0.0,0.15311355311355312,0.29816849816849816
3.900559597997926,0.0,0.15311355311355312,0.29816849816849816
3.9008238059977884,0.0,0.15311355311355312,0.29816849816849816
3.9060465809961897,0.0,0.15311355311355312,0.29816849816849816
3.909937208998599,0.0,0.15311355311355312,0.29816849816849816
3.9148260219953954,2.8277655677655673,0.22967032967032966,2.432087912087912
3.9182000839937245,2.8277655677655673,0.22967032967032966,2.432087912087912
3.9190715109943994,2.8277655677655673,0.22967032967032966,2.432087912087912
3.9199644299951615,2.8277655677655673,0.22967032967032966,2.432087912087912
3.922736108994286,2.8277655677655673,0.22967032967032966,2.432087912087912
3.9298678579943953,2.8277655677655673,0.22967032967032966,2.432087912087912
3.9334763039951213,2.8277655677655673,0.22967032967032966,2.432087912087912
3.9414611809988855,1.4553846153846153,0.4117948717948718,1.4295970695970697
3.9472572699960438,2.2169230769230768,0.23208791208791207,1.8865201465201462
3.952960025999346,2.2169230769230768,0.23208791208791207,1.8865201465201462
3.9532417349983007,0.43677655677655675,0.3876190476190476,0.4158241758241758
3.9586885549942963,0.43677655677655675,0.3876190476190476,0.4158241758241758
3.9611031349995756,1.8816849816849814,0.16278388278388278,1.6246153846153846
3.967970321995381,1.8816849816849814,0.16278388278388278,1.6246153846153846
3.97266784599924,1.8816849816849814,0.16278388278388278,1.6246153846153846
3.9728378309955588,1.8816849816849814,0.16278388278388278,1.6246153846153846
3.9809015169958,1.8816849816849814,0.16278388278388278,1.6246153846153846
3.986301614000695,1.8172161172161172,0.23047619047619047,1.767252747252747
3.987155561000691,1.8172161172161172,0.23047619047619047,1.767252747252747
3.988774145997013,1.8172161172161172,0.23047619047619047,1.767252747252747
3.9931966320000356,2.0581684981684982,0.2216117216117216,1.7293772893772894
3.9935183369962033,1.991282051282051,0.3287912087912088,2.025934065934066
3.99874782400002,1.991282051282051,0.3287912087912088,2.025934065934066
4.001062568000634,2.1717948717948716,0.2079120879120879,1.9187545787545788
4.001333173000603,2.1717948717948716,0.2079120879120879,1.9187545787545788
4.00593575899984,2.1717948717948716,0.2079120879120879,1.9187545787545788
4.006245674994716,2.1717948717948716,0.2079120879120879,1.9187545787545788
4.013460933994793,2.1717948717948716,0.2079120879120879,1.9187545787545788
4.019073358998867,2.1717948717948716,0.2079120879120879,1.9187545787545788
4.025422804996197,0.9122344322344322,0.7075457875457875,0.3489377289377289
4.0309431809946545,2.747179487179487,0.5487912087912087,2.6335531135531136
4.031138275000558,2.274945054945055,0.12974358974358974,2.161318681318681
4.037833898000827,2.274945054945055,0.12974358974358974,2.161318681318681
4.041757576000236,2.274945054945055,0.12974358974358974,2.161318681318681
4.046406902998569,2.274945054945055,0.12974358974358974,2.161318681318681
4.046525402998668,2.274945054945055,0.12974358974358974,2.161318681318681
4.051154147993657,2.274945054945055,0.12974358974358974,2.161318681318681
4.052043610994588,1.9783882783882782,0.08945054945054945,1.7728937728937728
4.0536030209987075,1.9783882783882782,0.08945054945054945,1.7728937728937728
4.058002526995551,1.9783882783882782,0.08945054945054945,1.7728937728937728
4.059837453998625,1.9783882783882782,0.08945054945054945,1.7728937728937728
4.06320956700074,0.4794871794871795,0.3078388278388278,0.21032967032967032
4.063570810998499,0.4794871794871795,0.3078388278388278,0.21032967032967032
4.068230525997933,0.4794871794871795,0.3078388278388278,0.21032967032967032
4.068477729997539,0.4794871794871795,0.3078388278388278,0.21032967032967032
4.072967520995007,1.8865201465201462,0.40937728937728934,1.1934798534798534
4.075739369000075,1.2934065934065933,0.36827838827838827,1.4843956043956044
4.079501909000101,1.9542124542124542,0.253040293040293,1.701978021978022
4.083227101000375,1.9542124542124542,0.253040293040293,1.701978021978022
4.0884186170005705,1.9542124542124542,0.253040293040293,1.701978021978022
4.091820973000722,1.9542124542124542,0.253040293040293,1.701978021978022
4.092202914995141,1.6238095238095236,0.6237362637362637,0.7704029304029304
4.097687766996387,1.6238095238095236,0.6237362637362637,0.7704029304029304
4.099290554993786,1.6238095238095236,0.6237362637362637,0.7704029304029304
4.103146362998814,1.6238095238095236,0.6237362637362637,0.7704029304029304
4.108472732994414,1.6238095238095236,0.6237362637362637,0.7704029304029304
4.1122644469942315,1.6238095238095236,0.6237362637362637,0.7704029304029304
4.116136478995031,1.6238095238095236,0.6237362637362637,0.7704029304029304
4.1213089099983335,2.1363369963369965,0.23047619047619047,2.220952380952381
4.124452295000083,1.843003663003663,0.14908424908424908,1.892161172161172
4.127812457998516,0.21355311355311357,0.03142857142857143,0.5391208791208791
4.1280452869978035,0.21355311355311357,0.03142857142857143,0.5391208791208791
4.133571102000133,0.21355311355311357,0.03142857142857143,0.5391208791208791
4.134531539995805,0.21355311355311357,0.03142857142857143,0.5391208791208791
4.135373205994256,0.21355311355311357,0.03142857142857143,0.5391208791208791
4.137088430994481,0.21355311355311357,0.03142857142857143,0.5391208791208791
4.140064578998135,0.21355311355311357,0.03142857142857143,0.5391208791208791
4.14440855999419,0.21355311355311357,0.03142857142857143,0.5391208791208791
4.1458931759989355,0.21355311355311357,0.03142857142857143,0.5391208791208791
4.15144133099966,1.9638827838827837,0.40695970695970696,1.9163369963369963
4.151651424996089,1.9638827838827837,0.40695970695970696,1.9163369963369963
4.156272688996978,1.9638827838827837,0.40695970695970696,1.9163369963369963
4.157179866997467,2.250769230769231,0.23531135531135527,2.3305494505494506
4.158978786996158,2.250769230769231,0.23531135531135527,2.3305494505494506
4.161824352995609,2.250769230769231,0.23531135531135527,2.3305494505494506
4.165870508993976,2.250769230769231,0.23531135531135527,2.3305494505494506
4.168216990998189,1.278901098901099,0.27076923076923076,1.3151648351648353
4.168400272996223,1.278901098901099,0.27076923076923076,1.3151648351648353
4.1729608079986065,1.278901098901099,0.27076923076923076,1.3151648351648353
4.174163535994012,1.8204395604395605,0.3352380952380952,2.1242490842490844
4.174382118995709,2.6198534798534796,0.4126007326007326,2.8463003663003663
4.181307578997803,2.6198534798534796,0.4126007326007326,2.8463003663003663
4.1852240419975715,0.6366300366300366,0.41340659340659336,0.2772161172161172
4.189017132994195,0.6366300366300366,0.41340659340659336,0.2772161172161172
4.1963028729951475,0.6366300366300366,0.41340659340659336,0.2772161172161172
4.2002528899975005,0.6366300366300366,0.41340659340659336,0.2772161172161172
4.2046145089989295,0.6366300366300366,0.41340659340659336,0.2772161172161172
4.2064209949967335,0.0,0.12087912087912088,0.25545787545787546
4.209486811996612,0.0,0.12087912087912088,0.25545787545787546
4.211444410997501,1.9679120879120877,0.2925274725274725,1.6028571428571428
4.213487030996475,0.8235897435897436,0.3755311355311355,1.0387545787545787
4.215308070000901,0.8235897435897436,0.3755311355311355,1.0387545787545787
4.217746634996729,0.8235897435897436,0.3755311355311355,1.0387545787545787
4.217909131999477,2.577948717948718,0.303003663003663,2.7157509157509154
4.222601974994177,2.577948717948718,0.303003663003663,2.7157509157509154
4.222827441000845,0.16358974358974357,0.18857142857142856,0.12893772893772892
4.232532652997179,0.16358974358974357,0.18857142857142856,0.12893772893772892
4.240905443999509,0.16358974358974357,0.18857142857142856,0.12893772893772892
4.248301311999967,0.16358974358974357,0.18857142857142856,0.12893772893772892
4.2525031979967025,2.752014652014652,0.5149450549450549,2.643223443223443
4.255149448996235,2.752014652014652,0.5149450549450549,2.643223443223443
4.263046298998233,1.593992673992674,0.2175824175824176,1.85025641025641
4.266951154000708,0.07575091575091575,0.1805128205128205,0.19985347985347984
4.270867013998213,0.07575091575091575,0.1805128205128205,0.19985347985347984
4.278297252996708,0.07575091575091575,0.1805128205128205,0.19985347985347984
4.282369504995586,0.07575091575091575,0.1805128205128205,0.19985347985347984
4.284665264996875,0.07575091575091575,0.1805128205128205,0.19985347985347984
4.284970105996763,0.07575091575091575,0.1805128205128205,0.19985347985347984
4.2903584919986315,0.07575091575091575,0.1805128205128205,0.19985347985347984
4.2929639859939925,0.07575091575091575,0.1805128205128205,0.19985347985347984
4.297701962997962,2.092014652014652,0.34813186813186814,2.3660073260073258
4.303182797993941,2.092014652014652,0.34813186813186814,2.3660073260073258
4.304889287996048,0.9646153846153847,0.5963369963369963,0.7075457875457875
4.310145386996737,0.9646153846153847,0.5963369963369963,0.7075457875457875
4.31461948499782,1.9268131868131868,0.27882783882783885,1.585934065934066
4.32007046599756,1.9268131868131868,0.27882783882783885,1.585934065934066
4.3216909779948764,1.9268131868131868,0.27882783882783885,1.585934065934066
4.32797066099738,1.9268131868131868,0.27882783882783885,1.585934065934066
4.3316008759938995,1.9268131868131868,0.27882783882783885,1.585934065934066
4.337030542999855,1.9268131868131868,0.27882783882783885,1.585934065934066
4.33932721799647,1.9268131868131868,0.27882783882783885,1.585934065934066
4.339575730999059,1.9268131868131868,0.27882783882783885,1.585934065934066
4.348352019995218,1.9268131868131868,0.27882783882783885,1.585934065934066
4.352949465996062,1.9961172161172158,0.3183150183150183,1.5730402930402931
4.353886596996745,2.017069597069597,0.5552380952380952,1.1612454212454213
4.355722767999396,2.0928205128205124,0.36344322344322344,2.309597069597069
4.3586659299980965,2.0928205128205124,0.36344322344322344,2.309597069597069
4.365060727999662,2.0928205128205124,0.36344322344322344,2.309597069597069
4.368262755997421,2.0928205128205124,0.36344322344322344,2.309597069597069
4.369865705994016,2.0928205128205124,0.36344322344322344,2.309597069597069
4.374599505994411,2.0928205128205124,0.36344322344322344,2.309597069597069
4.381425065999792,2.038021978021978,0.3142857142857142,2.1726007326007326
4.385175903997151,2.038021978021978,0.3142857142857142,2.1726007326007326
4.3909349929963355,2.038021978021978,0.3142857142857142,2.1726007326007326
4.3910843989942805,2.038021978021978,0.3142857142857142,2.1726007326007326
4.397998872998869,2.038021978021978,0.3142857142857142,2.1726007326007326
4.401259570993716,2.038021978021978,0.3142857142857142,2.1726007326007326
4.402129835994856,1.2934065934065933,0.09267399267399268,1.3119413919413918
4.405037604999961,0.04996336996336996,0.166007326007326,0.19018315018315018
4.407747584999015,0.04996336996336996,0.166007326007326,0.19018315018315018
4.41465230799804,3.3,0.5632967032967032,3.2629304029304027
4.419962852996832,3.3,0.5632967032967032,3.2629304029304027
4.421543245000066,2.0734798534798533,0.23531135531135527,1.9663003663003662
4.427454349999607,2.0734798534798533,0.23531135531135527,1.9663003663003662
4.433575025999744,3.248424908424908,0.3223443223443223,2.9599267399267397
4.439569759000733,1.4932600732600732,0.39890109890109887,1.5367765567765568
4.445034477997979,1.4932600732600732,0.39890109890109887,1.5367765567765568
4.44596008699591,0.0,0.08139194139194139,0.381978021978022
4.446945236995816,0.0,0.08139194139194139,0.381978021978022
4.447917780998978,0.0,0.08139194139194139,0.381978021978022
4.44956516000093,0.0,0.08139194139194139,0.381978021978022
4.453669553993677,1.7438827838827837,0.6632234432234432,0.697069597069597
4.456373782995797,0.8469597069597068,0.3706959706959707,0.9299633699633699
4.463312382998993,1.7035897435897436,0.20307692307692307,1.5617582417582416
4.468341567997413,1.7035897435897436,0.20307692307692307,1.5617582417582416
4.470704052997462,2.797142857142857,0.2175824175824176,2.618241758241758
4.470983187995444,2.797142857142857,0.2175824175824176,2.618241758241758
4.475885831998312,2.797142857142857,0.2175824175824176,2.618241758241758
4.483977251999022,2.797142857142857,0.2175824175824176,2.618241758241758
4.489382063999074,2.797142857142857,0.2175824175824176,2.618241758241758
4.489647183996567,2.797142857142857,0.2175824175824176,2.618241758241758
4.499951788995531,2.797142857142857,0.2175824175824176,2.618241758241758
4.509825219000049,2.797142857142857,0.2175824175824176,2.618241758241758
4.519244704999437,1.141098901098901,0.4810989010989011,0.3553846153846154
4.525861169000564,1.141098901098901,0.4810989010989011,0.3553846153846154
4.529912054997112,1.141098901098901,0.4810989010989011,0.3553846153846154
4.532359744000132,1.141098901098901,0.4810989010989011,0.3553846153846154
4.532502226000361,1.141098901098901,0.4810989010989011,0.3553846153846154
4.537942099996144,1.141098901098901,0.4810989010989011,0.3553846153846154
4.540206090998254,1.141098901098901,0.4810989010989011,0.3553846153846154
4.54046816600021,1.141098901098901,0.4810989010989011,0.3553846153846154
4.546796901995549,1.141098901098901,0.4810989010989011,0.3553846153846154
4.550603057999979,3.013113553113553,0.5213919413919413,2.6448351648351647
4.5561166319967015,3.013113553113553,0.5213919413919413,2.6448351648351647
4.557877702995029,2.0557509157509157,0.24739926739926738,1.9840293040293038
4.5617964869961725,2.0557509157509157,0.24739926739926738,1.9840293040293038
4.565699309998308,0.7357509157509158,0.39003663003663,0.713992673992674
4.569478567995247,0.7357509157509158,0.39003663003663,0.713992673992674
4.574798196998017,0.7357509157509158,0.39003663003663,0.713992673992674
4.579436710999289,0.7357509157509158,0.39003663003663,0.713992673992674
4.584655127997394,0.7357509157509158,0.39003663003663,0.713992673992674
4.587918657998671,0.7357509157509158,0.39003663003663,0.713992673992674
4.589427900995361,0.7357509157509158,0.39003663003663,0.713992673992674
4.595216051995521,0.7357509157509158,0.39003663003663,0.713992673992674
4.595374730000913,0.7357509157509158,0.39003663003663,0.713992673992674
4.600186463998398,0.7357509157509158,0.39003663003663,0.713992673992674
4.605527880994487,2.2040293040293037,0.19904761904761903,2.008205128205128
4.6098676869951305,2.2040293040293037,0.19904761904761903,2.008205128205128
4.611594502996013,2.2040293040293037,0.19904761904761903,2.008205128205128
4.615178937994642,2.2040293040293037,0.19904761904761903,2.008205128205128
4.620042391994502,2.2040293040293037,0.19904761904761903,2.008205128205128
4.626673410995863,2.2040293040293037,0.19904761904761903,2.008205128205128
4.630963922994852,2.2040293040293037,0.19904761904761903,2.008205128205128
4.63186073799443,2.2040293040293037,0.19904761904761903,2.008205128205128
4.633513159998984,2.2040293040293037,0.19904761904761903,2.008205128205128
4.636648840998532,1.5263003663003663,0.38278388278388276,1.6028571428571428
4.639095881000685,1.5263003663003663,0.38278388278388276,1.6028571428571428
4.647735301994544,1.5263003663003663,0.38278388278388276,1.6028571428571428
4.652188681997359,0.24095238095238095,0.02901098901098901,0.5318681318681319
4.6537060139962705,2.0468864468864467,0.20227106227106226,1.7148717948717949
4.65858162099903,2.0468864468864467,0.20227106227106226,1.7148717948717949
4.664576807997946,2.0468864468864467,0.20227106227106226,1.7148717948717949
4.669005888994434,0.04271062271062271,0.07655677655677656,0.3811721611721612
4.669837037996331,0.04271062271062271,0.07655677655677656,0.3811721611721612
4.671386659996642,0.04271062271062271,0.07655677655677656,0.3811721611721612
4.679026528996474,0.04271062271062271,0.07655677655677656,0.3811721611721612
4.682255121995695,0.04271062271062271,0.07655677655677656,0.3811721611721612
4.68316227899777,0.04271062271062271,0.07655677655677656,0.3811721611721612
4.684856736996153,0.04271062271062271,0.07655677655677656,0.3811721611721612
4.688515981993987,0.04271062271062271,0.07655677655677656,0.3811721611721612
4.698251744994195,0.04271062271062271,0.07655677655677656,0.3811721611721612
4.703908335999586,0.04271062271062271,0.07655677655677656,0.3811721611721612
4.704080040995905,0.04271062271062271,0.07655677655677656,0.3811721611721612
4.711931361998722,0.04271062271062271,0.07655677655677656,0.3811721611721612
4.715821480996965,0.04271062271062271,0.07655677655677656,0.3811721611721612
4.720180965996406,0.04271062271062271,0.07655677655677656,0.3811721611721612
4.721418042994628,0.04271062271062271,0.07655677655677656,0.3811721611721612
4.721571951995429,0.04271062271062271,0.07655677655677656,0.3811721611721612
4.728125618996273,0.04271062271062271,0.07655677655677656,0.3811721611721612
4.733721014999901,0.04271062271062271,0.07655677655677656,0.3811721611721612
4.739521051997144,1.0274725274725274,0.38278388278388276,1.1096703296703296
4.745797086994571,1.0274725274725274,0.38278388278388276,1.1096703296703296
4.749637516993971,1.0274725274725274,0.38278388278388276,1.1096703296703296
4.754126082996663,1.0274725274725274,0.38278388278388276,1.1096703296703296
4.754954288997396,1.0274725274725274,0.38278388278388276,1.1096703296703296
4.756589174998226,1.0274725274725274,0.38278388278388276,1.1096703296703296
4.762415345998306,1.7640293040293038,0.22725274725274724,1.759194139194139
4.762608339995495,1.7640293040293038,0.22725274725274724,1.759194139194139
4.769911026000045,0.008058608058608058,0.09106227106227105,0.42065934065934063
4.775337902996398,0.008058608058608058,0.09106227106227105,0.42065934065934063
4.775523255993903,0.008058608058608058,0.09106227106227105,0.42065934065934063
4.78195178599708,0.008058608058608058,0.09106227106227105,0.42065934065934063
4.7850155039996025,0.008058608058608058,0.09106227106227105,0.42065934065934063
4.787286512000719,0.008058608058608058,0.09106227106227105,0.42065934065934063
4.7875025649991585,0.008058608058608058,0.09106227106227105,0.42065934065934063
4.794989447000262,0.008058608058608058,0.09106227106227105,0.42065934065934063
4.799243454996031,0.008058608058608058,0.09106227106227105,0.42065934065934063
4.800828952997108,0.008058608058608058,0.09106227106227105,0.42065934065934063
4.805263844995352,0.008058608058608058,0.09106227106227105,0.42065934065934063
4.806143604997487,0.24256410256410255,0.02175824175824176,0.5608791208791208
4.8086987669958035,0.24256410256410255,0.02175824175824176,0.5608791208791208
4.815569490994676,0.24256410256410255,0.02175824175824176,0.5608791208791208
4.821784597996157,0.24256410256410255,0.02175824175824176,0.5608791208791208
4.827831811999204,0.523003663003663,0.3441025641025641,0.20146520146520144
4.832734367999365,0.523003663003663,0.3441025641025641,0.20146520146520144
4.835095239999646,0.523003663003663,0.3441025641025641,0.20146520146520144
4.835338150995085,0.523003663003663,0.3441025641025641,0.20146520146520144
4.840730010000698,0.523003663003663,0.3441025641025641,0.20146520146520144
4.844537434997619,0.9904029304029303,0.6712820512820512,0.4819047619047619
4.848506780996104,0.9904029304029303,0.6712820512820512,0.4819047619047619
4.851700361999974,0.9904029304029303,0.6712820512820512,0.4819047619047619
4.853318390996719,0.9904029304029303,0.6712820512820512,0.4819047619047619
4.857344633994217,0.9904029304029303,0.6712820512820512,0.4819047619047619
4.865403048999724,0.9904029304029303,0.6712820512820512,0.4819047619047619
4.871996984998987,0.03626373626373627,0.16278388278388278,0.1821245421245421
4.878694863997225,0.03626373626373627,0.16278388278388278,0.1821245421245421
4.885138072997506,1.162051282051282,0.08058608058608058,1.1161172161172161
4.889414680998016,1.162051282051282,0.08058608058608058,1.1161172161172161
4.889795963994402,1.162051282051282,0.08058608058608058,1.1161172161172161
4.898179541996797,1.162051282051282,0.08058608058608058,1.1161172161172161
4.903339260999928,1.162051282051282,0.08058608058608058,1.1161172161172161
4.90583053699811,0.0,0.1523076923076923,0.3771428571428571
4.91514586199628,0.0,0.1523076923076923,0.3771428571428571
4.919065256995964,3.3,0.3602197802197802,2.916410256410256
4.923007454999606,3.3,0.3602197802197802,2.916410256410256
4.929901352996239,3.3,0.3602197802197802,2.916410256410256
4.935052591994463,3.3,0.3602197802197802,2.916410256410256
4.938053871999728,0.5761904761904761,0.30864468864468864,0.21355311355311357
4.939793474994076,2.2556043956043954,0.2643223443223443,2.0783150183150183
4.9461587439946015,2.2556043956043954,0.2643223443223443,2.0783150183150183
4.951613230994553,2.2556043956043954,0.2643223443223443,2.0783150183150183
4.951747978993808,2.2556043956043954,0.2643223443223443,2.0783150183150183
4.9573808219938655,2.2556043956043954,0.2643223443223443,2.0783150183150183
4.957615294995776,2.2556043956043954,0.2643223443223443,2.0783150183150183
4.9666159999978845,2.2556043956043954,0.2643223443223443,2.0783150183150183
4.972770647000289,2.2556043956043954,0.2643223443223443,2.0783150183150183
4.978573922999203,2.2556043956043954,0.2643223443223443,2.0783150183150183
4.983510590995138,2.2556043956043954,0.2643223443223443,2.0783150183150183
4.986960613998235,2.2556043956043954,0.2643223443223443,2.0783150183150183
4.987231146995327,2.2556043956043954,0.2643223443223443,2.0783150183150183
4.992523911998433,3.3,0.4810989010989011,3.3
4.995503500998893,0.7994139194139194,0.3908424908424908,0.9372161172161171
4.997233436995884,0.7994139194139194,0.3908424908424908,0.9372161172161171
5.000442521995865,0.7994139194139194,0.3908424908424908,0.9372161172161171
5.001359896996291,0.7994139194139194,0.3908424908424908,0.9372161172161171
5.002974609997182,0.7994139194139194,0.3908424908424908,0.9372161172161171
5.007644524994248,0.7994139194139194,0.3908424908424908,0.9372161172161171
5.007996790998732,0.7994139194139194,0.3908424908424908,0.9372161172161171
5.015519035994657,0.7994139194139194,0.3908424908424908,0.9372161172161171
5.021763904995169,0.7994139194139194,0.3908424908424908,0.9372161172161171
5.029070296994178,1.0242490842490841,0.1813186813186813,0.9831501831501831
5.035458985999867,1.0242490842490841,0.1813186813186813,0.9831501831501831
5.041556516000128,1.311135531135531,0.5487912087912087,0.3489377289377289
5.04623225099931,1.311135531135531,0.5487912087912087,0.3489377289377289
5.046338369997102,1.311135531135531,0.5487912087912087,0.3489377289377289
5.051547049995861,1.311135531135531,0.5487912087912087,0.3489377289377289
5.054483403997438,1.311135531135531,0.5487912087912087,0.3489377289377289
5.057558446998883,1.9155311355311355,0.27318681318681315,1.9115018315018315
5.059875412996917,2.561831501831502,0.3046153846153846,2.3966300366300364
5.06006541899842,2.561831501831502,0.3046153846153846,2.3966300366300364
5.064645614998881,2.561831501831502,0.3046153846153846,2.3966300366300364
5.0649345019992325,0.0556043956043956,0.06205128205128205,0.423076923076923
5.070219127999735,0.0556043956043956,0.06205128205128205,0.423076923076923
5.072546293995401,3.0808058608058606,0.30139194139194136,2.7745787545787546
5.072888989998319,3.0808058608058606,0.30139194139194136,2.7745787545787546
5.0780572579969885,3.0808058608058606,0.30139194139194136,2.7745787545787546
5.08119734399952,3.0808058608058606,0.30139194139194136,2.7745787545787546
5.083646440994926,3.0808058608058606,0.30139194139194136,2.7745787545787546
5.08901488599804,3.0808058608058606,0.30139194139194136,2.7745787545787546
5.091495306995057,3.0808058608058606,0.30139194139194136,2.7745787545787546
5.0966640029946575,3.0808058608058606,0.30139194139194136,2.7745787545787546
5.101551376996213,3.0808058608058606,0.30139194139194136,2.7745787545787546
5.108654027993907,3.0808058608058606,0.30139194139194136,2.7745787545787546
5.114791062995209,3.3,0.6487179487179486,3.3
5.118137783996644,2.02996336996337,0.19340659340659339,1.8051282051282052
5.118958547995135,2.02996336996337,0.19340659340659339,1.8051282051282052
5.120514746995468,2.013846153846154,0.19824175824175824,1.8567032967032966
5.127639588994498,2.013846153846154,0.19824175824175824,1.8567032967032966
5.13092076999601,0.06446886446886446,0.06446886446886446,0.4561172161172161
5.132565968997369,3.0485714285714285,0.3102564102564102,2.8124542124542122
5.136350973996741,3.0485714285714285,0.3102564102564102,2.8124542124542122
5.143382253998425,3.0485714285714285,0.3102564102564102,2.8124542124542122
5.14788253900042,0.0,0.13216117216117215,0.3706959706959707
5.148748870000418,0.42630036630036633,0.02901098901098901,0.6882051282051282
5.150379785998666,3.3,0.3876190476190476,3.075970695970696
5.154176619995269,2.002564102564102,0.24175824175824176,1.6375091575091574
5.154287306999322,1.7906227106227104,0.4045421245421245,2.003369963369963
5.159465666998585,1.7906227106227104,0.4045421245421245,2.003369963369963
5.162488417998247,1.7906227106227104,0.4045421245421245,2.003369963369963
5.164787687994249,1.7906227106227104,0.4045421245421245,2.003369963369963
5.165581690998806,0.0,0.11523809523809524,0.26593406593406593
5.167142706995946,1.207179487179487,0.2643223443223443,1.2023443223443222
5.1709478109987685,1.207179487179487,0.2643223443223443,1.2023443223443222
5.17660715799866,1.207179487179487,0.2643223443223443,1.2023443223443222
5.176974156995129,1.506153846153846,0.2175824175824176,1.6205860805860803
5.185335874994053,1.506153846153846,0.2175824175824176,1.6205860805860803
5.192078713997034,1.506153846153846,0.2175824175824176,1.6205860805860803
5.196999274994596,1.506153846153846,0.2175824175824176,1.6205860805860803
5.203667443995073,1.506153846153846,0.2175824175824176,1.6205860805860803
5.207499889998871,0.2224175824175824,0.025787545787545788,0.5915018315018314
5.21289809699374,0.2224175824175824,0.025787545787545788,0.5915018315018314
5.213225479994435,0.2224175824175824,0.025787545787545788,0.5915018315018314
5.221577295997122,0.2224175824175824,0.025787545787545788,0.5915018315018314
5.227695539993874,0.01934065934065934,0.15472527472527473,0.2191941391941392
5.233106702995428,3.3,0.6583882783882784,3.3
5.233433171000797,3.3,0.6583882783882784,3.3
5.242253559998062,3.3,0.6583882783882784,3.3
5.2485790549981175,1.9638827838827837,0.30058608058608055,2.0976556776556774
5.25443262099725,0.09347985347985348,0.03223443223443223,0.4448351648351648
5.2620801929951995,0.09347985347985348,0.03223443223443223,0.4448351648351648
5.2693992239946965,0.09347985347985348,0.03223443223443223,0.4448351648351648
5.2735536670006695,0.1652014652014652,0.024175824175824173,0.5616849816849817
5.275972188996093,0.1652014652014652,0.024175824175824173,0.5616849816849817
5.285343039999134,1.6205860805860803,0.2063003663003663,1.701978021978022
5.2935303389967885,2.265274725274725,0.22725274725274724,2.141978021978022
5.300900901995192,0.2643223443223443,0.3642490842490842,0.28527472527472525
5.305565553993802,0.2643223443223443,0.3642490842490842,0.28527472527472525
5.314619786993717,0.2643223443223443,0.3642490842490842,0.28527472527472525
5.318471299993689,2.872893772893773,0.24417582417582417,2.6883516483516483
5.322293084995181,1.6592673992673992,0.1087912087912088,1.7213186813186814
5.327705166993837,0.9734798534798534,0.19824175824175824,1.2095970695970695
5.331489231997693,0.9734798534798534,0.19824175824175824,1.2095970695970695
5.336985403999279,0.9734798534798534,0.19824175824175824,1.2095970695970695
5.33718544599833,1.4062271062271061,0.16842490842490843,1.548058608058608
5.34170570999413,1.4062271062271061,0.16842490842490843,1.548058608058608
5.342607566999504,1.0838827838827838,0.73010989010989,0.469010989010989
5.344153006997658,1.0838827838827838,0.73010989010989,0.469010989010989
5.3485403249942465,1.0838827838827838,0.73010989010989,0.469010989010989
5.349424833999365,1.0838827838827838,0.73010989010989,0.469010989010989
5.351030781996087,1.0838827838827838,0.73010989010989,0.469010989010989
5.355481866994523,1.0838827838827838,0.73010989010989,0.469010989010989
5.357036342997162,2.2846153846153845,0.3658608058608058,2.425641025641026
5.36133282299852,2.2846153846153845,0.3658608058608058,2.425641025641026
5.362898237995978,2.2846153846153845,0.3658608058608058,2.425641025641026
5.369809598996653,2.2846153846153845,0.3658608058608058,2.425641025641026
5.375532332996954,2.2846153846153845,0.3658608058608058,2.425641025641026
5.3863220879939036,2.2846153846153845,0.3658608058608058,2.425641025641026
5.395664988995122,2.2846153846153845,0.3658608058608058,2.425641025641026
5.400006456999108,0.4867399267399267,0.42630036630036633,0.5769963369963369
5.401861474994803,0.4867399267399267,0.42630036630036633,0.5769963369963369
5.404454300994985,0.4867399267399267,0.42630036630036633,0.5769963369963369
5.412076447995787,0.4867399267399267,0.42630036630036633,0.5769963369963369
5.415639591999934,0.4867399267399267,0.42630036630036633,0.5769963369963369
5.4159123549979995,0.4867399267399267,0.42630036630036633,0.5769963369963369
5.420756096995319,0.4867399267399267,0.42630036630036633,0.5769963369963369
5.429305215999193,2.1911355311355307,0.2949450549450549,2.125054945054945
5.434354904995416,2.1911355311355307,0.2949450549450549,2.125054945054945
5.437621722994663,1.1644688644688646,0.419047619047619,1.299047619047619
5.4385175479983445,1.1644688644688646,0.419047619047619,1.299047619047619
5.4395119859982515,1.1644688644688646,0.419047619047619,1.299047619047619
5.442109591996996,1.1644688644688646,0.419047619047619,1.299047619047619
5.447785542994097,1.1644688644688646,0.419047619047619,1.299047619047619
5.454729316996236,1.1644688644688646,0.419047619047619,1.299047619047619
5.460163070994895,1.1644688644688646,0.419047619047619,1.299047619047619
5.4621475789972465,0.925128205128205,0.5898901098901098,0.6213186813186813
5.463356590997137,0.925128205128205,0.5898901098901098,0.6213186813186813
5.463545644997794,0.925128205128205,0.5898901098901098,0.6213186813186813
5.468444250000175,0.05963369963369963,0.08864468864468865,0.4859340659340659
5.476439827994909,0.05963369963369963,0.08864468864468865,0.4859340659340659
5.480584407996503,0.05963369963369963,0.08864468864468865,0.4859340659340659
5.48217047000071,2.597289377289377,0.31186813186813184,2.4095238095238094
5.488359142000263,2.597289377289377,0.31186813186813184,2.4095238095238094
5.492184049995558,2.597289377289377,0.31186813186813184,2.4095238095238094
5.497580561997893,2.6585347985347987,0.22725274725274724,2.3998534798534794
5.499398822998046,2.6585347985347987,0.22725274725274724,2.3998534798534794
5.501720013999147,2.6585347985347987,0.22725274725274724,2.3998534798534794
5.501951742000529,2.6585347985347987,0.22725274725274724,2.3998534798534794
5.50655079200078,2.6585347985347987,0.22725274725274724,2.3998534798534794
5.506784436998714,2.6585347985347987,0.22725274725274724,2.3998534798534794
5.513224030000856,2.6585347985347987,0.22725274725274724,2.3998534798534794
5.517022859996359,2.0589743589743588,0.713992673992674,0.9662271062271062
5.5224368709968985,2.0589743589743588,0.713992673992674,0.9662271062271062
5.5242455289990176,1.494065934065934,0.09347985347985348,1.3328937728937729
5.529280564995133,1.494065934065934,0.09347985347985348,1.3328937728937729
5.532193902996369,1.494065934065934,0.09347985347985348,1.3328937728937729
5.535409821997746,1.494065934065934,0.09347985347985348,1.3328937728937729
5.535704904999875,1.494065934065934,0.09347985347985348,1.3328937728937729
5.541177721999702,1.494065934065934,0.09347985347985348,1.3328937728937729
5.544203040997672,2.1846886446886447,0.22644688644688646,1.9332600732600733
5.545116577995941,2.1846886446886447,0.22644688644688646,1.9332600732600733
5.546040537999943,2.1846886446886447,0.22644688644688646,1.9332600732600733
5.547773845995835,2.1846886446886447,0.22644688644688646,1.9332600732600733
5.550836246999097,2.1846886446886447,0.22644688644688646,1.9332600732600733
5.553185732998827,2.1846886446886447,0.22644688644688646,1.9332600732600733
5.55336169799557,2.1846886446886447,0.22644688644688646,1.9332600732600733
5.5596426779957255,2.1846886446886447,0.22644688644688646,1.9332600732600733
5.563317306994577,1.3852747252747253,0.17567765567765567,1.3538461538461537
5.567910612997366,1.3852747252747253,0.17567765567765567,1.3538461538461537
5.568142699994496,3.2935531135531133,0.6253479853479853,2.722197802197802
5.572725462996459,3.2935531135531133,0.6253479853479853,2.722197802197802
5.573823314996844,1.0524542124542122,0.5262271062271061,0.30945054945054945
5.574091734000831,1.0524542124542122,0.5262271062271061,0.30945054945054945
5.581189620999794,1.0524542124542122,0.5262271062271061,0.30945054945054945
5.585164386997349,1.0524542124542122,0.5262271062271061,0.30945054945054945
5.589159637995181,1.0524542124542122,0.5262271062271061,0.30945054945054945
5.594519915997807,2.6166300366300366,0.20227106227106226,2.2056410256410253
5.594970472993737,2.6166300366300366,0.20227106227106226,2.2056410256410253
5.603170222995686,2.6166300366300366,0.20227106227106226,2.2056410256410253
5.61150973799522,2.6166300366300366,0.20227106227106226,2.2056410256410253
5.616148425993742,3.3,0.6583882783882784,3.3
5.621625857995241,1.7624175824175823,0.24095238095238095,1.6358974358974359
5.623271343996748,0.9992673992673992,0.6696703296703297,0.38036630036630037
5.630713463993743,0.9992673992673992,0.6696703296703297,0.38036630036630037
5.636911647998204,0.9992673992673992,0.6696703296703297,0.38036630036630037
5.642583115994057,0.9992673992673992,0.6696703296703297,0.38036630036630037
5.653067909996025,0.46739926739926735,0.3384615384615384,0.17406593406593407
5.663043429995014,0.46739926739926735,0.3384615384615384,0.17406593406593407
5.670571395996376,1.0935531135531134,0.7687912087912088,0.3755311355311355
5.679311559993948,1.2692307692307692,0.5802197802197803,0.3263736263736263
5.68698910799867,1.6012454212454212,0.40534798534798533,1.5649816849816849
5.692124814995623,1.6012454212454212,0.40534798534798533,1.5649816849816849
5.695812814999954,1.6012454212454212,0.40534798534798533,1.5649816849816849
5.699823656999797,1.6012454212454212,0.40534798534798533,1.5649816849816849
5.704613670997787,1.6012454212454212,0.40534798534798533,1.5649816849816849
5.70473924199905,1.6012454212454212,0.40534798534798533,1.5649816849816849
5.712558232997253,1.6012454212454212,0.40534798534798533,1.5649816849816849
5.716424991995154,3.3,0.3739194139194139,2.8172893772893772
5.721108462996199,2.017069597069597,0.26915750915750913,1.7865934065934064
5.721287414999097,2.017069597069597,0.26915750915750913,1.7865934065934064
5.729972761000681,2.017069597069597,0.26915750915750913,1.7865934065934064
5.736600921998615,2.017069597069597,0.26915750915750913,1.7865934065934064
5.740621180993912,2.017069597069597,0.26915750915750913,1.7865934065934064
5.745900356996572,2.017069597069597,0.26915750915750913,1.7865934065934064
5.748508441996819,2.017069597069597,0.26915750915750913,1.7865934065934064
5.752418477997708,2.017069597069597,0.26915750915750913,1.7865934065934064
5.756318889994873,2.017069597069597,0.26915750915750913,1.7865934065934064
5.763898049997806,2.324102564102564,0.4254945054945055,2.282197802197802
5.768723234999925,0.017728937728937726,0.1668131868131868,0.2868864468864469
5.77472839699476,0.017728937728937726,0.1668131868131868,0.2868864468864469
5.781573988999298,0.017728937728937726,0.1668131868131868,0.2868864468864469
5.785605535995273,0.017728937728937726,0.1668131868131868,0.2868864468864469
5.788766711993958,0.08783882783882783,0.014505494505494505,0.46417582417582415
5.793358648996218,0.08783882783882783,0.014505494505494505,0.46417582417582415
5.799150776998431,0.6019780219780219,0.32395604395604394,0.17003663003663003
5.80444705899572,2.4199999999999995,0.3295970695970696,2.141978021978022
5.806764705994283,2.4199999999999995,0.3295970695970696,2.141978021978022
5.80790621900087,3.3,0.6197069597069597,3.017142857142857
5.808109644996875,3.3,0.6197069597069597,3.017142857142857
5.813388850998308,3.3,0.6197069597069597,3.017142857142857
5.815686096997524,2.7165567765567764,0.24578754578754577,2.2056410256410253
5.8159417399947415,2.7165567765567764,0.24578754578754577,2.2056410256410253
5.820610209993902,2.7165567765567764,0.24578754578754577,2.2056410256410253
5.8207373049954185,2.7165567765567764,0.24578754578754577,2.2056410256410253
5.8279316810003365,2.7165567765567764,0.24578754578754577,2.2056410256410253
5.831849661000888,2.7165567765567764,0.24578754578754577,2.2056410256410253
5.83563441199658,2.7165567765567764,0.24578754578754577,2.2056410256410253
5.840703538000525,2.7165567765567764,0.24578754578754577,2.2056410256410253
5.845994610994239,2.7165567765567764,0.24578754578754577,2.2056410256410253
5.8476223519974155,2.7165567765567764,0.24578754578754577,2.2056410256410253
5.8521390639944,2.7165567765567764,0.24578754578754577,2.2056410256410253
5.853912623999349,1.7624175824175823,0.718021978021978,0.7373626373626374
5.858397510994109,1.4739194139194138,0.381978021978022,1.5843223443223442
5.858821816997079,2.5989010989010985,0.3344322344322344,2.402271062271062
5.865379726994433,2.5989010989010985,0.3344322344322344,2.402271062271062
5.869128500999068,0.03626373626373627,0.045128205128205125,0.4899633699633699
5.875255482998909,0.03626373626373627,0.045128205128205125,0.4899633699633699
5.881791895997594,1.6447619047619046,0.39890109890109887,1.6592673992673992
5.885576795000816,1.6447619047619046,0.39890109890109887,1.6592673992673992
5.89009775500017,0.32073260073260074,0.026593406593406595,0.5866666666666667
5.8911589849958546,0.32073260073260074,0.026593406593406595,0.5866666666666667
5.891517201998795,0.32073260073260074,0.026593406593406595,0.5866666666666667
5.896209425998677,0.32073260073260074,0.026593406593406595,0.5866666666666667
5.901649043000361,0.32073260073260074,0.026593406593406595,0.5866666666666667
5.904003867995925,1.2063736263736262,0.11846153846153845,1.216043956043956
5.904245968995383,1.2063736263736262,0.11846153846153845,1.216043956043956
5.909628575995157,1.2063736263736262,0.11846153846153845,1.216043956043956
5.912620786999469,1.2063736263736262,0.11846153846153845,1.216043956043956
5.915502252995793,1.3401465201465201,0.6261538461538461,0.5076923076923077
5.917830389997107,2.328937728937729,0.3553846153846154,2.5304029304029303
5.918028276995756,2.328937728937729,0.3553846153846154,2.5304029304029303
5.923257725997246,2.328937728937729,0.3553846153846154,2.5304029304029303
5.928673054993851,2.328937728937729,0.3553846153846154,2.5304029304029303
5.928921930993965,3.3,0.6011721611721611,3.3
5.937882648999221,3.3,0.6011721611721611,3.3
5.945107977000589,3.3,0.6011721611721611,3.3
5.949135416994977,3.3,0.6011721611721611,3.3
5.952249103997019,2.9067399267399265,0.6213186813186813,2.344249084249084
5.953825456999766,2.9067399267399265,0.6213186813186813,2.344249084249084
5.957724620995577,2.9067399267399265,0.6213186813186813,2.344249084249084
5.963903238996863,2.9067399267399265,0.6213186813186813,2.344249084249084
5.968624291999731,2.9067399267399265,0.6213186813186813,2.344249084249084
5.977055496994581,2.9067399267399265,0.6213186813186813,2.344249084249084
5.982286632999603,2.9067399267399265,0.6213186813186813,2.344249084249084
5.985562293994008,2.9067399267399265,0.6213186813186813,2.344249084249084
5.985976987998583,2.9067399267399265,0.6213186813186813,2.344249084249084
5.995785941995564,2.9067399267399265,0.6213186813186813,2.344249084249084
6.002133219000825,2.9067399267399265,0.6213186813186813,2.344249084249084
6.00590234399715,2.9067399267399265,0.6213186813186813,2.344249084249084
6.015645485000277,2.9067399267399265,0.6213186813186813,2.344249084249084
6.0210603259984055,2.9067399267399265,0.6213186813186813,2.344249084249084
6.023351885000011,1.0516483516483515,0.7309157509157509,0.49721611721611714
6.0237160439937725,1.0516483516483515,0.7309157509157509,0.49721611721611714
6.032037790995673,1.0516483516483515,0.7309157509157509,0.49721611721611714
6.036608463000448,1.0516483516483515,0.7309157509157509,0.49721611721611714
6.037545413993939,1.0516483516483515,0.7309157509157509,0.49721611721611714
6.0392499879963,1.0516483516483515,0.7309157509157509,0.49721611721611714
6.04398319900065,1.0516483516483515,0.7309157509157509,0.49721611721611714
6.0489641329986625,1.0516483516483515,0.7309157509157509,0.49721611721611714
6.0538272880003206,1.0516483516483515,0.7309157509157509,0.49721611721611714
6.060217171994736,2.1637362637362636,0.8356776556776556,0.8026373626373626
6.064001719998487,1.481172161172161,0.17326007326007326,1.1096703296703296
6.068526082999597,1.481172161172161,0.17326007326007326,1.1096703296703296
6.068856462996337,1.481172161172161,0.17326007326007326,1.1096703296703296
6.073472803000186,1.481172161172161,0.17326007326007326,1.1096703296703296
6.0737330179981655,1.481172161172161,0.17326007326007326,1.1096703296703296
6.080154347000644,1.481172161172161,0.17326007326007326,1.1096703296703296
6.0839674739982,1.7189010989010989,0.195018315018315,1.7841758241758239
6.0883486149978125,1.7189010989010989,0.195018315018315,1.7841758241758239
6.089218273998995,1.7189010989010989,0.195018315018315,1.7841758241758239
6.092385895994084,1.7189010989010989,0.195018315018315,1.7841758241758239
6.093713533999107,1.7189010989010989,0.195018315018315,1.7841758241758239
6.099389930997859,1.7189010989010989,0.195018315018315,1.7841758241758239
6.099597777996678,1.7189010989010989,0.195018315018315,1.7841758241758239
6.105030409999017,1.7189010989010989,0.195018315018315,1.7841758241758239
6.106663522994495,0.2683516483516483,0.047545787545787546,0.5133333333333333
6.112104080995778,3.3,0.5665201465201465,2.8986813186813185
6.112377252000442,3.3,0.5665201465201465,2.8986813186813185
6.1178011809970485,3.3,0.5665201465201465,2.8986813186813185
6.119415754998045,3.3,0.5665201465201465,2.8986813186813185
6.123837314000411,3.3,0.5665201465201465,2.8986813186813185
6.124866818994633,3.3,0.5665201465201465,2.8986813186813185
6.125946014995861,3.3,0.5665201465201465,2.8986813186813185
6.126304619996517,3.3,0.5665201465201465,2.8986813186813185
6.131031412995071,3.3,0.5665201465201465,2.8986813186813185
6.131319726999209,3.129157509157509,0.15069597069597068,2.153260073260073
6.136518829000124,3.129157509157509,0.15069597069597068,2.153260073260073
