time,emg1,emg2,emg3
0.00710571000672644,1.9445421245421244,0.15069597069597068,1.2780952380952382
0.012611517006007489,1.9445421245421244,0.15069597069597068,1.2780952380952382
0.012871347003965639,1.9445421245421244,0.15069597069597068,1.2780952380952382
0.021587100003671367,0.6857875457875457,0.4029304029304029,0.3779487179487179
0.03007486900605727,0.6857875457875457,0.4029304029304029,0.3779487179487179
0.03937951500120107,1.4304029304029304,0.190989010989011,1.6512087912087912
0.04432775000168476,1.4304029304029304,0.190989010989011,1.6512087912087912
0.05198835600458551,3.3,0.17406593406593407,2.864029304029304
0.058574643000611104,1.569010989010989,0.20468864468864467,1.7317948717948717
0.0651393910011393,1.569010989010989,0.20468864468864467,1.7317948717948717
0.0719974280000315,1.913919413919414,0.4005128205128205,0.4383882783882784
0.07679393700527726,1.6947252747252746,0.0547985347985348,1.270842490842491
0.08209463800449157,1.6947252747252746,0.0547985347985348,1.270842490842491
0.08470912100165151,1.6947252747252746,0.0547985347985348,1.270842490842491
0.08982305500103394,1.6947252747252746,0.0547985347985348,1.270842490842491
0.09309670299990103,1.6947252747252746,0.0547985347985348,1.270842490842491
0.09403611800371436,1.6947252747252746,0.0547985347985348,1.270842490842491
0.0957741310048732,1.6947252747252746,0.0547985347985348,1.270842490842491
0.09902242100361036,1.6947252747252746,0.0547985347985348,1.270842490842491
0.10000483500334667,1.6947252747252746,0.0547985347985348,1.270842490842491
0.10096438700566068,1.6947252747252746,0.0547985347985348,1.270842490842491
0.10275228200043784,1.6947252747252746,0.0547985347985348,1.270842490842491
0.10594936100096675,1.6947252747252746,0.0547985347985348,1.270842490842491
0.10761143100535264,1.6947252747252746,0.0547985347985348,1.270842490842491
0.11146645900589647,1.58996336996337,0.12974358974358974,1.7583882783882783
0.11608099300065078,1.4715018315018316,0.020146520146520144,1.3014652014652013
0.11633894400438294,1.4715018315018316,0.020146520146520144,1.3014652014652013
0.12174404800316552,1.4715018315018316,0.020146520146520144,1.3014652014652013
0.12425929800519953,2.9389743589743587,0.083003663003663,2.3466666666666667
0.13378404400282307,2.9389743589743587,0.083003663003663,2.3466666666666667
0.1376908070014906,1.8526739926739926,0.016117216117216115,1.6197802197802196
0.14160293300665217,1.8526739926739926,0.016117216117216115,1.6197802197802196
0.14546197300660424,2.341025641025641,0.13216117216117215,1.7809523809523808
0.15008804000535747,2.341025641025641,0.13216117216117215,1.7809523809523808
0.1502570230004494,2.341025641025641,0.13216117216117215,1.7809523809523808
0.15501952400518348,2.341025641025641,0.13216117216117215,1.7809523809523808
0.1551510560020688,1.9703296703296702,0.03304029304029304,1.5617582417582416
0.16069573800632497,1.9703296703296702,0.03304029304029304,1.5617582417582416
0.16160986400063848,1.9703296703296702,0.03304029304029304,1.5617582417582416
0.1632531930008554,1.9703296703296702,0.03304029304029304,1.5617582417582416
0.1672002110062749,2.0388278388278387,0.3739194139194139,0.51010989010989
0.17201143500278704,2.0388278388278387,0.3739194139194139,0.51010989010989
0.17773026800568914,1.7865934065934064,0.0273992673992674,1.7559706959706958
0.17802873300388455,1.7865934065934064,0.0273992673992674,1.7559706959706958
0.18433058400114533,1.7865934065934064,0.0273992673992674,1.7559706959706958
0.18746623400511453,2.1871062271062267,0.16278388278388278,1.6447619047619046
0.19040987900370965,2.1871062271062267,0.16278388278388278,1.6447619047619046
0.19476770400069654,2.1871062271062267,0.16278388278388278,1.6447619047619046
0.1951506490004249,0.6793406593406592,0.25868131868131866,0.502051282051282
0.2041848810040392,0.6793406593406592,0.25868131868131866,0.502051282051282
0.21081197100284044,0.6793406593406592,0.25868131868131866,0.502051282051282
0.21631183200224768,1.5496703296703296,0.13619047619047617,1.7535531135531135
0.21664104600495193,1.5496703296703296,0.13619047619047617,1.7535531135531135
0.22240742800204316,1.5496703296703296,0.13619047619047617,1.7535531135531135
0.222695358999772,1.5496703296703296,0.13619047619047617,1.7535531135531135
0.22800064400507836,1.5496703296703296,0.13619047619047617,1.7535531135531135
0.23039922800671775,1.8123809523809524,0.12249084249084248,1.9735531135531135
0.23638341500191018,1.8123809523809524,0.12249084249084248,1.9735531135531135
0.2413225090058404,1.8123809523809524,0.12249084249084248,1.9735531135531135
0.24603376100276364,1.8123809523809524,0.12249084249084248,1.9735531135531135
0.24622413000179222,1.353040293040293,0.2208058608058608,1.5649816849816849
0.25098552300187293,1.353040293040293,0.2208058608058608,1.5649816849816849
0.2511329730041325,1.353040293040293,0.2208058608058608,1.5649816849816849
0.2569813750014873,1.9622710622710622,0.0410989010989011,1.5134065934065932
0.2626605770055903,0.0,0.05963369963369963,0.4166300366300366
0.2629877290019067,3.3,0.17648351648351646,2.8471062271062273
0.2677048450059374,3.3,0.17648351648351646,2.8471062271062273
0.26796470900444547,3.3,0.17648351648351646,2.8471062271062273
0.2742308490051073,3.3,0.17648351648351646,2.8471062271062273
0.2774905740006943,3.3,0.17648351648351646,2.8471062271062273
0.27921601500565885,3.3,0.17648351648351646,2.8471062271062273
0.28244463600276504,3.3,0.17648351648351646,2.8471062271062273
0.2834169350026059,2.929304029304029,0.07252747252747253,2.537655677655678
0.2845136600008118,2.929304029304029,0.07252747252747253,2.537655677655678
0.2866055280028377,2.929304029304029,0.07252747252747253,2.537655677655678
0.28684346800582716,2.929304029304029,0.07252747252747253,2.537655677655678
0.29276025800209027,2.929304029304029,0.07252747252747253,2.537655677655678
0.29775821300427197,2.929304029304029,0.07252747252747253,2.537655677655678
0.3038539360059076,2.929304029304029,0.07252747252747253,2.537655677655678
0.31063217800692655,2.929304029304029,0.07252747252747253,2.537655677655678
0.31484875900059706,2.929304029304029,0.07252747252747253,2.537655677655678
0.31735647200548556,2.929304029304029,0.07252747252747253,2.537655677655678
0.3252279440057464,2.929304029304029,0.07252747252747253,2.537655677655678
0.3302435260047787,2.02029304029304,0.23047619047619047,1.9243956043956043
0.3343373200041242,1.9783882783882782,0.010476190476190476,1.751135531135531
0.33865690200036624,1.9783882783882782,0.010476190476190476,1.751135531135531
0.3390161650022492,1.9783882783882782,0.010476190476190476,1.751135531135531
0.34455503200297244,1.9783882783882782,0.010476190476190476,1.751135531135531
0.3447950540066813,1.9783882783882782,0.010476190476190476,1.751135531135531
0.3497291690000566,1.9783882783882782,0.010476190476190476,1.751135531135531
0.35652681100327754,1.9783882783882782,0.010476190476190476,1.751135531135531
0.35994250700605335,0.2361172161172161,0.08945054945054945,0.26190476190476186
0.36029632400459377,0.2361172161172161,0.08945054945054945,0.26190476190476186
0.3652936100043007,0.2361172161172161,0.08945054945054945,0.26190476190476186
0.3702486399997724,0.759120879120879,0.3102564102564102,1.1709157509157508
0.37574333300290164,2.1556776556776556,0.012893772893772894,2.012234432234432
0.3766585230041528,2.1556776556776556,0.012893772893772894,2.012234432234432
0.3776333460045862,2.1556776556776556,0.012893772893772894,2.012234432234432
0.37858605900692055,2.1556776556776556,0.012893772893772894,2.012234432234432
0.37957624200498685,2.1556776556776556,0.012893772893772894,2.012234432234432
0.3805607050016988,2.1556776556776556,0.012893772893772894,2.012234432234432
0.38150029300595634,2.1556776556776556,0.012893772893772894,2.012234432234432
0.38318476700078463,2.1556776556776556,0.012893772893772894,2.012234432234432
0.390876894001849,2.1556776556776556,0.012893772893772894,2.012234432234432
0.39691746800235705,2.1556776556776556,0.012893772893772894,2.012234432234432
0.40341639400139684,2.1556776556776556,0.012893772893772894,2.012234432234432
0.40796916000545025,2.1556776556776556,0.012893772893772894,2.012234432234432
0.4130816010001581,2.1556776556776556,0.012893772893772894,2.012234432234432
0.4180144760030089,2.1556776556776556,0.012893772893772894,2.012234432234432
0.42663948600238655,2.1556776556776556,0.012893772893772894,2.012234432234432
0.4325216010038275,3.248424908424908,0.1789010989010989,2.9027106227106225
0.4326356840028893,3.248424908424908,0.1789010989010989,2.9027106227106225
0.4399457230028929,3.248424908424908,0.1789010989010989,2.9027106227106225
0.445436926005641,3.248424908424908,0.1789010989010989,2.9027106227106225
0.4456875690011657,2.8873992673992674,0.08542124542124542,2.398241758241758
0.4508542940020561,2.8873992673992674,0.08542124542124542,2.398241758241758
0.45815983500506263,2.8873992673992674,0.08542124542124542,2.398241758241758
0.4616047100062133,2.8873992673992674,0.08542124542124542,2.398241758241758
0.4618107120040804,2.8873992673992674,0.08542124542124542,2.398241758241758
0.46674988599988865,2.8873992673992674,0.08542124542124542,2.398241758241758
0.4763742880022619,2.8873992673992674,0.08542124542124542,2.398241758241758
0.4843143100006273,2.8873992673992674,0.08542124542124542,2.398241758241758
0.49192632400081493,2.8873992673992674,0.08542124542124542,2.398241758241758
0.4981556630009436,1.3723809523809525,0.2063003663003663,1.6729670329670328
0.5044956970014027,1.3723809523809525,0.2063003663003663,1.6729670329670328
0.5095401300059166,1.3723809523809525,0.2063003663003663,1.6729670329670328
0.5113577430020086,1.3723809523809525,0.2063003663003663,1.6729670329670328
0.513927757005149,1.3723809523809525,0.2063003663003663,1.6729670329670328
0.5189661390031688,1.3723809523809525,0.2063003663003663,1.6729670329670328
0.5248348520035506,1.3723809523809525,0.2063003663003663,1.6729670329670328
0.5282158660047571,1.3723809523809525,0.2063003663003663,1.6729670329670328
0.5284951970024849,1.3723809523809525,0.2063003663003663,1.6729670329670328
0.5343919120059581,1.3723809523809525,0.2063003663003663,1.6729670329670328
0.5345943900028942,1.3723809523809525,0.2063003663003663,1.6729670329670328
0.5448226959997555,1.3723809523809525,0.2063003663003663,1.6729670329670328
0.5550393240046105,0.0709157509157509,0.025787545787545788,0.502051282051282
0.5586843120036065,0.0709157509157509,0.025787545787545788,0.502051282051282
0.5666634990047896,0.0,0.03948717948717949,0.5544322344322344
0.5769462020034553,0.0,0.03948717948717949,0.5544322344322344
0.5876279740041355,1.531941391941392,0.06124542124542124,1.0726007326007325
0.6005086120057967,1.531941391941392,0.06124542124542124,1.0726007326007325
0.610498763002397,1.531941391941392,0.06124542124542124,1.0726007326007325
0.6238355490058893,1.531941391941392,0.06124542124542124,1.0726007326007325
0.6325022910023108,1.531941391941392,0.06124542124542124,1.0726007326007325
0.6423064960035845,1.834945054945055,0.018534798534798533,1.7906227106227104
0.6471539810008835,1.834945054945055,0.018534798534798533,1.7906227106227104
0.6539665500022238,1.622197802197802,0.11926739926739927,1.779340659340659
0.659095826005796,1.9638827838827837,0.047545787545787546,1.5770695970695972
0.662420477005071,1.9638827838827837,0.047545787545787546,1.5770695970695972
0.6710796460029087,1.9638827838827837,0.047545787545787546,1.5770695970695972
0.6777289790043142,1.9638827838827837,0.047545787545787546,1.5770695970695972
0.6812392420033575,1.9638827838827837,0.047545787545787546,1.5770695970695972
0.681413906000671,3.1130402930402927,0.07736263736263736,2.5787545787545785
0.6898526290024165,3.1130402930402927,0.07736263736263736,2.5787545787545785
0.6962027500048862,1.838168498168498,0.12087912087912088,1.9356776556776556
0.7027514430010342,1.9808058608058605,0.03626373626373627,1.5448351648351648
0.7076052050033468,2.803589743589743,0.10798534798534798,2.0887912087912084
0.717182385000342,1.8704029304029302,0.05399267399267399,1.80029304029304
0.7260028150049038,1.7704761904761903,0.0693040293040293,1.2192673992673992
0.7308883940058877,1.7704761904761903,0.0693040293040293,1.2192673992673992
0.7373823820016696,1.7704761904761903,0.0693040293040293,1.2192673992673992
0.7415695900053834,1.7704761904761903,0.0693040293040293,1.2192673992673992
0.7432465020028758,1.7704761904761903,0.0693040293040293,1.2192673992673992
0.7465812850059592,1.7704761904761903,0.0693040293040293,1.2192673992673992
0.747486234002281,1.7704761904761903,0.0693040293040293,1.2192673992673992
0.7491629690048285,1.7704761904761903,0.0693040293040293,1.2192673992673992
0.7534932300040964,1.7704761904761903,0.0693040293040293,1.2192673992673992
0.7550707960035652,1.7704761904761903,0.0693040293040293,1.2192673992673992
0.7608830390017829,1.7704761904761903,0.0693040293040293,1.2192673992673992
0.7657488060067408,1.7704761904761903,0.0693040293040293,1.2192673992673992
0.7746073290036293,1.7704761904761903,0.0693040293040293,1.2192673992673992
0.782115303001774,1.61010989010989,0.1805128205128205,1.797069597069597
0.7885193090041867,2.1589010989010986,0.21516483516483517,1.398168498168498
0.7923993410004186,2.1589010989010986,0.21516483516483517,1.398168498168498
0.7983075820011436,1.8575091575091573,0.010476190476190476,1.5625641025641024
0.8057345140041434,0.2651282051282051,0.016117216117216115,0.6277655677655677
0.8100581220060121,1.959047619047619,0.21355311355311357,1.8051282051282052
0.8113433940015966,1.959047619047619,0.21355311355311357,1.8051282051282052
0.8170284280058695,1.959047619047619,0.21355311355311357,1.8051282051282052
0.8179344260061043,0.05802197802197802,0.06446886446886446,0.3626373626373626
0.8207059150008718,0.05802197802197802,0.06446886446886446,0.3626373626373626
0.8233945250030956,0.05802197802197802,0.06446886446886446,0.3626373626373626
0.8275023330061231,0.05802197802197802,0.06446886446886446,0.3626373626373626
0.8309739100004663,0.05802197802197802,0.06446886446886446,0.3626373626373626
0.8384711570033687,0.05802197802197802,0.06446886446886446,0.3626373626373626
0.8425048380013322,0.0,0.0,0.523003663003663
0.84574130600231,0.0,0.0,0.523003663003663
0.846736386003613,0.0,0.0,0.523003663003663
0.8483951350062853,0.0,0.0,0.523003663003663
0.8516971140052192,1.8534798534798533,0.14263736263736262,1.8276923076923077
0.8537304650017177,2.0968498168498164,0.026593406593406595,1.5053479853479852
0.8555288240022492,1.9397069597069596,0.051575091575091575,1.3328937728937729
0.8576493450018461,1.9397069597069596,0.051575091575091575,1.3328937728937729
0.8585418400034541,1.9397069597069596,0.051575091575091575,1.3328937728937729
0.8595099400045001,1.9397069597069596,0.051575091575091575,1.3328937728937729
0.8611935700027971,1.9397069597069596,0.051575091575091575,1.3328937728937729
0.8644677740012412,1.9397069597069596,0.051575091575091575,1.3328937728937729
0.8654481080011465,1.9397069597069596,0.051575091575091575,1.3328937728937729
0.8664169550029328,1.9397069597069596,0.051575091575091575,1.3328937728937729
0.8682383850027691,1.4594139194139193,0.2868864468864469,1.6415384615384614
0.872914709005272,1.85025641025641,0.18615384615384614,1.8357509157509158
0.8793533650023164,1.85025641025641,0.18615384615384614,1.8357509157509158
0.8833213680045446,1.85025641025641,0.18615384615384614,1.8357509157509158
0.8890415990026668,1.9364835164835164,0.25223443223443226,0.689010989010989
0.8957324540024274,1.6947252747252746,0.03142857142857143,1.4078388278388276
0.8997935260049417,1.6947252747252746,0.03142857142857143,1.4078388278388276
0.9059423940052511,1.6947252747252746,0.03142857142857143,1.4078388278388276
0.9096828040055698,1.6947252747252746,0.03142857142857143,1.4078388278388276
0.9152358330029529,1.6947252747252746,0.03142857142857143,1.4078388278388276
0.9160843820063747,0.7204395604395604,0.2796336996336996,0.28205128205128205
0.9178137609997066,0.7204395604395604,0.2796336996336996,0.28205128205128205
0.9225090280015138,0.7204395604395604,0.2796336996336996,0.28205128205128205
0.9274546000015107,0.7204395604395604,0.2796336996336996,0.28205128205128205
0.9332248710052227,0.7204395604395604,0.2796336996336996,0.28205128205128205
0.9399749740041443,0.7204395604395604,0.2796336996336996,0.28205128205128205
0.9433368690006319,0.7204395604395604,0.2796336996336996,0.28205128205128205
0.943677736002428,0.7204395604395604,0.2796336996336996,0.28205128205128205
0.9491974390039104,0.7204395604395604,0.2796336996336996,0.28205128205128205
0.9500834070058772,0.7204395604395604,0.2796336996336996,0.28205128205128205
0.9517604480060982,0.7204395604395604,0.2796336996336996,0.28205128205128205
0.9568262840039097,0.7204395604395604,0.2796336996336996,0.28205128205128205
0.9609139770036563,0.7204395604395604,0.2796336996336996,0.28205128205128205
0.9640754830033984,0.7204395604395604,0.2796336996336996,0.28205128205128205
0.965789288005908,0.7204395604395604,0.2796336996336996,0.28205128205128205
0.972187618004682,0.7986080586080586,0.4037362637362637,1.008131868131868
0.9780288030015072,0.7986080586080586,0.4037362637362637,1.008131868131868
0.9833876700067776,0.7986080586080586,0.4037362637362637,1.008131868131868
0.9842623210060992,0.7986080586080586,0.4037362637362637,1.008131868131868
0.9869435830041766,0.7986080586080586,0.4037362637362637,1.008131868131868
0.991003435003222,0.7986080586080586,0.4037362637362637,1.008131868131868
0.993034979001095,0.7986080586080586,0.4037362637362637,1.008131868131868
0.9939604160026647,0.7986080586080586,0.4037362637362637,1.008131868131868
0.9956331190041965,0.7986080586080586,0.4037362637362637,1.008131868131868
0.9996493190046749,0.7986080586080586,0.4037362637362637,1.008131868131868
1.0048653120029485,0.7986080586080586,0.4037362637362637,1.008131868131868
1.0076762390017393,2.0944322344322344,0.14586080586080585,1.340952380952381
1.011649195002974,2.0944322344322344,0.14586080586080585,1.340952380952381
1.0148138950025896,1.995311355311355,0.083003663003663,1.8558974358974358
1.01725683100085,1.995311355311355,0.083003663003663,1.8558974358974358
1.01737719400262,1.995311355311355,0.083003663003663,1.8558974358974358
1.0247752770010266,1.995311355311355,0.083003663003663,1.8558974358974358
1.0291481240055873,1.995311355311355,0.083003663003663,1.8558974358974358
1.0301285440000356,1.843003663003663,0.1652014652014652,1.8986080586080583
1.0318007950045285,1.843003663003663,0.1652014652014652,1.8986080586080583
1.0368724950021715,2.207252747252747,0.02336996336996337,1.6778021978021975
1.0409357759999693,0.0,0.06608058608058608,0.5834432234432234
1.0425850950050517,0.0,0.06608058608058608,0.5834432234432234
1.045881427002314,0.0,0.06608058608058608,0.5834432234432234
1.0475073020061245,0.0,0.06608058608058608,0.5834432234432234
1.054492723000294,0.0,0.06608058608058608,0.5834432234432234
1.0587594440003159,0.0,0.06608058608058608,0.5834432234432234
1.059642079002515,0.0024175824175824176,0.09509157509157509,0.5125274725274725
1.0605919420049759,0.0024175824175824176,0.09509157509157509,0.5125274725274725
1.0623369170061778,0.0024175824175824176,0.09509157509157509,0.5125274725274725
1.0654512780020013,3.2677655677655677,0.10798534798534798,2.5094505494505492
1.0679976790052024,3.2677655677655677,0.10798534798534798,2.5094505494505492
1.0754283470014343,2.1798534798534797,0.2208058608058608,1.9969230769230766
1.0804901670053368,1.8808791208791207,0.06446886446886446,1.3965567765567766
1.0853193380025914,1.8808791208791207,0.06446886446886446,1.3965567765567766
1.0904684080014704,1.8808791208791207,0.06446886446886446,1.3965567765567766
1.0943244990048697,1.8808791208791207,0.06446886446886446,1.3965567765567766
1.0990851020033006,1.8808791208791207,0.06446886446886446,1.3965567765567766
1.1054188950001844,1.8808791208791207,0.06446886446886446,1.3965567765567766
1.1117130540005746,1.8808791208791207,0.06446886446886446,1.3965567765567766
1.1165841760011972,1.8252747252747252,0.07333333333333333,1.8373626373626373
1.1219762190012261,1.3296703296703296,0.7325274725274724,0.3843956043956044
1.1230161359999329,3.3,0.2369230769230769,3.154945054945055
1.123291160001827,3.3,0.2369230769230769,3.154945054945055
1.1283618970046518,3.3,0.2369230769230769,3.154945054945055
1.1329791730022407,3.3,0.2369230769230769,3.154945054945055
1.1332605839997996,3.3,0.2369230769230769,3.154945054945055
1.138283558000694,3.3,0.2369230769230769,3.154945054945055
1.1385079000028782,3.3,0.2369230769230769,3.154945054945055
1.1462445890065283,3.3,0.2369230769230769,3.154945054945055
1.1510492200031877,3.3,0.2369230769230769,3.154945054945055
1.160233041002357,2.083150183150183,0.007252747252747252,1.8397802197802198
1.1658605800039368,0.26673992673992675,0.10798534798534798,0.33926739926739924
1.1667819740032428,0.26673992673992675,0.10798534798534798,0.33926739926739924
1.1698466260058922,0.26673992673992675,0.10798534798534798,0.33926739926739924
1.1723069830040913,0.26673992673992675,0.10798534798534798,0.33926739926739924
1.1769929550064262,1.7543589743589743,0.025787545787545788,1.4062271062271061
1.1772602840064792,1.7543589743589743,0.025787545787545788,1.4062271062271061
1.1819378060026793,1.7543589743589743,0.025787545787545788,1.4062271062271061
1.1821159810060635,1.7543589743589743,0.025787545787545788,1.4062271062271061
1.1870945660048164,1.7543589743589743,0.025787545787545788,1.4062271062271061
1.1917292110010749,1.7398534798534797,0.5697435897435897,0.3908424908424908
1.1918649220024236,2.125860805860806,0.016117216117216115,1.797069597069597
1.1967938230009167,2.125860805860806,0.016117216117216115,1.797069597069597
1.2009202480039676,0.788937728937729,0.2756043956043956,0.6728937728937728
1.2042718370066723,0.788937728937729,0.2756043956043956,0.6728937728937728
1.204478891006147,0.788937728937729,0.2756043956043956,0.6728937728937728
1.21047582400206,0.788937728937729,0.2756043956043956,0.6728937728937728
1.2162864880010602,0.788937728937729,0.2756043956043956,0.6728937728937728
1.2219680980051635,0.788937728937729,0.2756043956043956,0.6728937728937728
1.2228672110068146,3.032454212454212,0.10556776556776555,2.237875457875458
1.2245496610048576,3.032454212454212,0.10556776556776555,2.237875457875458
1.228370842000004,3.032454212454212,0.10556776556776555,2.237875457875458
1.2322974460039404,3.032454212454212,0.10556776556776555,2.237875457875458
1.236882916004106,3.032454212454212,0.10556776556776555,2.237875457875458
1.2377550820019678,3.032454212454212,0.10556776556776555,2.237875457875458
1.2394092780014034,3.032454212454212,0.10556776556776555,2.237875457875458
1.2425148070033174,3.032454212454212,0.10556776556776555,2.237875457875458
1.2448306300066179,3.032454212454212,0.10556776556776555,2.237875457875458
1.245106336005847,3.032454212454212,0.10556776556776555,2.237875457875458
1.2497279690069263,3.032454212454212,0.10556776556776555,2.237875457875458
1.2500380850033252,3.032454212454212,0.10556776556776555,2.237875457875458
1.2550237550021848,3.032454212454212,0.10556776556776555,2.237875457875458
1.2599026110037812,1.244249084249084,0.6583882783882784,0.34087912087912087
1.2644388930057175,0.005641025641025641,0.06366300366300366,0.5657142857142857
1.2647175050005899,0.005641025641025641,0.06366300366300366,0.5657142857142857
1.2700737160048448,0.005641025641025641,0.06366300366300366,0.5657142857142857
1.2718595440019271,1.552087912087912,0.2594871794871795,1.735018315018315
1.2751090710007702,1.552087912087912,0.2594871794871795,1.735018315018315
1.2759879700024612,1.552087912087912,0.2594871794871795,1.735018315018315
1.2776306610030588,1.552087912087912,0.2594871794871795,1.735018315018315
1.281758641001943,0.025787545787545788,0.06446886446886446,0.32073260073260074
1.2842168730057892,3.0147252747252744,0.08542124542124542,2.154065934065934
1.2897311930064461,3.0147252747252744,0.08542124542124542,2.154065934065934
1.2906372640063637,1.8558974358974358,0.0547985347985348,1.6673260073260072
1.2922730890059029,1.8695970695970694,0.02336996336996337,1.5246886446886447
1.2953761410026345,1.4384615384615385,0.14102564102564102,0.913040293040293
1.2970813060019282,0.28769230769230764,0.11443223443223444,0.381978021978022
1.301022700004978,0.28769230769230764,0.11443223443223444,0.381978021978022
1.3059122250051587,3.3,0.2482051282051282,3.043736263736264
1.3097307050047675,3.3,0.2482051282051282,3.043736263736264
1.3142524160066387,2.194358974358974,0.1265201465201465,2.0186813186813186
1.314522600005148,2.194358974358974,0.1265201465201465,2.0186813186813186
1.3202564849998453,2.194358974358974,0.1265201465201465,2.0186813186813186
1.320391451001342,2.194358974358974,0.1265201465201465,2.0186813186813186
1.3260357390026911,2.194358974358974,0.1265201465201465,2.0186813186813186
1.326286366005661,2.194358974358974,0.1265201465201465,2.0186813186813186
1.330936885002302,2.194358974358974,0.1265201465201465,2.0186813186813186
1.3318092100016656,2.194358974358974,0.1265201465201465,2.0186813186813186
1.3334297460023663,2.194358974358974,0.1265201465201465,2.0186813186813186
1.3366304770024726,2.194358974358974,0.1265201465201465,2.0186813186813186
1.3382410890044412,0.0,0.06366300366300366,0.5673260073260072
1.3420648390019778,0.0,0.06366300366300366,0.5673260073260072
1.3465993010031525,0.0,0.06366300366300366,0.5673260073260072
1.3474927540009958,0.0,0.06366300366300366,0.5673260073260072
1.3491335819999222,0.0,0.06366300366300366,0.5673260073260072
1.3522420350054745,0.0,0.06366300366300366,0.5673260073260072
1.353904046001844,0.0,0.06366300366300366,0.5673260073260072
1.3578418670003884,0.0,0.06366300366300366,0.5673260073260072
1.3610302850065636,0.0,0.06366300366300366,0.5673260073260072
1.3627028700066148,0.0,0.06366300366300366,0.5673260073260072
1.3665740640062722,0.0,0.06366300366300366,0.5673260073260072
1.3713191300048493,1.6858608058608056,0.31267399267399265,1.6254212454212453
1.3714495340027497,1.6858608058608056,0.31267399267399265,1.6254212454212453
1.376338811001915,1.6858608058608056,0.31267399267399265,1.6254212454212453
1.3764466990032815,0.21597069597069596,0.16358974358974357,0.5979487179487178
1.3815360730004613,0.21597069597069596,0.16358974358974357,0.5979487179487178
1.3855590160019347,0.21597069597069596,0.16358974358974357,0.5979487179487178
1.3880302860052325,0.21597069597069596,0.16358974358974357,0.5979487179487178
1.3881640740000876,2.149230769230769,0.3932600732600733,1.8438095238095238
1.3929459550054162,2.149230769230769,0.3932600732600733,1.8438095238095238
1.393054813001072,2.149230769230769,0.3932600732600733,1.8438095238095238
1.397998971006018,2.149230769230769,0.3932600732600733,1.8438095238095238
1.4027702560051694,2.149230769230769,0.3932600732600733,1.8438095238095238
1.408624954005063,2.1476190476190475,0.16278388278388278,1.0637362637362637
1.4087425000034273,2.1476190476190475,0.16278388278388278,1.0637362637362637
1.413443962999736,2.1476190476190475,0.16278388278388278,1.0637362637362637
1.4136726659999113,2.1476190476190475,0.16278388278388278,1.0637362637362637
1.4183581640027114,2.1476190476190475,0.16278388278388278,1.0637362637362637
1.4186875900049927,2.1476190476190475,0.16278388278388278,1.0637362637362637
1.423464840001543,2.1476190476190475,0.16278388278388278,1.0637362637362637
1.4236327790058567,2.1476190476190475,0.16278388278388278,1.0637362637362637
1.4285353840023163,2.1476190476190475,0.16278388278388278,1.0637362637362637
1.4331776980034192,2.1476190476190475,0.16278388278388278,1.0637362637362637
1.4333620660036104,0.938021978021978,0.21999999999999997,0.5028571428571429
1.4389891210012138,0.938021978021978,0.21999999999999997,0.5028571428571429
1.439303054001357,0.938021978021978,0.21999999999999997,0.5028571428571429
1.445032893003372,0.938021978021978,0.21999999999999997,0.5028571428571429
1.4452397410059348,3.228278388278388,0.09428571428571428,2.345054945054945
1.4498712960048579,3.228278388278388,0.09428571428571428,2.345054945054945
1.450157424005738,3.228278388278388,0.09428571428571428,2.345054945054945
1.4547744850060553,3.228278388278388,0.09428571428571428,2.345054945054945
1.4556219480000436,3.228278388278388,0.09428571428571428,2.345054945054945
1.4571980840046308,0.14666666666666667,0.14747252747252745,0.46659340659340653
1.4611160160056897,0.14666666666666667,0.14747252747252745,0.46659340659340653
1.4657032190007158,0.14666666666666667,0.14747252747252745,0.46659340659340653
1.4665673230047105,0.14666666666666667,0.14747252747252745,0.46659340659340653
1.4682060520062805,0.14666666666666667,0.14747252747252745,0.46659340659340653
1.472195571004704,0.14666666666666667,0.14747252747252745,0.46659340659340653
1.4761297560035018,0.14666666666666667,0.14747252747252745,0.46659340659340653
1.4806944280062453,0.8888644688644688,0.4657875457875458,0.45772893772893775
1.481067284999881,0.8888644688644688,0.4657875457875458,0.45772893772893775
1.4859979550019489,3.2589010989010987,0.0975091575091575,2.5086446886446883
1.491353927005548,3.2589010989010987,0.0975091575091575,2.5086446886446883
1.4929531939997105,3.2589010989010987,0.0975091575091575,2.5086446886446883
1.4968086110020522,3.2589010989010987,0.0975091575091575,2.5086446886446883
1.5014574600063497,1.2579487179487179,0.9452747252747251,0.28124542124542123
1.501634271000512,1.3046886446886445,0.2804395604395604,1.3538461538461537
1.5066489860037109,1.3046886446886445,0.2804395604395604,1.3538461538461537
1.511492524005007,1.3046886446886445,0.2804395604395604,1.3538461538461537
1.5174340090015903,1.3046886446886445,0.2804395604395604,1.3538461538461537
1.5232830100067076,1.3046886446886445,0.2804395604395604,1.3538461538461537
1.5234161600019434,0.07252747252747253,0.02901098901098901,0.49157509157509155
1.5290495210065274,0.07252747252747253,0.02901098901098901,0.49157509157509155
1.5293115270033013,2.12989010989011,0.3231501831501831,1.9195604395604395
1.534301702005905,2.12989010989011,0.3231501831501831,1.9195604395604395
1.5389464600011706,2.12989010989011,0.3231501831501831,1.9195604395604395
1.5390820470056497,2.12989010989011,0.3231501831501831,1.9195604395604395
1.5437044690042967,2.12989010989011,0.3231501831501831,1.9195604395604395
1.5446177110061399,2.0734798534798533,0.3618315018315018,0.7309157509157509
1.5462376680006855,2.0734798534798533,0.3618315018315018,0.7309157509157509
1.5500781440059654,2.0734798534798533,0.3618315018315018,0.7309157509157509
1.55543394000415,2.0734798534798533,0.3618315018315018,0.7309157509157509
1.5571706780028762,1.012161172161172,0.49479853479853475,0.25384615384615383
1.560293841001112,1.012161172161172,0.49479853479853475,0.25384615384615383
1.562059121002676,1.5287179487179487,0.22564102564102564,1.5037362637362637
1.5651611870052875,3.3,0.1418315018315018,2.601318681318681
1.5674987840029644,3.3,0.1418315018315018,2.601318681318681
1.567792541005474,3.3,0.1418315018315018,2.601318681318681
1.5726340180044645,3.3,0.1418315018315018,2.601318681318681
1.5784792420017766,3.3,0.1418315018315018,2.601318681318681
1.5843232780025573,3.3,0.1418315018315018,2.601318681318681
1.584430686001724,3.3,0.1402197802197802,2.6367765567765566
1.589479405003658,3.3,0.1402197802197802,2.6367765567765566
1.5935189370065928,3.3,0.1402197802197802,2.6367765567765566
1.5966170070023509,3.3,0.1402197802197802,2.6367765567765566
1.599143229002948,3.3,0.1402197802197802,2.6367765567765566
1.6037872480010265,3.3,0.1402197802197802,2.6367765567765566
1.604080506003811,3.3,0.1402197802197802,2.6367765567765566
1.608997535004164,3.3,0.1402197802197802,2.6367765567765566
1.613634498004103,2.5070329670329667,0.19179487179487179,2.4594871794871795
1.6138831670032232,2.5070329670329667,0.19179487179487179,2.4594871794871795
1.6185295120012597,2.5070329670329667,0.19179487179487179,2.4594871794871795
1.6193928670036257,0.0,0.020146520146520144,0.6906227106227106
1.6212068930035457,0.0,0.020146520146520144,0.6906227106227106
1.6235531300044386,0.0,0.020146520146520144,0.6906227106227106
1.6236542810001993,0.0,0.020146520146520144,0.6906227106227106
1.6292162420068053,0.0,0.020146520146520144,0.6906227106227106
1.6295064260048093,0.0,0.020146520146520144,0.6906227106227106
1.6353613920000498,0.0,0.020146520146520144,0.6906227106227106
1.6410091480065603,0.0,0.09025641025641025,0.5995604395604395
1.6411904440028593,0.0,0.09025641025641025,0.5995604395604395
1.6465558170020813,0.0,0.09025641025641025,0.5995604395604395
1.649075144006929,0.0,0.09025641025641025,0.5995604395604395
1.6545936330003315,0.0,0.09025641025641025,0.5995604395604395
1.6554259300028207,0.0,0.09025641025641025,0.5995604395604395
1.6563975430035498,0.0,0.09025641025641025,0.5995604395604395
1.6580547820049105,0.0,0.09025641025641025,0.5995604395604395
1.662009282001236,0.0,0.09025641025641025,0.5995604395604395
1.66530092600442,3.3,0.5076923076923077,3.3
1.6656889240039163,2.2185347985347987,0.15794871794871795,1.4956776556776556
1.6703580510002212,2.2185347985347987,0.15794871794871795,1.4956776556776556
1.6706325890045264,2.2185347985347987,0.15794871794871795,1.4956776556776556
1.675596242006577,2.2185347985347987,0.15794871794871795,1.4956776556776556
1.6797888850051095,2.2185347985347987,0.15794871794871795,1.4956776556776556
1.6823040070012212,2.2185347985347987,0.15794871794871795,1.4956776556776556
1.6879014510050183,2.2185347985347987,0.15794871794871795,1.4956776556776556
1.68874059200607,2.3257142857142856,0.726080586080586,0.448058608058608
1.6896720260047005,2.3257142857142856,0.726080586080586,0.448058608058608
1.6913094320043456,2.3257142857142856,0.726080586080586,0.448058608058608
1.6944532600027742,1.8897435897435895,0.14344322344322344,2.0468864468864467
1.696867860002385,1.8897435897435895,0.14344322344322344,2.0468864468864467
1.6970738689997233,1.8897435897435895,0.14344322344322344,2.0468864468864467
1.7016766800006735,1.8897435897435895,0.14344322344322344,2.0468864468864467
1.7019412590016145,0.0846153846153846,0.033846153846153845,0.4593406593406593
1.7073648620062158,0.0846153846153846,0.033846153846153845,0.4593406593406593
1.7089992870023707,2.0557509157509157,0.3553846153846154,2.609377289377289
1.7128563900041627,2.0557509157509157,0.3553846153846154,2.609377289377289
1.7174435960041592,2.0557509157509157,0.3553846153846154,2.609377289377289
1.7177428050054004,1.248278388278388,0.8243956043956043,0.5528205128205127
1.7224490270018578,1.248278388278388,0.8243956043956043,0.5528205128205127
1.7226850620063487,2.339413919413919,0.423076923076923,2.336996336996337
1.7273520380040281,2.339413919413919,0.423076923076923,2.336996336996337
1.7276822990024812,2.339413919413919,0.423076923076923,2.336996336996337
1.7323343260068214,2.339413919413919,0.423076923076923,2.336996336996337
1.7324972260030336,2.339413919413919,0.423076923076923,2.336996336996337
1.7379155210001045,2.339413919413919,0.423076923076923,2.336996336996337
1.739752732006309,2.339413919413919,0.423076923076923,2.336996336996337
1.742283307001344,2.339413919413919,0.423076923076923,2.336996336996337
1.7478427620008006,2.339413919413919,0.423076923076923,2.336996336996337
1.7501900700008264,2.339413919413919,0.423076923076923,2.336996336996337
1.750317634003295,2.339413919413919,0.423076923076923,2.336996336996337
1.7549578170001041,2.339413919413919,0.423076923076923,2.336996336996337
1.7551624850020744,2.339413919413919,0.423076923076923,2.336996336996337
1.7597643560002325,2.339413919413919,0.423076923076923,2.336996336996337
1.7605918450062745,0.0,0.044322344322344324,0.4722344322344322
1.7622559760056902,0.0,0.044322344322344324,0.4722344322344322
1.7653392560023349,0.0,0.044322344322344324,0.4722344322344322
1.7683364450058434,0.0,0.044322344322344324,0.4722344322344322
1.7714217730026576,0.0,0.044322344322344324,0.4722344322344322
1.7730770900016068,0.0,0.044322344322344324,0.4722344322344322
1.7768756530058454,0.0,0.044322344322344324,0.4722344322344322
1.7816389390063705,0.0,0.044322344322344324,0.4722344322344322
1.7866086600042763,3.3,0.1112087912087912,3.2734065934065932
1.7914670190002653,3.3,0.1112087912087912,3.2734065934065932
1.796357221006474,3.3,0.1112087912087912,3.2734065934065932
1.801257359002193,0.1539194139194139,0.1241025641025641,0.6398534798534798
1.8068483260067296,0.16842490842490843,0.025787545787545788,0.7913553113553113
1.8076901830063434,0.4383882783882784,0.49238095238095236,0.684981684981685
1.8086155540004256,0.4383882783882784,0.49238095238095236,0.684981684981685
1.8102548330061836,0.4383882783882784,0.49238095238095236,0.684981684981685
1.8141518990014447,1.9155311355311355,0.07575091575091575,1.7535531135531135
1.8187625620048493,1.9155311355311355,0.07575091575091575,1.7535531135531135
1.8196747170004528,1.9155311355311355,0.07575091575091575,1.7535531135531135
1.8213390710006934,1.9155311355311355,0.07575091575091575,1.7535531135531135
1.8244869480040506,1.9155311355311355,0.07575091575091575,1.7535531135531135
1.8269101750047412,1.9155311355311355,0.07575091575091575,1.7535531135531135
1.827106877004553,1.9155311355311355,0.07575091575091575,1.7535531135531135
1.83249858700583,1.9155311355311355,0.07575091575091575,1.7535531135531135
1.834878812005627,1.9155311355311355,0.07575091575091575,1.7535531135531135
1.8350577680030256,1.9155311355311355,0.07575091575091575,1.7535531135531135
1.8406195830029901,1.9155311355311355,0.07575091575091575,1.7535531135531135
1.8415884250061936,1.9155311355311355,0.07575091575091575,1.7535531135531135
1.8419056040002033,1.9155311355311355,0.07575091575091575,1.7535531135531135
1.8474910210061353,1.9155311355311355,0.07575091575091575,1.7535531135531135
1.8478002050032956,1.2676190476190476,0.39406593406593404,1.6246153846153846
1.852456971006177,1.2676190476190476,0.39406593406593404,1.6246153846153846
1.8526817580059287,1.2676190476190476,0.39406593406593404,1.6246153846153846
1.8573692690042662,1.2676190476190476,0.39406593406593404,1.6246153846153846
1.8575485480032512,1.2676190476190476,0.39406593406593404,1.6246153846153846
1.863037045004603,1.2676190476190476,0.39406593406593404,1.6246153846153846
1.8646912800031714,0.17648351648351646,0.022564102564102562,0.6108424908424909
1.8685750250006095,0.17648351648351646,0.022564102564102562,0.6108424908424909
1.8734411600016756,0.17648351648351646,0.022564102564102562,0.6108424908424909
1.8784032030016533,2.1355311355311355,0.018534798534798533,1.9348717948717948
1.883008933000383,2.1355311355311355,0.018534798534798533,1.9348717948717948
1.8838890960032586,2.1355311355311355,0.018534798534798533,1.9348717948717948
1.8855180970058427,2.1355311355311355,0.018534798534798533,1.9348717948717948
1.8893800450023264,2.1355311355311355,0.018534798534798533,1.9348717948717948
1.8932908500064514,2.1355311355311355,0.018534798534798533,1.9348717948717948
1.8978401960048359,2.1355311355311355,0.018534798534798533,1.9348717948717948
1.8981094210030278,0.0,0.04029304029304029,0.3223443223443223
1.9039880150012323,0.0,0.04029304029304029,0.3223443223443223
1.9095605460024672,3.3,0.4254945054945055,2.843882783882784
1.9105590890030726,3.3,0.4254945054945055,2.843882783882784
1.911445685000217,3.3,0.4254945054945055,2.843882783882784
1.9123547910057823,3.3,0.4254945054945055,2.843882783882784
1.9139092460027314,3.3,0.4254945054945055,2.843882783882784
1.9187470450051478,3.3,0.4254945054945055,2.843882783882784
1.9240753110061632,0.4126007326007326,0.01531135531135531,0.6745054945054945
1.9258434280054644,0.4126007326007326,0.01531135531135531,0.6745054945054945
1.9289961970061995,0.4126007326007326,0.01531135531135531,0.6745054945054945
1.930673934002698,0.4126007326007326,0.01531135531135531,0.6745054945054945
1.9355736930010607,0.4126007326007326,0.01531135531135531,0.6745054945054945
1.9409921240003314,1.3063003663003663,0.8517948717948718,0.2909157509157509
1.9427956850049668,1.3063003663003663,0.8517948717948718,0.2909157509157509
1.945277958002407,1.3063003663003663,0.8517948717948718,0.2909157509157509
1.9510136840035557,1.3063003663003663,0.8517948717948718,0.2909157509157509
1.951239597001404,1.3063003663003663,0.8517948717948718,0.2909157509157509
1.9559047190050478,1.3063003663003663,0.8517948717948718,0.2909157509157509
1.956780336004158,1.3063003663003663,0.8517948717948718,0.2909157509157509
1.9583653100053198,1.3063003663003663,0.8517948717948718,0.2909157509157509
1.9622308400066686,1.3063003663003663,0.8517948717948718,0.2909157509157509
1.966099324003153,3.3,0.3811721611721612,2.9816849816849818
1.9705938390034134,3.3,0.3811721611721612,2.9816849816849818
1.971486113005085,1.6004395604395603,0.13538461538461538,1.2901831501831502
1.9731088070038822,1.6004395604395603,0.13538461538461538,1.2901831501831502
1.9769633400064777,1.6004395604395603,0.13538461538461538,1.2901831501831502
1.9816212550067576,1.6004395604395603,0.13538461538461538,1.2901831501831502
1.9817495200040867,1.6004395604395603,0.13538461538461538,1.2901831501831502
1.9865386000019498,1.6004395604395603,0.13538461538461538,1.2901831501831502
1.992275000004156,1.6004395604395603,0.13538461538461538,1.2901831501831502
1.9924444960051915,2.4554578754578755,0.26915750915750913,1.9679120879120877
1.9971141109999735,2.4554578754578755,0.26915750915750913,1.9679120879120877
1.9973445440045907,0.03706959706959707,0.051575091575091575,0.5931135531135531
2.002660066005774,0.03706959706959707,0.051575091575091575,0.5931135531135531
2.005110603000503,0.03706959706959707,0.051575091575091575,0.5931135531135531
2.005299033000483,0.9396336996336996,0.42952380952380953,0.24578754578754577
2.009915862006892,0.9396336996336996,0.42952380952380953,0.24578754578754577
2.010773981004604,0.9396336996336996,0.42952380952380953,0.24578754578754577
2.0124342600029195,0.9396336996336996,0.42952380952380953,0.24578754578754577
2.01636178100307,0.9396336996336996,0.42952380952380953,0.24578754578754577
2.0211290630031726,0.9396336996336996,0.42952380952380953,0.24578754578754577
2.0212335850010277,0.9396336996336996,0.42952380952380953,0.24578754578754577
2.0269348660003743,0.9396336996336996,0.42952380952380953,0.24578754578754577
2.0271855070022866,1.1628571428571428,0.4319413919413919,1.087106227106227
2.031810464002774,1.1628571428571428,0.4319413919413919,1.087106227106227
2.0327195999998366,2.3039560439560436,0.0693040293040293,1.1419047619047618
2.0350369490042794,2.3039560439560436,0.0693040293040293,1.1419047619047618
2.035283999000967,2.3039560439560436,0.0693040293040293,1.1419047619047618
2.0406372850047774,0.13699633699633698,0.1241025641025641,0.614065934065934
2.042308991003665,0.13699633699633698,0.1241025641025641,0.614065934065934
2.046087561000604,0.13699633699633698,0.1241025641025641,0.614065934065934
2.050685242000327,0.13699633699633698,0.1241025641025641,0.614065934065934
2.050851167005021,2.099267399267399,0.07575091575091575,1.1024175824175824
2.056211525006802,2.099267399267399,0.07575091575091575,1.1024175824175824
2.0572734870002023,2.099267399267399,0.07575091575091575,1.1024175824175824
2.0581072980057797,0.0,0.06769230769230769,0.5737728937728938
2.059711565001635,0.0,0.06769230769230769,0.5737728937728938
2.0637151570044807,0.0,0.06769230769230769,0.5737728937728938
2.0677401200009626,0.0,0.06769230769230769,0.5737728937728938
2.0710528750059893,0.0,0.06769230769230769,0.5737728937728938
2.0713410500029568,0.0,0.06769230769230769,0.5737728937728938
2.076080129001639,0.0,0.06769230769230769,0.5737728937728938
2.0761821580017568,0.0,0.0838095238095238,0.6326007326007326
2.081821352003317,0.0,0.0838095238095238,0.6326007326007326
2.082674268000119,3.3,0.34087912087912087,2.4087179487179484
2.0842996510036755,3.3,0.34087912087912087,2.4087179487179484
2.0881873820035253,2.0686446886446883,0.11443223443223444,0.9082051282051282
2.0921536960013327,2.0686446886446883,0.11443223443223444,0.9082051282051282
2.096225607005181,2.0686446886446883,0.11443223443223444,0.9082051282051282
2.099447817003238,0.0,0.083003663003663,0.4827106227106227
2.100343933001568,0.0,0.083003663003663,0.4827106227106227
2.101956341000914,0.0,0.083003663003663,0.4827106227106227
2.105972108001879,0.0,0.083003663003663,0.4827106227106227
2.109028599006706,0.0,0.083003663003663,0.4827106227106227
2.1106354750008904,0.0,0.083003663003663,0.4827106227106227
2.114685496002494,0.0,0.083003663003663,0.4827106227106227
2.117901707002602,1.199120879120879,0.7075457875457875,0.21516483516483517
2.1196160780018545,1.199120879120879,0.7075457875457875,0.21516483516483517
2.1229552370059537,1.199120879120879,0.7075457875457875,0.21516483516483517
2.1232530910056084,1.199120879120879,0.7075457875457875,0.21516483516483517
2.128751544005354,1.199120879120879,0.7075457875457875,0.21516483516483517
2.1305751430045348,1.8671794871794871,0.1265201465201465,1.4134798534798534
2.134675163004431,1.8671794871794871,0.1265201465201465,1.4134798534798534
2.137998801001231,1.8671794871794871,0.1265201465201465,1.4134798534798534
2.1382307800013223,0.15472527472527473,0.13296703296703297,0.46739926739926735
2.14406499100005,0.15472527472527473,0.13296703296703297,0.46739926739926735
2.1494715500011807,2.1089377289377285,0.42388278388278383,1.498095238095238
2.1518841910001356,1.8978021978021975,0.12007326007326008,1.4578021978021978
2.1521638270060066,1.8978021978021975,0.12007326007326008,1.4578021978021978
2.156812166002055,1.8978021978021975,0.12007326007326008,1.4578021978021978
2.1571079320056015,0.0,0.08542124542124542,0.4561172161172161
2.1625241980000283,0.0,0.08542124542124542,0.4561172161172161
2.164804655003536,0.011282051282051281,0.02175824175824176,0.44402930402930396
2.1649344390025362,0.011282051282051281,0.02175824175824176,0.44402930402930396
2.1703540610033087,0.011282051282051281,0.02175824175824176,0.44402930402930396
2.1719448780058883,0.011282051282051281,0.02175824175824176,0.44402930402930396
2.176692549001018,2.3893772893772893,0.09670329670329669,1.5005128205128204
2.1768002070020884,2.3893772893772893,0.09670329670329669,1.5005128205128204
2.1819104710011743,2.3893772893772893,0.09670329670329669,1.5005128205128204
2.185359649003658,2.3893772893772893,0.09670329670329669,1.5005128205128204
2.185631492000539,2.3893772893772893,0.09670329670329669,1.5005128205128204
2.190332116006175,2.3893772893772893,0.09670329670329669,1.5005128205128204
2.1904972000047565,2.3893772893772893,0.09670329670329669,1.5005128205128204
2.196155407000333,2.3893772893772893,0.09670329670329669,1.5005128205128204
2.1963555840047775,2.3893772893772893,0.09670329670329669,1.5005128205128204
2.2009828200025368,2.3893772893772893,0.09670329670329669,1.5005128205128204
2.2018424710040563,2.3893772893772893,0.09670329670329669,1.5005128205128204
2.20347432300332,2.3893772893772893,0.09670329670329669,1.5005128205128204
2.207650118005404,2.1105494505494504,0.1104029304029304,0.8308424908424907
2.21018158300285,2.1105494505494504,0.1104029304029304,0.8308424908424907
2.2151137860055314,1.9235897435897436,0.28446886446886444,1.4964835164835164
2.2199743119999766,2.253992673992674,0.16842490842490843,1.290989010989011
2.225661819000379,2.253992673992674,0.16842490842490843,1.290989010989011
2.225863625004422,2.0976556776556774,0.7776556776556776,0.21597069597069596
2.2305276050028624,2.0976556776556774,0.7776556776556776,0.21597069597069596
2.2307436510018306,2.0976556776556774,0.7776556776556776,0.21597069597069596
2.235373242001515,2.0976556776556774,0.7776556776556776,0.21597069597069596
2.2356773050050833,2.0976556776556774,0.7776556776556776,0.21597069597069596
2.241062722001516,2.0976556776556774,0.7776556776556776,0.21597069597069596
2.243395176999911,2.0976556776556774,0.7776556776556776,0.21597069597069596
2.2435357490030583,2.0976556776556774,0.7776556776556776,0.21597069597069596
2.248873013006232,2.0976556776556774,0.7776556776556776,0.21597069597069596
2.2513094450041535,2.0976556776556774,0.7776556776556776,0.21597069597069596
2.2567735650009126,2.0976556776556774,0.7776556776556776,0.21597069597069596
2.258352281001862,0.3046153846153846,0.1418315018315018,0.29413919413919415
2.2622388580057304,0.697069597069597,0.08783882783882783,0.7019047619047618
2.266045705000579,0.697069597069597,0.08783882783882783,0.7019047619047618
2.271380903002864,0.697069597069597,0.08783882783882783,0.7019047619047618
2.2744911100016907,0.697069597069597,0.08783882783882783,0.7019047619047618
2.276879791999818,2.1991941391941388,0.025787545787545788,1.2450549450549449
2.2771324470013496,2.1991941391941388,0.025787545787545788,1.2450549450549449
2.2827486940004746,2.1991941391941388,0.025787545787545788,1.2450549450549449
2.283105812006397,0.06205128205128205,0.01531135531135531,0.45369963369963373
2.287918708003417,0.06205128205128205,0.01531135531135531,0.45369963369963373
2.2934864510025363,0.06205128205128205,0.01531135531135531,0.45369963369963373
2.2945079260025523,0.06205128205128205,0.01531135531135531,0.45369963369963373
2.295397617999697,0.06205128205128205,0.01531135531135531,0.45369963369963373
2.2962714210007107,0.3223443223443223,0.112014652014652,0.43032967032967034
2.297947118000593,0.3223443223443223,0.112014652014652,0.43032967032967034
2.301961361001304,0.3223443223443223,0.112014652014652,0.43032967032967034
2.305306931004452,0.3223443223443223,0.112014652014652,0.43032967032967034
2.3056303370030946,0.3223443223443223,0.112014652014652,0.43032967032967034
2.3110082050043275,0.3223443223443223,0.112014652014652,0.43032967032967034
2.3133323900037794,0.3223443223443223,0.112014652014652,0.43032967032967034
2.3136195550032426,0.3223443223443223,0.112014652014652,0.43032967032967034
2.319006347002869,0.3223443223443223,0.112014652014652,0.43032967032967034
2.321362829999998,0.3223443223443223,0.112014652014652,0.43032967032967034
2.321625541000685,0.3223443223443223,0.112014652014652,0.43032967032967034
2.3269793950021267,0.3223443223443223,0.112014652014652,0.43032967032967034
2.3286186140030622,0.3223443223443223,0.112014652014652,0.43032967032967034
2.3332394170065527,2.352307692307692,0.17809523809523808,1.2845421245421245
2.3334981950029032,2.352307692307692,0.17809523809523808,1.2845421245421245
2.339231637000921,2.352307692307692,0.17809523809523808,1.2845421245421245
2.3393890210063546,2.352307692307692,0.17809523809523808,1.2845421245421245
2.3441030740068527,2.352307692307692,0.17809523809523808,1.2845421245421245
2.344305644000997,2.0597802197802197,0.15956043956043955,1.2345787545787545
2.3489251830033027,1.248278388278388,0.4625641025641025,0.25384615384615383
2.34979920200567,1.248278388278388,0.4625641025641025,0.25384615384615383
2.3514048050055862,1.248278388278388,0.4625641025641025,0.25384615384615383
2.3553013400014606,1.248278388278388,0.4625641025641025,0.25384615384615383
2.3598871220019646,1.248278388278388,0.4625641025641025,0.25384615384615383
2.3607630930055166,0.0,0.04673992673992674,0.7430036630036629
2.3623437260030187,0.0,0.04673992673992674,0.7430036630036629
2.36632749200362,0.0,0.04673992673992674,0.7430036630036629
2.3703008980010054,0.46014652014652013,0.46820512820512816,0.5802197802197803
2.3744757480017142,1.7608058608058608,0.06285714285714286,1.5077655677655677
2.376921831004438,2.008205128205128,0.04593406593406593,1.3909157509157508
2.377101035002852,2.008205128205128,0.04593406593406593,1.3909157509157508
2.38271113600058,2.008205128205128,0.04593406593406593,1.3909157509157508
2.3830085300069186,2.008205128205128,0.04593406593406593,1.3909157509157508
2.387818547002098,2.008205128205128,0.04593406593406593,1.3909157509157508
2.3879500640032347,2.008205128205128,0.04593406593406593,1.3909157509157508
2.3926603170039016,2.008205128205128,0.04593406593406593,1.3909157509157508
2.3928781790018547,2.008205128205128,0.04593406593406593,1.3909157509157508
2.3984759490049328,2.008205128205128,0.04593406593406593,1.3909157509157508
2.398678874000325,2.008205128205128,0.04593406593406593,1.3909157509157508
2.404219740004919,2.008205128205128,0.04593406593406593,1.3909157509157508
2.40526646500075,2.008205128205128,0.04593406593406593,1.3909157509157508
2.4056265160033945,2.008205128205128,0.04593406593406593,1.3909157509157508
2.41100222300156,2.008205128205128,0.04593406593406593,1.3909157509157508
2.412808646004123,1.618168498168498,0.045128205128205125,1.788205128205128
2.4159932440015837,0.8888644688644688,0.3021978021978022,0.8993406593406592
2.416883167003107,0.8888644688644688,0.3021978021978022,0.8993406593406592
2.4185615189999226,0.8888644688644688,0.3021978021978022,0.8993406593406592
2.4226964010013035,0.8888644688644688,0.3021978021978022,0.8993406593406592
2.4251468920047046,0.8888644688644688,0.3021978021978022,0.8993406593406592
2.4253103930022917,0.8888644688644688,0.3021978021978022,0.8993406593406592
2.430174981003802,0.8888644688644688,0.3021978021978022,0.8993406593406592
2.4303829930067877,0.8888644688644688,0.3021978021978022,0.8993406593406592
2.4353554670015,0.8888644688644688,0.3021978021978022,0.8993406593406592
2.4397405150011764,0.8888644688644688,0.3021978021978022,0.8993406593406592
2.4413576720035053,0.8888644688644688,0.3021978021978022,0.8993406593406592
2.4456357280068914,0.8888644688644688,0.3021978021978022,0.8993406593406592
2.4479161740018753,0.8888644688644688,0.3021978021978022,0.8993406593406592
2.448205634005717,0.8888644688644688,0.3021978021978022,0.8993406593406592
2.453176210001402,0.8888644688644688,0.3021978021978022,0.8993406593406592
2.458287373003259,0.8888644688644688,0.3021978021978022,0.8993406593406592
2.462527563002368,0.8888644688644688,0.3021978021978022,0.8993406593406592
2.464726045000134,0.8888644688644688,0.3021978021978022,0.8993406593406592
2.4649662590018124,0.8888644688644688,0.3021978021978022,0.8993406593406592
2.4699113510068855,0.8888644688644688,0.3021978021978022,0.8993406593406592
2.4748434810026083,0.8888644688644688,0.3021978021978022,0.8993406593406592
2.4790802960051224,0.8888644688644688,0.3021978021978022,0.8993406593406592
2.4813333400015836,0.8888644688644688,0.3021978021978022,0.8993406593406592
2.482131038006628,0.8888644688644688,0.3021978021978022,0.8993406593406592
2.4836763530038297,0.8888644688644688,0.3021978021978022,0.8993406593406592
2.4879273070037016,0.8888644688644688,0.3021978021978022,0.8993406593406592
2.4907777970001916,0.8888644688644688,0.3021978021978022,0.8993406593406592
2.494337391006411,0.8888644688644688,0.3021978021978022,0.8993406593406592
2.4944840310054133,0.842124542124542,0.43435897435897436,0.9613919413919414
2.499563436002063,0.842124542124542,0.43435897435897436,0.9613919413919414
2.503561786004866,0.842124542124542,0.43435897435897436,0.9613919413919414
2.507044625999697,0.842124542124542,0.43435897435897436,0.9613919413919414
2.50720906600327,0.842124542124542,0.43435897435897436,0.9613919413919414
2.512231459004397,0.842124542124542,0.43435897435897436,0.9613919413919414
2.517025787004968,0.842124542124542,0.43435897435897436,0.9613919413919414
2.5228287220015773,0.842124542124542,0.43435897435897436,0.9613919413919414
2.52307427800406,0.842124542124542,0.43435897435897436,0.9613919413919414
2.528029729000991,0.842124542124542,0.43435897435897436,0.9613919413919414
2.5323368000026676,0.842124542124542,0.43435897435897436,0.9613919413919414
2.5344913380031358,0.842124542124542,0.43435897435897436,0.9613919413919414
2.5353528360064956,0.842124542124542,0.43435897435897436,0.9613919413919414
2.536828559001151,0.842124542124542,0.43435897435897436,0.9613919413919414
2.5418718050059397,0.842124542124542,0.43435897435897436,0.9613919413919414
2.546066549002717,0.842124542124542,0.43435897435897436,0.9613919413919414
2.5482187060042634,0.842124542124542,0.43435897435897436,0.9613919413919414
2.549025669002731,0.842124542124542,0.43435897435897436,0.9613919413919414
2.551184097006626,0.842124542124542,0.43435897435897436,0.9613919413919414
2.552660443005152,0.842124542124542,0.43435897435897436,0.9613919413919414
2.556945743999677,0.842124542124542,0.43435897435897436,0.9613919413919414
2.558490299001278,1.3707692307692307,0.8517948717948718,0.3642490842490842
2.5634276140044676,1.3707692307692307,0.8517948717948718,0.3642490842490842
2.5635353780016885,3.3,0.2369230769230769,2.904322344322344
2.5685709190001944,3.3,0.2369230769230769,2.904322344322344
2.572740294999676,3.3,0.2369230769230769,2.904322344322344
2.5752338580059586,3.3,0.2369230769230769,2.904322344322344
2.5806977300017024,3.3,0.2369230769230769,2.904322344322344
2.582536270005221,3.3,0.4005128205128205,2.6126007326007326
2.585638240001572,3.3,0.4005128205128205,2.6126007326007326
2.5873167220051982,3.3,0.4005128205128205,2.6126007326007326
2.5913431780063547,3.3,0.4005128205128205,2.6126007326007326
2.5953345440066187,2.544908424908425,0.14666666666666667,1.71003663003663
2.598607455001911,2.544908424908425,0.14666666666666667,1.71003663003663
2.6002363940060604,2.544908424908425,0.14666666666666667,1.71003663003663
2.6043436830004794,2.544908424908425,0.14666666666666667,1.71003663003663
2.6068209020013455,2.544908424908425,0.14666666666666667,1.71003663003663
2.60695889100316,2.544908424908425,0.14666666666666667,1.71003663003663
2.611871835004422,2.544908424908425,0.14666666666666667,1.71003663003663
2.617139270005282,2.544908424908425,0.14666666666666667,1.71003663003663
2.6194038250032463,2.544908424908425,0.14666666666666667,1.71003663003663
2.61972546200559,2.544908424908425,0.14666666666666667,1.71003663003663
2.624699910003983,2.544908424908425,0.14666666666666667,1.71003663003663
2.6282541640030104,2.544908424908425,0.14666666666666667,1.71003663003663
2.6284871000025305,2.544908424908425,0.14666666666666667,1.71003663003663
2.633377506004763,2.297509157509157,0.22886446886446887,1.1942857142857142
2.6384183270056383,2.297509157509157,0.22886446886446887,1.1942857142857142
2.643341141003475,2.297509157509157,0.22886446886446887,1.1942857142857142
2.6477307840032154,2.297509157509157,0.22886446886446887,1.1942857142857142
2.6498700990050565,2.297509157509157,0.22886446886446887,1.1942857142857142
2.650683782005217,2.297509157509157,0.22886446886446887,1.1942857142857142
2.6522436590021243,2.523956043956044,0.14505494505494507,0.8920879120879119
2.6564831440045964,2.461904761904762,0.1241025641025641,0.8332600732600732
2.6594265700041433,0.24659340659340656,0.14263736263736262,0.7647619047619048
2.66435086200363,0.24659340659340656,0.14263736263736262,0.7647619047619048
2.6682580440028687,0.24659340659340656,0.14263736263736262,0.7647619047619048
2.673700112005463,1.888131868131868,0.3295970695970696,1.037948717948718
2.676024436004809,1.888131868131868,0.3295970695970696,1.037948717948718
2.6761849009999423,1.888131868131868,0.3295970695970696,1.037948717948718
2.6810170780008775,1.888131868131868,0.3295970695970696,1.037948717948718
2.6864738510048483,1.888131868131868,0.3295970695970696,1.037948717948718
2.6881986270018388,1.888131868131868,0.3295970695970696,1.037948717948718
2.6913696920018992,1.888131868131868,0.3295970695970696,1.037948717948718
2.6931077879999066,1.888131868131868,0.3295970695970696,1.037948717948718
2.696923916002561,1.9542124542124542,0.024175824175824173,0.5576556776556777
2.7023831700062146,0.0,0.00967032967032967,0.6446886446886446
2.70326316000137,0.0,0.00967032967032967,0.6446886446886446
2.7049309550056932,0.0,0.00967032967032967,0.6446886446886446
2.7083892010050477,0.0,0.00967032967032967,0.6446886446886446
2.7086075320039527,0.0,0.00967032967032967,0.6446886446886446
2.7161604590000934,0.0,0.00967032967032967,0.6446886446886446
2.7208289120026166,0.0,0.00967032967032967,0.6446886446886446
2.7216590930038365,0.0,0.00967032967032967,0.6446886446886446
2.723292227005004,0.0,0.00967032967032967,0.6446886446886446
2.7279577370063635,0.0,0.00967032967032967,0.6446886446886446
2.728161657003511,0.0,0.00967032967032967,0.6446886446886446
2.7339462990057655,0.0,0.00967032967032967,0.6446886446886446
2.734096918000432,2.19032967032967,0.07816849816849816,1.1282051282051282
2.738756304002891,2.19032967032967,0.07816849816849816,1.1282051282051282
2.7390011650059023,2.19032967032967,0.07816849816849816,1.1282051282051282
2.744443741001305,2.19032967032967,0.07816849816849816,1.1282051282051282
2.746041927006445,3.3,0.4545054945054945,2.237069597069597
2.749949466000544,3.3,0.4545054945054945,2.237069597069597
2.7546250780069386,3.3,0.4545054945054945,2.237069597069597
2.7547522520035272,3.3,0.4545054945054945,2.237069597069597
2.7595794290027698,0.34813186813186814,0.14989010989010987,0.35619047619047617
2.770570194006723,0.34813186813186814,0.14989010989010987,0.35619047619047617
2.7761361730008502,0.34813186813186814,0.14989010989010987,0.35619047619047617
2.7770293560024584,0.34813186813186814,0.14989010989010987,0.35619047619047617
2.7786596360019757,0.34813186813186814,0.14989010989010987,0.35619047619047617
2.7835168260062346,0.34813186813186814,0.14989010989010987,0.35619047619047617
2.7893463210057234,3.3,0.41340659340659336,2.317655677655677
2.7944544130004942,1.805934065934066,0.1829304029304029,1.2942124542124542
2.798043899005279,1.805934065934066,0.1829304029304029,1.2942124542124542
2.8034605130014825,0.026593406593406595,0.08783882783882783,0.4996336996336996
2.805982630001381,0.026593406593406595,0.08783882783882783,0.4996336996336996
2.806073230000038,0.026593406593406595,0.08783882783882783,0.4996336996336996
2.8114852700018673,0.026593406593406595,0.08783882783882783,0.4996336996336996
2.8131631550058955,0.026593406593406595,0.08783882783882783,0.4996336996336996
2.8172553920012433,0.026593406593406595,0.08783882783882783,0.4996336996336996
2.8208778370026266,0.026593406593406595,0.08783882783882783,0.4996336996336996
2.826449981002952,0.026593406593406595,0.08783882783882783,0.4996336996336996
2.827684447001957,0.026593406593406595,0.08783882783882783,0.4996336996336996
2.8279185550054535,0.026593406593406595,0.08783882783882783,0.4996336996336996
2.8372797900010482,0.026593406593406595,0.08783882783882783,0.4996336996336996
2.8451362690029782,1.5625641025641024,0.04351648351648352,0.7486446886446886
2.852395323003293,1.5625641025641024,0.04351648351648352,0.7486446886446886
2.85940347500582,1.5625641025641024,0.04351648351648352,0.7486446886446886
2.8632949870006996,1.5625641025641024,0.04351648351648352,0.7486446886446886
2.8678192130028037,1.5625641025641024,0.04351648351648352,0.7486446886446886
2.868379077001009,1.5625641025641024,0.04351648351648352,0.7486446886446886
2.872048706005444,1.5625641025641024,0.04351648351648352,0.7486446886446886
2.8770604350065696,1.5625641025641024,0.04351648351648352,0.7486446886446886
2.8817843190045096,1.5625641025641024,0.04351648351648352,0.7486446886446886
2.882033127003524,1.5625641025641024,0.04351648351648352,0.7486446886446886
2.8893684160066186,1.5625641025641024,0.04351648351648352,0.7486446886446886
2.893373300001258,1.5625641025641024,0.04351648351648352,0.7486446886446886
2.896531465004955,1.5625641025641024,0.04351648351648352,0.7486446886446886
2.898987977001525,1.5625641025641024,0.04351648351648352,0.7486446886446886
2.8991086300011375,1.5625641025641024,0.04351648351648352,0.7486446886446886
2.9053401609999128,1.5625641025641024,0.04351648351648352,0.7486446886446886
2.908889240999997,1.5625641025641024,0.04351648351648352,0.7486446886446886
2.9091051110008266,1.5625641025641024,0.04351648351648352,0.7486446886446886
2.914432741003111,1.5625641025641024,0.04351648351648352,0.7486446886446886
2.916108654004347,1.4529670329670328,0.05641025641025641,1.0331135531135531
2.9219102160059265,1.4529670329670328,0.05641025641025641,1.0331135531135531
2.928042572006234,1.4529670329670328,0.05641025641025641,1.0331135531135531
2.9318861050051055,2.2394871794871793,0.6382417582417582,0.4819047619047619
2.940319483001076,2.2394871794871793,0.6382417582417582,0.4819047619047619
2.9443136170011712,0.29978021978021974,0.12007326007326008,0.4931868131868131
2.9480337420027354,3.0856410256410256,0.11846153846153845,2.424029304029304
2.955769282001711,3.0856410256410256,0.11846153846153845,2.424029304029304
2.960223098001734,3.0856410256410256,0.11846153846153845,2.424029304029304
2.9605223890030175,3.0856410256410256,0.11846153846153845,2.424029304029304
2.9665542780057876,3.0856410256410256,0.11846153846153845,2.424029304029304
2.9733191980049014,3.0856410256410256,0.11846153846153845,2.424029304029304
2.97730665000563,3.0856410256410256,0.11846153846153845,2.424029304029304
2.9804606739999144,3.0856410256410256,0.11846153846153845,2.424029304029304
2.9829205280038877,2.12989010989011,0.36344322344322344,1.9437362637362636
2.9830503710036282,2.12989010989011,0.36344322344322344,1.9437362637362636
2.9914267910062335,2.12989010989011,0.36344322344322344,1.9437362637362636
2.996952282002894,2.12989010989011,0.36344322344322344,1.9437362637362636
2.9980690049997065,2.12989010989011,0.36344322344322344,1.9437362637362636
2.998345933003293,2.12989010989011,0.36344322344322344,1.9437362637362636
3.003609450002841,2.12989010989011,0.36344322344322344,1.9437362637362636
3.006247761004488,2.021904761904762,0.11765567765567764,1.4126739926739926
3.011762476002332,2.021904761904762,0.11765567765567764,1.4126739926739926
3.0127188400001614,2.107326007326007,0.09912087912087912,2.2435164835164834
3.0137185720013804,2.107326007326007,0.09912087912087912,2.2435164835164834
3.0146932610005024,2.107326007326007,0.09912087912087912,2.2435164835164834
3.0156384900037665,2.107326007326007,0.09912087912087912,2.2435164835164834
3.0165965640044305,2.107326007326007,0.09912087912087912,2.2435164835164834
3.0197009770054137,2.107326007326007,0.09912087912087912,2.2435164835164834
3.0201195140034542,2.107326007326007,0.09912087912087912,2.2435164835164834
3.0259796509999433,2.107326007326007,0.09912087912087912,2.2435164835164834
3.031891009006358,3.3,0.22725274725274724,3.3
3.037931737002509,2.22981684981685,0.0419047619047619,2.099267399267399
3.0420191240045824,2.22981684981685,0.0419047619047619,2.099267399267399
3.04517525400297,2.22981684981685,0.0419047619047619,2.099267399267399
3.0467653880041325,2.22981684981685,0.0419047619047619,2.099267399267399
3.0509102920041187,2.22981684981685,0.0419047619047619,2.099267399267399
3.055365475003782,2.22981684981685,0.0419047619047619,2.099267399267399
3.0557835250001517,2.22981684981685,0.0419047619047619,2.099267399267399
3.0609878430041135,2.22981684981685,0.0419047619047619,2.099267399267399
3.063411820003239,2.22981684981685,0.0419047619047619,2.099267399267399
3.063514469002257,2.22981684981685,0.0419047619047619,2.099267399267399
3.0707278410045546,2.22981684981685,0.0419047619047619,2.099267399267399
3.0746243600005982,2.22981684981685,0.0419047619047619,2.099267399267399
3.0786640050064307,1.7076190476190476,0.03465201465201465,1.3909157509157508
3.0818706220015883,1.7076190476190476,0.03465201465201465,1.3909157509157508
3.0837087630061433,1.7076190476190476,0.03465201465201465,1.3909157509157508
3.0881542390052346,1.7076190476190476,0.03465201465201465,1.3909157509157508
3.0938666479996755,1.7076190476190476,0.03465201465201465,1.3909157509157508
3.0940915900064283,2.1395604395604395,0.0419047619047619,1.7994871794871792
3.0999931390033453,2.1395604395604395,0.0419047619047619,1.7994871794871792
3.10971144400537,0.15069597069597068,0.045128205128205125,0.51010989010989
3.118964738001523,2.07992673992674,0.3473260073260073,0.49802197802197795
3.1252144160025637,2.378901098901099,0.07575091575091575,2.0855677655677654
3.1283861140036606,3.3,0.3932600732600733,2.6722344322344322
3.1300040320056723,1.2917948717948717,0.4182417582417582,1.6447619047619046
3.1353277529997285,1.2917948717948717,0.4182417582417582,1.6447619047619046
3.137674825004069,2.2064468864468862,0.020146520146520144,1.5754578754578754
3.144204798001738,2.2064468864468862,0.020146520146520144,1.5754578754578754
3.1482636550063035,1.4271794871794872,0.5479853479853479,0.3578021978021978
3.151702359005867,0.7857142857142856,0.43435897435897436,1.1878388278388277
3.1544502260003355,0.7857142857142856,0.43435897435897436,1.1878388278388277
3.155685653000546,0.7857142857142856,0.43435897435897436,1.1878388278388277
3.1558770980045665,0.7857142857142856,0.43435897435897436,1.1878388278388277
3.161662096004875,0.7857142857142856,0.43435897435897436,1.1878388278388277
3.1617752910024137,3.3,0.13457875457875457,2.0227106227106226
3.1668458730055136,3.3,0.13457875457875457,2.0227106227106226
3.1728728000016417,0.5818315018315018,0.5004395604395604,0.8195604395604396
3.176013074000366,0.5818315018315018,0.5004395604395604,0.8195604395604396
3.177671757002827,0.5818315018315018,0.5004395604395604,0.8195604395604396
3.1822678800017457,0.5818315018315018,0.5004395604395604,0.8195604395604396
3.182668575005664,0.5818315018315018,0.5004395604395604,0.8195604395604396
3.1883062920023804,0.5818315018315018,0.5004395604395604,0.8195604395604396
3.1884373130014865,0.5818315018315018,0.5004395604395604,0.8195604395604396
3.1932535340019967,0.5818315018315018,0.5004395604395604,0.8195604395604396
3.198622982003144,1.1257875457875457,0.8969230769230768,0.23934065934065935
3.2004458500014152,1.1257875457875457,0.8969230769230768,0.23934065934065935
3.203691886003071,3.3,0.3698901098901099,2.3265201465201466
3.204034054004296,3.3,0.3698901098901099,2.3265201465201466
3.208861663006246,2.3926007326007324,0.7583150183150182,0.3545787545787546
3.214427784005238,2.3926007326007324,0.7583150183150182,0.3545787545787546
3.215518911005347,2.3926007326007324,0.7583150183150182,0.3545787545787546
3.2157863669999642,2.3926007326007324,0.7583150183150182,0.3545787545787546
3.222302791000402,2.3926007326007324,0.7583150183150182,0.3545787545787546
3.226249348001147,2.864835164835165,0.10073260073260072,1.46021978021978
3.230284010001924,1.4368498168498167,0.42630036630036633,1.1032234432234431
3.2346422130067367,2.121831501831502,0.36827838827838827,1.436043956043956
3.2371589410031447,2.121831501831502,0.36827838827838827,1.436043956043956
3.2419625080001424,2.121831501831502,0.36827838827838827,1.436043956043956
3.24746233800397,2.121831501831502,0.36827838827838827,1.436043956043956
3.2491277230001288,2.121831501831502,0.36827838827838827,1.436043956043956
3.2529345430011745,2.121831501831502,0.36827838827838827,1.436043956043956
3.2570153390042833,1.4473260073260072,0.07494505494505493,0.7043223443223443
3.2594011450055405,1.2087912087912087,0.8969230769230768,0.2909157509157509
3.259707528006402,1.2087912087912087,0.8969230769230768,0.2909157509157509
3.264489503002551,1.2087912087912087,0.8969230769230768,0.2909157509157509
3.2646845130002475,1.2087912087912087,0.8969230769230768,0.2909157509157509
3.270203352003591,1.2087912087912087,0.8969230769230768,0.2909157509157509
3.2715704900037963,1.5166300366300365,0.0410989010989011,0.70996336996337
3.277262076000625,1.5166300366300365,0.0410989010989011,0.70996336996337
3.27741198700096,1.5166300366300365,0.0410989010989011,0.70996336996337
3.283091081000748,1.5166300366300365,0.0410989010989011,0.70996336996337
3.283405288006179,0.7051282051282051,0.09589743589743589,0.7325274725274724
3.2920708090023254,0.7051282051282051,0.09589743589743589,0.7325274725274724
3.29755323700374,0.27802197802197803,0.46659340659340653,0.5318681318681319
3.3000681650009938,0.27802197802197803,0.46659340659340653,0.5318681318681319
3.311649841001781,0.27802197802197803,0.46659340659340653,0.5318681318681319
3.3230996610000147,3.261318681318681,0.1523076923076923,1.4852014652014651
3.335258705999877,1.7334065934065934,0.017728937728937726,0.7115750915750916
3.343371353999828,1.7334065934065934,0.017728937728937726,0.7115750915750916
3.348875741001393,2.872893772893773,0.1104029304029304,1.2539194139194139
3.350571906004916,2.872893772893773,0.1104029304029304,1.2539194139194139
3.3570835370046552,2.872893772893773,0.1104029304029304,1.2539194139194139
3.3615252150048036,2.872893772893773,0.1104029304029304,1.2539194139194139
3.361775782999757,2.872893772893773,0.1104029304029304,1.2539194139194139
3.3726583020034013,2.872893772893773,0.1104029304029304,1.2539194139194139
3.3815015430009225,1.751135531135531,0.03223443223443223,0.6656410256410257
3.390577709003992,0.0,0.10153846153846154,0.3755311355311355
3.3965104970047832,2.0815384615384613,0.23853479853479853,1.4005860805860806
3.4015973170025973,2.0815384615384613,0.23853479853479853,1.4005860805860806
3.4100832600015565,2.0815384615384613,0.23853479853479853,1.4005860805860806
3.4174772559999838,1.9413186813186813,0.42065934065934063,1.5923809523809522
3.424658920004731,0.1772893772893773,0.14827838827838827,0.4319413919413919
3.4285753770018346,0.1772893772893773,0.14827838827838827,0.4319413919413919
3.43319163700653,0.1772893772893773,0.14827838827838827,0.4319413919413919
3.4334204260012484,0.1772893772893773,0.14827838827838827,0.4319413919413919
3.441475535000791,0.9436630036630036,0.5004395604395604,0.23369963369963367
3.4473832069998025,0.9436630036630036,0.5004395604395604,0.23369963369963367
3.4535520980061847,0.9436630036630036,0.5004395604395604,0.23369963369963367
3.457940676002181,1.8599267399267398,0.23369963369963367,1.4070329670329669
3.4581854000061867,1.8599267399267398,0.23369963369963367,1.4070329670329669
3.4631658530051936,1.8599267399267398,0.23369963369963367,1.4070329670329669
3.4696671000056085,2.768131868131868,0.47465201465201456,1.722930402930403
3.4742554550030036,1.3643223443223442,0.4520879120879121,1.3014652014652013
3.4744208350020926,1.3643223443223442,0.4520879120879121,1.3014652014652013
3.479236196006241,1.3643223443223442,0.4520879120879121,1.3014652014652013
3.4794445510051446,0.03304029304029304,0.03948717948717949,0.5713553113553113
3.485069870002917,0.03304029304029304,0.03948717948717949,0.5713553113553113
3.485342923006101,3.3,0.4254945054945055,2.3934065934065933
3.49136109900428,3.3,0.4254945054945055,2.3934065934065933
3.4951886550043127,1.9638827838827837,0.14827838827838827,1.2539194139194139
3.499184699001489,1.9638827838827837,0.14827838827838827,1.2539194139194139
3.5044687510016956,1.9638827838827837,0.14827838827838827,1.2539194139194139
3.5048566220066277,1.9638827838827837,0.14827838827838827,1.2539194139194139
3.5101581400012947,1.9638827838827837,0.14827838827838827,1.2539194139194139
3.512509147003584,1.9638827838827837,0.14827838827838827,1.2539194139194139
3.5126779740021448,2.2136996336996333,0.05721611721611722,1.1668864468864468
3.5193976130030933,2.2136996336996333,0.05721611721611722,1.1668864468864468
3.523909702002129,2.2136996336996333,0.05721611721611722,1.1668864468864468
3.5241709260008065,1.959047619047619,0.1643956043956044,0.9484981684981684
3.5289281340010348,1.959047619047619,0.1643956043956044,0.9484981684981684
3.5291489950031973,1.959047619047619,0.1643956043956044,0.9484981684981684
3.534786502001225,1.959047619047619,0.1643956043956044,0.9484981684981684
3.5365162870002678,1.959047619047619,0.1643956043956044,0.9484981684981684
3.538677822005411,1.959047619047619,0.1643956043956044,0.9484981684981684
3.5395791770060896,1.959047619047619,0.1643956043956044,0.9484981684981684
3.54049901500548,1.959047619047619,0.1643956043956044,0.9484981684981684
3.5423738330064225,1.959047619047619,0.1643956043956044,0.9484981684981684
3.544018866006809,1.959047619047619,0.1643956043956044,0.9484981684981684
3.5482913619998726,1.959047619047619,0.1643956043956044,0.9484981684981684
3.5499553450063104,1.959047619047619,0.1643956043956044,0.9484981684981684
3.555007947004924,1.8236630036630037,0.09670329670329669,1.3619047619047617
3.558178179002425,0.5471794871794872,0.24578754578754577,0.4464468864468864
3.5597722590027843,0.5471794871794872,0.24578754578754577,0.4464468864468864
3.564765379000164,0.5471794871794872,0.24578754578754577,0.4464468864468864
3.570329715999833,0.5471794871794872,0.24578754578754577,0.4464468864468864
3.5707002190029016,0.5471794871794872,0.24578754578754577,0.4464468864468864
3.5759476849998464,0.5471794871794872,0.24578754578754577,0.4464468864468864
3.577590543005499,0.5471794871794872,0.24578754578754577,0.4464468864468864
3.5808384340052726,0.5471794871794872,0.24578754578754577,0.4464468864468864
3.5835496630024863,0.5471794871794872,0.24578754578754577,0.4464468864468864
3.5880336580012226,2.1975824175824172,0.1241025641025641,1.6504029304029304
3.594251652000821,2.1975824175824172,0.1241025641025641,1.6504029304029304
3.5981999870055006,2.1975824175824172,0.1241025641025641,1.6504029304029304
3.604324122003163,2.1975824175824172,0.1241025641025641,1.6504029304029304
3.610254379003891,2.1975824175824172,0.1241025641025641,1.6504029304029304
3.6169380890059983,2.1975824175824172,0.1241025641025641,1.6504029304029304
3.6241811420040904,1.3973626373626373,0.8703296703296703,0.4037362637362637
3.6283295410030405,1.8865201465201462,0.31186813186813184,1.7366300366300367
3.6299736500004656,1.8865201465201462,0.31186813186813184,1.7366300366300367
3.634346702005132,1.8865201465201462,0.31186813186813184,1.7366300366300367
3.6348049200023524,1.8865201465201462,0.31186813186813184,1.7366300366300367
3.641367746000469,1.8865201465201462,0.31186813186813184,1.7366300366300367
3.6462067590036895,1.8865201465201462,0.31186813186813184,1.7366300366300367
3.6515001590014435,3.1775091575091574,0.11926739926739927,2.424835164835165
3.6557455690053757,3.1775091575091574,0.11926739926739927,2.424835164835165
3.6559565720017417,1.2700366300366301,0.7567032967032966,0.38681318681318677
3.660810091001622,1.2700366300366301,0.7567032967032966,0.38681318681318677
3.6609132300000056,1.2700366300366301,0.7567032967032966,0.38681318681318677
3.665632727999764,1.2700366300366301,0.7567032967032966,0.38681318681318677
3.665908480004873,0.4214652014652014,0.32153846153846155,0.45369963369963373
3.6745045040006517,0.4214652014652014,0.32153846153846155,0.45369963369963373
3.678448976002983,0.4214652014652014,0.32153846153846155,0.45369963369963373
3.6823332350031706,0.4214652014652014,0.32153846153846155,0.45369963369963373
3.6885446770029375,0.4214652014652014,0.32153846153846155,0.45369963369963373
3.6925986730057048,0.4214652014652014,0.32153846153846155,0.45369963369963373
3.695008125003369,0.4214652014652014,0.32153846153846155,0.45369963369963373
3.6952043330020388,0.4214652014652014,0.32153846153846155,0.45369963369963373
3.7006490400017356,0.4214652014652014,0.32153846153846155,0.45369963369963373
3.7043644200020935,0.4214652014652014,0.32153846153846155,0.45369963369963373
3.708507510003983,0.4214652014652014,0.32153846153846155,0.45369963369963373
3.711669079006242,0.4214652014652014,0.32153846153846155,0.45369963369963373
3.714224393006589,0.4214652014652014,0.32153846153846155,0.45369963369963373
3.721470872005739,0.4214652014652014,0.32153846153846155,0.45369963369963373
3.7248525290051475,0.4214652014652014,0.32153846153846155,0.45369963369963373
3.7251635550055653,2.2394871794871793,0.6833699633699634,0.3997069597069597
3.7299230480057304,2.2394871794871793,0.6833699633699634,0.3997069597069597
3.7301842860033503,2.2394871794871793,0.6833699633699634,0.3997069597069597
3.736509869006113,2.2394871794871793,0.6833699633699634,0.3997069597069597
3.7398560460060253,0.1692307692307692,0.13457875457875457,0.46739926739926735
3.740132604005339,0.1692307692307692,0.13457875457875457,0.46739926739926735
3.7456675480061676,0.1692307692307692,0.13457875457875457,0.46739926739926735
3.747261296004581,0.1692307692307692,0.13457875457875457,0.46739926739926735
3.7512445320026018,0.1692307692307692,0.13457875457875457,0.46739926739926735
3.7564454740058864,1.9719413919413917,0.05802197802197802,1.5649816849816849
3.758914118006942,1.8083516483516484,0.01934065934065934,1.1580219780219778
3.7590547560030245,1.8083516483516484,0.01934065934065934,1.1580219780219778
3.764496401003271,1.8083516483516484,0.01934065934065934,1.1580219780219778
3.766191141003219,1.8083516483516484,0.01934065934065934,1.1580219780219778
3.7728602180068265,1.8083516483516484,0.01934065934065934,1.1580219780219778
3.7773162800003774,0.9920146520146519,0.23531135531135527,0.5302564102564102
3.7776930010004435,0.9920146520146519,0.23531135531135527,0.5302564102564102
3.7825121700007003,0.9920146520146519,0.23531135531135527,0.5302564102564102
3.793069158004073,3.3,0.3158974358974359,2.752820512820513
3.800229134001711,3.3,0.3158974358974359,2.752820512820513
3.8079680190057843,0.2328937728937729,0.0136996336996337,0.6132600732600733
3.8119424380056444,0.2328937728937729,0.0136996336996337,0.6132600732600733
3.8158258170005865,0.2328937728937729,0.0136996336996337,0.6132600732600733
3.8209188710025046,0.2328937728937729,0.0136996336996337,0.6132600732600733
3.825856584000576,0.2328937728937729,0.0136996336996337,0.6132600732600733
3.8305313090022537,0.2328937728937729,0.0136996336996337,0.6132600732600733
3.830626350005332,0.2328937728937729,0.0136996336996337,0.6132600732600733
3.8408649750053883,0.2328937728937729,0.0136996336996337,0.6132600732600733
3.8493065330039826,0.2328937728937729,0.0136996336996337,0.6132600732600733
3.857982951005397,0.2328937728937729,0.0136996336996337,0.6132600732600733
3.8650034990059794,0.2328937728937729,0.0136996336996337,0.6132600732600733
3.8715779350022785,0.2328937728937729,0.0136996336996337,0.6132600732600733
3.8762413440053933,0.2328937728937729,0.0136996336996337,0.6132600732600733
3.8846871990026557,0.2328937728937729,0.0136996336996337,0.6132600732600733
3.891651420002745,1.498095238095238,0.5923076923076923,0.20307692307692307
3.8963645230032853,1.4803663003663003,0.06769230769230769,0.7027106227106227
3.904648146002728,1.2498901098901098,0.9412454212454211,0.24014652014652016
3.9128144980059005,1.2498901098901098,0.9412454212454211,0.24014652014652016
3.921797499002423,1.2498901098901098,0.9412454212454211,0.24014652014652016
3.9275876250030706,1.2498901098901098,0.9412454212454211,0.24014652014652016
3.9356786770003964,1.3288644688644689,0.4198534798534798,1.1999267399267397
3.9428262500005076,2.233040293040293,0.09992673992673992,0.9831501831501831
3.9485382060011034,2.233040293040293,0.09992673992673992,0.9831501831501831
3.95834257700335,2.233040293040293,0.09992673992673992,0.9831501831501831
3.966839296001126,2.3772893772893773,0.1676190476190476,1.2095970695970695
3.9730018810005276,2.3772893772893773,0.1676190476190476,1.2095970695970695
3.978675637001288,2.3772893772893773,0.1676190476190476,1.2095970695970695
3.9835947930041584,2.3772893772893773,0.1676190476190476,1.2095970695970695
3.9906537600036245,2.3772893772893773,0.1676190476190476,1.2095970695970695
3.994663428005879,0.22725274725274724,0.46417582417582415,0.4802930402930403
3.999251794004522,0.22725274725274724,0.46417582417582415,0.4802930402930403
3.9994872360039153,0.22725274725274724,0.46417582417582415,0.4802930402930403
4.008310941004311,0.22725274725274724,0.46417582417582415,0.4802930402930403
4.01390730800631,0.22725274725274724,0.46417582417582415,0.4802930402930403
4.014830740001344,0.22725274725274724,0.46417582417582415,0.4802930402930403
4.016803063001134,0.22725274725274724,0.46417582417582415,0.4802930402930403
4.019821675006824,0.22725274725274724,0.46417582417582415,0.4802930402930403
4.02342725800554,0.22725274725274724,0.46417582417582415,0.4802930402930403
4.0269508980054525,0.22725274725274724,0.46417582417582415,0.4802930402930403
4.027120367005409,0.22725274725274724,0.46417582417582415,0.4802930402930403
4.032500688001164,0.22725274725274724,0.46417582417582415,0.4802930402930403
4.035402660003456,2.6649816849816848,0.3384615384615384,1.4175091575091574
4.037328762002289,0.16117216117216115,0.11926739926739927,0.4859340659340659
4.038988034000795,0.16117216117216115,0.11926739926739927,0.4859340659340659
4.042967374,0.16117216117216115,0.11926739926739927,0.4859340659340659
4.046992603005492,0.16117216117216115,0.11926739926739927,0.4859340659340659
4.050065870003891,0.16117216117216115,0.11926739926739927,0.4859340659340659
4.052451183000812,0.16117216117216115,0.11926739926739927,0.4859340659340659
4.0585533720004605,0.16117216117216115,0.11926739926739927,0.4859340659340659
4.063500680000288,1.1805860805860806,0.9388278388278387,0.20227106227106226
4.068567863003409,2.17018315018315,0.6809523809523809,0.23047619047619047
4.072238854001625,2.17018315018315,0.6809523809523809,0.23047619047619047
4.07801113500318,2.17018315018315,0.6809523809523809,0.23047619047619047
4.078133025002899,0.0,0.045128205128205125,0.5326739926739926
4.083495018006943,0.0,0.045128205128205125,0.5326739926739926
4.087655585004541,0.0,0.045128205128205125,0.5326739926739926
4.089395808005065,1.2418315018315018,0.4158241758241758,1.261978021978022
4.092532734000997,1.2418315018315018,0.4158241758241758,1.261978021978022
4.094314410001971,2.146007326007326,0.05802197802197802,1.0935531135531134
4.097448359003465,2.146007326007326,0.05802197802197802,1.0935531135531134
4.099856109001848,0.07897435897435898,0.11604395604395604,0.4867399267399267
4.1000976450013695,0.07897435897435898,0.11604395604395604,0.4867399267399267
4.106881798004906,0.07897435897435898,0.11604395604395604,0.4867399267399267
4.110707659005129,0.07897435897435898,0.11604395604395604,0.4867399267399267
4.116292512000655,0.07897435897435898,0.11604395604395604,0.4867399267399267
4.116612453006383,0.07897435897435898,0.11604395604395604,0.4867399267399267
4.122988989001897,0.07897435897435898,0.11604395604395604,0.4867399267399267
4.126823020000302,0.07897435897435898,0.11604395604395604,0.4867399267399267
4.131459089003329,0.07897435897435898,0.11604395604395604,0.4867399267399267
4.131718512006046,1.7011721611721609,0.08783882783882783,1.1813919413919414
4.138732416002313,1.7011721611721609,0.08783882783882783,1.1813919413919414
4.1423132740019355,1.7011721611721609,0.08783882783882783,1.1813919413919414
4.148043346001941,1.7011721611721609,0.08783882783882783,1.1813919413919414
4.148245151001902,1.7011721611721609,0.08783882783882783,1.1813919413919414
4.155433394000283,1.7011721611721609,0.08783882783882783,1.1813919413919414
4.159370309003862,2.075091575091575,0.045128205128205125,1.2700366300366301
4.165203147000284,2.075091575091575,0.045128205128205125,1.2700366300366301
4.165408729000774,1.6624908424908424,0.6213186813186813,0.22967032967032966
4.172997904002841,1.6624908424908424,0.6213186813186813,0.22967032967032966
4.177597648005758,1.4932600732600732,0.026593406593406595,1.066959706959707
4.178519670000242,1.4932600732600732,0.026593406593406595,1.066959706959707
4.180112355003075,1.4932600732600732,0.026593406593406595,1.066959706959707
4.18376226300461,1.4932600732600732,0.026593406593406595,1.066959706959707
4.183982357004425,1.4932600732600732,0.026593406593406595,1.066959706959707
4.190650315002131,1.4932600732600732,0.026593406593406595,1.066959706959707
4.194545434002066,1.0967765567765566,0.3972893772893773,1.1999267399267397
4.199096678006754,1.0967765567765566,0.3972893772893773,1.1999267399267397
4.199371128001076,1.0967765567765566,0.3972893772893773,1.1999267399267397
4.20514973000536,1.0967765567765566,0.3972893772893773,1.1999267399267397
4.205260899005225,1.8365567765567765,0.6559706959706959,0.23047619047619047
4.210070275999897,1.8365567765567765,0.6559706959706959,0.23047619047619047
4.210293616000854,1.8365567765567765,0.6559706959706959,0.23047619047619047
4.215807943000982,1.8365567765567765,0.6559706959706959,0.23047619047619047
4.2177905200005625,1.8365567765567765,0.6559706959706959,0.23047619047619047
4.220012197001779,1.8365567765567765,0.6559706959706959,0.23047619047619047
4.220230977000028,1.8365567765567765,0.6559706959706959,0.23047619047619047
4.224932766002894,1.8365567765567765,0.6559706959706959,0.23047619047619047
4.225131427003362,2.0589743589743588,0.3473260073260073,0.5044688644688645
4.230515162002121,2.0589743589743588,0.3473260073260073,0.5044688644688645
4.232940515001246,2.0589743589743588,0.3473260073260073,0.5044688644688645
4.240393040003255,2.0589743589743588,0.3473260073260073,0.5044688644688645
4.245103722001659,2.0589743589743588,0.3473260073260073,0.5044688644688645
4.24526031500136,2.0589743589743588,0.3473260073260073,0.5044688644688645
4.251327560006757,2.0589743589743588,0.3473260073260073,0.5044688644688645
4.256856850006443,2.0589743589743588,0.3473260073260073,0.5044688644688645
4.257128733006539,2.0589743589743588,0.3473260073260073,0.5044688644688645
4.262746906002576,2.0589743589743588,0.3473260073260073,0.5044688644688645
4.262955568003235,2.0589743589743588,0.3473260073260073,0.5044688644688645
4.269398950003961,2.0589743589743588,0.3473260073260073,0.5044688644688645
4.275156334006169,1.5263003663003663,0.0701098901098901,1.2515018315018314
4.2790540190035244,1.9461538461538461,0.07494505494505493,1.436043956043956
4.284620559999894,0.01531135531135531,0.04351648351648352,0.47142857142857136
4.286246393006877,3.3,0.3046153846153846,2.5924542124542125
4.290269836004882,3.3,0.3046153846153846,2.5924542124542125
4.291950694001571,3.3,0.3046153846153846,2.5924542124542125
4.295228029004647,3.3,0.3046153846153846,2.5924542124542125
4.2961027860001195,3.3,0.3046153846153846,2.5924542124542125
4.297879446006846,3.3,0.3046153846153846,2.5924542124542125
4.302027065001312,3.3,0.3046153846153846,2.5924542124542125
4.303523059999861,3.3,0.2683516483516483,2.4981684981684977
4.3088452000010875,3.3,0.2683516483516483,2.4981684981684977
4.310515617005876,3.3,0.2683516483516483,2.4981684981684977
4.314448020006239,3.3,0.2683516483516483,2.4981684981684977
4.321552248002263,3.3,0.2683516483516483,2.4981684981684977
4.327837131000706,3.3,0.2683516483516483,2.4981684981684977
4.3321180020066095,3.3,0.2683516483516483,2.4981684981684977
4.332418281999708,3.3,0.2683516483516483,2.4981684981684977
4.339819518005243,3.3,0.2683516483516483,2.4981684981684977
4.343923981999978,1.577875457875458,0.3199267399267399,1.3006593406593405
4.346329837004305,2.028351648351648,0.12329670329670328,1.0057142857142858
4.346515837001789,2.028351648351648,0.12329670329670328,1.0057142857142858
4.353926030002185,2.028351648351648,0.12329670329670328,1.0057142857142858
4.360849828000937,0.9718681318681318,0.23208791208791207,0.42630036630036633
4.365765068003384,0.9718681318681318,0.23208791208791207,0.42630036630036633
4.3713262700039195,0.9718681318681318,0.23208791208791207,0.42630036630036633
4.3796027100033825,0.9718681318681318,0.23208791208791207,0.42630036630036633
4.389071681005589,0.9718681318681318,0.23208791208791207,0.42630036630036633
4.394082871003775,0.9718681318681318,0.23208791208791207,0.42630036630036633
4.399278677003167,0.9718681318681318,0.23208791208791207,0.42630036630036633
4.403379949006194,0.9718681318681318,0.23208791208791207,0.42630036630036633
4.406381849999889,0.9718681318681318,0.23208791208791207,0.42630036630036633
4.407782041002065,0.9718681318681318,0.23208791208791207,0.42630036630036633
4.414543799000967,0.9718681318681318,0.23208791208791207,0.42630036630036633
4.421206621002057,0.9718681318681318,0.23208791208791207,0.42630036630036633
4.426155891000235,3.3,0.469010989010989,2.266080586080586
4.431266842002515,0.6052014652014651,0.49721611721611714,0.904981684981685
4.437066688005871,0.6052014652014651,0.49721611721611714,0.904981684981685
4.442792276000546,0.4520879120879121,0.2079120879120879,0.36827838827838827
4.447981329001777,3.1388278388278383,0.07897435897435898,1.838168498168498
4.451853277001646,3.1388278388278383,0.07897435897435898,1.838168498168498
4.457295200001681,3.1388278388278383,0.07897435897435898,1.838168498168498
4.457443197003158,3.1388278388278383,0.07897435897435898,1.838168498168498
4.462305151006149,0.005641025641025641,0.05318681318681319,0.5342857142857143
4.467294869005855,0.005641025641025641,0.05318681318681319,0.5342857142857143
4.472670819006453,0.005641025641025641,0.05318681318681319,0.5342857142857143
4.4735717970033875,0.005641025641025641,0.05318681318681319,0.5342857142857143
4.474537638001493,0.005641025641025641,0.05318681318681319,0.5342857142857143
4.475646792001498,0.005641025641025641,0.05318681318681319,0.5342857142857143
4.475936378003098,0.005641025641025641,0.05318681318681319,0.5342857142857143
4.4806958900007885,0.005641025641025641,0.05318681318681319,0.5342857142857143
4.4871411610001815,0.005641025641025641,0.05318681318681319,0.5342857142857143
4.490818100006436,0.005641025641025641,0.05318681318681319,0.5342857142857143
4.490945494006155,0.005641025641025641,0.05318681318681319,0.5342857142857143
4.496351212001173,0.005641025641025641,0.05318681318681319,0.5342857142857143
4.498178168003506,1.656043956043956,0.01934065934065934,0.7067399267399267
4.502585160000308,1.656043956043956,0.01934065934065934,0.7067399267399267
4.502862127003027,2.993772893772894,0.49882783882783877,1.8768498168498167
4.509140885005763,2.993772893772894,0.49882783882783877,1.8768498168498167
4.513211501005571,2.993772893772894,0.49882783882783877,1.8768498168498167
4.516277482005535,2.993772893772894,0.49882783882783877,1.8768498168498167
4.520452818003832,2.993772893772894,0.49882783882783877,1.8768498168498167
4.521782501004054,2.518315018315018,0.5004395604395604,1.6117216117216115
4.521950448004645,2.518315018315018,0.5004395604395604,1.6117216117216115
4.526938100003463,2.518315018315018,0.5004395604395604,1.6117216117216115
4.531616247004422,2.518315018315018,0.5004395604395604,1.6117216117216115
4.532518963002076,2.518315018315018,0.5004395604395604,1.6117216117216115
4.535454153003229,2.518315018315018,0.5004395604395604,1.6117216117216115
4.536884960005409,0.253040293040293,0.15956043956043955,0.45772893772893775
4.537118468004337,0.253040293040293,0.15956043956043955,0.45772893772893775
4.541488449001918,0.253040293040293,0.15956043956043955,0.45772893772893775
4.542407384004036,0.253040293040293,0.15956043956043955,0.45772893772893775
4.544074010002078,0.253040293040293,0.15956043956043955,0.45772893772893775
4.547991348001233,0.253040293040293,0.15956043956043955,0.45772893772893775
4.553088155000296,1.0411721611721612,0.46498168498168496,1.1217582417582417
4.556280540004082,1.6318681318681318,0.0547985347985348,0.6454945054945055
4.557874540005287,1.6318681318681318,0.0547985347985348,0.6454945054945055
4.562468080999679,1.6318681318681318,0.0547985347985348,0.6454945054945055
4.562674270004209,1.6318681318681318,0.0547985347985348,0.6454945054945055
4.568861907006067,1.6318681318681318,0.0547985347985348,0.6454945054945055
4.573640583999804,1.6318681318681318,0.0547985347985348,0.6454945054945055
4.57909699800075,1.6318681318681318,0.0547985347985348,0.6454945054945055
4.580725167004857,1.6318681318681318,0.0547985347985348,0.6454945054945055
4.58789960800641,1.6318681318681318,0.0547985347985348,0.6454945054945055
4.592533330003789,2.5989010989010985,0.3642490842490842,1.7422710622710622
4.598779106003349,2.5989010989010985,0.3642490842490842,1.7422710622710622
4.603357678002794,2.5989010989010985,0.3642490842490842,1.7422710622710622
4.6036289100011345,2.5989010989010985,0.3642490842490842,1.7422710622710622
4.609428415002185,2.5989010989010985,0.3642490842490842,1.7422710622710622
4.618312205006077,1.7446886446886447,0.1386080586080586,1.166080586080586
4.624780153004394,1.7446886446886447,0.1386080586080586,1.166080586080586
4.6305936360004125,1.7446886446886447,0.1386080586080586,1.166080586080586
4.638348101005249,1.7446886446886447,0.1386080586080586,1.166080586080586
4.6423994270007825,2.2169230769230768,0.06688644688644689,1.1040293040293039
4.645507780005573,2.2169230769230768,0.06688644688644689,1.1040293040293039
4.647148611002194,2.2169230769230768,0.06688644688644689,1.1040293040293039
4.6530188790056854,1.527106227106227,0.4126007326007326,1.427985347985348
4.6595675720018335,1.527106227106227,0.4126007326007326,1.427985347985348
4.663485996003146,1.527106227106227,0.4126007326007326,1.427985347985348
4.667692403003457,1.527106227106227,0.4126007326007326,1.427985347985348
4.671079201005341,1.527106227106227,0.4126007326007326,1.427985347985348
4.67128856000636,1.527106227106227,0.4126007326007326,1.427985347985348
4.67604401200515,1.527106227106227,0.4126007326007326,1.427985347985348
4.681590464002511,1.527106227106227,0.4126007326007326,1.427985347985348
4.683978584005672,1.527106227106227,0.4126007326007326,1.427985347985348
4.691172185004689,1.527106227106227,0.4126007326007326,1.427985347985348
4.697174005006673,1.527106227106227,0.4126007326007326,1.427985347985348
4.704935147005017,1.3288644688644689,0.9138461538461539,0.2111355311355311
4.709423172003881,1.3288644688644689,0.9138461538461539,0.2111355311355311
4.70977618300094,1.9558241758241757,0.2498168498168498,1.692307692307692
4.715953501006879,1.9558241758241757,0.2498168498168498,1.692307692307692
4.721308042004239,2.3200732600732596,0.06205128205128205,1.49003663003663
4.721661560004577,3.187179487179487,0.4593406593406593,2.2435164835164834
4.726375172002008,3.187179487179487,0.4593406593406593,2.2435164835164834
4.73184401600156,2.3458608058608057,0.6052014652014651,0.36344322344322344
4.736341424002603,2.3458608058608057,0.6052014652014651,0.36344322344322344
4.736661169001309,1.2917948717948717,0.9178754578754579,0.27076923076923076
4.740874362003524,1.2917948717948717,0.9178754578754579,0.27076923076923076
4.741825394004991,1.5553113553113551,0.28124542124542123,1.4078388278388276
4.743493601999944,1.5553113553113551,0.28124542124542123,1.4078388278388276
4.747487746004481,1.5553113553113551,0.28124542124542123,1.4078388278388276
4.752116373005265,1.7463003663003662,0.3021978021978022,1.5335531135531135
4.760115761004272,1.7463003663003662,0.3021978021978022,1.5335531135531135
4.767475420005212,0.0,0.03626373626373627,0.5697435897435897
4.776459838001756,0.0,0.03626373626373627,0.5697435897435897
4.783117074002803,2.294285714285714,0.10315018315018315,1.6504029304029304
4.790227909004898,2.294285714285714,0.10315018315018315,1.6504029304029304
4.795700547001616,1.6230036630036628,0.3183150183150183,1.7180952380952381
4.797217819002981,2.1065201465201464,0.03304029304029304,1.498901098901099
4.803324482003518,0.12249084249084248,0.11926739926739927,0.5076923076923077
4.810065486002713,0.12249084249084248,0.11926739926739927,0.5076923076923077
4.813497271003143,1.4739194139194138,0.0547985347985348,1.2232967032967033
4.81381893800426,1.4739194139194138,0.0547985347985348,1.2232967032967033
4.822380350000458,1.4739194139194138,0.0547985347985348,1.2232967032967033
4.829445387003943,1.4739194139194138,0.0547985347985348,1.2232967032967033
4.833471627003746,2.096043956043956,0.22805860805860806,2.121025641025641
4.840216659002181,2.096043956043956,0.22805860805860806,2.121025641025641
4.844282330006536,0.0,0.0556043956043956,0.3449084249084249
4.846703222006909,0.0,0.0556043956043956,0.3449084249084249
4.846849480003584,0.0,0.0556043956043956,0.3449084249084249
4.854928764005308,0.0,0.0556043956043956,0.3449084249084249
4.861471697004163,0.0,0.0556043956043956,0.3449084249084249
4.865637573006097,0.0,0.0556043956043956,0.3449084249084249
4.870882845003507,3.1823443223443224,0.13377289377289378,1.9115018315018315
4.871149739999964,3.1823443223443224,0.13377289377289378,1.9115018315018315
4.876167822003481,3.1823443223443224,0.13377289377289378,1.9115018315018315
4.880017980001867,3.1823443223443224,0.13377289377289378,1.9115018315018315
4.885295781001332,3.1823443223443224,0.13377289377289378,1.9115018315018315
4.888791244004096,2.4119413919413915,0.0975091575091575,1.2224908424908425
4.8945360140060075,2.4119413919413915,0.0975091575091575,1.2224908424908425
4.901286313004675,1.311135531135531,0.12732600732600732,0.7164102564102564
4.905905913001334,1.311135531135531,0.12732600732600732,0.7164102564102564
4.906032344006235,1.311135531135531,0.12732600732600732,0.7164102564102564
4.911522158006846,1.311135531135531,0.12732600732600732,0.7164102564102564
4.913168858001882,1.987252747252747,0.23369963369963367,1.68021978021978
4.917889633004961,1.987252747252747,0.23369963369963367,1.68021978021978
4.926012173003983,1.987252747252747,0.23369963369963367,1.68021978021978
4.9314032470065285,2.181465201465201,0.1095970695970696,0.896117216117216
4.933017848001327,1.6447619047619046,0.365054945054945,1.4183150183150184
4.9386139510024805,1.6447619047619046,0.365054945054945,1.4183150183150184
4.945209857003647,1.6447619047619046,0.365054945054945,1.4183150183150184
4.949829796001723,1.6447619047619046,0.365054945054945,1.4183150183150184
4.949965445004636,2.265274725274725,0.2191941391941392,1.5762637362637362
4.956920292999712,1.5956043956043955,0.0821978021978022,0.9259340659340659
4.961228407002636,1.5956043956043955,0.0821978021978022,0.9259340659340659
4.962171291001141,1.5956043956043955,0.0821978021978022,0.9259340659340659
4.963776315002178,3.3,0.10637362637362638,1.9058608058608055
4.96882234000077,3.3,0.10637362637362638,1.9058608058608055
4.972478843003046,3.3,0.10637362637362638,1.9058608058608055
4.977096598006028,1.90989010989011,0.1265201465201465,1.1797802197802196
4.977238023006066,1.90989010989011,0.1265201465201465,1.1797802197802196
4.982583996003086,1.90989010989011,0.1265201465201465,1.1797802197802196
4.984893218999787,1.90989010989011,0.1265201465201465,1.1797802197802196
4.985042215004796,1.90989010989011,0.1265201465201465,1.1797802197802196
4.991500233001716,1.90989010989011,0.1265201465201465,1.1797802197802196
4.996825946000172,1.4094505494505494,0.42630036630036633,1.216849816849817
4.997147746005794,1.4094505494505494,0.42630036630036633,1.216849816849817
5.008306188006827,1.4094505494505494,0.42630036630036633,1.216849816849817
5.016616391003481,2.4747985347985346,0.26915750915750913,1.0073260073260073
5.024674356005562,2.4747985347985346,0.26915750915750913,1.0073260073260073
5.031981883999833,2.4747985347985346,0.26915750915750913,1.0073260073260073
5.036485214004642,2.4747985347985346,0.26915750915750913,1.0073260073260073
5.036818677006522,1.6753846153846153,0.0410989010989011,0.5931135531135531
5.041267097003583,1.6753846153846153,0.0410989010989011,0.5931135531135531
5.042792505002581,1.6753846153846153,0.0410989010989011,0.5931135531135531
5.047874405005132,3.2419780219780217,0.09428571428571428,1.7382417582417582
5.052126640002825,3.2419780219780217,0.09428571428571428,1.7382417582417582
5.053589296003338,2.2225641025641028,0.2482051282051282,1.5641758241758241
5.059768566999992,2.2225641025641028,0.2482051282051282,1.5641758241758241
5.064757159001601,2.2225641025641028,0.2482051282051282,1.5641758241758241
5.06766668700584,2.2225641025641028,0.2482051282051282,1.5641758241758241
5.069876296001894,2.2225641025641028,0.2482051282051282,1.5641758241758241
5.070760585003882,2.2225641025641028,0.2482051282051282,1.5641758241758241
5.072305412002606,2.2225641025641028,0.2482051282051282,1.5641758241758241
5.079577793003409,2.2225641025641028,0.2482051282051282,1.5641758241758241
5.083368794003036,2.2225641025641028,0.2482051282051282,1.5641758241758241
5.090032169006008,2.2225641025641028,0.2482051282051282,1.5641758241758241
5.094062951000524,0.43113553113553116,0.5068864468864469,0.6205128205128204
5.098143322000396,0.43113553113553116,0.5068864468864469,0.6205128205128204
5.102332769005443,0.43113553113553116,0.5068864468864469,0.6205128205128204
5.104539806001412,2.8422710622710623,0.43597069597069593,1.8575091575091573
5.1048074120044475,2.8422710622710623,0.43597069597069593,1.8575091575091573
5.109721634005837,2.8422710622710623,0.43597069597069593,1.8575091575091573
5.114522300005774,1.58996336996337,0.3892307692307692,1.4118681318681316
5.120402609005396,1.58996336996337,0.3892307692307692,1.4118681318681316
5.125476947003335,1.58996336996337,0.3892307692307692,1.4118681318681316
5.129710561006505,3.2709890109890107,0.14586080586080585,1.814798534798535
5.13174123600038,3.2709890109890107,0.14586080586080585,1.814798534798535
5.13268161900487,3.2709890109890107,0.14586080586080585,1.814798534798535
5.134279025005526,3.2709890109890107,0.14586080586080585,1.814798534798535
5.138276059005875,1.1499633699633698,0.8292307692307692,0.23853479853479853
5.142322249004792,1.1499633699633698,0.8292307692307692,0.23853479853479853
5.145464462002565,1.1499633699633698,0.8292307692307692,0.23853479853479853
5.147108900004241,1.1499633699633698,0.8292307692307692,0.23853479853479853
5.150415209005587,1.7374358974358974,0.311062271062271,1.523882783882784
5.151377936999779,1.7374358974358974,0.311062271062271,1.523882783882784
5.152406373003032,1.7374358974358974,0.311062271062271,1.523882783882784
5.153293354000198,1.7374358974358974,0.311062271062271,1.523882783882784
5.154912230005721,1.7374358974358974,0.311062271062271,1.523882783882784
5.158755723001377,1.7374358974358974,0.311062271062271,1.523882783882784
5.1629127630003495,1.7374358974358974,0.311062271062271,1.523882783882784
5.1653717330045765,3.3,0.41098901098901097,2.289450549450549
5.170831920004275,3.3,0.41098901098901097,2.289450549450549
5.172621240002627,3.3,0.41098901098901097,2.289450549450549
5.175058394001098,3.3,0.41098901098901097,2.289450549450549
5.175166852000984,3.3,0.41098901098901097,2.289450549450549
5.18093223800679,3.3,0.41098901098901097,2.289450549450549
5.181061797004077,0.0,0.0556043956043956,0.5052747252747253
5.186537359004433,0.0,0.0556043956043956,0.5052747252747253
5.187424092000583,0.7526739926739926,0.4432234432234432,0.9775091575091575
5.189025392006442,1.8607326007326006,0.2772161172161172,1.6149450549450548
5.193527271003404,1.7849816849816849,0.22886446886446887,1.4819780219780219
5.193795282000792,1.706007326007326,0.03706959706959707,0.8308424908424907
5.199121629004367,1.706007326007326,0.03706959706959707,0.8308424908424907
5.200763478002045,0.0,0.0547985347985348,0.5310622710622711
5.20462522800517,3.2766300366300367,0.4585347985347985,2.1443956043956045
5.209292257000925,2.036410256410256,0.6350183150183151,0.24498168498168496
5.214787392003927,1.7132600732600733,0.09428571428571428,1.2176556776556777
5.216471973006264,1.7132600732600733,0.09428571428571428,1.2176556776556777
5.219677475004573,1.7132600732600733,0.09428571428571428,1.2176556776556777
5.221330028005468,1.7132600732600733,0.09428571428571428,1.2176556776556777
5.224582670001837,3.3,0.4802930402930403,2.237069597069597
5.226137119003397,3.3,0.4802930402930403,2.237069597069597
5.230434384000546,3.3,0.4802930402930403,2.237069597069597
5.232029693004733,3.3,0.4802930402930403,2.237069597069597
5.235885031004727,3.3,0.4802930402930403,2.237069597069597
5.240484456000559,3.3,0.4802930402930403,2.237069597069597
5.2407510000048205,3.3,0.4802930402930403,2.237069597069597
5.2454207280025,3.3,0.4802930402930403,2.237069597069597
5.24563480100187,3.3,0.4802930402930403,2.237069597069597
5.250383737002267,3.3,0.4802930402930403,2.237069597069597
5.250634802003333,3.3,0.4802930402930403,2.237069597069597
5.255325432000973,3.3,0.4802930402930403,2.237069597069597
5.255640485003823,3.3,0.4802930402930403,2.237069597069597
5.260231603002467,3.3,0.4802930402930403,2.237069597069597
5.261095441004727,3.3,0.4802930402930403,2.237069597069597
5.2620411300013075,3.3,0.4802930402930403,2.237069597069597
5.2636727720018825,3.3,0.4802930402930403,2.237069597069597
5.2675506900050095,3.3,0.4802930402930403,2.237069597069597
5.272313195004244,3.3,0.4802930402930403,2.237069597069597
5.281164703003014,2.129084249084249,0.03706959706959707,1.2345787545787545
5.28526730700105,2.129084249084249,0.03706959706959707,1.2345787545787545
5.28773021500092,2.129084249084249,0.03706959706959707,1.2345787545787545
5.287943691000692,2.129084249084249,0.03706959706959707,1.2345787545787545
5.292630286006897,2.129084249084249,0.03706959706959707,1.2345787545787545
5.292903446003038,2.129084249084249,0.03706959706959707,1.2345787545787545
5.298448154004291,2.129084249084249,0.03706959706959707,1.2345787545787545
5.29938242600474,0.1643956043956044,0.10315018315018315,0.6487179487179486
5.300353063001239,0.06608058608058608,0.012893772893772894,0.5093040293040293
5.302145275003568,0.06608058608058608,0.012893772893772894,0.5093040293040293
5.30454573300085,3.3,0.37875457875457874,2.3563369963369962
5.304824576000101,3.3,0.37875457875457874,2.3563369963369962
5.30947908100643,3.3,0.37875457875457874,2.3563369963369962
5.309634830002324,3.3,0.37875457875457874,2.3563369963369962
5.314457575004781,1.4690842490842488,0.04996336996336996,1.0137728937728938
5.314623484002368,1.4690842490842488,0.04996336996336996,1.0137728937728938
5.319293227003072,1.4690842490842488,0.04996336996336996,1.0137728937728938
5.319630115001928,1.4690842490842488,0.04996336996336996,1.0137728937728938
5.3253379779998795,1.4690842490842488,0.04996336996336996,1.0137728937728938
5.325522864004597,1.4690842490842488,0.04996336996336996,1.0137728937728938
5.333618330005265,1.4690842490842488,0.04996336996336996,1.0137728937728938
5.340246194005886,2.2523809523809524,0.07978021978021978,1.3731868131868132
5.345495401001244,0.0024175824175824176,0.052380952380952375,0.3932600732600733
5.346981679002056,0.5898901098901098,0.38278388278388276,0.28285714285714286
5.355719472005148,0.5898901098901098,0.38278388278388276,0.28285714285714286
5.363909904001048,0.5898901098901098,0.38278388278388276,0.28285714285714286
5.372365485003684,0.5898901098901098,0.38278388278388276,0.28285714285714286
5.377050044000498,0.5898901098901098,0.38278388278388276,0.28285714285714286
5.382952352003485,1.2490842490842489,0.14102564102564102,0.48432234432234433
5.394098994001979,1.2490842490842489,0.14102564102564102,0.48432234432234433
5.404553997999756,0.2111355311355311,0.40534798534798533,0.40615384615384614
5.412919800000964,0.0,0.07978021978021978,0.5576556776556777
5.420611266003107,1.8752380952380951,0.08783882783882783,1.2684249084249084
5.424187551005161,1.8752380952380951,0.08783882783882783,1.2684249084249084
5.424328469001921,1.8752380952380951,0.08783882783882783,1.2684249084249084
5.4292052580058225,2.0444688644688642,0.6446886446886446,0.22564102564102564
5.436488469000324,2.0444688644688642,0.6446886446886446,0.22564102564102564
5.4419555150016095,1.2434432234432233,0.8219780219780219,0.24659340659340656
5.442070089004119,1.2434432234432233,0.8219780219780219,0.24659340659340656
5.446689365002385,1.2434432234432233,0.8219780219780219,0.24659340659340656
5.447594586003106,1.0597069597069597,0.42710622710622714,1.075018315018315
5.448597516005975,1.0597069597069597,0.42710622710622714,1.075018315018315
5.448937349006883,1.0597069597069597,0.42710622710622714,1.075018315018315
5.4571840280041215,1.0597069597069597,0.42710622710622714,1.075018315018315
5.462695641006576,1.0597069597069597,0.42710622710622714,1.075018315018315
5.463544188001833,1.0597069597069597,0.42710622710622714,1.075018315018315
5.465148524999677,1.0597069597069597,0.42710622710622714,1.075018315018315
5.472140813006263,1.0597069597069597,0.42710622710622714,1.075018315018315
5.475328456006537,1.9558241758241757,0.2191941391941392,1.4803663003663003
5.4769646800050396,1.9558241758241757,0.2191941391941392,1.4803663003663003
5.480860114003008,1.9558241758241757,0.2191941391941392,1.4803663003663003
5.488766304006276,0.0273992673992674,0.03304029304029304,0.5608791208791208
5.4937426110045635,0.0273992673992674,0.03304029304029304,0.5608791208791208
5.498337512006401,0.0273992673992674,0.03304029304029304,0.5608791208791208
5.498437046000618,0.0273992673992674,0.03304029304029304,0.5608791208791208
5.506158112002595,0.0273992673992674,0.03304029304029304,0.5608791208791208
5.510834429005627,0.0273992673992674,0.03304029304029304,0.5608791208791208
5.511667662001855,0.0273992673992674,0.03304029304029304,0.5608791208791208
5.512561257004563,0.0273992673992674,0.03304029304029304,0.5608791208791208
5.514559765004378,0.0273992673992674,0.03304029304029304,0.5608791208791208
5.516345984004147,1.7237362637362637,0.045128205128205125,0.8356776556776556
5.520890509003948,1.7237362637362637,0.045128205128205125,0.8356776556776556
5.5210829860006925,1.7237362637362637,0.045128205128205125,0.8356776556776556
5.525394739001058,1.7237362637362637,0.045128205128205125,0.8356776556776556
5.526977592002368,1.7237362637362637,0.045128205128205125,0.8356776556776556
5.531523008001386,1.7237362637362637,0.045128205128205125,0.8356776556776556
5.533840982003312,1.8607326007326006,0.12168498168498168,1.2813186813186812
5.541655191002064,1.8607326007326006,0.12168498168498168,1.2813186813186812
5.54717455500213,1.8607326007326006,0.12168498168498168,1.2813186813186812
5.548189790002652,1.8607326007326006,0.12168498168498168,1.2813186813186812
5.54902648999996,1.8607326007326006,0.12168498168498168,1.2813186813186812
5.550804856000468,1.8607326007326006,0.12168498168498168,1.2813186813186812
5.55465331600135,1.8607326007326006,0.12168498168498168,1.2813186813186812
5.558656462002546,1.8607326007326006,0.12168498168498168,1.2813186813186812
5.561797061003745,1.8607326007326006,0.12168498168498168,1.2813186813186812
5.563494075002382,1.8607326007326006,0.12168498168498168,1.2813186813186812
5.567886138000176,2.5295970695970698,0.016923076923076923,1.1217582417582417
5.568995190005808,1.5810989010989012,0.6817582417582417,0.2506227106227106
5.569321189002949,1.5810989010989012,0.6817582417582417,0.2506227106227106
5.573930010999902,1.5810989010989012,0.6817582417582417,0.2506227106227106
5.574169082006847,1.3272527472527473,0.07333333333333333,0.5093040293040293
5.579088665006566,1.3272527472527473,0.07333333333333333,0.5093040293040293
5.5848445299998275,1.3272527472527473,0.07333333333333333,0.5093040293040293
5.590912010004104,1.3272527472527473,0.07333333333333333,0.5093040293040293
5.5954413050058065,1.3272527472527473,0.07333333333333333,0.5093040293040293
5.596264109000913,1.3272527472527473,0.07333333333333333,0.5093040293040293
5.597840467002243,1.3272527472527473,0.07333333333333333,0.5093040293040293
5.602526004004176,1.3272527472527473,0.07333333333333333,0.5093040293040293
5.602643637001165,1.3272527472527473,0.07333333333333333,0.5093040293040293
5.6074198839996825,1.3272527472527473,0.07333333333333333,0.5093040293040293
5.607632118000765,2.2217582417582418,0.6680586080586081,0.19743589743589743
5.613204435001535,2.2217582417582418,0.6680586080586081,0.19743589743589743
5.614053087003413,2.2217582417582418,0.6680586080586081,0.19743589743589743
5.615745500006597,2.2217582417582418,0.6680586080586081,0.19743589743589743
5.620000915005221,2.2217582417582418,0.6680586080586081,0.19743589743589743
5.621195143001387,2.2217582417582418,0.6680586080586081,0.19743589743589743
5.621473898005206,2.2217582417582418,0.6680586080586081,0.19743589743589743
5.626142799999798,2.2217582417582418,0.6680586080586081,0.19743589743589743
5.6262993950003874,0.8695238095238095,0.4794871794871795,0.26109890109890105
5.630962018003629,0.8695238095238095,0.4794871794871795,0.26109890109890105
5.631261948001338,0.8695238095238095,0.4794871794871795,0.26109890109890105
5.637800975004211,0.8695238095238095,0.4794871794871795,0.26109890109890105
5.641867877006007,0.8695238095238095,0.4794871794871795,0.26109890109890105
5.645354528001917,0.8695238095238095,0.4794871794871795,0.26109890109890105
5.645544580002024,0.8695238095238095,0.4794871794871795,0.26109890109890105
5.651658392001991,0.8695238095238095,0.4794871794871795,0.26109890109890105
5.65725248700619,1.4594139194139193,0.10153846153846154,0.7357509157509158
5.657456958004332,1.4594139194139193,0.10153846153846154,0.7357509157509158
5.662927430006675,1.4594139194139193,0.10153846153846154,0.7357509157509158
5.663822554000944,1.4594139194139193,0.10153846153846154,0.7357509157509158
5.665527992001444,1.4594139194139193,0.10153846153846154,0.7357509157509158
5.673108938004589,1.4594139194139193,0.10153846153846154,0.7357509157509158
5.67740721500013,1.4594139194139193,0.10153846153846154,0.7357509157509158
5.678407605002576,1.261172161172161,0.842124542124542,0.20146520146520144
5.679274457004794,1.261172161172161,0.842124542124542,0.20146520146520144
5.6809375709999586,0.1926007326007326,0.02336996336996337,0.5326739926739926
5.685408000004827,0.1926007326007326,0.02336996336996337,0.5326739926739926
5.685649350001768,0.1926007326007326,0.02336996336996337,0.5326739926739926
5.691065226004866,0.1926007326007326,0.02336996336996337,0.5326739926739926
5.692664091002371,2.0678388278388278,0.17406593406593407,1.328058608058608
5.697332820003794,2.0678388278388278,0.17406593406593407,1.328058608058608
5.704139230001601,1.4271794871794872,0.9726739926739927,0.21838827838827837
5.708106437006791,1.9364835164835164,0.759120879120879,0.23047619047619047
5.712010300005204,1.9364835164835164,0.759120879120879,0.23047619047619047
5.7178999460011255,1.9364835164835164,0.759120879120879,0.23047619047619047
5.724151899004937,1.9364835164835164,0.759120879120879,0.23047619047619047
5.728304693002428,1.9364835164835164,0.759120879120879,0.23047619047619047
5.731005149005796,1.9364835164835164,0.759120879120879,0.23047619047619047
5.737211353000021,1.6278388278388278,0.08783882783882783,0.9742857142857142
5.741084250999847,1.6278388278388278,0.08783882783882783,0.9742857142857142
5.744924183003604,0.0,0.047545787545787546,0.5657142857142857
5.748886317000142,0.0,0.047545787545787546,0.5657142857142857
5.755289135006024,0.0,0.047545787545787546,0.5657142857142857
5.758589876000769,0.0,0.047545787545787546,0.5657142857142857
5.759579338002368,0.0,0.047545787545787546,0.5657142857142857
5.761162618000526,0.0,0.047545787545787546,0.5657142857142857
5.764211523004633,0.0,0.047545787545787546,0.5657142857142857
5.767292202006502,0.0,0.047545787545787546,0.5657142857142857
5.769367037006305,0.0,0.047545787545787546,0.5657142857142857
5.772020506999979,0.0,0.047545787545787546,0.5657142857142857
5.775234154003556,0.0,0.047545787545787546,0.5657142857142857
5.776116963999812,0.0,0.047545787545787546,0.5657142857142857
5.777803742006654,0.0,0.047545787545787546,0.5657142857142857
5.780950858999859,0.0,0.047545787545787546,0.5657142857142857
5.782789932003652,0.0,0.047545787545787546,0.5657142857142857
5.788464385004772,0.0,0.047545787545787546,0.5657142857142857
5.788549231001525,0.0,0.047545787545787546,0.5657142857142857
5.794328243006021,0.0,0.047545787545787546,0.5657142857142857
5.7944895920009,1.9123076923076923,0.026593406593406595,1.1539926739926738
5.800457056000596,1.9123076923076923,0.026593406593406595,1.1539926739926738
5.807491311999911,0.2747985347985348,0.12893772893772892,0.5197802197802197
5.812369660001423,0.2747985347985348,0.12893772893772892,0.5197802197802197
5.817706943002122,0.2747985347985348,0.12893772893772892,0.5197802197802197
5.820579314000497,0.17084249084249084,0.03465201465201465,0.7623443223443224
5.824640168000769,0.17084249084249084,0.03465201465201465,0.7623443223443224
5.827140353001596,3.2016849816849815,0.13699633699633698,2.436923076923077
5.8272917790018255,3.2016849816849815,0.13699633699633698,2.436923076923077
5.831963455006189,3.2016849816849815,0.13699633699633698,2.436923076923077
5.832188041000336,1.9227838827838828,0.07252747252747253,1.6866666666666665
5.838507151005615,1.9227838827838828,0.07252747252747253,1.6866666666666665
5.8424169040008564,1.2047619047619047,0.9299633699633699,0.38358974358974357
5.847257341003569,1.2047619047619047,0.9299633699633699,0.38358974358974357
5.8574544210059685,1.2047619047619047,0.9299633699633699,0.38358974358974357
5.866114806005498,1.8172161172161172,0.02095238095238095,1.593992673992674
5.87595043300098,1.8172161172161172,0.02095238095238095,1.593992673992674
5.884964274002414,1.8172161172161172,0.02095238095238095,1.593992673992674
5.890565856003377,1.8172161172161172,0.02095238095238095,1.593992673992674
5.890701522002928,1.5496703296703296,0.42630036630036633,2.033992673992674
5.896278753003571,1.5496703296703296,0.42630036630036633,2.033992673992674
5.896550789002504,1.5496703296703296,0.42630036630036633,2.033992673992674
5.903637631003221,1.5496703296703296,0.42630036630036633,2.033992673992674
5.908320590002404,3.3,0.46095238095238095,2.8994871794871795
5.9140990110026905,0.7849084249084248,0.37150183150183147,0.46175824175824176
5.914363742005662,2.436117216117216,0.14263736263736262,2.34021978021978
5.920707336001215,2.436117216117216,0.14263736263736262,2.34021978021978
