time,emg1,emg2,emg3
0.0022537070035468787,2.6577289377289377,0.3545787545787546,1.4287912087912087
0.02487654099968495,2.6577289377289377,0.3545787545787546,1.4287912087912087
0.04320138999901246,2.6577289377289377,0.3545787545787546,1.4287912087912087
0.05567068600066705,0.0,0.08058608058608058,0.693040293040293
0.05593823900562711,0.0,0.08058608058608058,0.693040293040293
0.06568755800253712,0.0,0.08058608058608058,0.693040293040293
0.0744251920041279,0.0,0.08058608058608058,0.693040293040293
0.08140213000297081,1.8317216117216117,0.7293040293040293,1.0975824175824174
0.08635354899888625,1.6915018315018313,0.0,0.2328937728937729
0.09309271000529407,1.6915018315018313,0.0,0.2328937728937729
0.09906159400270553,1.6915018315018313,0.0,0.2328937728937729
0.10490569000103278,1.6915018315018313,0.0,0.2328937728937729
0.11201844500465086,1.6915018315018313,0.0,0.2328937728937729
0.11737861399888061,1.93003663003663,0.22967032967032966,0.3932600732600733
0.11775311500241514,1.93003663003663,0.22967032967032966,0.3932600732600733
0.1253239889992983,1.93003663003663,0.22967032967032966,0.3932600732600733
0.13176896100048907,0.6648351648351648,0.5786080586080585,1.0153846153846153
0.137218367002788,0.6648351648351648,0.5786080586080585,1.0153846153846153
0.13751827899977798,0.6648351648351648,0.5786080586080585,1.0153846153846153
0.1453432359994622,0.6648351648351648,0.5786080586080585,1.0153846153846153
0.15220964699983597,0.5431501831501832,0.307032967032967,1.0363369963369962
0.1576394049989176,0.8131135531135532,0.3295970695970696,1.4046153846153846
0.15778896000119857,0.8131135531135532,0.3295970695970696,1.4046153846153846
0.16486494700075127,0.8131135531135532,0.3295970695970696,1.4046153846153846
0.17117953400156694,0.051575091575091575,0.09347985347985348,0.8590476190476191
0.17543468700023368,0.051575091575091575,0.09347985347985348,0.8590476190476191
0.17802842899982352,0.051575091575091575,0.09347985347985348,0.8590476190476191
0.18483971300156554,0.051575091575091575,0.09347985347985348,0.8590476190476191
0.19069657599902712,0.0,0.03062271062271062,0.6471062271062271
0.19645097200555028,0.0,0.03062271062271062,0.6471062271062271
0.20773535100306617,1.3667399267399267,0.14424908424908423,1.6504029304029304
0.21659374800219666,1.3667399267399267,0.14424908424908423,1.6504029304029304
0.22692700200423133,1.3667399267399267,0.14424908424908423,1.6504029304029304
0.23379684000246925,3.0356776556776555,0.2796336996336996,1.2498901098901098
0.2401362450036686,3.3,0.3489377289377289,1.2555311355311354
0.24650453300273512,3.3,0.3489377289377289,1.2555311355311354
0.2525096610042965,3.3,0.3489377289377289,1.2555311355311354
0.2603788920023362,3.3,0.3489377289377289,1.2555311355311354
0.26747010800318094,3.3,0.3489377289377289,1.2555311355311354
0.2742526430010912,0.04673992673992674,0.14827838827838827,0.7244688644688644
0.2802043039991986,0.04673992673992674,0.14827838827838827,0.7244688644688644
0.2867305239997222,1.7076190476190476,0.21516483516483517,1.1878388278388277
0.29321528199943714,1.7076190476190476,0.21516483516483517,1.1878388278388277
0.29680824100069003,1.7076190476190476,0.21516483516483517,1.1878388278388277
0.3068063360042288,1.7076190476190476,0.21516483516483517,1.1878388278388277
0.31547808200411964,1.7076190476190476,0.21516483516483517,1.1878388278388277
0.32305908299895236,1.7076190476190476,0.21516483516483517,1.1878388278388277
0.32825264200073434,1.9171428571428573,0.02175824175824176,0.09992673992673992
0.33084082799905445,1.4658608058608058,0.2602930402930403,1.0556776556776555
0.3359094510014984,1.5553113553113551,0.17567765567765567,0.5834432234432234
0.3415150340006221,1.544029304029304,0.2361172161172161,1.3876923076923076
0.34171003400115296,1.544029304029304,0.2361172161172161,1.3876923076923076
0.34679450100520626,1.544029304029304,0.2361172161172161,1.3876923076923076
0.3501036000016029,1.544029304029304,0.2361172161172161,1.3876923076923076
0.3510419410013128,1.544029304029304,0.2361172161172161,1.3876923076923076
0.35206437000306323,1.544029304029304,0.2361172161172161,1.3876923076923076
0.35434955700475257,1.2805128205128204,0.6503296703296703,1.216849816849817
0.3618067420029547,1.3457875457875457,0.3424908424908425,1.5093772893772892
0.3668802480024169,1.3457875457875457,0.3424908424908425,1.5093772893772892
0.3726399939987459,1.3457875457875457,0.3424908424908425,1.5093772893772892
0.3820953559988993,1.3457875457875457,0.3424908424908425,1.5093772893772892
0.3895912869993481,1.3457875457875457,0.3424908424908425,1.5093772893772892
0.39657938700111117,3.066300366300366,0.29010989010989013,0.8606593406593407
0.4009447530042962,3.066300366300366,0.29010989010989013,0.8606593406593407
0.4021237800043309,3.066300366300366,0.29010989010989013,0.8606593406593407
0.4023917000013171,3.066300366300366,0.29010989010989013,0.8606593406593407
0.41148894400248537,3.066300366300366,0.29010989010989013,0.8606593406593407
0.41903833499964094,3.066300366300366,0.29010989010989013,0.8606593406593407
0.4269638740006485,1.1040293040293039,0.23208791208791207,0.506080586080586
0.4332349260002957,2.988937728937729,0.2602930402930403,0.8115018315018314
0.4391971889999695,2.988937728937729,0.2602930402930403,0.8115018315018314
0.44604374800110236,1.5246886446886447,0.028205128205128206,0.24578754578754577
0.45199146500090137,1.5246886446886447,0.028205128205128206,0.24578754578754577
0.45849241800169693,2.0936263736263734,0.6229304029304029,1.1983150183150182
0.46431890000530984,1.2224908424908425,0.025787545787545788,0.21597069597069596
0.4684486120022484,1.2224908424908425,0.025787545787545788,0.21597069597069596
0.4713442580032279,1.2224908424908425,0.025787545787545788,0.21597069597069596
0.4758111539995298,1.2224908424908425,0.025787545787545788,0.21597069597069596
0.47609439200459747,1.2224908424908425,0.025787545787545788,0.21597069597069596
0.4817755460026092,1.2224908424908425,0.025787545787545788,0.21597069597069596
0.48209022800438106,1.2224908424908425,0.025787545787545788,0.21597069597069596
0.4895306079997681,1.2224908424908425,0.025787545787545788,0.21597069597069596
0.49421966799855,1.2224908424908425,0.025787545787545788,0.21597069597069596
0.49437333900277736,1.2224908424908425,0.025787545787545788,0.21597069597069596
0.49975607200030936,1.3965567765567766,0.04271062271062271,0.7204395604395604
0.5024502260057488,1.5448351648351648,0.0975091575091575,0.3384615384615384
0.5101444800020545,1.5448351648351648,0.0975091575091575,0.3384615384615384
0.5155765620002057,1.5448351648351648,0.0975091575091575,0.3384615384615384
0.516542905003007,1.5448351648351648,0.0975091575091575,0.3384615384615384
0.517470475002483,1.5448351648351648,0.0975091575091575,0.3384615384615384
0.5184267830045428,1.5448351648351648,0.0975091575091575,0.3384615384615384
0.520771870003955,1.5448351648351648,0.0975091575091575,0.3384615384615384
0.5278489170013927,1.5448351648351648,0.0975091575091575,0.3384615384615384
0.5330661600019084,1.5448351648351648,0.0975091575091575,0.3384615384615384
0.5385560750000877,0.4319413919413919,0.45369963369963373,1.2877655677655677
0.5490137980013969,1.6979487179487176,0.024175824175824173,0.03545787545787545
0.5602143030046136,0.9750915750915751,0.7212454212454212,0.838095238095238
0.5691024690022459,1.6487912087912087,0.1523076923076923,1.0854945054945053
0.5776496329999645,1.6487912087912087,0.1523076923076923,1.0854945054945053
0.584022911003558,0.25142857142857145,0.4464468864468864,1.32
0.5917173179987003,0.25142857142857145,0.4464468864468864,1.32
0.5975161800015485,0.25142857142857145,0.4464468864468864,1.32
0.6040434099995764,0.25142857142857145,0.4464468864468864,1.32
0.6095515620036167,0.25142857142857145,0.4464468864468864,1.32
0.6181686960044317,0.004029304029304029,0.06205128205128205,0.6350183150183151
0.6258908950039768,0.004029304029304029,0.06205128205128205,0.6350183150183151
0.6339545320006437,0.004029304029304029,0.06205128205128205,0.6350183150183151
0.6408227550055017,0.004029304029304029,0.06205128205128205,0.6350183150183151
0.6458693739987211,2.1306959706959705,0.1676190476190476,0.5407326007326007
0.6499328940044506,2.1306959706959705,0.1676190476190476,0.5407326007326007
0.6529055530045298,2.449010989010989,0.3021978021978022,1.1032234432234431
0.6560909320032806,2.449010989010989,0.3021978021978022,1.1032234432234431
0.6564842270017834,2.449010989010989,0.3021978021978022,1.1032234432234431
0.6626206770015415,1.6036630036630035,0.1523076923076923,0.7156043956043956
0.6680602519991226,1.6036630036630035,0.1523076923076923,0.7156043956043956
0.668389386999479,1.6036630036630035,0.1523076923076923,0.7156043956043956
0.6762165360050858,1.6036630036630035,0.1523076923076923,0.7156043956043956
0.6844856480020098,1.6036630036630035,0.1523076923076923,0.7156043956043956
0.6912941150003462,1.6036630036630035,0.1523076923076923,0.7156043956043956
0.6959184410006856,1.6036630036630035,0.1523076923076923,0.7156043956043956
0.7045958349990542,1.6036630036630035,0.1523076923076923,0.7156043956043956
0.7117347270032042,0.8663003663003663,0.6092307692307692,0.6914285714285714
0.7190234689987847,0.8663003663003663,0.6092307692307692,0.6914285714285714
0.7245536310001626,0.8663003663003663,0.6092307692307692,0.6914285714285714
0.7247254220055765,0.0,0.09992673992673992,0.6841758241758242
0.7311377910009469,0.0,0.09992673992673992,0.6841758241758242
0.737870531003864,0.0,0.09992673992673992,0.6841758241758242
0.7444712319993414,0.0,0.09992673992673992,0.6841758241758242
0.7509376020025229,0.0,0.09992673992673992,0.6841758241758242
0.758076912999968,0.0,0.09992673992673992,0.6841758241758242
0.7641637380002066,0.0,0.09992673992673992,0.6841758241758242
0.769522289003362,0.0,0.06688644688644689,0.855018315018315
0.7735762580050505,2.6665934065934067,0.3038095238095238,1.0411721611721612
0.7739625079993857,1.7334065934065934,0.24256410256410255,0.8364835164835164
0.7823816650052322,1.7334065934065934,0.24256410256410255,0.8364835164835164
0.7905984910030384,1.9719413919413917,0.07333333333333333,0.08945054945054945
0.7977198400039924,2.079120879120879,0.6616117216117217,1.0057142857142858
0.8029045470029814,2.079120879120879,0.6616117216117217,1.0057142857142858
0.8066403650009306,2.079120879120879,0.6616117216117217,1.0057142857142858
0.8126596190049895,2.079120879120879,0.6616117216117217,1.0057142857142858
0.8178153690023464,2.079120879120879,0.6616117216117217,1.0057142857142858
0.8217224860054557,2.079120879120879,0.6616117216117217,1.0057142857142858
0.8262614060004125,1.2917948717948717,0.917069597069597,0.917069597069597
0.835576878998836,1.2917948717948717,0.917069597069597,0.917069597069597
0.8448373659994104,1.2917948717948717,0.917069597069597,0.917069597069597
0.8531768210013979,1.2917948717948717,0.917069597069597,0.917069597069597
0.8599705189990345,1.2917948717948717,0.917069597069597,0.917069597069597
0.8653860480044386,1.2917948717948717,0.917069597069597,0.917069597069597
0.8657729670012486,0.025787545787545788,0.051575091575091575,0.8413186813186813
0.8750593369986746,0.025787545787545788,0.051575091575091575,0.8413186813186813
0.8799817719991552,0.025787545787545788,0.051575091575091575,0.8413186813186813
0.8866559290036093,0.025787545787545788,0.051575091575091575,0.8413186813186813
0.8922990840001148,0.025787545787545788,0.051575091575091575,0.8413186813186813
0.892416538001271,2.66014652014652,0.112014652014652,0.3964835164835165
0.8985322750013438,2.66014652014652,0.112014652014652,0.3964835164835165
0.9044289140001638,2.66014652014652,0.112014652014652,0.3964835164835165
0.9109447420050856,0.0,0.06849816849816849,0.7792673992673992
0.9182744450008613,0.0,0.06849816849816849,0.7792673992673992
0.9256058989994926,0.0,0.06849816849816849,0.7792673992673992
0.9318168919999152,0.0,0.06849816849816849,0.7792673992673992
0.9373559810046572,0.0,0.06849816849816849,0.7792673992673992
0.937476899001922,0.0,0.06849816849816849,0.7792673992673992
0.9466204909986118,0.0,0.06849816849816849,0.7792673992673992
0.9581466070012539,0.0,0.06849816849816849,0.7792673992673992
0.9658064430041122,1.6624908424908424,0.2063003663003663,1.3353113553113554
0.973603008002101,1.6624908424908424,0.2063003663003663,1.3353113553113554
0.9785634630025015,1.6624908424908424,0.2063003663003663,1.3353113553113554
0.9846250880000298,1.6624908424908424,0.2063003663003663,1.3353113553113554
0.9939469780001673,1.494871794871795,0.011282051282051281,0.06688644688644689
0.9991275510037667,1.494871794871795,0.011282051282051281,0.06688644688644689
1.0016210320027312,1.983223443223443,0.04029304029304029,0.6390476190476191
1.0113371440020273,0.32556776556776557,0.20388278388278389,0.9372161172161171
1.0184369070047978,0.1539194139194139,0.14586080586080585,0.7421978021978022
1.0271063949985546,0.1539194139194139,0.14586080586080585,0.7421978021978022
1.0328332310018595,0.32073260073260074,0.16036630036630037,0.8324542124542124
1.0421554920030758,1.8236630036630037,0.448058608058608,0.9621978021978022
1.0504185470053926,1.8236630036630037,0.448058608058608,0.9621978021978022
1.0587681960023474,1.8236630036630037,0.448058608058608,0.9621978021978022
1.065856592002092,1.544029304029304,0.09106227106227105,1.1918681318681317
1.0717082940027467,0.006446886446886447,0.1104029304029304,0.7994139194139194
1.0784877320038504,1.614139194139194,0.7784615384615384,1.1676923076923076
1.0849542889991426,1.614139194139194,0.7784615384615384,1.1676923076923076
1.0910177680052584,0.09428571428571428,0.02175824175824176,0.718021978021978
1.0968848370030173,3.0034432234432233,0.14586080586080585,0.5898901098901098
1.1023568060045363,3.0034432234432233,0.14586080586080585,0.5898901098901098
1.1027418860030593,3.0034432234432233,0.14586080586080585,0.5898901098901098
1.110667699998885,3.0034432234432233,0.14586080586080585,0.5898901098901098
1.1153481350047514,3.0034432234432233,0.14586080586080585,0.5898901098901098
1.1221114200016018,0.8719413919413919,0.35619047619047617,1.3602930402930402
1.1273127270033,1.4070329670329669,0.10153846153846154,0.45369963369963373
1.1292926570022246,0.02901098901098901,0.03545787545787545,0.6946520146520146
1.1313268250014517,0.02901098901098901,0.03545787545787545,0.6946520146520146
1.1321465880027972,0.02901098901098901,0.03545787545787545,0.6946520146520146
1.1337391060005757,0.02901098901098901,0.03545787545787545,0.6946520146520146
1.1387892780039692,0.02901098901098901,0.03545787545787545,0.6946520146520146
1.1424704540040693,1.7833699633699631,0.09186813186813186,0.8542124542124543
1.1495572769999853,1.7833699633699631,0.09186813186813186,0.8542124542124543
1.154274141001224,1.656043956043956,0.12732600732600732,0.5391208791208791
1.162440512998728,1.9767765567765565,0.16358974358974357,1.0967765567765566
1.1714175900051487,1.9767765567765565,0.16358974358974357,1.0967765567765566
1.177024420001544,0.0,0.03706959706959707,0.8703296703296703
1.1873389200045494,1.2853479853479852,0.037875457875457874,0.12007326007326008
1.1957379750019754,1.2853479853479852,0.037875457875457874,0.12007326007326008
1.200297904004401,1.2853479853479852,0.037875457875457874,0.12007326007326008
1.2005733010009862,1.2853479853479852,0.037875457875457874,0.12007326007326008
1.2075367770012235,1.2853479853479852,0.037875457875457874,0.12007326007326008
1.2120108580056694,0.0,0.0419047619047619,0.8106959706959707
1.2135584390052827,0.0,0.0419047619047619,0.8106959706959707
1.2173532450033235,0.0,0.0419047619047619,0.8106959706959707
1.224789984000381,1.6189743589743588,0.21677655677655677,1.2805128205128204
1.2312366890037083,0.9750915750915751,0.6769230769230768,0.7849084249084248
1.2342561770055909,0.9750915750915751,0.6769230769230768,0.7849084249084248
1.2381562549999217,0.9750915750915751,0.6769230769230768,0.7849084249084248
1.2420099480004865,2.04043956043956,0.2087179487179487,1.4223443223443224
1.2456851250026375,2.04043956043956,0.2087179487179487,1.4223443223443224
1.2520893050023005,2.04043956043956,0.2087179487179487,1.4223443223443224
1.2564414090011269,2.04043956043956,0.2087179487179487,1.4223443223443224
1.2584121899999445,1.9945054945054943,0.23208791208791207,1.5303296703296703
1.261097011003585,1.9945054945054943,0.23208791208791207,1.5303296703296703
1.2640460890033864,1.9945054945054943,0.23208791208791207,1.5303296703296703
1.268471193005098,1.9945054945054943,0.23208791208791207,1.5303296703296703
1.268613849002577,0.0,0.05802197802197802,0.606007326007326
1.2738715020022937,0.0,0.05802197802197802,0.606007326007326
1.2789610000036191,0.0,0.05802197802197802,0.606007326007326
1.282017117999203,1.801098901098901,0.047545787545787546,0.19179487179487179
1.284145277000789,1.801098901098901,0.047545787545787546,0.19179487179487179
1.2852234890015097,1.801098901098901,0.047545787545787546,0.19179487179487179
1.2855297409987543,1.801098901098901,0.047545787545787546,0.19179487179487179
1.2937893160051317,1.801098901098901,0.047545787545787546,0.19179487179487179
1.3001572720022523,3.0727472527472526,0.16278388278388278,0.788937728937729
1.3044559640038642,1.4432967032967032,0.045128205128205125,0.3594139194139194
1.3054980369997793,1.4432967032967032,0.045128205128205125,0.3594139194139194
1.3066164650008432,1.4432967032967032,0.045128205128205125,0.3594139194139194
1.306931290004286,1.6205860805860803,0.30058608058608055,1.0726007326007325
1.3138899870027672,1.6205860805860803,0.30058608058608055,1.0726007326007325
1.3184211970001343,1.796263736263736,0.17487179487179486,0.4545054945054945
1.318681798002217,1.796263736263736,0.17487179487179486,0.4545054945054945
1.3258851900027366,1.796263736263736,0.17487179487179486,0.4545054945054945
1.3301719410010264,0.0032234432234432234,0.09106227106227105,0.7389743589743589
1.3323257880038,0.0032234432234432234,0.09106227106227105,0.7389743589743589
1.3326950080008828,0.0032234432234432234,0.09106227106227105,0.7389743589743589
1.3395741440035636,0.0032234432234432234,0.09106227106227105,0.7389743589743589
1.3441423840049538,0.7913553113553113,0.24659340659340656,0.6043956043956044
1.3444257010050933,0.7913553113553113,0.24659340659340656,0.6043956043956044
1.3512822350021452,0.7913553113553113,0.24659340659340656,0.6043956043956044
1.3557718000010937,1.6939194139194136,0.1926007326007326,0.7123809523809523
1.3560130629994092,1.6939194139194136,0.1926007326007326,0.7123809523809523
1.363245934000588,1.6939194139194136,0.1926007326007326,0.7123809523809523
1.3697701060009422,1.6939194139194136,0.1926007326007326,0.7123809523809523
1.3733965159990476,1.6939194139194136,0.1926007326007326,0.7123809523809523
1.3735369589994662,1.3772161172161173,0.6801465201465201,1.1427106227106225
1.3792437500014785,1.3772161172161173,0.6801465201465201,1.1427106227106225
1.3795055790033075,1.3772161172161173,0.6801465201465201,1.1427106227106225
1.386119160000817,1.3772161172161173,0.6801465201465201,1.1427106227106225
1.390832021003007,0.4142124542124542,0.21355311355311357,1.0266666666666666
1.3982776470002136,1.9066666666666663,0.15311355311355312,0.4037362637362637
1.4047969470047974,1.9066666666666663,0.15311355311355312,0.4037362637362637
1.4104865760018583,1.9066666666666663,0.15311355311355312,0.4037362637362637
1.4106696950038895,1.9066666666666663,0.15311355311355312,0.4037362637362637
1.4175460030019167,1.9066666666666663,0.15311355311355312,0.4037362637362637
1.4234174650046043,1.4432967032967032,0.27882783882783885,1.2587545787545786
1.4298073910031235,1.4432967032967032,0.27882783882783885,1.2587545787545786
1.4354442559997551,1.4432967032967032,0.27882783882783885,1.2587545787545786
1.4356478600020637,1.4432967032967032,0.27882783882783885,1.2587545787545786
1.442571373001556,1.4432967032967032,0.27882783882783885,1.2587545787545786
1.4484028080041753,0.08139194139194139,0.15311355311355312,0.8912820512820512
1.4552645020012278,0.0,0.07978021978021978,0.7147985347985348
1.459575897002651,1.398168498168498,0.06769230769230769,0.5818315018315018
1.4613771740041557,1.398168498168498,0.06769230769230769,0.5818315018315018
1.466781177005032,1.398168498168498,0.06769230769230769,0.5818315018315018
1.4670788639996317,1.398168498168498,0.06769230769230769,0.5818315018315018
1.473189682001248,1.398168498168498,0.06769230769230769,0.5818315018315018
1.4774962270021206,3.15978021978022,0.2191941391941392,0.6027838827838827
1.4792747140018037,3.15978021978022,0.2191941391941392,0.6027838827838827
1.482455484001548,3.15978021978022,0.2191941391941392,0.6027838827838827
1.484099380999396,3.15978021978022,0.2191941391941392,0.6027838827838827
1.488226385001326,3.15978021978022,0.2191941391941392,0.6027838827838827
1.4906206560044666,0.02095238095238095,0.03304029304029304,0.6390476190476191
1.4990369410006679,0.02095238095238095,0.03304029304029304,0.6390476190476191
1.5054616990018985,0.02095238095238095,0.03304029304029304,0.6390476190476191
1.5109054440035834,0.0,0.09106227106227105,0.8671062271062271
1.5112558500040905,0.0,0.09106227106227105,0.8671062271062271
1.5187634009998874,0.0,0.09106227106227105,0.8671062271062271
1.5241463700003806,0.0,0.09106227106227105,0.8671062271062271
1.5263617000018712,0.0,0.09106227106227105,0.8671062271062271
1.5265662759993575,0.0,0.09106227106227105,0.8671062271062271
1.5342433770056232,0.0,0.09106227106227105,0.8671062271062271
1.5383735360010178,0.0,0.09106227106227105,0.8671062271062271
1.5411978400006774,0.0,0.09106227106227105,0.8671062271062271
1.5453137860022252,0.0,0.09106227106227105,0.8671062271062271
1.548796006005432,0.11846153846153845,0.1652014652014652,0.8920879120879119
1.5550588820042321,0.11846153846153845,0.1652014652014652,0.8920879120879119
1.5595849250021274,0.11846153846153845,0.1652014652014652,0.8920879120879119
1.5667791130035766,1.2692307692307692,0.04673992673992674,0.15069597069597068
1.5726751230031368,1.2692307692307692,0.04673992673992674,0.15069597069597068
1.5795525799985626,0.26915750915750913,0.43274725274725273,1.3191941391941393
1.5857568409992382,1.481172161172161,0.09670329670329669,0.6334065934065934
1.5906562550007948,1.228937728937729,0.8163369963369963,0.7897435897435897
1.5950554910014034,1.228937728937729,0.8163369963369963,0.7897435897435897
1.5953704760031542,1.228937728937729,0.8163369963369963,0.7897435897435897
1.6004090260030353,1.6230036630036628,0.1112087912087912,0.8195604395604396
1.6063649010029621,0.7841025641025641,0.48432234432234433,0.759120879120879
1.6143694170023082,0.7841025641025641,0.48432234432234433,0.759120879120879
1.6196381120025762,0.7841025641025641,0.48432234432234433,0.759120879120879
1.6246036349984934,1.7567765567765568,0.09831501831501832,0.7857142857142856
1.6293378960035625,1.7567765567765568,0.09831501831501832,0.7857142857142856
1.635638021005434,1.7567765567765568,0.09831501831501832,0.7857142857142856
1.6403501489985501,1.7567765567765568,0.09831501831501832,0.7857142857142856
1.6483236100029899,1.7068131868131868,0.016117216117216115,0.06124542124542124
1.6550986250003916,1.7068131868131868,0.016117216117216115,0.06124542124542124
1.6605308639991563,1.7068131868131868,0.016117216117216115,0.06124542124542124
1.6619822040011059,1.9808058608058605,0.016117216117216115,0.4504761904761904
1.6677165660003084,1.9808058608058605,0.016117216117216115,0.4504761904761904
1.6728549620020203,1.9808058608058605,0.016117216117216115,0.4504761904761904
1.67589090000547,1.5166300366300365,0.6616117216117217,1.1894505494505494
1.6782324080049875,1.5166300366300365,0.6616117216117217,1.1894505494505494
1.6784018570033368,1.1096703296703296,0.01934065934065934,0.365054945054945
1.683590862005076,1.1096703296703296,0.01934065934065934,0.365054945054945
1.6865948039994691,1.1096703296703296,0.01934065934065934,0.365054945054945
1.6895695109997177,1.1096703296703296,0.01934065934065934,0.365054945054945
1.693044956002268,1.1096703296703296,0.01934065934065934,0.365054945054945
1.693372667003132,1.1096703296703296,0.01934065934065934,0.365054945054945
1.6989789880026365,1.1096703296703296,0.01934065934065934,0.365054945054945
1.6992422070034081,1.606080586080586,0.06446886446886446,1.0395604395604394
1.7043675310051185,1.606080586080586,0.06446886446886446,1.0395604395604394
1.7088190430004033,1.606080586080586,0.06446886446886446,1.0395604395604394
1.709062685004028,1.606080586080586,0.06446886446886446,1.0395604395604394
1.7140458159992704,1.606080586080586,0.06446886446886446,1.0395604395604394
1.7201403200015193,1.606080586080586,0.06446886446886446,1.0395604395604394
1.724607668002136,1.606080586080586,0.06446886446886446,1.0395604395604394
1.724908067000797,1.606080586080586,0.06446886446886446,1.0395604395604394
1.7297397930014995,1.606080586080586,0.06446886446886446,1.0395604395604394
1.7356386800020118,1.606080586080586,0.06446886446886446,1.0395604395604394
1.7417012060031993,1.606080586080586,0.06446886446886446,1.0395604395604394
1.7461285250028595,1.6786080586080585,0.045128205128205125,0.0547985347985348
1.7475942870005383,1.6786080586080585,0.045128205128205125,0.0547985347985348
1.752053069001704,1.6786080586080585,0.045128205128205125,0.0547985347985348
1.752936454002338,1.6447619047619046,0.18695970695970696,0.6430769230769231
1.7545629590022145,1.6447619047619046,0.18695970695970696,0.6430769230769231
1.7589474600026733,1.5077655677655677,0.14505494505494507,1.2418315018315018
1.760461937999935,1.6689377289377287,0.04593406593406593,0.08058608058608058
1.7641522420017282,1.6689377289377287,0.04593406593406593,0.08058608058608058
1.7643618930014782,1.6689377289377287,0.04593406593406593,0.08058608058608058
1.768814162001945,1.6689377289377287,0.04593406593406593,0.08058608058608058
1.7696914970001671,1.6689377289377287,0.04593406593406593,0.08058608058608058
1.7712907450040802,2.3224908424908426,0.13054945054945052,0.06043956043956044
1.775028823998582,2.3224908424908426,0.13054945054945052,0.06043956043956044
1.7801724720047787,2.3224908424908426,0.13054945054945052,0.06043956043956044
1.7845572639998863,2.3224908424908426,0.13054945054945052,0.06043956043956044
1.7861384520001593,2.3224908424908426,0.13054945054945052,0.06043956043956044
1.7905294330048491,2.3224908424908426,0.13054945054945052,0.06043956043956044
1.7920738750035525,3.3,0.28608058608058606,1.0371428571428571
1.7966396800038638,3.3,0.28608058608058606,1.0371428571428571
1.7968806070057326,1.7398534798534797,0.10556776556776555,0.9484981684981684
1.8019676309995702,1.7398534798534797,0.10556776556776555,0.9484981684981684
1.8063255029992433,1.7398534798534797,0.10556776556776555,0.9484981684981684
1.80788250000478,1.7398534798534797,0.10556776556776555,0.9484981684981684
1.8116308489989024,1.7398534798534797,0.10556776556776555,0.9484981684981684
1.8117853610019665,1.7398534798534797,0.10556776556776555,0.9484981684981684
1.816834456003562,1.7398534798534797,0.10556776556776555,0.9484981684981684
1.8207491060020402,1.7398534798534797,0.10556776556776555,0.9484981684981684
1.8251699390020804,0.8663003663003663,0.25787545787545785,0.6285714285714284
1.826066339002864,0.8663003663003663,0.25787545787545785,0.6285714285714284
1.8275839720008662,0.8663003663003663,0.25787545787545785,0.6285714285714284
1.8321560490003321,0.8663003663003663,0.25787545787545785,0.6285714285714284
1.8324491780003882,0.8663003663003663,0.25787545787545785,0.6285714285714284
1.837531551005668,0.8663003663003663,0.25787545787545785,0.6285714285714284
1.8413913390031666,1.4287912087912087,0.08139194139194139,0.6035897435897435
1.8466071150032803,0.7728205128205128,0.44080586080586076,0.755091575091575
1.8496325480009546,0.0,0.10315018315018315,0.8252014652014652
1.8525459180018515,0.0,0.10315018315018315,0.8252014652014652
1.8555441620046622,0.0,0.10315018315018315,0.8252014652014652
1.8586457199999131,0.0,0.10315018315018315,0.8252014652014652
1.8608647380024195,0.0,0.10315018315018315,0.8252014652014652
1.8611407510034041,0.0,0.10315018315018315,0.8252014652014652
1.866218048002338,0.0,0.10315018315018315,0.8252014652014652
1.869929348998994,0.0,0.10315018315018315,0.8252014652014652
1.8751510720030637,0.0,0.10315018315018315,0.8252014652014652
1.8788175150039024,0.0,0.10315018315018315,0.8252014652014652
1.8789032670028973,0.0,0.10315018315018315,0.8252014652014652
1.884084534001886,0.0,0.10315018315018315,0.8252014652014652
1.8870121440049843,0.0,0.10315018315018315,0.8252014652014652
1.8899979240013636,0.0,0.10315018315018315,0.8252014652014652
1.893019410999841,3.1968498168498165,0.3021978021978022,0.8671062271062271
1.8961063850001665,3.1968498168498165,0.3021978021978022,0.8671062271062271
1.89836793300492,1.5875457875457875,0.18937728937728937,1.0774358974358973
1.898558236003737,1.5875457875457875,0.18937728937728937,1.0774358974358973
1.9036910680006258,1.5875457875457875,0.18937728937728937,1.0774358974358973
1.909049406000122,1.5875457875457875,0.18937728937728937,1.0774358974358973
1.9105231240027933,1.5875457875457875,0.18937728937728937,1.0774358974358973
1.9172647779996623,1.5875457875457875,0.18937728937728937,1.0774358974358973
1.922709530001157,1.5875457875457875,0.18937728937728937,1.0774358974358973
1.9229743660034728,1.5875457875457875,0.18937728937728937,1.0774358974358973
1.928011989002698,0.0,0.1104029304029304,0.7784615384615384
1.9320637440032442,0.0,0.1104029304029304,0.7784615384615384
1.9353677710023476,1.7092307692307693,0.747032967032967,1.195091575091575
1.9362983530008933,1.7092307692307693,0.747032967032967,1.195091575091575
1.9379462060023798,1.7092307692307693,0.747032967032967,1.195091575091575
1.9424467510034447,1.7092307692307693,0.747032967032967,1.195091575091575
1.9427673040045192,1.7092307692307693,0.747032967032967,1.195091575091575
1.9507897470030002,1.7092307692307693,0.747032967032967,1.195091575091575
1.9577114620042266,0.0,0.05802197802197802,0.6446886446886446
1.9625856860002386,0.0,0.05802197802197802,0.6446886446886446
1.9687568680019467,0.029816849816849816,0.13457875457875457,0.8945054945054944
1.9742718410052476,0.029816849816849816,0.13457875457875457,0.8945054945054944
1.9745909560006112,1.6834432234432233,0.3731135531135531,1.00007326007326
1.9827136599997175,1.4884249084249084,0.12087912087912088,0.8574358974358974
1.9891213180017076,1.4884249084249084,0.12087912087912088,0.8574358974358974
1.9941458809989854,1.4884249084249084,0.12087912087912088,0.8574358974358974
1.998282761000155,1.4884249084249084,0.12087912087912088,0.8574358974358974
1.9997754050054937,1.4787545787545788,0.1418315018315018,0.9307692307692307
2.008138176999637,1.4787545787545788,0.1418315018315018,0.9307692307692307
2.0155767739997827,1.4787545787545788,0.1418315018315018,0.9307692307692307
2.0215847860017675,0.713992673992674,0.39809523809523806,1.4191208791208791
2.027975568002148,1.2515018315018314,0.0419047619047619,0.23047619047619047
2.033696960002999,1.2515018315018314,0.0419047619047619,0.23047619047619047
2.0431758070044452,1.921978021978022,0.5141391941391941,1.0266666666666666
2.0512399660001392,1.921978021978022,0.5141391941391941,1.0266666666666666
2.054912266001338,1.921978021978022,0.5141391941391941,1.0266666666666666
2.0551312280003913,1.921978021978022,0.5141391941391941,1.0266666666666666
2.060205963003682,1.921978021978022,0.5141391941391941,1.0266666666666666
2.0638177709988668,1.921978021978022,0.5141391941391941,1.0266666666666666
2.0639124209992588,1.921978021978022,0.5141391941391941,1.0266666666666666
2.069003237003926,1.921978021978022,0.5141391941391941,1.0266666666666666
2.0725795930047752,1.921978021978022,0.5141391941391941,1.0266666666666666
2.072707122002612,0.6406593406593406,0.3924542124542124,1.4618315018315018
2.0777096759993583,0.6406593406593406,0.3924542124542124,1.4618315018315018
2.081991999002639,0.6406593406593406,0.3924542124542124,1.4618315018315018
2.083548430004157,0.5923076923076923,0.28849816849816845,0.9621978021978022
2.0879339080056525,0.5923076923076923,0.28849816849816845,0.9621978021978022
2.0895341810028185,0.5923076923076923,0.28849816849816845,0.9621978021978022
2.0938611700039473,0.5923076923076923,0.28849816849816845,0.9621978021978022
2.095516013003362,0.5923076923076923,0.28849816849816845,0.9621978021978022
2.0998390029999427,0.5923076923076923,0.28849816849816845,0.9621978021978022
2.102021833001345,1.1515750915750915,0.011282051282051281,0.36666666666666664
2.1028564279986313,1.1515750915750915,0.011282051282051281,0.36666666666666664
2.1044704919986543,1.1515750915750915,0.011282051282051281,0.36666666666666664
2.1087595900025917,1.1515750915750915,0.011282051282051281,0.36666666666666664
2.1109037210044335,1.4231501831501832,0.27882783882783885,1.1217582417582417
2.111824521998642,1.4231501831501832,0.27882783882783885,1.1217582417582417
2.1133040800050367,1.4231501831501832,0.27882783882783885,1.1217582417582417
2.117665946003399,1.4231501831501832,0.27882783882783885,1.1217582417582417
2.119233574005193,1.4231501831501832,0.27882783882783885,1.1217582417582417
2.1241960270053823,1.4231501831501832,0.27882783882783885,1.1217582417582417
2.128525685002387,1.3369230769230769,0.9154578754578755,0.8453479853479853
2.1300744930049405,1.3369230769230769,0.9154578754578755,0.8453479853479853
2.1344504520020564,1.3369230769230769,0.9154578754578755,0.8453479853479853
2.1353184540057555,1.0879120879120878,0.4593406593406593,1.1515750915750915
2.136843222004245,1.0879120879120878,0.4593406593406593,1.1515750915750915
2.142671245004749,1.0879120879120878,0.4593406593406593,1.1515750915750915
2.1429311809988576,1.270842490842491,0.11523809523809524,0.3295970695970696
2.150872138001432,1.270842490842491,0.11523809523809524,0.3295970695970696
2.1591445459998795,3.3,0.28849816849816845,1.0774358974358973
2.166069013001106,1.4126739926739926,0.13699633699633698,1.2087912087912087
2.171064057998592,1.4126739926739926,0.13699633699633698,1.2087912087912087
2.1745143580046715,1.4126739926739926,0.13699633699633698,1.2087912087912087
2.184212594998826,1.4126739926739926,0.13699633699633698,1.2087912087912087
2.1923299150003004,1.4126739926739926,0.13699633699633698,1.2087912087912087
2.1993641299995943,1.4126739926739926,0.13699633699633698,1.2087912087912087
2.2040601080007036,2.0509157509157507,0.03223443223443223,0.4383882783882784
2.2117612790025305,2.0509157509157507,0.03223443223443223,0.4383882783882784
2.2181231650029076,2.0509157509157507,0.03223443223443223,0.4383882783882784
2.2229888350047986,0.9267399267399267,0.42468864468864465,1.498901098901099
2.23032032300398,0.9267399267399267,0.42468864468864465,1.498901098901099
2.235111763002351,1.747106227106227,0.13457875457875457,0.7349450549450549
2.243004372001451,1.747106227106227,0.13457875457875457,0.7349450549450549
2.251250664005056,1.747106227106227,0.13457875457875457,0.7349450549450549
2.258211559004849,1.747106227106227,0.13457875457875457,0.7349450549450549
2.264000073999341,1.747106227106227,0.13457875457875457,0.7349450549450549
2.27379347000533,1.747106227106227,0.13457875457875457,0.7349450549450549
2.281532660002995,2.4675457875457876,0.08783882783882783,0.3618315018315018
2.287466071000381,2.4675457875457876,0.08783882783882783,0.3618315018315018
2.295436221000273,1.9123076923076923,0.356996336996337,0.8759706959706959
2.3026659169991035,1.9123076923076923,0.356996336996337,0.8759706959706959
2.307330248004291,1.9123076923076923,0.356996336996337,0.8759706959706959
2.3165280540051754,0.0,0.02901098901098901,0.5004395604395604
2.324366489003296,0.0,0.02901098901098901,0.5004395604395604
2.330180349003058,0.0,0.0556043956043956,0.5576556776556777
2.3377060160055407,0.0,0.0556043956043956,0.5576556776556777
2.344776992998959,1.9477655677655676,0.2063003663003663,0.39406593406593404
2.350222376000602,1.9477655677655676,0.2063003663003663,0.39406593406593404
2.3517658980053966,2.856776556776557,0.12893772893772892,0.4166300366300366
2.3585647410000092,2.856776556776557,0.12893772893772892,0.4166300366300366
2.363971251004841,2.856776556776557,0.12893772893772892,0.4166300366300366
2.364203554003325,2.856776556776557,0.12893772893772892,0.4166300366300366
2.3727706520003267,2.856776556776557,0.12893772893772892,0.4166300366300366
2.3787263199992594,2.856776556776557,0.12893772893772892,0.4166300366300366
2.386026492000383,1.6157509157509156,0.12249084249084248,0.21355311355311357
2.391073001002951,1.6157509157509156,0.12249084249084248,0.21355311355311357
2.3954191290031304,2.087985347985348,0.17487179487179486,0.7655677655677655
2.3958005599997705,1.3756043956043955,0.3529670329670329,1.1556043956043955
2.4044637190017966,1.3756043956043955,0.3529670329670329,1.1556043956043955
2.4101845260011032,1.3756043956043955,0.3529670329670329,1.1556043956043955
2.4201857590014697,0.9702564102564102,0.23208791208791207,0.776043956043956
2.428819624001335,1.7559706959706958,0.7268864468864469,1.2716483516483517
2.4362429450047784,1.7559706959706958,0.7268864468864469,1.2716483516483517
2.4419004330047756,1.6592673992673992,0.21677655677655677,1.212014652014652
2.450267835003615,0.39890109890109887,0.0975091575091575,0.9573626373626374
2.4570145410034456,0.39890109890109887,0.0975091575091575,0.9573626373626374
2.4625557540057343,0.39890109890109887,0.0975091575091575,0.9573626373626374
2.4627767269994365,0.39890109890109887,0.0975091575091575,0.9573626373626374
2.4707471600049757,0.39890109890109887,0.0975091575091575,0.9573626373626374
2.4761227580020204,1.2821245421245422,0.22886446886446887,1.0315018315018314
2.476971408999816,1.2821245421245422,0.22886446886446887,1.0315018315018314
2.479234317004739,1.2821245421245422,0.22886446886446887,1.0315018315018314
2.479469721998612,1.913919413919414,0.09428571428571428,0.048351648351648346
2.4845314910053276,1.913919413919414,0.09428571428571428,0.048351648351648346
2.488825911001186,1.913919413919414,0.09428571428571428,0.048351648351648346
2.491079773004458,1.913919413919414,0.09428571428571428,0.048351648351648346
2.491902730005677,1.913919413919414,0.09428571428571428,0.048351648351648346
2.493451833004656,1.913919413919414,0.09428571428571428,0.048351648351648346
2.497858211005223,1.913919413919414,0.09428571428571428,0.048351648351648346
2.498791377998714,1.5633699633699631,0.06446886446886446,0.16278388278388278
2.500283423003566,1.5633699633699631,0.06446886446886446,0.16278388278388278
2.5046455769988825,1.5633699633699631,0.06446886446886446,0.16278388278388278
2.506104427004175,1.5633699633699631,0.06446886446886446,0.16278388278388278
2.5104778280001483,1.5633699633699631,0.06446886446886446,0.16278388278388278
2.512694080003712,1.5633699633699631,0.06446886446886446,0.16278388278388278
2.5134766350020072,1.5633699633699631,0.06446886446886446,0.16278388278388278
2.5156721460007248,1.5633699633699631,0.06446886446886446,0.16278388278388278
2.516482756000187,1.5633699633699631,0.06446886446886446,0.16278388278388278
2.518698772000789,1.5633699633699631,0.06446886446886446,0.16278388278388278
2.5195399720032583,1.5633699633699631,0.06446886446886446,0.16278388278388278
2.521746221005742,1.5633699633699631,0.06446886446886446,0.16278388278388278
2.522073852000176,1.5633699633699631,0.06446886446886446,0.16278388278388278
2.527027422001993,1.5633699633699631,0.06446886446886446,0.16278388278388278
2.5320637750046444,1.5633699633699631,0.06446886446886446,0.16278388278388278
2.5370653300051345,2.0847619047619044,0.48835164835164835,1.3296703296703296
2.542460577999009,1.7543589743589743,0.05882783882783882,0.3876190476190476
2.545431839003868,1.7543589743589743,0.05882783882783882,0.3876190476190476
2.548969196002872,1.7543589743589743,0.05882783882783882,0.3876190476190476
2.5593726540028,1.7543589743589743,0.05882783882783882,0.3876190476190476
2.5674987490056083,1.7543589743589743,0.05882783882783882,0.3876190476190476
2.5717676030035364,1.7543589743589743,0.05882783882783882,0.3876190476190476
2.5726406079993467,1.7543589743589743,0.05882783882783882,0.3876190476190476
2.5748556340040523,1.7543589743589743,0.05882783882783882,0.3876190476190476
2.5756421650003176,1.7543589743589743,0.05882783882783882,0.3876190476190476
2.5771911410047323,1.7543589743589743,0.05882783882783882,0.3876190476190476
2.582326797004498,1.7543589743589743,0.05882783882783882,0.3876190476190476
2.586868427002628,2.013846153846154,0.03948717948717949,0.7712087912087912
2.587141235002491,2.013846153846154,0.03948717948717949,0.7712087912087912
2.5968166230013594,2.013846153846154,0.03948717948717949,0.7712087912087912
2.6046057370040216,2.013846153846154,0.03948717948717949,0.7712087912087912
2.6111990499994135,2.013846153846154,0.03948717948717949,0.7712087912087912
2.61529879700538,2.013846153846154,0.03948717948717949,0.7712087912087912
2.6205891179997707,2.013846153846154,0.03948717948717949,0.7712087912087912
2.620937646002858,1.6431501831501831,0.11362637362637362,0.16278388278388278
2.6289289650012506,1.6431501831501831,0.11362637362637362,0.16278388278388278
2.6347357880003983,0.1821245421245421,0.2216117216117216,1.2305494505494505
2.6423210270004347,2.286227106227106,0.585054945054945,0.9186813186813186
2.6491408120054984,2.286227106227106,0.585054945054945,0.9186813186813186
2.6547092750042793,2.286227106227106,0.585054945054945,0.9186813186813186
2.664719001004414,2.286227106227106,0.585054945054945,0.9186813186813186
2.6741636320002726,2.286227106227106,0.585054945054945,0.9186813186813186
2.682389209003304,3.3,0.9299633699633699,0.5495970695970696
2.688910377000866,2.90029304029304,0.4698168498168498,0.11282051282051282
2.694623205003154,2.90029304029304,0.4698168498168498,0.11282051282051282
2.6948344170014025,1.5093772893772892,0.7067399267399267,1.4763369963369963
2.7031382839995786,1.5093772893772892,0.7067399267399267,1.4763369963369963
2.710072810004931,3.0808058608058606,0.6197069597069597,0.0693040293040293
2.7157053420014563,3.0808058608058606,0.6197069597069597,0.0693040293040293
2.726133950003714,3.0808058608058606,0.6197069597069597,0.0693040293040293
2.7344381630027783,3.0808058608058606,0.6197069597069597,0.0693040293040293
2.7403230650015757,3.0808058608058606,0.6197069597069597,0.0693040293040293
2.7503795950033236,3.0808058608058606,0.6197069597069597,0.0693040293040293
2.7584382300046855,2.382930402930403,1.0145787545787546,1.436043956043956
2.7651424010036862,2.8277655677655673,0.6446886446886446,0.7752380952380952
2.77118150699971,2.8277655677655673,0.6446886446886446,0.7752380952380952
2.7775954980024835,2.8277655677655673,0.6446886446886446,0.7752380952380952
2.7837211529986234,2.8277655677655673,0.6446886446886446,0.7752380952380952
2.789733037003316,2.8277655677655673,0.6446886446886446,0.7752380952380952
2.79561284200463,2.8277655677655673,0.6446886446886446,0.7752380952380952
2.8005103780014906,2.2096703296703293,0.6374358974358975,1.211208791208791
2.80451900800108,2.2096703296703293,0.6374358974358975,1.211208791208791
2.8078323180016014,2.2096703296703293,0.6374358974358975,1.211208791208791
2.8088044350006385,2.2096703296703293,0.6374358974358975,1.211208791208791
2.8097710920046666,2.2096703296703293,0.6374358974358975,1.211208791208791
2.8107140460051596,2.2096703296703293,0.6374358974358975,1.211208791208791
2.81236817700119,2.2096703296703293,0.6374358974358975,1.211208791208791
2.8157699940056773,0.8389010989010988,0.7405860805860806,1.5875457875457875
2.8159938620010507,0.8389010989010988,0.7405860805860806,1.5875457875457875
2.8218946660053916,0.8389010989010988,0.7405860805860806,1.5875457875457875
2.8281608399993274,0.73010989010989,0.5479853479853479,0.8936996336996336
2.8326799999995274,3.1259340659340658,0.8687179487179487,0.6680586080586081
2.8425218320044223,3.1259340659340658,0.8687179487179487,0.6680586080586081
2.849591030004376,2.781025641025641,0.381978021978022,0.1418315018315018
2.8565884580020793,2.781025641025641,0.381978021978022,0.1418315018315018
2.8621975330024725,2.781025641025641,0.381978021978022,0.1418315018315018
2.8687766090006335,2.781025641025641,0.381978021978022,0.1418315018315018
2.8746660850010812,2.781025641025641,0.381978021978022,0.1418315018315018
2.879234505999193,2.781025641025641,0.381978021978022,0.1418315018315018
2.8795139729991206,2.781025641025641,0.381978021978022,0.1418315018315018
2.88418489000469,2.781025641025641,0.381978021978022,0.1418315018315018
2.8844659780006623,2.781025641025641,0.381978021978022,0.1418315018315018
2.8937873120012227,2.781025641025641,0.381978021978022,0.1418315018315018
2.898666997003602,3.00021978021978,0.971062271062271,0.3924542124542124
2.9064288700028555,1.7865934065934064,0.33604395604395604,0.0273992673992674
2.910453207005048,1.087106227106227,0.5963369963369963,0.9831501831501831
2.91385546100355,3.3,0.6398534798534798,0.5471794871794872
2.914134783000918,3.3,0.6398534798534798,0.5471794871794872
2.921449838002445,3.3,0.6398534798534798,0.5471794871794872
2.925053069004207,3.3,0.6398534798534798,0.5471794871794872
2.9252065640030196,3.3,0.6398534798534798,0.5471794871794872
2.929783337000117,3.3,0.6398534798534798,0.5471794871794872
2.9300988910035812,3.3,0.6398534798534798,0.5471794871794872
2.9363993130027666,3.3,0.6398534798534798,0.5471794871794872
2.9405292220035335,3.3,0.6398534798534798,0.5471794871794872
2.941533317003632,3.3,0.6398534798534798,0.5471794871794872
2.9429347550030798,3.3,0.6398534798534798,0.5471794871794872
2.9483645639993483,3.3,0.6398534798534798,0.5471794871794872
2.9494639200056554,0.34007326007326005,0.06769230769230769,0.4625641025641025
2.949775638000574,0.34007326007326005,0.06769230769230769,0.4625641025641025
2.9585791080025956,0.34007326007326005,0.06769230769230769,0.4625641025641025
2.96329100800358,0.34007326007326005,0.06769230769230769,0.4625641025641025
2.9635386610025307,0.34007326007326005,0.06769230769230769,0.4625641025641025
2.9711746180037153,0.34007326007326005,0.06769230769230769,0.4625641025641025
2.9760921350025455,0.34007326007326005,0.06769230769230769,0.4625641025641025
2.980138586004614,0.8727472527472527,0.7712087912087912,1.6197802197802196
2.9835230950047844,0.8727472527472527,0.7712087912087912,1.6197802197802196
2.9838082089991076,1.518241758241758,1.2015384615384614,0.8453479853479853
2.991567142002168,1.518241758241758,1.2015384615384614,0.8453479853479853
2.9963696530030575,1.518241758241758,1.2015384615384614,0.8453479853479853
2.996539298001153,2.313626373626373,0.6680586080586081,1.0516483516483515
3.001508036002633,2.313626373626373,0.6680586080586081,1.0516483516483515
3.00882516400452,2.313626373626373,0.6680586080586081,1.0516483516483515
3.0127910610026447,0.22886446886446887,0.0419047619047619,0.6720879120879121
3.016779254001449,0.22886446886446887,0.0419047619047619,0.6720879120879121
3.0234333960033837,0.22886446886446887,0.0419047619047619,0.6720879120879121
3.02682129599998,1.1983150183150182,0.5858608058608058,1.2087912087912087
3.027089581999462,1.1983150183150182,0.5858608058608058,1.2087912087912087
3.031919093999022,1.1983150183150182,0.5858608058608058,1.2087912087912087
3.0409826649993192,1.1983150183150182,0.5858608058608058,1.2087912087912087
3.044984182000917,1.1983150183150182,0.5858608058608058,1.2087912087912087
3.0484700040033204,1.1983150183150182,0.5858608058608058,1.2087912087912087
3.048692996002501,1.1983150183150182,0.5858608058608058,1.2087912087912087
3.05635958500352,1.1983150183150182,0.5858608058608058,1.2087912087912087
3.0605960829998367,2.5110622710622708,0.4222710622710622,0.4835164835164835
3.062399362999713,2.5110622710622708,0.4222710622710622,0.4835164835164835
3.0648660030055908,2.5110622710622708,0.4222710622710622,0.4835164835164835
3.0651232520031044,2.5110622710622708,0.4222710622710622,0.4835164835164835
3.071992858000158,2.5110622710622708,0.4222710622710622,0.4835164835164835
3.077716783998767,2.5110622710622708,0.4222710622710622,0.4835164835164835
3.0824546080039,2.5110622710622708,0.4222710622710622,0.4835164835164835
3.082635470003879,2.5110622710622708,0.4222710622710622,0.4835164835164835
3.0924855100020068,2.5110622710622708,0.4222710622710622,0.4835164835164835
3.0995144359985716,2.5110622710622708,0.4222710622710622,0.4835164835164835
3.1069617430039216,2.5110622710622708,0.4222710622710622,0.4835164835164835
3.1118820640040212,2.5110622710622708,0.4222710622710622,0.4835164835164835
3.1150423170038266,2.390989010989011,0.3779487179487179,1.4408791208791207
3.1165942630032077,2.390989010989011,0.3779487179487179,1.4408791208791207
3.124930515004962,2.390989010989011,0.3779487179487179,1.4408791208791207
3.128818905002845,2.390989010989011,0.3779487179487179,1.4408791208791207
3.133373690005101,2.390989010989011,0.3779487179487179,1.4408791208791207
3.1336781110003358,2.075091575091575,0.9976556776556775,1.5553113553113551
3.1423605070012854,2.075091575091575,0.9976556776556775,1.5553113553113551
3.146981030004099,0.0,0.10798534798534798,0.9533333333333331
3.1477787520052516,0.0,0.10798534798534798,0.9533333333333331
3.1492856530021527,0.0,0.10798534798534798,0.9533333333333331
3.1560588630018174,0.0,0.10798534798534798,0.9533333333333331
3.15951660599967,0.0,0.10798534798534798,0.9533333333333331
3.159713680004643,0.0,0.10798534798534798,0.9533333333333331
3.1648502419993747,0.0,0.10798534798534798,0.9533333333333331
3.1702784130029613,0.0,0.10798534798534798,0.9533333333333331
3.1707911230041645,2.6722344322344322,0.7228571428571429,0.6124542124542125
3.178188299003523,2.6722344322344322,0.7228571428571429,0.6124542124542125
3.182095993004623,1.8534798534798533,0.5463736263736263,0.6382417582417582
3.1881355000004987,1.8534798534798533,0.5463736263736263,0.6382417582417582
3.191755762003595,3.3,0.4996336996336996,0.42630036630036633
3.1963184100022772,3.3,0.4996336996336996,0.42630036630036633
3.197193487001641,2.6327472527472526,0.24256410256410255,0.27076923076923076
3.198800211001071,2.6327472527472526,0.24256410256410255,0.27076923076923076
3.2079812480005785,2.4989743589743587,0.04593406593406593,1.5835164835164834
3.214184816002671,2.4989743589743587,0.04593406593406593,1.5835164835164834
3.2215023660028237,2.4989743589743587,0.04593406593406593,1.5835164835164834
3.22739199300122,2.4989743589743587,0.04593406593406593,1.5835164835164834
3.233420989003207,2.4989743589743587,0.04593406593406593,1.5835164835164834
3.2388942660036264,1.4626373626373625,0.43758241758241756,0.5794139194139193
3.23916336199909,1.4626373626373625,0.43758241758241756,0.5794139194139193
3.244121030002134,1.4626373626373625,0.43758241758241756,0.5794139194139193
3.2484954850006034,1.4626373626373625,0.43758241758241756,0.5794139194139193
3.2500223950046347,1.4626373626373625,0.43758241758241756,0.5794139194139193
3.2572132569985115,1.4626373626373625,0.43758241758241756,0.5794139194139193
3.261192979000043,1.4626373626373625,0.43758241758241756,0.5794139194139193
3.26790973199968,1.4626373626373625,0.43758241758241756,0.5794139194139193
3.2752596940044896,1.4626373626373625,0.43758241758241756,0.5794139194139193
3.2791165610033204,1.4626373626373625,0.43758241758241756,0.5794139194139193
3.283770728005038,2.087985347985348,0.24336996336996336,0.606007326007326
3.2839703670033487,2.087985347985348,0.24336996336996336,0.606007326007326
3.2941798079991713,2.087985347985348,0.24336996336996336,0.606007326007326
3.304373636005039,2.087985347985348,0.24336996336996336,0.606007326007326
3.3110765680030454,1.9961172161172158,0.2868864468864469,0.08945054945054945
3.316173418999824,1.9961172161172158,0.2868864468864469,0.08945054945054945
3.321542991005117,1.9961172161172158,0.2868864468864469,0.08945054945054945
3.3219172560056904,1.9961172161172158,0.2868864468864469,0.08945054945054945
3.329277255004854,1.9961172161172158,0.2868864468864469,0.08945054945054945
3.3353096909995656,0.0,0.03304029304029304,0.3594139194139194
3.3428438710034243,0.0,0.03304029304029304,0.3594139194139194
3.348928406005143,0.1813186813186813,0.19340659340659339,0.6704761904761904
3.35589760899893,0.1813186813186813,0.19340659340659339,0.6704761904761904
3.3592533400005777,2.5384615384615383,0.12893772893772892,1.2966300366300365
3.3601850289996946,2.713333333333333,0.14344322344322344,0.332014652014652
3.3610781950046658,2.713333333333333,0.14344322344322344,0.332014652014652
3.3633683930020197,2.713333333333333,0.14344322344322344,0.332014652014652
3.3635242330055917,2.713333333333333,0.14344322344322344,0.332014652014652
3.3696829740001704,2.713333333333333,0.14344322344322344,0.332014652014652
3.3749372950042016,0.11846153846153845,0.047545787545787546,0.502051282051282
3.3758167390042217,0.11846153846153845,0.047545787545787546,0.502051282051282
3.377408311003819,0.11846153846153845,0.047545787545787546,0.502051282051282
3.3814889040004346,0.11846153846153845,0.047545787545787546,0.502051282051282
3.3841025900037494,0.11846153846153845,0.047545787545787546,0.502051282051282
3.3934327410024707,0.11846153846153845,0.047545787545787546,0.502051282051282
3.401064554003824,3.216190476190476,0.1241025641025641,0.8574358974358974
3.4069899060050375,3.216190476190476,0.1241025641025641,0.8574358974358974
3.410645599004056,0.95010989010989,0.19340659340659339,0.46417582417582415
3.4159515999999712,0.95010989010989,0.19340659340659339,0.46417582417582415
3.4236198639991926,0.95010989010989,0.19340659340659339,0.46417582417582415
3.4270138970023254,2.8293772893772893,0.06285714285714286,0.024175824175824173
3.427887367004587,2.8293772893772893,0.06285714285714286,0.024175824175824173
3.4287671050042263,2.8293772893772893,0.06285714285714286,0.024175824175824173
3.4303089029999683,2.8293772893772893,0.06285714285714286,0.024175824175824173
3.4358348150053644,2.8293772893772893,0.06285714285714286,0.024175824175824173
3.437410603000899,1.5134065934065932,0.4319413919413919,1.3441758241758242
3.4445258940031636,1.7865934065934064,0.05802197802197802,0.03706959706959707
3.450120457004232,1.7865934065934064,0.05802197802197802,0.03706959706959707
3.450377698005468,1.7865934065934064,0.05802197802197802,0.03706959706959707
3.461961054999847,1.7865934065934064,0.05802197802197802,0.03706959706959707
3.472143694998522,2.0742857142857143,0.24014652014652016,0.43355311355311354
3.479096169001423,2.0742857142857143,0.24014652014652016,0.43355311355311354
3.4836509990054765,1.8397802197802198,0.03142857142857143,0.24256410256410255
3.4839479490037775,1.8397802197802198,0.03142857142857143,0.24256410256410255
3.491657753002073,0.0,0.03142857142857143,0.7204395604395604
3.4962609330032137,3.3,0.3231501831501831,0.13216117216117215
3.4965631020022556,3.3,0.3231501831501831,0.13216117216117215
3.503685903000587,3.3,0.3231501831501831,0.13216117216117215
3.507952717001899,3.3,0.3231501831501831,0.13216117216117215
3.5089882419997593,0.06688644688644689,0.01531135531135531,0.5947252747252747
3.5098636250040727,0.06688644688644689,0.01531135531135531,0.5947252747252747
3.5108379220037023,2.265274725274725,0.14666666666666667,1.2643956043956044
3.511765410999942,2.265274725274725,0.14666666666666667,1.2643956043956044
3.5133876990003046,2.265274725274725,0.14666666666666667,1.2643956043956044
3.517311499999778,2.265274725274725,0.14666666666666667,1.2643956043956044
3.523119115001464,2.265274725274725,0.14666666666666667,1.2643956043956044
3.5279588120029075,2.265274725274725,0.14666666666666667,1.2643956043956044
3.5333170110025094,2.265274725274725,0.14666666666666667,1.2643956043956044
3.5376646790027735,3.3,0.1386080586080586,1.0008791208791208
3.537886589001573,3.3,0.1386080586080586,1.0008791208791208
3.543323509999027,3.3,0.1386080586080586,1.0008791208791208
3.54510912400292,3.3,0.1386080586080586,1.0008791208791208
3.5474900320041343,0.19340659340659339,0.026593406593406595,0.5415384615384615
3.5478042469985667,0.19340659340659339,0.026593406593406595,0.5415384615384615
3.554640875001496,3.3,0.24336996336996336,0.8542124542124543
3.5603118110011565,3.3,0.24336996336996336,0.8542124542124543
3.560450839002442,1.6197802197802196,0.028205128205128206,0.016117216117216115
3.568891833005182,1.6197802197802196,0.028205128205128206,0.016117216117216115
3.5743266440040316,1.6197802197802196,0.028205128205128206,0.016117216117216115
3.575286829000106,1.6197802197802196,0.028205128205128206,0.016117216117216115
3.576239809000981,1.6197802197802196,0.028205128205128206,0.016117216117216115
3.5771485959994607,1.6197802197802196,0.028205128205128206,0.016117216117216115
3.5788173920009285,1.6197802197802196,0.028205128205128206,0.016117216117216115
3.58270553300099,1.6197802197802196,0.028205128205128206,0.016117216117216115
3.589902575004089,0.0,0.1095970695970696,0.8163369963369963
3.5936071450050804,0.0,0.1095970695970696,0.8163369963369963
3.5990082940043067,1.7189010989010989,0.3457142857142857,0.5963369963369963
3.600773726000625,1.7189010989010989,0.3457142857142857,0.5963369963369963
3.609408270000131,1.7189010989010989,0.3457142857142857,0.5963369963369963
3.614065774003393,1.7189010989010989,0.3457142857142857,0.5963369963369963
3.614174466005352,1.7189010989010989,0.3457142857142857,0.5963369963369963
3.620899294000992,1.7189010989010989,0.3457142857142857,0.5963369963369963
3.625756216002628,1.7189010989010989,0.3457142857142857,0.5963369963369963
3.630421259003924,1.7189010989010989,0.3457142857142857,0.5963369963369963
3.630620820003969,1.7189010989010989,0.3457142857142857,0.5963369963369963
3.63685008000175,1.7189010989010989,0.3457142857142857,0.5963369963369963
3.6418284399987897,1.6463736263736264,0.5358974358974359,0.05399267399267399
3.644264167000074,1.6463736263736264,0.5358974358974359,0.05399267399267399
3.6444926600015606,1.6463736263736264,0.5358974358974359,0.05399267399267399
3.6499030420018244,1.6463736263736264,0.5358974358974359,0.05399267399267399
3.6520776090037543,1.6463736263736264,0.5358974358974359,0.05399267399267399
3.653600864003238,2.3877655677655674,0.4722344322344322,1.5424175824175823
3.6595497529997374,2.3877655677655674,0.4722344322344322,1.5424175824175823
3.663533698003448,2.3877655677655674,0.4722344322344322,1.5424175824175823
3.6665833209990524,2.3877655677655674,0.4722344322344322,1.5424175824175823
3.6699132710054982,0.06688644688644689,0.03545787545787545,0.4448351648351648
3.6703560290043242,3.3,0.7123809523809523,0.15794871794871795
3.6748421500014956,3.3,0.7123809523809523,0.15794871794871795
3.675109825999243,3.3,0.7123809523809523,0.15794871794871795
3.680523114002426,3.3,0.7123809523809523,0.15794871794871795
3.6821063280003727,3.3,0.7123809523809523,0.15794871794871795
3.6887616669991985,3.3,0.7123809523809523,0.15794871794871795
3.6923164460022235,2.6488644688644687,0.6519413919413919,0.24175824175824176
3.692491047004296,2.6488644688644687,0.6519413919413919,0.24175824175824176
3.6970549120014766,2.6488644688644687,0.6519413919413919,0.24175824175824176
3.6973552710041986,2.6488644688644687,0.6519413919413919,0.24175824175824176
3.7053321409985074,2.6488644688644687,0.6519413919413919,0.24175824175824176
3.709702997999557,2.6488644688644687,0.6519413919413919,0.24175824175824176
3.710579835002136,2.6488644688644687,0.6519413919413919,0.24175824175824176
3.7124112490055268,2.258827838827839,0.6011721611721611,1.8454212454212453
3.7154899750021286,2.258827838827839,0.6011721611721611,1.8454212454212453
3.719029287000012,2.258827838827839,0.6011721611721611,1.8454212454212453
3.7267204810050316,2.258827838827839,0.6011721611721611,1.8454212454212453
3.731343174003996,2.258827838827839,0.6011721611721611,1.8454212454212453
3.731637352000689,2.984102564102564,0.7865201465201466,0.3553846153846154
3.7389700909989187,2.984102564102564,0.7865201465201466,0.3553846153846154
3.7422185510004056,2.984102564102564,0.7865201465201466,0.3553846153846154
3.74316379299853,2.984102564102564,0.7865201465201466,0.3553846153846154
3.745402764005121,2.984102564102564,0.7865201465201466,0.3553846153846154
3.7456586789994617,2.984102564102564,0.7865201465201466,0.3553846153846154
3.754770842002472,2.984102564102564,0.7865201465201466,0.3553846153846154
3.759037196999998,2.4038827838827834,0.5504029304029303,0.022564102564102562
3.7613741520035546,2.4038827838827834,0.5504029304029303,0.022564102564102562
3.7615659840012086,2.207252747252747,0.166007326007326,1.3506227106227104
3.766356496998924,2.207252747252747,0.166007326007326,1.3506227106227104
3.766492955001013,2.207252747252747,0.166007326007326,1.3506227106227104
3.773506821002229,3.3,0.5479853479853479,0.16117216117216115
3.777376809004636,1.8969963369963367,0.5205860805860806,1.3377289377289376
3.781588558005751,1.8969963369963367,0.5205860805860806,1.3377289377289376
3.783852239001135,1.8969963369963367,0.5205860805860806,1.3377289377289376
3.7841784180054674,1.8969963369963367,0.5205860805860806,1.3377289377289376
3.7949328730028355,1.8969963369963367,0.5205860805860806,1.3377289377289376
3.8033185680033057,1.8969963369963367,0.5205860805860806,1.3377289377289376
3.8118858610032476,0.9767032967032967,0.3553846153846154,1.3119413919413918
3.8184341470041545,0.0,0.06688644688644689,0.684981684981685
3.8247425260051386,0.0,0.06688644688644689,0.684981684981685
3.8278194990052725,0.0,0.06688644688644689,0.684981684981685
3.830798228002095,0.0,0.06688644688644689,0.684981684981685
3.8337049440015107,3.3,0.30864468864468864,0.4794871794871795
3.8414541910024127,1.1040293040293039,0.43597069597069593,0.9605860805860806
3.847967398003675,1.1040293040293039,0.43597069597069593,0.9605860805860806
3.854649409004196,0.0,0.03062271062271062,0.9339926739926739
3.8582396679994417,0.0,0.03062271062271062,0.9339926739926739
3.864155954004673,2.258827838827839,0.07978021978021978,0.6068131868131869
3.8643353470033617,2.258827838827839,0.07978021978021978,0.6068131868131869
3.8743175600029645,2.258827838827839,0.07978021978021978,0.6068131868131869
3.8791138369997498,2.258827838827839,0.07978021978021978,0.6068131868131869
3.8874783190040034,2.258827838827839,0.07978021978021978,0.6068131868131869
3.892487502002041,2.258827838827839,0.07978021978021978,0.6068131868131869
3.895635452005081,2.4554578754578755,0.90014652014652,1.5408058608058608
3.897214459000679,2.4554578754578755,0.90014652014652,1.5408058608058608
3.904703950000112,2.4554578754578755,0.90014652014652,1.5408058608058608
3.9089812130041537,1.1072527472527471,0.8324542124542124,0.5826373626373627
3.909857834005379,1.1072527472527471,0.8324542124542124,0.5826373626373627
3.91086509500019,1.1072527472527471,0.8324542124542124,0.5826373626373627
3.911866488000669,1.1072527472527471,0.8324542124542124,0.5826373626373627
3.91271704799874,1.1072527472527471,0.8324542124542124,0.5826373626373627
3.9143464810040314,1.1072527472527471,0.8324542124542124,0.5826373626373627
3.920544806998805,1.1072527472527471,0.8324542124542124,0.5826373626373627
3.9234833070004242,1.1072527472527471,0.8324542124542124,0.5826373626373627
3.9269155970032443,1.1072527472527471,0.8324542124542124,0.5826373626373627
3.9271373150040745,1.1072527472527471,0.8324542124542124,0.5826373626373627
3.9317050970057608,1.1072527472527471,0.8324542124542124,0.5826373626373627
3.9321307970021735,2.1685714285714286,0.32798534798534795,1.1064468864468864
3.940133333999256,2.1685714285714286,0.32798534798534795,1.1064468864468864
3.9458292950002942,1.751135531135531,0.31267399267399265,0.8002197802197801
3.9504289739998057,0.005641025641025641,0.1515018315018315,0.6261538461538461
3.950596016999043,0.005641025641025641,0.1515018315018315,0.6261538461538461
3.9590827220017673,0.005641025641025641,0.1515018315018315,0.6261538461538461
3.9661147279985016,2.323296703296703,0.39003663003663,1.099194139194139
3.9737140590004856,0.1571428571428571,0.13216117216117215,0.4964102564102564
3.9800483560029534,0.1571428571428571,0.13216117216117215,0.4964102564102564
3.985987166000996,0.1571428571428571,0.13216117216117215,0.4964102564102564
3.991373955999734,0.5221978021978021,0.34087912087912087,0.8590476190476191
3.9922410049985046,3.3,0.23208791208791207,0.4383882783882784
3.9942317189997993,3.3,0.23208791208791207,0.4383882783882784
3.995884214004036,3.3,0.23208791208791207,0.4383882783882784
4.000040721002733,3.3,0.23208791208791207,0.4383882783882784
4.001724961002765,3.3,0.23208791208791207,0.4383882783882784
4.0068393040055525,3.3,0.23208791208791207,0.4383882783882784
4.009207694005454,3.3,0.23208791208791207,0.4383882783882784
4.0100969030027045,3.3,0.23208791208791207,0.4383882783882784
4.01166772400029,3.3,0.23208791208791207,0.4383882783882784
4.015370767003333,3.3,0.23208791208791207,0.4383882783882784
4.01547885400214,3.3,0.23208791208791207,0.4383882783882784
4.023788516999048,2.5336263736263738,0.35216117216117215,0.3884249084249084
4.028627767002035,1.8196336996336997,0.2208058608058608,0.03062271062271062
4.034708584003965,1.8196336996336997,0.2208058608058608,0.03062271062271062
4.041118452005321,1.8196336996336997,0.2208058608058608,0.03062271062271062
4.045023894999758,1.8196336996336997,0.2208058608058608,0.03062271062271062
4.049526460003108,1.8196336996336997,0.2208058608058608,0.03062271062271062
4.050368825002806,2.755238095238095,0.13377289377289378,0.7558974358974359
4.053776731001562,2.755238095238095,0.13377289377289378,0.7558974358974359
4.053965256003721,2.2040293040293037,1.0016849816849815,1.2297435897435898
4.0591113830014365,2.2040293040293037,1.0016849816849815,1.2297435897435898
4.061473984998884,2.706886446886447,0.39890109890109887,0.4045421245421245
4.061657944002945,2.706886446886447,0.39890109890109887,0.4045421245421245
4.0663071910021245,2.706886446886447,0.39890109890109887,0.4045421245421245
4.066457779001212,2.706886446886447,0.39890109890109887,0.4045421245421245
4.074234056999558,2.706886446886447,0.39890109890109887,0.4045421245421245
4.078931451003882,3.183956043956044,0.2087179487179487,0.27882783882783885
4.079083698001341,3.183956043956044,0.2087179487179487,0.27882783882783885
4.085499673004961,3.183956043956044,0.2087179487179487,0.27882783882783885
4.091307504000724,3.183956043956044,0.2087179487179487,0.27882783882783885
4.095086926005024,3.183956043956044,0.2087179487179487,0.27882783882783885
4.1020406860043295,3.183956043956044,0.2087179487179487,0.27882783882783885
4.1071518329990795,3.183956043956044,0.2087179487179487,0.27882783882783885
4.1130029580017435,3.183956043956044,0.2087179487179487,0.27882783882783885
4.121674519999942,3.183956043956044,0.2087179487179487,0.27882783882783885
4.1259415360036655,1.7930402930402929,0.24095238095238095,0.9960439560439559
4.126765271001204,0.1805128205128205,0.05399267399267399,0.6632234432234432
4.128492654999718,0.1805128205128205,0.05399267399267399,0.6632234432234432
4.1320430359992315,0.1805128205128205,0.05399267399267399,0.6632234432234432
4.132233118005388,0.1805128205128205,0.05399267399267399,0.6632234432234432
4.139840854004433,0.1805128205128205,0.05399267399267399,0.6632234432234432
4.143702927998675,2.4038827838827834,0.028205128205128206,0.166007326007326
4.148307941999519,2.4038827838827834,0.028205128205128206,0.166007326007326
4.149231109004177,2.4038827838827834,0.028205128205128206,0.166007326007326
4.1508562580056605,2.4038827838827834,0.028205128205128206,0.166007326007326
4.158064062001358,2.4119413919413915,0.8018315018315018,1.2797069597069597
4.16331798700412,2.4119413919413915,0.8018315018315018,1.2797069597069597
4.165609212002892,1.278901098901099,0.1104029304029304,0.8324542124542124
4.165880262000428,1.278901098901099,0.1104029304029304,0.8324542124542124
4.175315387001319,1.278901098901099,0.1104029304029304,0.8324542124542124
4.1799483040013,2.063003663003663,0.1772893772893773,0.5874725274725274
4.180295398000453,2.063003663003663,0.1772893772893773,0.5874725274725274
4.186597268999321,2.063003663003663,0.1772893772893773,0.5874725274725274
4.190732073999243,2.063003663003663,0.1772893772893773,0.5874725274725274
4.193256135004049,2.063003663003663,0.1772893772893773,0.5874725274725274
4.199002280998684,2.063003663003663,0.1772893772893773,0.5874725274725274
4.199259701999836,2.063003663003663,0.1772893772893773,0.5874725274725274
4.207723387000442,2.063003663003663,0.1772893772893773,0.5874725274725274
4.211827584003913,2.063003663003663,0.1772893772893773,0.5874725274725274
4.214481617003912,2.063003663003663,0.1772893772893773,0.5874725274725274
4.224493034998886,2.125860805860806,0.2208058608058608,1.0008791208791208
4.2290405230014585,2.125860805860806,0.2208058608058608,1.0008791208791208
4.2299411050044,2.125860805860806,0.2208058608058608,1.0008791208791208
4.231592417003412,2.125860805860806,0.2208058608058608,1.0008791208791208
4.237780046001717,0.43677655677655675,0.473040293040293,1.4610256410256408
4.240474092999648,1.6205860805860803,0.3199267399267399,1.1096703296703296
4.244844628999999,2.02029304029304,0.10315018315018315,0.26915750915750913
4.245800764001615,2.02029304029304,0.10315018315018315,0.26915750915750913
4.246706327001448,2.02029304029304,0.10315018315018315,0.26915750915750913
4.248274951001804,2.02029304029304,0.10315018315018315,0.26915750915750913
4.254704783001216,2.02029304029304,0.10315018315018315,0.26915750915750913
4.258312258003571,2.02029304029304,0.10315018315018315,0.26915750915750913
4.26636285600398,2.02029304029304,0.10315018315018315,0.26915750915750913
4.275694513002236,2.02029304029304,0.10315018315018315,0.26915750915750913
4.282043920000433,2.02029304029304,0.10315018315018315,0.26915750915750913
4.288935503005632,0.9597802197802198,0.5931135531135531,1.1362637362637362
4.293124422998517,0.9597802197802198,0.5931135531135531,1.1362637362637362
4.295281354003237,0.9597802197802198,0.5931135531135531,1.1362637362637362
4.295570514004794,0.9597802197802198,0.5931135531135531,1.1362637362637362
4.300296307003009,0.9597802197802198,0.5931135531135531,1.1362637362637362
4.300541032003821,0.9597802197802198,0.5931135531135531,1.1362637362637362
4.309511659004784,1.2555311355311354,1.0234432234432234,1.1765567765567766
4.3143082940005115,1.2555311355311354,1.0234432234432234,1.1765567765567766
4.322477219000575,1.2555311355311354,1.0234432234432234,1.1765567765567766
4.326462529003038,1.2555311355311354,1.0234432234432234,1.1765567765567766
4.330247787998815,1.2555311355311354,1.0234432234432234,1.1765567765567766
4.335664529004134,1.2555311355311354,1.0234432234432234,1.1765567765567766
4.33719300100347,1.2555311355311354,1.0234432234432234,1.1765567765567766
4.341524414005107,1.2555311355311354,1.0234432234432234,1.1765567765567766
4.3423795429989696,1.2555311355311354,1.0234432234432234,1.1765567765567766
4.34401234100369,1.2555311355311354,1.0234432234432234,1.1765567765567766
4.3479874710028525,1.2555311355311354,1.0234432234432234,1.1765567765567766
4.354576924000867,1.2555311355311354,1.0234432234432234,1.1765567765567766
4.358110913002747,2.6746520146520147,0.5939194139194138,0.6197069597069597
4.35828255800152,2.6746520146520147,0.5939194139194138,0.6197069597069597
4.363696051004808,2.6746520146520147,0.5939194139194138,0.6197069597069597
4.364676151999447,1.995311355311355,0.23853479853479853,0.7430036630036629
4.365553773001011,1.995311355311355,0.23853479853479853,0.7430036630036629
4.367275769000116,1.995311355311355,0.23853479853479853,0.7430036630036629
4.372400675005338,1.995311355311355,0.23853479853479853,0.7430036630036629
4.375482278002892,1.995311355311355,0.23853479853479853,0.7430036630036629
4.377037887999904,1.995311355311355,0.23853479853479853,0.7430036630036629
4.3824283510039095,1.995311355311355,0.23853479853479853,0.7430036630036629
4.384346546001325,1.4432967032967032,0.971062271062271,1.021025641025641
4.388490720004484,1.4432967032967032,0.971062271062271,1.021025641025641
4.390315122000175,1.4432967032967032,0.971062271062271,1.021025641025641
4.392314303004241,1.4432967032967032,0.971062271062271,1.021025641025641
4.394017188002181,1.7156776556776556,0.8332600732600732,1.6407326007326006
4.398709539003903,1.7156776556776556,0.8332600732600732,1.6407326007326006
4.405917105999833,2.0573626373626372,0.21597069597069596,0.7228571428571429
4.409332342998823,0.0,0.13941391941391942,0.6398534798534798
4.409498202003306,0.0,0.13941391941391942,0.6398534798534798
4.41527230200154,0.0,0.13941391941391942,0.6398534798534798
4.415464533005434,0.27399267399267396,0.43274725274725273,1.3989743589743588
4.426831092001521,0.27399267399267396,0.43274725274725273,1.3989743589743588
4.4359191640032805,0.27399267399267396,0.43274725274725273,1.3989743589743588
4.442795637005474,0.27399267399267396,0.43274725274725273,1.3989743589743588
4.447232192003867,0.27399267399267396,0.43274725274725273,1.3989743589743588
4.448335485001735,0.27399267399267396,0.43274725274725273,1.3989743589743588
4.448645169999509,0.27399267399267396,0.43274725274725273,1.3989743589743588
4.458707288002188,0.27399267399267396,0.43274725274725273,1.3989743589743588
4.466494143998716,0.27399267399267396,0.43274725274725273,1.3989743589743588
4.476858351001283,0.27399267399267396,0.43274725274725273,1.3989743589743588
4.482860569005425,1.4739194139194138,0.11282051282051282,0.8920879120879119
4.4893059710011585,1.4739194139194138,0.11282051282051282,0.8920879120879119
4.492721727001481,1.4739194139194138,0.11282051282051282,0.8920879120879119
4.492872488001012,1.4739194139194138,0.11282051282051282,0.8920879120879119
4.497526371000276,1.4739194139194138,0.11282051282051282,0.8920879120879119
4.497920703004638,1.4739194139194138,0.11282051282051282,0.8920879120879119
4.5030853990028845,1.4739194139194138,0.11282051282051282,0.8920879120879119
4.5061906750052,0.1829304029304029,0.1643956043956044,0.9339926739926739
4.507873662005295,0.1829304029304029,0.1643956043956044,0.9339926739926739
4.510835613000381,3.3,0.5616849816849817,1.3602930402930402
4.514290669001639,3.3,0.5616849816849817,1.3602930402930402
4.514489624998532,3.3,0.5616849816849817,1.3602930402930402
4.52207270800136,3.3,0.5616849816849817,1.3602930402930402
4.526140791000216,3.3,0.5616849816849817,1.3602930402930402
4.530379912001081,3.3,0.5616849816849817,1.3602930402930402
4.532107819002704,3.3,0.5616849816849817,1.3602930402930402
4.537966462004988,3.3,0.5616849816849817,1.3602930402930402
4.545424607000314,3.3,0.5616849816849817,1.3602930402930402
4.5530897970020305,3.3,0.5616849816849817,1.3602930402930402
4.5586136109996005,2.266886446886447,0.614065934065934,0.07494505494505493
4.56405642900063,2.266886446886447,0.614065934065934,0.07494505494505493
4.56601329100522,2.266886446886447,0.614065934065934,0.07494505494505493
4.5699776469991775,2.266886446886447,0.614065934065934,0.07494505494505493
4.57465998200496,2.266886446886447,0.614065934065934,0.07494505494505493
4.5794119109996245,2.266886446886447,0.614065934065934,0.07494505494505493
4.579574537005101,1.6415384615384614,0.06285714285714286,0.3199267399267399
4.586551480002527,1.6415384615384614,0.06285714285714286,0.3199267399267399
4.590446093003266,1.6415384615384614,0.06285714285714286,0.3199267399267399
4.593542832000821,1.6415384615384614,0.06285714285714286,0.3199267399267399
4.596619351999834,1.6415384615384614,0.06285714285714286,0.3199267399267399
4.599281135000638,1.6415384615384614,0.06285714285714286,0.3199267399267399
4.609729296003934,1.6415384615384614,0.06285714285714286,0.3199267399267399
4.622651137004141,1.6415384615384614,0.06285714285714286,0.3199267399267399
4.639070798002649,0.0,0.11523809523809524,0.7268864468864469
4.657197329004703,0.025787545787545788,0.07252747252747253,0.4448351648351648
4.669236804002139,0.025787545787545788,0.07252747252747253,0.4448351648351648
4.677583133001463,0.5657142857142857,0.07978021978021978,0.722051282051282
4.685744622001948,0.5657142857142857,0.07978021978021978,0.722051282051282
4.694206946005579,0.6229304029304029,0.08058608058608058,0.5761904761904761
4.702352099004202,2.002564102564102,0.4351648351648352,1.315970695970696
4.708784722002747,2.002564102564102,0.4351648351648352,1.315970695970696
4.712332749004418,2.002564102564102,0.4351648351648352,1.315970695970696
4.712471582999569,2.002564102564102,0.4351648351648352,1.315970695970696
4.718303621004452,2.002564102564102,0.4351648351648352,1.315970695970696
4.725876140000764,2.685934065934066,0.24659340659340656,0.3924542124542124
4.731338643003255,2.441758241758242,0.518974358974359,0.11604395604395604
4.732313771004556,2.441758241758242,0.518974358974359,0.11604395604395604
4.733303919005266,2.441758241758242,0.518974358974359,0.11604395604395604
4.73433661400486,2.441758241758242,0.518974358974359,0.11604395604395604
4.736421378001978,2.441758241758242,0.518974358974359,0.11604395604395604
4.736821741003951,2.441758241758242,0.518974358974359,0.11604395604395604
4.746416895999573,2.441758241758242,0.518974358974359,0.11604395604395604
4.755120284004079,2.441758241758242,0.518974358974359,0.11604395604395604
4.760711421004089,1.975164835164835,0.31750915750915754,1.7841758241758239
4.760826129000634,1.975164835164835,0.31750915750915754,1.7841758241758239
4.765603095998813,1.975164835164835,0.31750915750915754,1.7841758241758239
4.776482861001568,0.02175824175824176,0.01934065934065934,0.23128205128205126
4.785168974005501,0.02175824175824176,0.01934065934065934,0.23128205128205126
4.791878905001795,0.02175824175824176,0.01934065934065934,0.23128205128205126
4.796486523999192,0.25706959706959703,0.4214652014652014,1.432014652014652
4.797376756003359,1.8832967032967032,0.4287179487179487,0.7196336996336996
4.799682712000504,1.8832967032967032,0.4287179487179487,0.7196336996336996
4.799898171004315,1.8832967032967032,0.4287179487179487,0.7196336996336996
4.80723319700337,1.8832967032967032,0.4287179487179487,0.7196336996336996
4.812091836000036,0.0821978021978022,0.502051282051282,0.7172161172161172
4.816507815005025,0.0821978021978022,0.502051282051282,0.7172161172161172
4.818673031004437,2.1435897435897435,0.1813186813186813,0.2111355311355311
4.819122371001868,2.1435897435897435,0.1813186813186813,0.2111355311355311
4.824384601000929,2.1435897435897435,0.1813186813186813,0.2111355311355311
4.8267773000043235,2.1435897435897435,0.1813186813186813,0.2111355311355311
4.827017087998684,2.1435897435897435,0.1813186813186813,0.2111355311355311
4.832463176004239,2.1435897435897435,0.1813186813186813,0.2111355311355311
4.835322664002888,2.1435897435897435,0.1813186813186813,0.2111355311355311
4.840355077998538,2.1435897435897435,0.1813186813186813,0.2111355311355311
4.842935900000157,2.1435897435897435,0.1813186813186813,0.2111355311355311
4.847630390999257,2.1435897435897435,0.1813186813186813,0.2111355311355311
4.847974317002809,2.1435897435897435,0.1813186813186813,0.2111355311355311
4.855656387000636,2.1435897435897435,0.1813186813186813,0.2111355311355311
4.86054431500088,2.1435897435897435,0.1813186813186813,0.2111355311355311
4.867250110000896,1.5931868131868132,0.028205128205128206,0.49721611721611714
4.874488493005629,1.5931868131868132,0.028205128205128206,0.49721611721611714
4.877627396999742,1.5931868131868132,0.028205128205128206,0.49721611721611714
4.879389715002617,1.5931868131868132,0.028205128205128206,0.49721611721611714
4.882462701003533,1.5931868131868132,0.028205128205128206,0.49721611721611714
4.88601669199852,1.5931868131868132,0.028205128205128206,0.49721611721611714
4.89178854200145,1.5931868131868132,0.028205128205128206,0.49721611721611714
4.891889919999812,1.5931868131868132,0.028205128205128206,0.49721611721611714
4.898013981000986,1.5931868131868132,0.028205128205128206,0.49721611721611714
4.906984797002224,1.1821978021978021,0.03465201465201465,0.41018315018315016
4.911037431003933,1.1821978021978021,0.03465201465201465,0.41018315018315016
4.914991464000195,1.1821978021978021,0.03465201465201465,0.41018315018315016
4.9222512080013985,1.1821978021978021,0.03465201465201465,0.41018315018315016
4.928666507003072,1.1821978021978021,0.03465201465201465,0.41018315018315016
4.931789025999024,1.1821978021978021,0.03465201465201465,0.41018315018315016
4.9334736700038775,1.1821978021978021,0.03465201465201465,0.41018315018315016
4.940991710005619,1.1821978021978021,0.03465201465201465,0.41018315018315016
4.944873568005278,1.1821978021978021,0.03465201465201465,0.41018315018315016
4.949366471002577,1.1821978021978021,0.03465201465201465,0.41018315018315016
4.950207587004115,1.1821978021978021,0.03465201465201465,0.41018315018315016
4.953827905999788,1.1821978021978021,0.03465201465201465,0.41018315018315016
4.9582657249993645,1.1821978021978021,0.03465201465201465,0.41018315018315016
4.958587667999382,1.8647619047619046,0.13699633699633698,0.4013186813186813
4.9641168439993635,1.8647619047619046,0.13699633699633698,0.4013186813186813
4.965110741999524,1.8647619047619046,0.13699633699633698,0.4013186813186813
4.9660518470045645,1.8647619047619046,0.13699633699633698,0.4013186813186813
4.968339268998534,1.8647619047619046,0.13699633699633698,0.4013186813186813
4.968650889000855,1.8647619047619046,0.13699633699633698,0.4013186813186813
4.977765848001582,1.8647619047619046,0.13699633699633698,0.4013186813186813
4.9876840810029535,1.8647619047619046,0.13699633699633698,0.4013186813186813
4.993633037003747,0.0,0.2224175824175824,0.7607326007326007
4.998241576002329,0.0,0.2224175824175824,0.7607326007326007
4.998429388004297,1.68021978021978,0.09106227106227105,0.2909157509157509
5.007782505999785,1.68021978021978,0.09106227106227105,0.2909157509157509
5.012317439999606,1.68021978021978,0.09106227106227105,0.2909157509157509
5.014008224999998,1.2958241758241758,0.6777289377289377,1.3876923076923076
5.018524769002397,1.2958241758241758,0.6777289377289377,1.3876923076923076
5.018779177000397,1.826886446886447,0.19824175824175824,0.07897435897435898
5.024808799003949,1.826886446886447,0.19824175824175824,0.07897435897435898
5.028524665998702,1.826886446886447,0.19824175824175824,0.07897435897435898
5.028660190000664,1.826886446886447,0.19824175824175824,0.07897435897435898
5.0348273210038315,1.826886446886447,0.19824175824175824,0.07897435897435898
5.040853866004909,1.826886446886447,0.19824175824175824,0.07897435897435898
5.043959963004454,2.639194139194139,0.02095238095238095,0.49802197802197795
5.04634862900275,2.639194139194139,0.02095238095238095,0.49802197802197795
5.0465025450030225,2.639194139194139,0.02095238095238095,0.49802197802197795
5.052717778999067,2.6923809523809523,0.49399267399267394,0.3795604395604395
5.0562118900052155,0.9452747252747251,0.46095238095238095,1.1459340659340658
5.056415084000037,0.9452747252747251,0.46095238095238095,1.1459340659340658
5.062217293001595,0.9452747252747251,0.46095238095238095,1.1459340659340658
5.062526745001378,0.9452747252747251,0.46095238095238095,1.1459340659340658
5.069679243002611,0.9452747252747251,0.46095238095238095,1.1459340659340658
5.0744083680037875,1.1523809523809523,0.14263736263736262,0.5463736263736263
5.074506048003968,1.1523809523809523,0.14263736263736262,0.5463736263736263
5.080706412998552,1.1523809523809523,0.14263736263736262,0.5463736263736263
5.085882163999486,1.971135531135531,0.15311355311355312,0.1515018315018315
5.088714336001431,1.971135531135531,0.15311355311355312,0.1515018315018315
5.093886179005494,1.971135531135531,0.15311355311355312,0.1515018315018315
5.0963398669991875,1.1338461538461537,0.4520879120879121,1.091135531135531
5.1066253910030355,1.1338461538461537,0.4520879120879121,1.091135531135531
5.112700051999127,1.1338461538461537,0.4520879120879121,1.091135531135531
5.119259530001727,1.0403663003663002,0.5979487179487178,1.3917216117216116
5.123027804998856,2.4715750915750916,0.1821245421245421,0.11846153846153845
5.128432937002799,2.4715750915750916,0.1821245421245421,0.11846153846153845
5.130072274005215,2.4715750915750916,0.1821245421245421,0.11846153846153845
5.13464763200318,2.4715750915750916,0.1821245421245421,0.11846153846153845
5.135628670002916,2.4715750915750916,0.1821245421245421,0.11846153846153845
5.1364047810056945,2.4715750915750916,0.1821245421245421,0.11846153846153845
5.137955557998794,1.9542124542124542,0.13296703296703297,0.28446886446886444
5.142931291004061,1.9542124542124542,0.13296703296703297,0.28446886446886444
5.147371168000973,1.9542124542124542,0.13296703296703297,0.28446886446886444
5.1488512069990975,1.9542124542124542,0.13296703296703297,0.28446886446886444
5.15311519199895,1.9542124542124542,0.13296703296703297,0.28446886446886444
5.155552214004274,1.9542124542124542,0.13296703296703297,0.28446886446886444
5.155716367000423,1.9542124542124542,0.13296703296703297,0.28446886446886444
5.16111252400151,1.9542124542124542,0.13296703296703297,0.28446886446886444
5.163638237005216,1.9542124542124542,0.13296703296703297,0.28446886446886444
5.169017508000252,1.9542124542124542,0.13296703296703297,0.28446886446886444
5.172100059004151,2.9389743589743587,0.14586080586080585,1.481172161172161
5.1744525950052775,0.776043956043956,0.5205860805860806,1.3756043956043955
5.174787094001658,0.776043956043956,0.5205860805860806,1.3756043956043955
5.17939511500299,0.776043956043956,0.5205860805860806,1.3756043956043955
5.179619842005195,2.1024908424908424,0.30945054945054945,0.29413919413919415
5.18416177600011,2.1024908424908424,0.30945054945054945,0.29413919413919415
5.184995840005286,2.1024908424908424,0.30945054945054945,0.29413919413919415
5.186622323002666,2.1024908424908424,0.30945054945054945,0.29413919413919415
5.191019049001625,0.06285714285714286,0.014505494505494505,0.46739926739926735
5.1931031580024865,3.3,0.4996336996336996,0.6366300366300366
5.194763377003255,0.9807326007326007,0.4754578754578754,1.0194139194139193
5.199163419005345,0.9807326007326007,0.4754578754578754,1.0194139194139193
5.199432015004277,1.9687179487179485,0.1958241758241758,0.3021978021978022
5.204997909000667,1.9687179487179485,0.1958241758241758,0.3021978021978022
5.206650721003825,1.9687179487179485,0.1958241758241758,0.3021978021978022
5.209804566002276,1.9687179487179485,0.1958241758241758,0.3021978021978022
5.211460338003235,1.9687179487179485,0.1958241758241758,0.3021978021978022
5.215422574001423,1.8849084249084247,0.8034432234432234,1.6673260073260072
5.219300879005459,1.8849084249084247,0.8034432234432234,1.6673260073260072
5.223009699999238,1.8849084249084247,0.8034432234432234,1.6673260073260072
5.228472966999107,1.8849084249084247,0.8034432234432234,1.6673260073260072
5.23005925599864,1.8849084249084247,0.8034432234432234,1.6673260073260072
5.233930398004304,1.8849084249084247,0.8034432234432234,1.6673260073260072
5.2394496080014505,1.8623443223443221,0.4786813186813187,0.381978021978022
5.240285339001275,2.0847619047619044,0.15472527472527473,1.4118681318681316
5.242395763001696,2.0847619047619044,0.15472527472527473,1.4118681318681316
5.243233050001436,2.0847619047619044,0.15472527472527473,1.4118681318681316
5.2450454749996425,2.0847619047619044,0.15472527472527473,1.4118681318681316
5.247817510004097,0.0,0.017728937728937726,0.4754578754578754
5.2553442630014615,0.0,0.017728937728937726,0.4754578754578754
5.259794966004847,0.0,0.017728937728937726,0.4754578754578754
5.260090889998537,2.5843956043956045,0.14989010989010987,1.4086446886446886
5.267980030999752,2.5843956043956045,0.14989010989010987,1.4086446886446886
5.273126322004828,0.307032967032967,0.03142857142857143,0.35135531135531134
5.275413194001885,1.5625641025641024,0.8453479853479853,1.543223443223443
5.275720094003191,2.313626373626373,0.23128205128205126,0.4859340659340659
5.28088122200279,1.9542124542124542,0.14344322344322344,0.5512087912087912
5.283998245999101,2.2523809523809524,0.28446886446886444,1.4271794871794872
5.285613493004348,2.2523809523809524,0.28446886446886444,1.4271794871794872
5.289511076000053,2.2523809523809524,0.28446886446886444,1.4271794871794872
5.298750326001027,2.4941391941391937,0.09186813186813186,1.9961172161172158
5.3042407570028445,2.0976556776556774,0.34087912087912087,0.3876190476190476
5.3058079430047655,2.0976556776556774,0.34087912087912087,0.3876190476190476
5.308932364001521,2.0976556776556774,0.34087912087912087,0.3876190476190476
5.311470510001527,2.0976556776556774,0.34087912087912087,0.3876190476190476
5.3167651440016925,2.0976556776556774,0.34087912087912087,0.3876190476190476
5.3198445550006,2.0976556776556774,0.34087912087912087,0.3876190476190476
5.322221239002829,1.872014652014652,0.20227106227106226,1.0605128205128205
5.322407448999002,1.872014652014652,0.20227106227106226,1.0605128205128205
5.326963894003711,1.872014652014652,0.20227106227106226,1.0605128205128205
5.328487667000445,0.0,0.0975091575091575,0.6785347985347985
5.332141790000605,3.3,0.3457142857142857,1.386080586080586
5.332361967004545,3.3,0.3457142857142857,1.386080586080586
5.337562175998755,3.3,0.3457142857142857,1.386080586080586
5.339970566004922,1.6753846153846153,0.4351648351648352,0.10717948717948718
5.340245318999223,1.6753846153846153,0.4351648351648352,0.10717948717948718
5.3474250310027855,1.6753846153846153,0.4351648351648352,0.10717948717948718
5.351761439000256,1.6753846153846153,0.4351648351648352,0.10717948717948718
5.352212227000564,1.6753846153846153,0.4351648351648352,0.10717948717948718
5.360229858000821,1.6753846153846153,0.4351648351648352,0.10717948717948718
5.367578085999412,1.6753846153846153,0.4351648351648352,0.10717948717948718
5.37509283899999,3.3,0.4762637362637362,0.6906227106227106
5.3800439149999875,0.3578021978021978,0.44402930402930396,1.0411721611721612
5.386315549003484,1.763223443223443,0.028205128205128206,1.340952380952381
5.391820485005155,1.763223443223443,0.028205128205128206,1.340952380952381
5.397294114998658,1.763223443223443,0.028205128205128206,1.340952380952381
5.3988880070028245,1.763223443223443,0.028205128205128206,1.340952380952381
5.406645729999582,1.763223443223443,0.028205128205128206,1.340952380952381
5.410255062000942,1.763223443223443,0.028205128205128206,1.340952380952381
5.4156495409988565,2.8164835164835162,0.11926739926739927,1.2152380952380952
5.418743120004365,2.8164835164835162,0.11926739926739927,1.2152380952380952
5.420101691001037,2.8164835164835162,0.11926739926739927,1.2152380952380952
5.420350806001807,2.8164835164835162,0.11926739926739927,1.2152380952380952
5.424639996999758,2.8164835164835162,0.11926739926739927,1.2152380952380952
5.426176959001168,2.8164835164835162,0.11926739926739927,1.2152380952380952
5.430861583001388,2.8164835164835162,0.11926739926739927,1.2152380952380952
5.431327432001126,2.8164835164835162,0.11926739926739927,1.2152380952380952
5.436472084998968,2.8164835164835162,0.11926739926739927,1.2152380952380952
5.439926268001727,2.8164835164835162,0.11926739926739927,1.2152380952380952
5.448171092000848,2.8164835164835162,0.11926739926739927,1.2152380952380952
5.452293371003179,2.8164835164835162,0.11926739926739927,1.2152380952380952
5.455625820002751,2.8164835164835162,0.11926739926739927,1.2152380952380952
5.455854653999268,2.8164835164835162,0.11926739926739927,1.2152380952380952
5.460569089002092,2.8164835164835162,0.11926739926739927,1.2152380952380952
5.460940057004336,2.8164835164835162,0.11926739926739927,1.2152380952380952
5.465631402003055,2.8164835164835162,0.11926739926739927,1.2152380952380952
5.46588861499913,0.016117216117216115,0.1692307692307692,0.6261538461538461
5.4730006200043135,0.016117216117216115,0.1692307692307692,0.6261538461538461
5.4770733550030855,0.016117216117216115,0.1692307692307692,0.6261538461538461
5.480176360004407,0.016117216117216115,0.1692307692307692,0.6261538461538461
5.482614266999008,0.016117216117216115,0.1692307692307692,0.6261538461538461
5.490563865001604,0.15633699633699633,0.16197802197802197,0.6205128205128204
5.495185854000738,3.3,0.17003663003663003,0.9178754578754579
5.496014991003904,0.767985347985348,0.5858608058608058,1.6906959706959706
5.497586506004154,0.767985347985348,0.5858608058608058,1.6906959706959706
5.505275009003526,0.767985347985348,0.5858608058608058,1.6906959706959706
5.51058059099887,0.767985347985348,0.5858608058608058,1.6906959706959706
5.51094071999978,0.767985347985348,0.5858608058608058,1.6906959706959706
5.520990267999878,0.767985347985348,0.5858608058608058,1.6906959706959706
5.530338970005687,0.7631501831501831,0.4931868131868131,1.6576556776556775
5.540661863000423,0.618095238095238,0.3424908424908425,0.747032967032967
5.546255344001111,0.618095238095238,0.3424908424908425,0.747032967032967
5.546534735003661,0.618095238095238,0.3424908424908425,0.747032967032967
5.55363072000182,0.618095238095238,0.3424908424908425,0.747032967032967
5.559147769999981,0.4166300366300366,0.5141391941391941,1.444102564102564
5.559307315001206,2.46996336996337,0.29333333333333333,0.307032967032967
5.564105185003427,2.46996336996337,0.29333333333333333,0.307032967032967
5.570790631005366,2.46996336996337,0.29333333333333333,0.307032967032967
5.573914596003306,2.5924542124542125,0.14263736263736262,1.4658608058608058
5.576344419001543,2.5924542124542125,0.14263736263736262,1.4658608058608058
5.576535938002053,2.5924542124542125,0.14263736263736262,1.4658608058608058
5.581997068002238,2.5924542124542125,0.14263736263736262,1.4658608058608058
5.583580178004922,2.5924542124542125,0.14263736263736262,1.4658608058608058
5.5887866289995145,2.5924542124542125,0.14263736263736262,1.4658608058608058
5.589878905004298,0.0821978021978022,0.3731135531135531,0.4722344322344322
5.590132943005301,0.0821978021978022,0.3731135531135531,0.4722344322344322
5.595333264005603,0.0821978021978022,0.3731135531135531,0.4722344322344322
5.59845238699927,0.0821978021978022,0.3731135531135531,0.4722344322344322
5.6010280800037435,0.0821978021978022,0.3731135531135531,0.4722344322344322
5.607005090001621,0.0821978021978022,0.3731135531135531,0.4722344322344322
5.610389861998556,0.12893772893772892,0.13941391941391942,0.9541391941391941
5.610652120005398,0.12893772893772892,0.13941391941391942,0.9541391941391941
5.6151106570032425,0.12893772893772892,0.13941391941391942,0.9541391941391941
5.6170222549990285,2.561831501831502,0.46498168498168496,0.03948717948717949
5.622210430999985,2.561831501831502,0.46498168498168496,0.03948717948717949
5.623100641001656,2.561831501831502,0.46498168498168496,0.03948717948717949
5.62402411900257,2.561831501831502,0.46498168498168496,0.03948717948717949
5.625822747999337,2.561831501831502,0.46498168498168496,0.03948717948717949
5.628153231999022,2.561831501831502,0.46498168498168496,0.03948717948717949
5.628478326005279,2.561831501831502,0.46498168498168496,0.03948717948717949
5.634576365999237,2.561831501831502,0.46498168498168496,0.03948717948717949
5.641308262005623,2.449010989010989,0.332014652014652,0.11604395604395604
5.645224391999363,1.4578021978021978,0.07494505494505493,0.5705494505494505
5.649647910002386,1.4578021978021978,0.07494505494505493,0.5705494505494505
5.651111889004824,1.4578021978021978,0.07494505494505493,0.5705494505494505
5.65929400800087,1.4578021978021978,0.07494505494505493,0.5705494505494505
5.664703978000034,1.4578021978021978,0.07494505494505493,0.5705494505494505
5.66630435600382,0.2635164835164835,0.14827838827838827,1.016996336996337
5.6750679460019455,0.2635164835164835,0.14827838827838827,1.016996336996337
5.67960633700568,2.002564102564102,0.8888644688644688,1.4054212454212454
5.679875410998648,2.002564102564102,0.8888644688644688,1.4054212454212454
5.687424517003819,2.002564102564102,0.8888644688644688,1.4054212454212454
5.692213428999821,2.002564102564102,0.8888644688644688,1.4054212454212454
5.6967356450040825,2.002564102564102,0.8888644688644688,1.4054212454212454
5.696967101001064,2.3426373626373627,0.2917216117216117,0.02901098901098901
5.703507427002478,2.3426373626373627,0.2917216117216117,0.02901098901098901
5.707191993999004,0.4005128205128205,0.14424908424908423,1.124981684981685
5.712613048002822,0.4005128205128205,0.14424908424908423,1.124981684981685
5.715037451998796,0.4005128205128205,0.14424908424908423,1.124981684981685
5.715215798001736,0.4005128205128205,0.14424908424908423,1.124981684981685
5.724727591004921,0.4005128205128205,0.14424908424908423,1.124981684981685
5.730380805005552,0.4005128205128205,0.14424908424908423,1.124981684981685
5.730632979000802,0.13135531135531134,0.024175824175824173,0.5721611721611721
5.741373207005381,0.13135531135531134,0.024175824175824173,0.5721611721611721
5.750692261004588,0.13135531135531134,0.024175824175824173,0.5721611721611721
5.758412761002546,0.13135531135531134,0.024175824175824173,0.5721611721611721
5.762281642004382,0.13135531135531134,0.024175824175824173,0.5721611721611721
5.767120984004578,0.13135531135531134,0.024175824175824173,0.5721611721611721
5.774957820998679,0.0,0.1095970695970696,0.8066666666666666
5.779551634004747,0.0,0.1095970695970696,0.8066666666666666
5.779836405003152,0.0,0.1095970695970696,0.8066666666666666
5.7869352380002965,0.0,0.1095970695970696,0.8066666666666666
5.79298806800216,0.0,0.1095970695970696,0.8066666666666666
5.796208435000153,0.0,0.1095970695970696,0.8066666666666666
5.7971480960040935,0.0,0.1095970695970696,0.8066666666666666
5.798087047005538,1.295018315018315,0.1249084249084249,0.22967032967032966
5.799735958004021,1.8365567765567765,0.17487179487179486,0.33684981684981685
5.804947508004261,2.262051282051282,0.14989010989010987,0.7002930402930403
5.8101233820052585,2.262051282051282,0.14989010989010987,0.7002930402930403
5.811399379999784,3.3,0.3537728937728937,1.1427106227106225
5.811570546000439,3.3,0.3537728937728937,1.1427106227106225
5.816926441999385,3.3,0.3537728937728937,1.1427106227106225
5.821729928000423,3.3,0.3537728937728937,1.1427106227106225
5.825409270000819,0.2949450549450549,0.2208058608058608,0.9662271062271062
5.825509577000048,0.2949450549450549,0.2208058608058608,0.9662271062271062
5.830745582999953,0.2949450549450549,0.2208058608058608,0.9662271062271062
5.8360532369988505,2.7326739926739925,0.5423443223443223,0.21677655677655677
5.838439058003132,2.6375824175824176,0.47706959706959706,0.5665201465201465
5.8476912480036844,2.6375824175824176,0.47706959706959706,0.5665201465201465
5.8566706710043945,2.6375824175824176,0.47706959706959706,0.5665201465201465
5.864103277002869,2.6375824175824176,0.47706959706959706,0.5665201465201465
5.873618890000216,0.15069597069597068,0.15875457875457877,0.904981684981685
5.879779736998898,0.11362637362637362,0.03706959706959707,0.6164835164835165
5.8866019470005995,2.5150915750915748,0.34007326007326005,0.32556776556776557
5.891499985998962,2.5150915750915748,0.34007326007326005,0.32556776556776557
5.897622488002526,2.5150915750915748,0.34007326007326005,0.32556776556776557
5.904926135001006,2.5150915750915748,0.34007326007326005,0.32556776556776557
5.910866853999323,2.5150915750915748,0.34007326007326005,0.32556776556776557
5.918539960002818,2.5150915750915748,0.34007326007326005,0.32556776556776557
5.925033968000207,2.5150915750915748,0.34007326007326005,0.32556776556776557
5.928085462001036,2.5150915750915748,0.34007326007326005,0.32556776556776557
5.9316774340040865,2.5150915750915748,0.34007326007326005,0.32556776556776557
5.941441855000448,2.5150915750915748,0.34007326007326005,0.32556776556776557
5.9485798710011295,2.5150915750915748,0.34007326007326005,0.32556776556776557
5.95649889500055,0.11926739926739927,0.13457875457875457,0.8155311355311355
5.9624534160029725,1.1749450549450549,0.43274725274725273,1.2901831501831502
5.967814077004732,1.1749450549450549,0.43274725274725273,1.2901831501831502
5.968257163003727,1.1749450549450549,0.43274725274725273,1.2901831501831502
5.975219072002801,1.1749450549450549,0.43274725274725273,1.2901831501831502
5.97912820300553,1.1749450549450549,0.43274725274725273,1.2901831501831502
5.9854443360018195,2.5021978021978017,0.11443223443223444,0.07736263736263736
5.991279567002493,2.5021978021978017,0.11443223443223444,0.07736263736263736
5.994369723004638,2.5021978021978017,0.11443223443223444,0.07736263736263736
5.996618445002241,2.5021978021978017,0.11443223443223444,0.07736263736263736
5.996812354998838,2.5021978021978017,0.11443223443223444,0.07736263736263736
6.005551398004172,2.5021978021978017,0.11443223443223444,0.07736263736263736
6.011193812999409,2.5021978021978017,0.11443223443223444,0.07736263736263736
6.011466850999568,3.3,0.419047619047619,0.14586080586080585
6.021398903001682,3.3,0.419047619047619,0.14586080586080585
6.0282197530032136,3.3,0.419047619047619,0.14586080586080585
6.032350833003875,3.3,0.419047619047619,0.14586080586080585
6.035172552001313,3.3,0.419047619047619,0.14586080586080585
6.039986615003727,1.6117216117216115,0.4126007326007326,1.1257875457875457
6.04527848699945,2.5118681318681317,0.1643956043956044,0.40776556776556777
6.049194466002518,2.5118681318681317,0.1643956043956044,0.40776556776556777
6.055339111000649,2.5118681318681317,0.1643956043956044,0.40776556776556777
6.058932336003636,2.5118681318681317,0.1643956043956044,0.40776556776556777
6.063385638000909,2.5118681318681317,0.1643956043956044,0.40776556776556777
6.064969637001923,0.2909157509157509,0.17487179487179486,0.7978021978021977
6.074049207003554,0.00967032967032967,0.03626373626373627,0.3916483516483516
6.07788943000196,0.6591941391941392,0.10717948717948718,0.3344322344322344
6.083245188005094,0.6591941391941392,0.10717948717948718,0.3344322344322344
6.0873348110035295,0.6591941391941392,0.10717948717948718,0.3344322344322344
6.089386046005529,0.6591941391941392,0.10717948717948718,0.3344322344322344
6.091105193001567,3.3,0.5745787545787545,0.42710622710622714
6.0949968280037865,3.3,0.5745787545787545,0.42710622710622714
6.099212653003633,1.5762637362637362,0.4351648351648352,0.8969230769230768
6.102010070004326,1.5762637362637362,0.4351648351648352,0.8969230769230768
6.106218647000787,0.8896703296703296,0.3449084249084249,1.2515018315018314
6.107188314999803,0.8896703296703296,0.3449084249084249,1.2515018315018314
6.108775919004984,0.8896703296703296,0.3449084249084249,1.2515018315018314
6.112880999004119,0.8896703296703296,0.3449084249084249,1.2515018315018314
6.115422859998944,0.8896703296703296,0.3449084249084249,1.2515018315018314
6.123190851001709,0.8896703296703296,0.3449084249084249,1.2515018315018314
6.1276904240003205,0.8896703296703296,0.3449084249084249,1.2515018315018314
6.1286756150002475,0.8896703296703296,0.3449084249084249,1.2515018315018314
6.129505356002483,0.8896703296703296,0.3449084249084249,1.2515018315018314
6.131143122998765,0.8896703296703296,0.3449084249084249,1.2515018315018314
6.138590169000963,0.8896703296703296,0.3449084249084249,1.2515018315018314
6.142692667002848,0.8896703296703296,0.3449084249084249,1.2515018315018314
6.1450972620004904,0.22886446886446887,0.1418315018315018,0.9009523809523808
6.145257189004042,0.22886446886446887,0.1418315018315018,0.9009523809523808
6.149983920004161,0.0136996336996337,0.00967032967032967,0.4754578754578754
6.150201005999406,0.0136996336996337,0.00967032967032967,0.4754578754578754
6.157245009002509,0.0136996336996337,0.00967032967032967,0.4754578754578754
6.161747752004885,0.0136996336996337,0.00967032967032967,0.4754578754578754
6.161984481004765,0.0136996336996337,0.00967032967032967,0.4754578754578754
6.1675607380020665,0.0136996336996337,0.00967032967032967,0.4754578754578754
6.1684542410002905,0.06769230769230769,0.03868131868131868,0.5028571428571429
6.169390679999196,0.06769230769230769,0.03868131868131868,0.5028571428571429
6.170904181999504,0.06769230769230769,0.03868131868131868,0.5028571428571429
6.175372570003674,0.06769230769230769,0.03868131868131868,0.5028571428571429
6.176217104999523,0.06769230769230769,0.03868131868131868,0.5028571428571429
6.177775044001464,0.06769230769230769,0.03868131868131868,0.5028571428571429
6.182157727998856,1.8978021978021975,0.21274725274725276,0.5753846153846153
6.18299587200454,1.8978021978021975,0.21274725274725276,0.5753846153846153
6.185728012002073,1.8978021978021975,0.21274725274725276,0.5753846153846153
6.1897364020042005,1.8978021978021975,0.21274725274725276,0.5753846153846153
6.1942071430021315,3.3,0.7212454212454212,0.7518681318681318
6.195049963003839,3.3,0.7212454212454212,0.7518681318681318
6.196760466002161,3.3,0.7212454212454212,0.7518681318681318
6.200618006005243,3.3,0.7212454212454212,0.7518681318681318
6.205310871002439,2.5054212454212452,0.2111355311355311,0.9186813186813186
6.210867055000563,2.5054212454212452,0.2111355311355311,0.9186813186813186
6.21173424400331,2.5054212454212452,0.2111355311355311,0.9186813186813186
6.213288793005631,2.5054212454212452,0.2111355311355311,0.9186813186813186
6.220241451999755,0.8517948717948718,0.7349450549450549,1.1153113553113554
6.225767857002211,2.2523809523809524,0.3642490842490842,0.3529670329670329
6.225872750001145,0.7599267399267399,0.5165567765567766,1.236996336996337
6.2304020849987864,2.253992673992674,0.6575824175824176,0.36747252747252745
6.231438991002506,2.033186813186813,0.3473260073260073,1.3876923076923076
6.232352782004455,2.033186813186813,0.3473260073260073,1.3876923076923076
6.23338313500426,2.033186813186813,0.3473260073260073,1.3876923076923076
6.23597723399871,2.033186813186813,0.3473260073260073,1.3876923076923076
6.239825328004372,2.033186813186813,0.3473260073260073,1.3876923076923076
6.243611713005521,1.581904761904762,0.1676190476190476,0.43597069597069593
6.24881804100005,0.2747985347985348,0.2063003663003663,1.0677655677655677
6.25353885700315,3.2226373626373626,0.28527472527472525,1.195091575091575
6.259602570004063,1.7092307692307693,0.5358974358974359,0.6551648351648351
6.263585663000413,1.7092307692307693,0.5358974358974359,0.6551648351648351
6.267521557005239,1.7092307692307693,0.5358974358974359,0.6551648351648351
6.272459551000793,1.7092307692307693,0.5358974358974359,0.6551648351648351
6.276831278002646,0.6688644688644688,0.5915018315018314,1.3844688644688645
6.278486672999861,0.6688644688644688,0.5915018315018314,1.3844688644688645
6.282221476998529,0.6688644688644688,0.5915018315018314,1.3844688644688645
6.282362271005695,0.6688644688644688,0.5915018315018314,1.3844688644688645
6.287417428000481,0.6688644688644688,0.5915018315018314,1.3844688644688645
6.291972236002039,0.6688644688644688,0.5915018315018314,1.3844688644688645
6.292277075001039,3.3,0.49882783882783877,0.9404395604395603
6.296792314999038,3.3,0.49882783882783877,0.9404395604395603
6.297141019000264,3.3,0.49882783882783877,0.9404395604395603
6.3022878500050865,3.3,0.49882783882783877,0.9404395604395603
6.30597738600045,0.26109890109890105,0.6253479853479853,0.7744322344322344
6.311319209999056,0.11523809523809524,0.27399267399267396,0.5544322344322344
6.3142981929995585,0.11523809523809524,0.27399267399267396,0.5544322344322344
6.318172678002156,0.11523809523809524,0.27399267399267396,0.5544322344322344
6.3216737730035675,0.11523809523809524,0.27399267399267396,0.5544322344322344
6.321855268004583,0.11523809523809524,0.27399267399267396,0.5544322344322344
6.326695057003235,0.11523809523809524,0.27399267399267396,0.5544322344322344
6.326769652005169,0.0,0.03948717948717949,0.46820512820512816
6.331674231005309,0.0,0.03948717948717949,0.46820512820512816
6.3364124430008815,0.0,0.03948717948717949,0.46820512820512816
6.336661990004359,0.0,0.03948717948717949,0.46820512820512816
6.342104918003315,0.0,0.03948717948717949,0.46820512820512816
6.3431258109994815,0.0,0.03948717948717949,0.46820512820512816
6.34395746300288,0.0,0.03948717948717949,0.46820512820512816
6.345525895005267,0.0,0.03948717948717949,0.46820512820512816
6.350003428000491,0.0,0.03948717948717949,0.46820512820512816
6.350871072005248,2.9728205128205127,0.18534798534798536,1.3989743589743588
6.352461900998605,2.9728205128205127,0.18534798534798536,1.3989743589743588
6.35639328200341,2.9728205128205127,0.18534798534798536,1.3989743589743588
6.360266734001925,2.9728205128205127,0.18534798534798536,1.3989743589743588
6.364771083004598,2.9728205128205127,0.18534798534798536,1.3989743589743588
6.365091464998841,2.9728205128205127,0.18534798534798536,1.3989743589743588
6.370661589004158,2.9728205128205127,0.18534798534798536,1.3989743589743588
6.371532893004769,2.332967032967033,0.31186813186813184,1.6028571428571428
6.373233641999832,2.332967032967033,0.31186813186813184,1.6028571428571428
6.3771178660026635,2.332967032967033,0.31186813186813184,1.6028571428571428
6.380805082000734,2.332967032967033,0.31186813186813184,1.6028571428571428
6.386143471005198,2.332967032967033,0.31186813186813184,1.6028571428571428
6.389172269002302,2.332967032967033,0.31186813186813184,1.6028571428571428
6.391407325005275,3.3,0.7188278388278388,1.7116483516483516
6.391688292998879,3.3,0.7188278388278388,1.7116483516483516
6.396951991999231,3.3,0.7188278388278388,1.7116483516483516
6.399426823001704,3.3,0.7188278388278388,1.7116483516483516
6.399538672005292,3.3,0.7188278388278388,1.7116483516483516
6.404723860003287,3.3,0.7188278388278388,1.7116483516483516
6.407970580999972,3.3,0.7188278388278388,1.7116483516483516
6.408971150005527,3.3,0.8711355311355311,0.7631501831501831
6.409872247000749,3.3,0.8711355311355311,0.7631501831501831
6.411484775002464,2.4828571428571427,0.15794871794871795,1.9703296703296702
6.4151782160042785,2.3587545787545787,0.5431501831501832,1.7583882783882783
6.4205982990024495,2.3587545787545787,0.5431501831501832,1.7583882783882783
6.422347635001643,2.3587545787545787,0.5431501831501832,1.7583882783882783
6.425509088003309,2.3587545787545787,0.5431501831501832,1.7583882783882783
6.4271701450052205,2.3587545787545787,0.5431501831501832,1.7583882783882783
6.430991159999394,2.3587545787545787,0.5431501831501832,1.7583882783882783
6.435980497000855,2.3587545787545787,0.5431501831501832,1.7583882783882783
6.440550724000786,2.2088644688644687,0.7317216117216117,0.43597069597069593
6.4407810070042615,2.2088644688644687,0.7317216117216117,0.43597069597069593
6.4457098040002165,2.2088644688644687,0.7317216117216117,0.43597069597069593
6.449626349000027,2.2088644688644687,0.7317216117216117,0.43597069597069593
6.454111965998891,2.2088644688644687,0.7317216117216117,0.43597069597069593
6.455090351002582,2.2088644688644687,0.7317216117216117,0.43597069597069593
6.4559193560053245,2.2088644688644687,0.7317216117216117,0.43597069597069593
6.457510858002934,2.2088644688644687,0.7317216117216117,0.43597069597069593
6.462143024000397,2.2088644688644687,0.7317216117216117,0.43597069597069593
6.4624296330002835,2.2088644688644687,0.7317216117216117,0.43597069597069593
6.467307345003064,2.2088644688644687,0.7317216117216117,0.43597069597069593
6.467435042002762,2.2088644688644687,0.7317216117216117,0.43597069597069593
6.472827506004251,2.2088644688644687,0.7317216117216117,0.43597069597069593
6.4753047980047995,2.7197802197802194,0.7373626373626374,2.0146520146520146
6.475492468998709,2.7197802197802194,0.7373626373626374,2.0146520146520146
6.48075078400143,2.7197802197802194,0.7373626373626374,2.0146520146520146
6.4828802260017255,1.270842490842491,0.3755311355311355,1.357069597069597
6.484307566002826,1.270842490842491,0.3755311355311355,1.357069597069597
6.489306654999382,1.270842490842491,0.3755311355311355,1.357069597069597
6.493476426003326,1.270842490842491,0.3755311355311355,1.357069597069597
6.496316876000492,1.270842490842491,0.3755311355311355,1.357069597069597
6.499204849002126,1.270842490842491,0.3755311355311355,1.357069597069597
6.502679892000742,1.270842490842491,0.3755311355311355,1.357069597069597
6.502863932000764,1.270842490842491,0.3755311355311355,1.357069597069597
6.507619952004461,0.0838095238095238,0.24014652014652016,0.5310622710622711
6.5079264040032285,0.08622710622710622,0.06124542124542124,0.31509157509157504
6.512777337004081,0.08622710622710622,0.06124542124542124,0.31509157509157504
6.5176526790019125,0.08622710622710622,0.06124542124542124,0.31509157509157504
6.517786611999327,2.473186813186813,0.9775091575091575,0.27318681318681315
6.522429811004258,2.473186813186813,0.9775091575091575,0.27318681318681315
6.522683171999233,2.473186813186813,0.9775091575091575,0.27318681318681315
6.527317885003868,2.473186813186813,0.9775091575091575,0.27318681318681315
6.5276181689987425,0.0,0.10717948717948718,0.28124542124542123
6.5322177080015535,0.0,0.10717948717948718,0.28124542124542123
6.532957417002763,0.0,0.10717948717948718,0.28124542124542123
6.53512864500226,0.0,0.10717948717948718,0.28124542124542123
6.535954383005446,0.0,0.10717948717948718,0.28124542124542123
6.537991207005689,0.0,0.10717948717948718,0.28124542124542123
6.539414645005309,0.0,0.10717948717948718,0.28124542124542123
6.544251541999984,0.0,0.10717948717948718,0.28124542124542123
6.549289757000224,0.0,0.10717948717948718,0.28124542124542123
6.553759911999805,0.0,0.10717948717948718,0.28124542124542123
6.554069922000053,0.0,0.10717948717948718,0.28124542124542123
6.559588433003228,2.31040293040293,0.7421978021978022,0.3142857142857142
6.560471251999843,2.31040293040293,0.7421978021978022,0.3142857142857142
6.562029063999944,2.31040293040293,0.7421978021978022,0.3142857142857142
6.566565740002261,2.31040293040293,0.7421978021978022,0.3142857142857142
6.566771559999324,2.31040293040293,0.7421978021978022,0.3142857142857142
6.572344647000136,2.31040293040293,0.7421978021978022,0.3142857142857142
6.573156028003723,2.31040293040293,0.7421978021978022,0.3142857142857142
6.5749292640030035,2.31040293040293,0.7421978021978022,0.3142857142857142
6.578062726999633,2.31040293040293,0.7421978021978022,0.3142857142857142
6.579764378002437,2.31040293040293,0.7421978021978022,0.3142857142857142
6.58325781700114,2.31040293040293,0.7421978021978022,0.3142857142857142
6.5834116080004605,2.31040293040293,0.7421978021978022,0.3142857142857142
6.588954161001311,2.31040293040293,0.7421978021978022,0.3142857142857142
6.589982056000736,2.31040293040293,0.7421978021978022,0.3142857142857142
6.590886557001795,2.31040293040293,0.7421978021978022,0.3142857142857142
6.592674341001839,2.31040293040293,0.7421978021978022,0.3142857142857142
6.595800752998912,2.31040293040293,0.7421978021978022,0.3142857142857142
6.5981603370019,2.31040293040293,0.7421978021978022,0.3142857142857142
6.598366083002475,2.31040293040293,0.7421978021978022,0.3142857142857142
6.603614997002296,2.31040293040293,0.7421978021978022,0.3142857142857142
6.606766443001106,2.31040293040293,0.7421978021978022,0.3142857142857142
6.608391875000962,2.31040293040293,0.7421978021978022,0.3142857142857142
6.6121343030026765,2.31040293040293,0.7421978021978022,0.3142857142857142
6.617543974003638,2.31040293040293,0.7421978021978022,0.3142857142857142
6.619263812004647,2.31040293040293,0.7421978021978022,0.3142857142857142
6.622955249004008,2.31040293040293,0.7421978021978022,0.3142857142857142
6.62844640899857,2.31040293040293,0.7421978021978022,0.3142857142857142
6.62998371100548,2.31040293040293,0.7421978021978022,0.3142857142857142
6.634476671002631,2.31040293040293,0.7421978021978022,0.3142857142857142
6.634792051001568,2.31040293040293,0.7421978021978022,0.3142857142857142
6.639314447005745,2.31040293040293,0.7421978021978022,0.3142857142857142
6.640197259002889,2.7326739926739925,0.49238095238095236,0.6446886446886446
6.641763166000601,2.7326739926739925,0.49238095238095236,0.6446886446886446
6.645585950005625,1.2079853479853477,0.9444688644688644,1.0508424908424907
6.650945384004444,1.2079853479853477,0.9444688644688644,1.0508424908424907
6.653429136000341,1.2079853479853477,0.9444688644688644,1.0508424908424907
6.658898293004313,1.2079853479853477,0.9444688644688644,1.0508424908424907
6.660701551001694,1.2079853479853477,0.9444688644688644,1.0508424908424907
6.663021318003302,1.2079853479853477,0.9444688644688644,1.0508424908424907
6.663304916000925,0.6656410256410257,0.6132600732600733,1.0766300366300365
6.668461342000228,0.17567765567765567,0.3199267399267399,0.6438827838827839
6.671371367003303,0.17567765567765567,0.3199267399267399,0.6438827838827839
6.674303708001389,0.17567765567765567,0.3199267399267399,0.6438827838827839
6.6773701300044195,0.17567765567765567,0.3199267399267399,0.6438827838827839
6.679595229004917,0.17567765567765567,0.3199267399267399,0.6438827838827839
6.6804443880027975,0.17567765567765567,0.3199267399267399,0.6438827838827839
6.681994014004886,0.17567765567765567,0.3199267399267399,0.6438827838827839
6.686388836998958,0.17567765567765567,0.3199267399267399,0.6438827838827839
6.687915059002989,0.17567765567765567,0.3199267399267399,0.6438827838827839
6.691613350005355,0.17567765567765567,0.3199267399267399,0.6438827838827839
6.6962001680003596,0.17567765567765567,0.3199267399267399,0.6438827838827839
6.697033779004414,0.17567765567765567,0.3199267399267399,0.6438827838827839
6.699413328002265,0.17567765567765567,0.3199267399267399,0.6438827838827839
6.699579195999831,0.17567765567765567,0.3199267399267399,0.6438827838827839
6.70485083800304,0.17567765567765567,0.3199267399267399,0.6438827838827839
6.7076590310025495,0.0693040293040293,0.1104029304029304,0.1829304029304029
6.711181384001975,0.0693040293040293,0.1104029304029304,0.1829304029304029
6.711940091001452,2.71010989010989,1.340952380952381,2.2636630036630034
6.714065548003418,2.71010989010989,1.340952380952381,2.2636630036630034
6.715621317001933,1.3208058608058608,1.0153846153846153,1.274871794871795
6.719093960004102,1.3208058608058608,1.0153846153846153,1.274871794871795
6.719374259999313,1.3208058608058608,1.0153846153846153,1.274871794871795
6.723558069003047,1.3208058608058608,1.0153846153846153,1.274871794871795
6.72625744400284,1.3208058608058608,1.0153846153846153,1.274871794871795
6.730361940004514,1.3208058608058608,1.0153846153846153,1.274871794871795
6.733101097001054,1.3208058608058608,1.0153846153846153,1.274871794871795
6.738090033002663,1.3208058608058608,1.0153846153846153,1.274871794871795
6.742793454002822,1.3208058608058608,1.0153846153846153,1.274871794871795
6.748328357003629,1.3208058608058608,1.0153846153846153,1.274871794871795
6.749382517002232,0.19179487179487179,0.10395604395604395,0.06285714285714286
6.750188500001968,0.19179487179487179,0.10395604395604395,0.06285714285714286
6.751788273002603,3.3,0.1555311355311355,2.6230769230769226
6.755745032001869,2.776996336996337,0.9154578754578755,2.41032967032967
6.759521380001388,2.776996336996337,0.9154578754578755,2.41032967032967
6.7639809800020885,2.0621978021978022,0.14666666666666667,1.5553113553113551
6.76484217899997,2.0621978021978022,0.14666666666666667,1.5553113553113551
6.766371001001971,2.0621978021978022,0.14666666666666667,1.5553113553113551
6.771394044000772,2.0621978021978022,0.14666666666666667,1.5553113553113551
6.776290664005501,2.449010989010989,0.747032967032967,2.1798534798534797
6.781869999002083,3.3,0.08542124542124542,0.3142857142857142
6.782083677004266,3.3,0.08542124542124542,0.3142857142857142
6.78768852900248,3.3,0.08542124542124542,0.3142857142857142
6.788602753003943,3.3,0.08542124542124542,0.3142857142857142
6.789490720999311,3.3,0.08542124542124542,0.3142857142857142
6.791059501003474,3.3,0.08542124542124542,0.3142857142857142
6.795776115002809,3.3,0.08542124542124542,0.3142857142857142
6.796085066998785,3.063076923076923,0.7083516483516483,0.24498168498168496
6.801277236001624,3.063076923076923,0.7083516483516483,0.24498168498168496
6.804369673001929,3.063076923076923,0.7083516483516483,0.24498168498168496
6.806107515003532,0.9509157509157508,0.8566300366300367,0.6454945054945055
6.809193155000685,0.9509157509157508,0.8566300366300367,0.6454945054945055
6.812174997001421,3.3,0.5866666666666667,3.3
6.814499273001275,1.6415384615384614,1.0734065934065933,3.1976556776556775
6.814769898002851,3.192014652014652,0.7857142857142856,1.6326739926739926
6.819431654999789,3.192014652014652,0.7857142857142856,1.6326739926739926
6.819681840002886,3.192014652014652,0.7857142857142856,1.6326739926739926
6.824082291001105,3.192014652014652,0.7857142857142856,1.6326739926739926
6.82567265900434,0.1692307692307692,0.1112087912087912,0.9283516483516483
6.830250689003151,0.14586080586080585,0.12087912087912088,1.2257142857142858
6.8305760490038665,3.3,0.3021978021978022,3.3
6.8353872950028745,3.3,0.3021978021978022,3.3
6.83564878100151,3.3,0.3021978021978022,3.3
6.84031214100105,3.3,0.3021978021978022,3.3
6.8405648580010165,3.3,0.36747252747252745,0.3618315018315018
6.845755314003327,1.3191941391941393,0.3916483516483516,0.5689377289377289
6.849932548000652,0.4512820512820513,0.3102564102564102,0.4545054945054945
6.852224672002194,0.4512820512820513,0.3102564102564102,0.4545054945054945
6.853030547004892,0.4512820512820513,0.3102564102564102,0.4545054945054945
