time,emg1,emg2,emg3
0.03147635299683316,0.0,0.00967032967032967,0.0008058608058608059
0.04670567199718789,0.0,0.005641025641025641,0.008058608058608058
0.047095235997403506,0.0,0.005641025641025641,0.008058608058608058
0.059087156998430146,0.0,0.005641025641025641,0.008058608058608058
0.06738463799774763,0.0,0.005641025641025641,0.008058608058608058
0.0728389599971706,0.0,0.017728937728937726,0.010476190476190476
0.07469677599874558,0.0,0.017728937728937726,0.010476190476190476
0.07748844599700533,0.0,0.017728937728937726,0.010476190476190476
0.08189180199769908,0.0,0.006446886446886447,0.026593406593406595
0.08284014799937722,0.0,0.006446886446886447,0.026593406593406595
0.08310159199754708,0.0,0.006446886446886447,0.026593406593406595
0.08938429799673031,0.0,0.006446886446886447,0.026593406593406595
0.09392402099911124,0.0,0.006446886446886447,0.026593406593406595
0.0941556949983351,0.0,0.006446886446886447,0.026593406593406595
0.10090739599763765,0.0,0.006446886446886447,0.026593406593406595
0.10525697299817693,0.0,0.011282051282051281,0.0008058608058608059
0.10616292399936356,0.0,0.011282051282051281,0.0008058608058608059
0.10705454599883524,0.0,0.02175824175824176,0.0024175824175824176
0.10869377899871324,0.0,0.02175824175824176,0.0024175824175824176
0.11187902999881771,0.0,0.02175824175824176,0.0024175824175824176
0.11276243999964208,0.0,0.02175824175824176,0.0024175824175824176
0.1144037389967707,0.0,0.0,0.0
0.11830941699736286,0.0,0.0,0.0
0.1215875319976476,0.0,0.008058608058608058,0.0008058608058608059
0.12190741599988542,0.0,0.008058608058608058,0.0008058608058608059
0.12734338999871397,0.0,0.008058608058608058,0.0008058608058608059
0.12818794999839156,0.0,0.008058608058608058,0.0008058608058608059
0.1298530239982938,0.0,0.008058608058608058,0.0008058608058608059
0.13367284299965831,0.0,0.008058608058608058,0.0008058608058608059
0.1381556919986906,0.0,0.008058608058608058,0.0008058608058608059
0.13845269800003734,0.0,0.008058608058608058,0.0008058608058608059
0.1449552189988026,0.0,0.008058608058608058,0.0008058608058608059
0.15049269899827777,0.0,0.008058608058608058,0.0008058608058608059
0.1557735659989703,0.0,0.008058608058608058,0.0008058608058608059
0.15879986999789253,0.0,0.008058608058608058,0.0008058608058608059
0.16106749099708395,0.0,0.0024175824175824176,0.0
0.16117170899815392,0.0,0.0024175824175824176,0.0
0.16636726199794794,0.0,0.0024175824175824176,0.0
0.16792765900027007,0.0,0.0024175824175824176,0.0
0.17323784099789918,0.0,0.03223443223443223,0.017728937728937726
0.17558923799879267,0.0,0.008058608058608058,0.0032234432234432234
0.17579787799695623,0.0,0.008058608058608058,0.0032234432234432234
0.18105081199973938,0.0,0.008058608058608058,0.0032234432234432234
0.18284804199720384,0.0,0.0032234432234432234,0.005641025641025641
0.18518427099843393,0.0,0.0032234432234432234,0.005641025641025641
0.18532862899883185,0.0,0.0032234432234432234,0.005641025641025641
0.19062586200016085,0.0,0.0032234432234432234,0.005641025641025641
0.1915746439990471,0.0,0.0032234432234432234,0.005641025641025641
0.1925824649988499,0.0,0.0032234432234432234,0.005641025641025641
0.1934334029974707,0.0,0.0032234432234432234,0.005641025641025641
0.1951441099990916,0.0,0.0032234432234432234,0.005641025641025641
0.19896298899766407,0.0,0.02095238095238095,0.051575091575091575
0.2027833619977173,0.0,0.02095238095238095,0.051575091575091575
0.20848744499744498,0.0,0.02095238095238095,0.051575091575091575
0.20864676899873302,0.0,0.012087912087912087,0.012893772893772894
0.21651897199990344,0.0,0.012087912087912087,0.012893772893772894
0.22235148099935031,0.0,0.012087912087912087,0.012893772893772894
0.22671176099902368,0.0,0.012087912087912087,0.012893772893772894
0.2275658199978352,0.0,0.012087912087912087,0.012893772893772894
0.2300333610000962,0.0,0.012087912087912087,0.012893772893772894
0.23929553799825953,0.0,0.012087912087912087,0.012893772893772894
0.24520090999794775,0.0,0.012087912087912087,0.012893772893772894
0.2453070529991237,0.0,0.011282051282051281,0.0
0.25402492599823745,0.0,0.011282051282051281,0.0
0.2590771469986066,0.0,0.011282051282051281,0.0
0.26703060699946946,0.0,0.004029304029304029,0.0
0.2726280349997978,0.0,0.004029304029304029,0.0
0.2774684599971806,0.0,0.004029304029304029,0.0
0.28514310699756606,0.0,0.004029304029304029,0.0
0.29028909299813677,0.0,0.004029304029304029,0.0
0.2927145029971143,0.0,0.010476190476190476,0.02901098901098901
0.29291360499701113,0.0,0.010476190476190476,0.02901098901098901
0.3004343459979282,0.0,0.010476190476190476,0.02901098901098901
0.302337709999847,0.0,0.010476190476190476,0.02901098901098901
0.304859244999534,0.0,0.010476190476190476,0.02901098901098901
0.31059256899970933,0.0,0.010476190476190476,0.02901098901098901
0.3107602929994755,0.0,0.010476190476190476,0.02901098901098901
0.32051011699877563,0.0,0.010476190476190476,0.02901098901098901
0.3254298549982195,0.0,0.010476190476190476,0.02901098901098901
0.33089456299785525,0.0,0.010476190476190476,0.02901098901098901
0.33129313599783927,0.0,0.010476190476190476,0.02901098901098901
0.3407849349969183,0.0,0.010476190476190476,0.02901098901098901
0.3460691479995148,0.0,0.004835164835164835,0.028205128205128206
0.3513369679967582,0.0,0.004835164835164835,0.028205128205128206
0.3575960069974826,0.0,0.004835164835164835,0.028205128205128206
0.3617227519971493,0.0,0.004835164835164835,0.028205128205128206
0.3680152499982796,0.0,0.004835164835164835,0.028205128205128206
0.3739119279998704,0.0,0.004835164835164835,0.028205128205128206
0.3777420099977462,0.0,0.004835164835164835,0.028205128205128206
0.3860058600002958,0.0,0.006446886446886447,0.0
0.390340155998274,0.0,0.006446886446886447,0.0
0.3919611370001803,0.0,0.006446886446886447,0.0
0.3984609009967244,0.0,0.006446886446886447,0.0
0.4036548949989083,0.0,0.006446886446886447,0.0
0.4052495639989502,0.0,0.006446886446886447,0.0
0.40825740299987956,0.0,0.006446886446886447,0.0
0.41073973899983685,0.0,0.006446886446886447,0.0
0.4108328509973944,0.0,0.006446886446886447,0.0
0.41936877699845354,0.0,0.006446886446886447,0.0
0.42442176599797676,0.0,0.006446886446886447,0.0
0.42960087599931285,0.0,0.006446886446886447,0.0
0.4349918970001454,0.0,0.005641025641025641,0.0
0.4350824590001139,0.0,0.005641025641025641,0.0
0.44101010099984705,0.0,0.005641025641025641,0.0
0.4473551019982551,0.0,0.005641025641025641,0.0
0.4523747849998472,0.0,0.005641025641025641,0.0
0.4543342099968868,0.0,0.005641025641025641,0.0
0.45612599999731174,0.0,0.005641025641025641,0.0
0.45952545599720906,0.0,0.005641025641025641,0.0
0.45972365999841713,0.0,0.007252747252747252,0.0
0.4673141189996386,0.0,0.007252747252747252,0.0
0.4717209289992752,0.0,0.007252747252747252,0.0
0.4720094739968772,0.0,0.007252747252747252,0.0
0.47757409599944367,0.0,0.007252747252747252,0.0
0.4777969119968475,0.0,0.0032234432234432234,0.0
0.48588688299787464,0.0,0.0032234432234432234,0.0
0.4907378689968027,0.0,0.0032234432234432234,0.0
0.490827685000113,0.0,0.0032234432234432234,0.0
0.49668579399804,0.0,0.0032234432234432234,0.0
0.49685419500019634,0.0,0.0032234432234432234,0.0
0.502754555996944,0.0,0.0032234432234432234,0.0
0.5074640789971454,0.0,0.0,0.004835164835164835
0.5136063919999287,0.0,0.0008058608058608059,0.014505494505494505
0.5178291489974072,0.0,0.0008058608058608059,0.014505494505494505
0.5202579599972523,0.0,0.0008058608058608059,0.014505494505494505
0.5250619859980361,0.0,0.0008058608058608059,0.014505494505494505
0.5315876069980732,0.0,0.0008058608058608059,0.014505494505494505
0.5358276999977534,0.0,0.0008058608058608059,0.014505494505494505
0.5367237369973736,0.0,0.0008058608058608059,0.014505494505494505
0.5383311129990034,0.0,0.0,0.0
0.5422908419968735,0.0,0.0,0.0
0.5456503039968084,0.0,0.0,0.0
0.545887499996752,0.0,0.018534798534798533,0.012087912087912087
0.5526826619970961,0.0,0.018534798534798533,0.012087912087912087
0.556761423998978,0.0,0.0032234432234432234,0.0
0.5599260499984666,0.0,0.0032234432234432234,0.0
0.5608334499993362,0.0,0.0032234432234432234,0.0
0.5625503089977428,0.0,0.0032234432234432234,0.0
0.5678762159986945,0.0,0.0032234432234432234,0.0
0.578042432996881,0.0,0.0,0.0
0.585512079000182,0.0,0.0,0.0
0.590279295000073,0.0,0.0,0.0
0.5958693559987296,0.0,0.0,0.0
0.5961155249970034,0.0,0.0,0.0
0.6039034989989887,0.0,0.0032234432234432234,0.0
0.6097301759982656,0.0,0.0032234432234432234,0.0
0.6192854029977752,0.0,0.0,0.0
0.6254341519997979,0.0,0.0,0.0
0.6311741729987261,0.0,0.0136996336996337,0.008058608058608058
0.6380909029976465,0.0,0.0136996336996337,0.008058608058608058
0.6429608969992842,0.0,0.0136996336996337,0.008058608058608058
0.6494286219967762,0.0,0.0136996336996337,0.008058608058608058
0.6557342979976966,0.0,0.0136996336996337,0.008058608058608058
0.6589304339977389,0.0,0.0136996336996337,0.008058608058608058
0.6614108559988381,0.0,0.0136996336996337,0.008058608058608058
0.6690424039989011,0.0,0.0136996336996337,0.008058608058608058
0.6749406549970445,0.0,0.0136996336996337,0.008058608058608058
0.6808474350000324,0.0,0.0136996336996337,0.008058608058608058
0.6864976869983366,0.0,0.0136996336996337,0.008058608058608058
0.6912766039968119,0.0,0.011282051282051281,0.0
0.6952361429976008,0.0,0.011282051282051281,0.0
0.7036964129983971,0.0,0.011282051282051281,0.0
0.7080501789969276,0.0,0.011282051282051281,0.0
0.7089684059974388,0.0,0.016117216117216115,0.0136996336996337
0.710634390998166,0.0,0.016117216117216115,0.0136996336996337
0.7166805009983364,0.0,0.016117216117216115,0.0136996336996337
0.7200316569978895,0.0,0.016117216117216115,0.0136996336996337
0.7202705929994409,0.0,0.016117216117216115,0.0136996336996337
0.7252051979994576,0.0,0.016117216117216115,0.0136996336996337
0.7336645889990905,0.0,0.006446886446886447,0.0
0.7391371009980503,0.0,0.006446886446886447,0.0
0.7392060189995391,0.0,0.0136996336996337,0.005641025641025641
0.7445651469970471,0.0,0.0136996336996337,0.005641025641025641
0.7475737189997744,0.0,0.0136996336996337,0.005641025641025641
0.7497265729980427,0.0,0.004029304029304029,0.033846153846153845
0.7500262559988187,0.0,0.00967032967032967,0.0
0.758557633998862,0.0,0.00967032967032967,0.0
0.7663013789970137,0.0,0.00967032967032967,0.0
0.770614917997591,0.0,0.029816849816849816,0.0032234432234432234
0.7709125629990012,0.0,0.029816849816849816,0.0032234432234432234
0.7767618679972657,0.0,0.029816849816849816,0.0032234432234432234
0.7768294959969353,0.0,0.029816849816849816,0.0032234432234432234
0.7865912849993038,0.0,0.029816849816849816,0.0032234432234432234
0.7952133669969044,0.0,0.029816849816849816,0.0032234432234432234
0.8031946549999702,0.0,0.029816849816849816,0.0032234432234432234
0.8080909089985653,0.0,0.029816849816849816,0.0032234432234432234
0.8154598589972011,0.0,0.04029304029304029,0.022564102564102562
0.8217878459981875,0.0,0.0136996336996337,0.006446886446886447
0.8251120529967011,0.0,0.0136996336996337,0.006446886446886447
0.8260645999980625,0.0,0.0136996336996337,0.006446886446886447
0.8276637629969628,0.0,0.0136996336996337,0.006446886446886447
0.8335850959992968,0.0,0.0136996336996337,0.006446886446886447
0.8392530139972223,0.0,0.0,0.0016117216117216117
0.8431806139997207,0.0,0.0,0.0016117216117216117
0.8503140139982861,0.0,0.0,0.0016117216117216117
0.8535837229974277,0.0,0.0,0.0016117216117216117
0.8539102229988202,0.0,0.0,0.0016117216117216117
0.859366233999026,0.0,0.022564102564102562,0.022564102564102562
0.8602507699979469,0.0,0.022564102564102562,0.022564102564102562
0.8618234779969498,0.0,0.022564102564102562,0.022564102564102562
0.8710010299982969,0.0,0.022564102564102562,0.022564102564102562
0.8760531640000409,0.0,0.011282051282051281,0.006446886446886447
0.8809526249970077,0.0,0.011282051282051281,0.006446886446886447
0.8842390929967223,0.0,0.011282051282051281,0.006446886446886447
0.885105556997587,0.0,0.020146520146520144,0.0016117216117216117
0.8868337499989138,0.0,0.020146520146520144,0.0016117216117216117
0.8892884499982756,0.0,0.020146520146520144,0.0016117216117216117
0.8946011989974068,0.0,0.020146520146520144,0.0016117216117216117
0.8986344499971892,0.0,0.020146520146520144,0.0016117216117216117
0.9006896920000145,0.0,0.022564102564102562,0.0136996336996337
0.9019302879969473,0.0,0.022564102564102562,0.0136996336996337
0.9020579409989296,0.0,0.022564102564102562,0.0136996336996337
0.9079522519969032,0.0,0.022564102564102562,0.0136996336996337
0.9125580959989747,0.0,0.006446886446886447,0.0008058608058608059
0.9127852569981769,0.0,0.006446886446886447,0.0008058608058608059
0.919880903999001,0.0,0.006446886446886447,0.0008058608058608059
0.9246211609970487,0.0,0.006446886446886447,0.0008058608058608059
0.9302993929995864,0.0,0.006446886446886447,0.0008058608058608059
0.9374438259983435,0.0,0.006446886446886447,0.0008058608058608059
0.942295111999556,0.0,0.006446886446886447,0.0008058608058608059
0.9500172959997144,0.0,0.006446886446886447,0.0008058608058608059
0.9560328209990985,0.0,0.006446886446886447,0.0008058608058608059
0.9599504259967944,0.0,0.006446886446886447,0.0008058608058608059
0.9679663619972416,0.0,0.006446886446886447,0.0008058608058608059
0.9745792169997003,0.0,0.006446886446886447,0.0008058608058608059
0.9779508279971196,0.0,0.0032234432234432234,0.018534798534798533
0.9789581289987836,0.0,0.0032234432234432234,0.018534798534798533
0.9807134689981467,0.0,0.0032234432234432234,0.018534798534798533
0.9843635459983489,0.0,0.0024175824175824176,0.0024175824175824176
0.9892474679982115,0.0,0.0,0.008864468864468863
0.9932808419980574,0.0,0.0,0.008864468864468863
0.9970945099994424,0.0,0.03062271062271062,0.02336996336996337
1.0021219869995548,0.0,0.00967032967032967,0.0032234432234432234
1.0053813969971088,0.0,0.00967032967032967,0.0032234432234432234
1.0055580279986316,0.0,0.00967032967032967,0.0032234432234432234
1.0110070720002113,0.0,0.00967032967032967,0.0032234432234432234
1.0112592469995434,0.0,0.028205128205128206,0.008058608058608058
1.0185302499994577,0.0,0.028205128205128206,0.008058608058608058
1.0225003479972656,0.0,0.028205128205128206,0.008058608058608058
1.0266021129973524,0.0,0.016923076923076923,0.01934065934065934
1.0308100069996726,0.0,0.03062271062271062,0.01934065934065934
1.032567479996942,0.0,0.03062271062271062,0.01934065934065934
1.0344937539994135,0.0,0.0273992673992674,0.007252747252747252
1.036559218999173,0.0,0.0273992673992674,0.007252747252747252
1.038159451996762,0.0,0.005641025641025641,0.0
1.0449796759967285,0.0,0.005641025641025641,0.0
1.052083003000007,0.0,0.0016117216117216117,0.0
1.0555526329990244,0.0,0.0016117216117216117,0.0
1.0556543349994172,0.0,0.0016117216117216117,0.0
1.0616203399986262,0.0,0.0016117216117216117,0.0
1.0705286969969166,0.0,0.016923076923076923,0.011282051282051281
1.07750485899669,0.0,0.004029304029304029,0.0
1.084328834000189,0.0,0.006446886446886447,0.029816849816849816
1.0901703489980719,0.0,0.006446886446886447,0.029816849816849816
1.0987917099992046,0.0,0.006446886446886447,0.029816849816849816
1.104345043997455,0.0,0.006446886446886447,0.029816849816849816
1.104496306998044,0.0,0.006446886446886447,0.029816849816849816
1.1104315759985184,0.0,0.006446886446886447,0.029816849816849816
1.1171514460002072,0.0,0.0008058608058608059,0.0
1.1214657450000232,0.0,0.04029304029304029,0.033846153846153845
1.1218047749971447,0.0,0.04029304029304029,0.033846153846153845
1.1273310859978665,0.0,0.04029304029304029,0.033846153846153845
1.1282483929971932,0.0,0.04029304029304029,0.033846153846153845
1.1300661409986787,0.0,0.04029304029304029,0.033846153846153845
1.1324715640002978,0.0,0.04029304029304029,0.033846153846153845
1.1325657349989342,0.0,0.04029304029304029,0.033846153846153845
1.1381541969967657,0.0,0.04029304029304029,0.033846153846153845
1.138402780998149,0.0,0.04029304029304029,0.033846153846153845
1.1432412510002905,0.0,0.04029304029304029,0.033846153846153845
1.1488498269973206,0.0,0.017728937728937726,0.025787545787545788
1.1502265620001708,0.0,0.017728937728937726,0.025787545787545788
1.1554707019968191,0.0,0.017728937728937726,0.025787545787545788
1.1563695889999508,0.0,0.017728937728937726,0.025787545787545788
1.1580124399988563,0.0,0.017728937728937726,0.025787545787545788
1.164428087999113,0.0,0.017728937728937726,0.025787545787545788
1.168799910999951,0.0,0.017728937728937726,0.025787545787545788
1.1690068279967818,0.0,0.03223443223443223,0.06608058608058608
1.174542199998541,0.0,0.03223443223443223,0.06608058608058608
1.1753777859994443,0.0,0.004029304029304029,0.0
1.1770409169985214,0.0,0.004029304029304029,0.0
1.182425388997217,0.0,0.004029304029304029,0.0
1.1835997519992816,0.0,0.004029304029304029,0.0
1.1836815809983818,0.0,0.004029304029304029,0.0
1.1895911430001433,0.0,0.004029304029304029,0.0
1.195154189997993,0.0,0.004029304029304029,0.0
1.1953992939997988,0.0,0.010476190476190476,1.2506959706959706
1.2010944809990178,0.0,0.02175824175824176,0.012893772893772894
1.201359375998436,0.0,0.02175824175824176,0.012893772893772894
1.2072779779991833,0.0,0.02175824175824176,0.012893772893772894
1.2073504049985786,0.0,0.026593406593406595,0.025787545787545788
1.2125224199990043,0.0,0.006446886446886447,0.006446886446886447
1.215043265998247,0.0,0.006446886446886447,0.006446886446886447
1.2151760489978187,0.0,0.006446886446886447,0.006446886446886447
1.2211316929970053,0.0,0.006446886446886447,0.006446886446886447
1.2259613249989343,0.0,0.006446886446886447,0.006446886446886447
1.2307614579985966,0.0,0.006446886446886447,0.006446886446886447
1.2367334259979543,0.0,0.006446886446886447,0.006446886446886447
1.2422028469991346,0.0,0.00967032967032967,0.008058608058608058
1.2437899889991968,0.0,0.00967032967032967,0.008058608058608058
1.2486612020002212,0.0,0.00967032967032967,0.008058608058608058
1.2546832989974064,0.0,0.00967032967032967,0.008058608058608058
1.2596401259979757,0.0,0.00967032967032967,0.008058608058608058
1.2647841289981443,0.0,0.016117216117216115,0.006446886446886447
1.2672943189973012,0.0,0.02175824175824176,0.00967032967032967
1.2729513630001748,0.0,0.02175824175824176,0.00967032967032967
1.2731301120002172,0.0,0.016117216117216115,0.017728937728937726
1.2790685929976462,0.0,0.016117216117216115,0.017728937728937726
1.2835638639990066,0.0,0.025787545787545788,0.018534798534798533
1.283840029998828,0.0,0.025787545787545788,0.018534798534798533
1.2895862059995125,0.0,0.025787545787545788,0.018534798534798533
1.2896637489975546,0.0,0.025787545787545788,0.018534798534798533
1.2956075469992356,0.0,0.025787545787545788,0.018534798534798533
1.3003182869979355,0.0,0.025787545787545788,0.018534798534798533
1.30504163599835,0.0,0.025787545787545788,0.018534798534798533
1.305113178997999,0.0,0.025787545787545788,0.018534798534798533
1.3107397109997692,0.0,0.025787545787545788,0.018534798534798533
1.3109708329975547,0.0,0.025787545787545788,0.018534798534798533
1.3163279999971564,0.0,0.0008058608058608059,0.006446886446886447
1.3186275560001377,0.0,0.0008058608058608059,0.006446886446886447
1.3187971049992484,0.0,0.0008058608058608059,0.006446886446886447
1.3241205220001575,0.0,0.0008058608058608059,0.006446886446886447
1.3264294169966888,0.0,0.0008058608058608059,0.006446886446886447
1.3265481469970837,0.0,0.0,0.005641025641025641
1.33179790199938,0.0,0.0,0.005641025641025641
1.3349131549985032,0.0,0.014505494505494505,0.006446886446886447
1.3359317340000416,0.0,0.014505494505494505,0.006446886446886447
1.3367865299987898,0.0,0.014505494505494505,0.006446886446886447
1.3391513539972948,0.0,0.014505494505494505,0.006446886446886447
1.344632948999788,0.0,0.014505494505494505,0.006446886446886447
1.3454832039969915,0.0,0.016923076923076923,0.007252747252747252
1.3470482759985316,0.0,0.016923076923076923,0.007252747252747252
1.3508016409978154,0.0,0.016923076923076923,0.007252747252747252
1.356042059000174,0.0,0.016923076923076923,0.007252747252747252
1.3583501029970648,0.0,0.016923076923076923,0.007252747252747252
1.3584518600000592,0.0,0.016923076923076923,0.007252747252747252
1.3636983559990767,0.0,0.016923076923076923,0.007252747252747252
1.365302600999712,0.0,0.022564102564102562,0.0
1.369794780999655,0.0,0.016117216117216115,0.012893772893772894
1.3706257069970889,0.0,0.016117216117216115,0.012893772893772894
1.3722481449985935,0.0,0.016117216117216115,0.012893772893772894
1.3767120179982157,0.0,0.0016117216117216117,0.0008058608058608059
1.377516142998502,0.0,0.0016117216117216117,0.0008058608058608059
1.3790514699976484,0.0,0.0016117216117216117,0.0008058608058608059
1.3828650750001543,0.0,0.0016117216117216117,0.0008058608058608059
1.3873377019990585,0.0,0.012893772893772894,0.008864468864468863
1.3875851159973536,0.0,0.012893772893772894,0.008864468864468863
1.392905177999637,0.0,0.012893772893772894,0.008864468864468863
1.395267435000278,0.0,0.02336996336996337,0.02336996336996337
1.4008303369992063,0.0,0.02336996336996337,0.02336996336996337
1.402515844998561,0.0,0.02336996336996337,0.02336996336996337
1.406432418996701,0.0,0.02336996336996337,0.02336996336996337
1.4104217899985088,0.0,0.02336996336996337,0.02336996336996337
1.413515196996741,0.0,0.02336996336996337,0.02336996336996337
1.4160344449992408,0.0,0.02336996336996337,0.02336996336996337
1.4161051329974725,0.0,0.02336996336996337,0.02336996336996337
1.4214774419997411,0.0,0.02336996336996337,0.02336996336996337
1.4223151929982123,0.0,0.02336996336996337,0.02336996336996337
1.4238527950001298,0.0,0.02336996336996337,0.02336996336996337
1.4283799699987867,0.0,0.02336996336996337,0.02336996336996337
1.4285336259999895,0.0,0.02336996336996337,0.02336996336996337
1.4338493469986133,0.0,0.02336996336996337,0.02336996336996337
1.4369170629979635,0.0,0.008058608058608058,0.0
1.4391833629997564,0.0,0.008058608058608058,0.0
1.4393038759990304,0.0,0.008058608058608058,0.0
1.4446560099968337,0.0,0.008058608058608058,0.0
1.4455793349989108,0.0,0.008058608058608058,0.0
1.4465066619995923,0.0,0.008058608058608058,0.0
1.4473840369973914,0.0,0.008058608058608058,0.0
1.448959722998552,0.0,0.004835164835164835,0.0
1.4536425639998924,0.0,0.004835164835164835,0.0
1.4537925469994661,0.0,0.004835164835164835,0.0
1.4592612499982351,0.0,0.004835164835164835,0.0
1.4601904549999745,0.0,0.004835164835164835,0.0
1.4610369759975583,0.0,0.004835164835164835,0.0
1.4627234209983726,0.0,0.004835164835164835,0.0
1.46588421299748,0.0,0.004835164835164835,0.0
1.4674129619997984,0.0,0.004835164835164835,0.0
1.4720245219978096,0.0,0.004835164835164835,0.0
1.4722582719987258,0.0,0.0016117216117216117,0.0136996336996337
1.477878186997259,0.0,0.0016117216117216117,0.0136996336996337
1.4780463079987385,0.0,0.0016117216117216117,0.0136996336996337
1.483382487000199,0.0,0.007252747252747252,0.008864468864468863
1.4850309639987245,0.0,0.004029304029304029,0.0
1.4888370579974435,0.0,0.004029304029304029,0.0
1.4933531289971143,0.0,0.004029304029304029,0.0
1.4934974049974699,0.0,0.004029304029304029,0.0
1.4992813569988357,0.0,0.004029304029304029,0.0
1.5045821589992556,0.0,0.0,0.006446886446886447
1.5061114439995436,0.0,0.0,0.006446886446886447
1.5099686849971476,0.0,0.0,0.006446886446886447
1.5146360839971749,0.0,0.0,0.006446886446886447
1.514793082998949,0.0,0.0,0.006446886446886447
1.5202890849977848,0.0,0.0,0.006446886446886447
1.5220184159989003,0.0,0.0,0.006446886446886447
1.5243802969998796,0.0,0.0,0.006446886446886447
1.5244919689976086,0.0,0.0,0.006446886446886447
1.53006564899988,0.0,0.0,0.006446886446886447
1.5303185819975624,0.0,0.0,0.006446886446886447
1.535618395999336,0.0,0.0,0.006446886446886447
1.5382638659975783,0.0,0.0,0.006446886446886447
1.5423670370000764,0.0,0.0,0.006446886446886447
1.5439793349978572,0.0,0.0,0.006446886446886447
1.5487111169968557,0.0,0.0,0.006446886446886447
1.5487924219996785,0.0,0.0,0.006446886446886447
1.5542559349996736,0.0,0.0,0.006446886446886447
1.5560832009978185,0.0,0.0,0.006446886446886447
1.559287444997608,0.0,0.0,0.006446886446886447
1.5595058289982262,0.0,0.0,0.006446886446886447
1.5650570139987394,0.0,0.0,0.006446886446886447
1.5667174179980066,0.0,0.016923076923076923,0.024175824175824173
1.5704960570001276,0.0,0.016923076923076923,0.024175824175824173
1.5742535239987774,0.0,0.008864468864468863,0.005641025641025641
1.5790972159993544,0.0,0.008864468864468863,0.005641025641025641
1.5845976069977041,0.0,0.008864468864468863,0.005641025641025641
1.5862332099968626,0.0,0.008864468864468863,0.005641025641025641
1.5894703259982634,0.0,0.008864468864468863,0.005641025641025641
1.5910866649974196,0.0,0.008864468864468863,0.005641025641025641
1.5947996889990463,0.0,0.008864468864468863,0.005641025641025641
1.594917574999272,0.0,0.008864468864468863,0.005641025641025641
1.600256185996841,0.0,0.008864468864468863,0.005641025641025641
1.6026325999991968,0.0,0.008864468864468863,0.005641025641025641
1.6081228109978838,0.0,0.008864468864468863,0.005641025641025641
1.6091288659990823,0.0,0.008864468864468863,0.005641025641025641
1.6099259029979294,0.0,0.008864468864468863,0.005641025641025641
1.6123196609987644,0.0,0.008864468864468863,0.005641025641025641
1.6178302339976653,0.0,0.007252747252747252,0.004835164835164835
1.618054389997269,0.0,0.007252747252747252,0.004835164835164835
1.6235652399991523,0.0,0.007252747252747252,0.004835164835164835
1.624358659999416,0.0,0.007252747252747252,0.004835164835164835
1.625931499998842,0.0,0.007252747252747252,0.004835164835164835
1.6305625629975111,0.0,0.007252747252747252,0.004835164835164835
1.630657589998009,0.0,0.007252747252747252,0.004835164835164835
1.6362758729992493,0.0,0.007252747252747252,0.004835164835164835
1.6373133639972366,0.0,0.0,0.02095238095238095
1.638141633997293,0.0,0.0,0.007252747252747252
1.6405701669973496,0.0,0.0,0.007252747252747252
1.6459484299994074,0.0,0.0,0.007252747252747252
1.6469261659985932,0.0,0.0,0.007252747252747252
1.6477352179972513,0.0,0.0,0.007252747252747252
1.6493420679980773,0.0,0.0,0.007252747252747252
1.6528332249981759,0.0,0.0,0.007252747252747252
1.6582858799993119,0.0,0.0,0.007252747252747252
1.6600089779967675,0.0,0.0,0.007252747252747252
1.6637488269989262,0.0,0.0,0.007252747252747252
1.6685136089981825,0.0,0.0,0.007252747252747252
1.6733535359999223,0.0,0.0,0.007252747252747252
1.6778383679993567,0.0,0.0,0.007252747252747252
1.678671404999477,0.0,0.0,0.007252747252747252
1.6809647439986293,0.0,0.0,0.007252747252747252
1.6810384639975382,0.0,0.0,0.007252747252747252
1.6863455489983608,0.0,0.0,0.007252747252747252
1.6893457429978298,0.0,0.0,0.007252747252747252
1.691585694999958,0.0,0.024175824175824173,0.006446886446886447
1.691822658998717,0.0,0.024175824175824173,0.006446886446886447
1.697103642996808,0.0,0.01531135531135531,0.03062271062271062
1.6993833799970162,0.0,0.008058608058608058,0.0
1.6996067129985022,0.0,0.008058608058608058,0.0
1.7049259829982475,0.0,0.008058608058608058,0.0
1.7065060299973993,0.0,0.0,0.0
1.710298772999522,0.0,0.0,0.0
1.714064852996671,0.0,0.012893772893772894,0.0
1.7178751840001496,0.0,0.012893772893772894,0.0
1.7224656309990678,0.0,0.012893772893772894,0.0
1.7226120839986834,0.0,0.012893772893772894,0.0
1.7280098239971267,0.0,0.012893772893772894,0.0
1.728870413997356,0.0,0.012893772893772894,0.0
1.7304269099986413,0.0,0.012893772893772894,0.0
1.7342180209998332,0.0,0.012893772893772894,0.0
1.738075088000187,0.0,0.012893772893772894,0.0
1.742046887997276,0.0,0.0273992673992674,0.0
1.7451111699992907,0.0,0.0273992673992674,0.0
1.748094372000196,0.0,0.0273992673992674,0.0
1.7504783449985553,0.0,0.0273992673992674,0.0
1.755928219998168,0.0,0.0273992673992674,0.0
1.7581749869968917,0.0,0.0273992673992674,0.0
1.75829929399697,0.0,0.0273992673992674,0.0
1.763698458998988,0.0,0.0273992673992674,0.0
1.7652168009990419,0.0,0.0,0.011282051282051281
1.7696612089966948,0.0,0.0,0.011282051282051281
1.7705247929989127,0.0,0.014505494505494505,0.016117216117216115
1.7721008449989313,0.0,0.014505494505494505,0.016117216117216115
1.77587416499955,0.0,0.014505494505494505,0.016117216117216115
1.7803910529983114,0.0,0.014505494505494505,0.016117216117216115
1.7806329539998842,0.0,0.014505494505494505,0.016117216117216115
1.7863775689984323,0.0,0.014505494505494505,0.016117216117216115
1.786556479997671,0.0,0.0273992673992674,0.004029304029304029
1.7918504399967787,0.0,0.0273992673992674,0.004029304029304029
1.7934297299980244,0.0,0.00967032967032967,0.007252747252747252
1.7971336969967524,0.0,0.00967032967032967,0.007252747252747252
1.8024796549980238,0.0,0.00967032967032967,0.007252747252747252
1.803380882996862,0.0,0.00967032967032967,0.007252747252747252
1.8056672029997571,0.0,0.0,0.008058608058608058
1.8057932749979955,0.0,0.004029304029304029,0.0008058608058608059
1.8112798559996008,0.0,0.004029304029304029,0.0008058608058608059
1.8122589639970101,0.0,0.004029304029304029,0.0008058608058608059
1.813070770997001,0.0,0.004029304029304029,0.0008058608058608059
1.8146656829994754,0.0,0.004029304029304029,0.0008058608058608059
1.8186459110002033,0.0,0.004029304029304029,0.0008058608058608059
1.821737108999514,0.0,0.011282051282051281,0.012893772893772894
1.8233090619978611,0.0,0.011282051282051281,0.012893772893772894
1.827987556996959,0.0,0.01531135531135531,0.0
1.8280946769991715,0.0,0.01531135531135531,0.0
1.8335849149989372,0.0,0.01531135531135531,0.0
1.8338917569999467,0.0,0.01531135531135531,0.0
1.8391744119981013,0.0,0.01531135531135531,0.0
1.8414431669989426,0.0,0.01531135531135531,0.0
1.8415579899992736,0.0,0.01531135531135531,0.0
1.846918059996824,0.0,0.01531135531135531,0.0
1.8484877449991473,0.0,0.01531135531135531,0.0
1.8529512509994674,0.0,0.01531135531135531,0.0
1.8531493809969106,0.0,0.01531135531135531,0.0
1.8585521559980407,0.0,0.01531135531135531,0.0
1.8601167799970426,0.0,0.01531135531135531,0.0
1.863943226999254,0.0,0.01531135531135531,0.0
1.8691968049970455,0.0,0.01531135531135531,0.0
1.8721963689968106,0.0,0.01531135531135531,0.0
1.8744859939979506,0.0,0.01531135531135531,0.0
1.8747459199985315,0.0,0.01531135531135531,0.0
1.8800374370002828,0.0,0.01531135531135531,0.0
1.881716564999806,0.0,0.01531135531135531,0.0
1.884822506999626,0.0,0.01531135531135531,0.0
1.8858448969986057,0.0,0.01531135531135531,0.0
1.886092586999439,0.0,0.01531135531135531,0.0
1.891646148997097,0.0,0.01531135531135531,0.0
1.8917989740002668,0.0,0.01531135531135531,0.0
1.8970799779999652,0.0,0.01531135531135531,0.0
1.9000827399977425,0.0,0.01531135531135531,0.0
1.9031998760001443,0.0,0.01531135531135531,0.0
1.9040831089987478,0.0,0.01531135531135531,0.0
1.905826939997496,0.0,0.01531135531135531,0.0
1.908872888998303,0.0,0.01531135531135531,0.0
1.9112088889996812,0.0,0.006446886446886447,0.0273992673992674
1.911488511999778,0.0,0.006446886446886447,0.0273992673992674
1.917056505997607,0.0,0.006446886446886447,0.0273992673992674
1.9187263239982713,0.0,0.006446886446886447,0.0273992673992674
1.9217826280000736,0.0,0.006446886446886447,0.0273992673992674
1.923311662998458,0.0,0.006446886446886447,0.0273992673992674
1.927093022997724,0.0,0.006446886446886447,0.0273992673992674
1.9308697579981526,0.0,0.006446886446886447,0.0273992673992674
1.9364136069998494,0.0,0.006446886446886447,0.0273992673992674
1.9372560739975597,0.0,0.006446886446886447,0.0273992673992674
1.9388170429992897,0.0,0.006446886446886447,0.0273992673992674
1.9426467419980327,0.0,0.006446886446886447,0.0273992673992674
1.9464570249983808,0.0,0.006446886446886447,0.0273992673992674
1.9515695239970228,0.0,0.006446886446886447,0.0273992673992674
1.9560471650002,0.0,0.006446886446886447,0.0273992673992674
1.9563030439967406,0.0,0.006446886446886447,0.0273992673992674
1.9618966149973858,0.0,0.006446886446886447,0.0273992673992674
1.9626855589995102,0.0,0.006446886446886447,0.0273992673992674
1.9642669259992545,0.0,0.006446886446886447,0.0273992673992674
1.96806419999848,0.0,0.0016117216117216117,0.0
1.9719574939990707,0.0,0.0016117216117216117,0.0
1.9757947699981742,0.0,0.0016117216117216117,0.0
1.981234577997384,0.0,0.0016117216117216117,0.0
1.981572946999222,0.0,0.0016117216117216117,0.0
1.9864838699977554,0.0,0.0016117216117216117,0.0
1.990345147998596,0.0,0.0016117216117216117,0.0
1.9933853649999946,0.0,0.0016117216117216117,0.0
1.9956994579988532,0.0,0.0016117216117216117,0.0
1.9959134229975461,0.0,0.0,0.0273992673992674
2.0011665999991237,0.0,0.0,0.0273992673992674
2.0036003529967275,0.0,0.0,0.0273992673992674
2.0089764849981293,0.0,0.0,0.0273992673992674
2.0112599859967304,0.0,0.0,0.0273992673992674
2.011354879999999,0.0,0.0,0.0273992673992674
2.0166451709992543,0.0,0.0,0.0273992673992674
2.018231598998682,0.0,0.03948717948717949,0.008864468864468863
2.0228249139981926,0.0,0.03948717948717949,0.008864468864468863
2.023060113999236,0.0,0.011282051282051281,0.03062271062271062
2.028461914000218,0.0,0.011282051282051281,0.03062271062271062
2.0293477279992658,0.0,0.011282051282051281,0.03062271062271062
2.031677975999628,0.0,0.011282051282051281,0.03062271062271062
2.031805032998818,0.0,0.011282051282051281,0.03062271062271062
2.0372049689976848,0.0,0.011282051282051281,0.03062271062271062
2.0388945609993243,0.0,0.011282051282051281,0.03062271062271062
2.0428834579979593,0.0,0.011282051282051281,0.03062271062271062
2.0460441609975533,0.0,0.011282051282051281,0.03062271062271062
2.046929382999224,0.0,0.011282051282051281,0.03062271062271062
2.0485858590000134,0.0,0.011282051282051281,0.03062271062271062
2.051739832997555,0.0,0.011282051282051281,0.03062271062271062
2.0547447459975956,0.0,0.011282051282051281,0.03062271062271062
2.05653792999874,0.0,0.008058608058608058,0.017728937728937726
2.059180882999499,0.0,0.008058608058608058,0.017728937728937726
2.063889532997564,0.0,0.008058608058608058,0.017728937728937726
2.064002355997218,0.0,0.024175824175824173,0.010476190476190476
2.069453534997592,0.0,0.024175824175824173,0.010476190476190476
2.07048583699725,0.0,0.0,0.0
2.071356484997523,0.0,0.0,0.0
2.073741712996707,0.0,0.0,0.0
2.079077716996835,0.0,0.011282051282051281,0.0016117216117216117
2.082118801998149,0.0,0.011282051282051281,0.0016117216117216117
2.084370921998925,0.0,0.011282051282051281,0.0016117216117216117
2.0845034919984755,0.0,0.011282051282051281,0.0016117216117216117
2.0897692889993777,0.0,0.011282051282051281,0.0016117216117216117
2.092396693999035,0.0,0.016117216117216115,0.004029304029304029
2.096317352999904,0.0,0.026593406593406595,0.008058608058608058
2.100731785998505,0.0,0.016923076923076923,0.01531135531135531
2.10239892699974,0.0,0.016923076923076923,0.01531135531135531
2.1055042279986083,0.0,0.008864468864468863,0.0
2.107105174996832,0.0,0.008058608058608058,0.0032234432234432234
2.1116826599973137,0.0,0.008058608058608058,0.0032234432234432234
2.1117978490001406,0.0,0.008058608058608058,0.006446886446886447
2.117127844998322,0.0,0.008058608058608058,0.006446886446886447
2.119433633997687,0.0,0.008058608058608058,0.006446886446886447
2.1195684439990146,0.0,0.0032234432234432234,0.0
2.124986981998518,0.0,0.0032234432234432234,0.0
2.1271999789969414,0.0,0.0032234432234432234,0.0
2.127394543000264,0.0,0.0032234432234432234,0.0
2.1326816479995614,0.0,0.0032234432234432234,0.0
2.1349577479995787,0.0,0.0032234432234432234,0.0
2.135097455997311,0.0,0.0032234432234432234,0.0
2.140700403997471,0.0,0.017728937728937726,0.012893772893772894
2.1408944590002648,0.0,0.017728937728937726,0.012893772893772894
2.1461673409976356,0.0,0.017728937728937726,0.012893772893772894
2.1484965839990764,0.0,0.010476190476190476,0.01531135531135531
2.148653160998947,0.0,0.010476190476190476,0.01531135531135531
2.1538935729986406,0.0,0.010476190476190476,0.01531135531135531
2.156933999998728,0.0,0.010476190476190476,0.01531135531135531
2.159244596998178,0.0,0.010476190476190476,0.01531135531135531
2.1593587409988686,0.0,0.010476190476190476,0.01531135531135531
2.164549048997287,0.0,0.010476190476190476,0.01531135531135531
2.167677048997575,0.0,0.010476190476190476,0.01531135531135531
2.170644622998225,0.0,0.010476190476190476,0.01531135531135531
2.17298266799844,0.0,0.010476190476190476,0.01531135531135531
2.1731181149989425,0.0,0.010476190476190476,0.01531135531135531
2.1783719289996952,0.0,0.010476190476190476,0.01531135531135531
2.181499840997276,0.0,0.010476190476190476,0.01531135531135531
2.1832759199969587,0.0,0.010476190476190476,0.01531135531135531
2.1870257849986956,0.0,0.010476190476190476,0.01531135531135531
2.1925548709987197,0.0,0.010476190476190476,0.01531135531135531
2.193629580997367,0.0,0.010476190476190476,0.01531135531135531
2.194478317996982,0.0,0.010476190476190476,0.01531135531135531
2.196019268998498,0.0,0.010476190476190476,0.01531135531135531
2.199959867997677,0.0,0.010476190476190476,0.01531135531135531
2.2037512389979383,0.0,0.010476190476190476,0.01531135531135531
2.2092990539968014,0.0,0.010476190476190476,0.01531135531135531
2.2094343999997363,0.0,0.011282051282051281,0.012893772893772894
2.2147198249986104,0.0,0.011282051282051281,0.012893772893772894
2.2185183349974977,0.0,0.011282051282051281,0.012893772893772894
2.221584550999978,0.0,0.0,0.0
2.2232267250001314,0.0,0.0,0.0
2.226900554000167,0.0,0.0,0.0
2.2321431860000303,0.0,0.0,0.0
2.2353070699973614,0.0,0.0,0.0
2.2368694959986897,0.0,0.02901098901098901,0.03465201465201465
2.2413481359981233,0.0,0.011282051282051281,0.0
2.241538768997998,0.0,0.011282051282051281,0.0
2.2466963669976394,0.0,0.011282051282051281,0.0
2.248948111999198,0.0,0.0032234432234432234,0.0
2.249220042998786,0.0,0.0032234432234432234,0.0
2.254474608998862,0.0,0.0032234432234432234,0.0
2.2567758389996015,0.0,0.0032234432234432234,0.0
2.2569416489968717,0.0,0.0032234432234432234,0.0
2.262326830998063,0.0,0.0032234432234432234,0.0
2.264685782000015,0.0,0.00967032967032967,0.0
2.2647989869983576,0.0,0.00967032967032967,0.0
2.2702314229973126,0.0,0.0032234432234432234,0.01531135531135531
2.271970898997097,0.0,0.0032234432234432234,0.01531135531135531
2.27441182199982,0.0,0.0032234432234432234,0.01531135531135531
2.2800051719968906,0.0,0.0032234432234432234,0.01531135531135531
2.2809572629994364,0.0,0.0032234432234432234,0.01531135531135531
2.2818225449991587,0.0,0.0032234432234432234,0.01531135531135531
2.2835866489986074,0.0,0.0032234432234432234,0.01531135531135531
2.286112026999035,0.0,0.0032234432234432234,0.01531135531135531
2.2861941099981777,0.0,0.0008058608058608059,0.0
2.291602179997426,0.0,0.0008058608058608059,0.0
2.2924097849972895,0.0,0.0008058608058608059,0.0
2.293969084999844,0.0,0.0008058608058608059,0.0
2.298448601999553,0.0,0.005641025641025641,0.0
2.2992741629968805,0.0,0.008058608058608058,0.0024175824175824176
2.300847631999204,0.0,0.008058608058608058,0.0024175824175824176
2.304628911999316,0.0,0.008058608058608058,0.0024175824175824176
2.3084764839986747,0.0,0.022564102564102562,0.018534798534798533
2.314294443996914,0.0,0.022564102564102562,0.018534798534798533
2.3195658289987477,0.0,0.0,0.03304029304029304
2.3218575559985766,0.0,0.0,0.03304029304029304
2.321992146997218,0.0,0.0,0.03304029304029304
2.327278438999201,0.0,0.0,0.0
2.3297988359990995,0.0,0.0024175824175824176,0.014505494505494505
2.3298825699966983,0.0,0.0024175824175824176,0.014505494505494505
2.3351053379992663,0.0,0.0024175824175824176,0.014505494505494505
2.338315089997195,0.0,0.0024175824175824176,0.014505494505494505
2.3391804189996037,0.0,0.0024175824175824176,0.014505494505494505
2.340749101000256,0.0,0.0024175824175824176,0.014505494505494505
2.344483280998247,0.0,0.0024175824175824176,0.014505494505494505
2.3491098419981427,0.0,0.0024175824175824176,0.014505494505494505
2.354622863997065,0.0,0.0024175824175824176,0.014505494505494505
2.3554673660000844,0.0,0.016117216117216115,0.0032234432234432234
2.3569961929970304,0.0,0.016117216117216115,0.0032234432234432234
2.3614956489982433,0.0,0.016117216117216115,0.0032234432234432234
2.361799192000035,0.0,0.016117216117216115,0.0032234432234432234
2.3669709479981975,0.0,0.016117216117216115,0.0032234432234432234
2.369242122000287,0.0,0.016117216117216115,0.0032234432234432234
2.369478814998729,0.0,0.016117216117216115,0.0032234432234432234
2.374721682997915,0.0,0.016117216117216115,0.0032234432234432234
2.3784868769980676,0.0,0.016117216117216115,0.0032234432234432234
2.3839063109990093,0.0,0.016117216117216115,0.0032234432234432234
2.3847134489988093,0.0,0.016117216117216115,0.0032234432234432234
2.38689874499687,0.0,0.016117216117216115,0.0032234432234432234
2.387672492997808,0.0,0.016117216117216115,0.0032234432234432234
2.389823745998001,0.0,0.016117216117216115,0.0032234432234432234
2.3900416799988307,0.0,0.016117216117216115,0.0032234432234432234
2.395014095996885,0.0,0.016117216117216115,0.0032234432234432234
2.3992383559998416,0.0,0.016117216117216115,0.0032234432234432234
2.401349941999797,0.0,0.016117216117216115,0.0032234432234432234
2.4028060869968613,0.0,0.016117216117216115,0.0032234432234432234
2.4070676639967132,0.0,0.016117216117216115,0.0032234432234432234
2.4092876149989024,0.0,0.016117216117216115,0.0032234432234432234
2.4107059399975697,0.0,0.016117216117216115,0.0032234432234432234
2.4157298149984854,0.0,0.0136996336996337,0.012893772893772894
2.4203240129972983,0.0,0.0136996336996337,0.012893772893772894
2.4205447449967323,0.0,0.0136996336996337,0.012893772893772894
2.4298148399975616,0.0,0.0136996336996337,0.012893772893772894
2.43771544899937,0.0,0.0016117216117216117,0.0
2.4436376279991237,0.0,0.0016117216117216117,0.0
2.45027052200021,0.0,0.0,0.0
2.4552830759967037,0.0,0.0,0.0
2.461950798999169,0.0,0.0,0.0
2.466571793996991,0.0,0.0,0.0
2.4735621259969776,0.0,0.010476190476190476,0.02095238095238095
2.4783759169986297,0.0,0.010476190476190476,0.02095238095238095
2.484699687000102,0.0,0.004029304029304029,0.0032234432234432234
2.4890664689992263,0.0,0.017728937728937726,0.00967032967032967
2.489306327999657,0.0,0.017728937728937726,0.00967032967032967
2.4969309809966944,0.0,0.017728937728937726,0.00967032967032967
2.5040405499967164,0.0,0.0,0.03948717948717949
2.5102411249972647,0.0,0.0,0.03948717948717949
2.5133684829997947,0.0,0.0,0.03948717948717949
2.5150125729996944,0.0,0.0,0.03948717948717949
2.5188387219968718,0.0,0.0,0.03948717948717949
2.5232562639976095,0.0,0.0,0.03948717948717949
2.524703615999897,0.0,0.0,0.03948717948717949
2.529089835999912,0.0,0.0,0.03948717948717949
2.52983076399687,0.0,0.0,0.03948717948717949
2.531962373999704,0.0,0.0,0.03948717948717949
2.5321970579971094,0.0,0.0,0.03948717948717949
2.537121257999388,0.0,0.0,0.03948717948717949
2.540692880997085,0.0,0.0,0.03948717948717949
2.5408846659993287,0.0,0.0,0.03948717948717949
2.545811784999387,0.0,0.0,0.03948717948717949
2.550747216999298,0.0,0.0,0.03948717948717949
2.5548092939970957,0.0,0.0,0.03948717948717949
2.558250276997569,0.0,0.0,0.03948717948717949
2.5584038229972066,0.0,0.0,0.03948717948717949
2.5633387319976464,0.0,0.0,0.03948717948717949
2.5668256520002615,0.0,0.0,0.0
2.5669862599970656,0.0,0.0,0.0
2.5718405349980458,0.0,0.0,0.0
2.576758305000112,0.0,0.0,0.012893772893772894
2.580937240996718,0.0,0.0,0.012893772893772894
2.583093048997398,0.0,0.0,0.012893772893772894
2.584469588997308,0.0,0.0,0.012893772893772894
2.5892755559980287,0.0,0.0,0.012893772893772894
2.593474167999375,0.0,0.0,0.012893772893772894
2.5949275429993577,0.0,0.0,0.012893772893772894
2.5997845029996824,0.0,0.0,0.012893772893772894
2.6045834539982025,0.0,0.0,0.012893772893772894
2.6095160269978805,0.0,0.0,0.012893772893772894
2.6096571189991664,0.0,0.0,0.012893772893772894
2.6145477179998124,0.0,0.0,0.012893772893772894
2.6146529059988097,0.0,0.0024175824175824176,0.0
2.619663014997059,0.0,0.0024175824175824176,0.0
2.6235971309979504,0.0,0.0024175824175824176,0.0
2.6268110309974873,0.0,0.0024175824175824176,0.0
2.6270411829973455,0.0,0.0024175824175824176,0.0
2.6324955329982913,0.0,0.0024175824175824176,0.0
2.633467790998111,0.0,0.0024175824175824176,0.0
2.634331751996797,0.0,0.02175824175824176,0.020146520146520144
2.6359962829992583,0.0,0.02175824175824176,0.020146520146520144
2.6398999569973967,0.0,0.02175824175824176,0.020146520146520144
2.6431299389987544,0.0,0.02175824175824176,0.020146520146520144
2.6446423589986807,0.0,0.0,0.0024175824175824176
2.648712300997431,0.0,0.0,0.0024175824175824176
2.6524099849993945,0.0,0.0,0.0024175824175824176
2.6578633549979713,0.0,0.0,0.0024175824175824176
2.6588333990002866,0.0,0.01531135531135531,0.0016117216117216117
2.6596917809984006,0.0,0.01531135531135531,0.0016117216117216117
2.6612979319979786,0.0,0.01531135531135531,0.0016117216117216117
2.6653616769981454,0.0,0.01531135531135531,0.0016117216117216117
2.6677028039994184,0.0,0.01531135531135531,0.0016117216117216117
2.6678899269973044,0.0,0.01531135531135531,0.0016117216117216117
2.674662345998513,0.0,0.01531135531135531,0.0016117216117216117
2.677769209996768,0.0,0.01531135531135531,0.0016117216117216117
2.680058078996808,0.0,0.01531135531135531,0.0016117216117216117
2.6801507489981304,0.0,0.01531135531135531,0.0016117216117216117
2.6856570659983845,0.0,0.01531135531135531,0.0016117216117216117
2.686799756000255,0.0,0.01531135531135531,0.0016117216117216117
2.6869917240001087,0.0,0.01531135531135531,0.0016117216117216117
2.6948850809967553,0.0,0.01531135531135531,0.0016117216117216117
2.701343057997292,0.0,0.01531135531135531,0.0016117216117216117
2.706706373999623,0.0,0.01531135531135531,0.0016117216117216117
2.708184972998424,0.0,0.012893772893772894,0.011282051282051281
2.712851291998959,0.0,0.012893772893772894,0.011282051282051281
2.712923040999158,0.0,0.012893772893772894,0.011282051282051281
2.7183070489991223,0.0,0.012893772893772894,0.011282051282051281
2.720937050999055,0.0,0.012893772893772894,0.011282051282051281
2.726207746,0.0,0.012893772893772894,0.011282051282051281
2.727757805998408,0.0,0.01934065934065934,0.01934065934065934
2.731536439998308,0.0,0.005641025641025641,0.016117216117216115
2.7369313319977664,0.0,0.005641025641025641,0.016117216117216115
2.738056351998239,0.0,0.004029304029304029,0.0016117216117216117
2.7382536889999756,0.0,0.004029304029304029,0.0016117216117216117
2.745586563996767,0.0,0.004029304029304029,0.0016117216117216117
2.749394737998955,0.0,0.004029304029304029,0.0016117216117216117
2.7538753369990445,0.0,0.004029304029304029,0.0016117216117216117
2.754079083999386,0.0,0.004029304029304029,0.0016117216117216117
2.759331993998785,0.0,0.004029304029304029,0.0016117216117216117
2.7616216629976407,0.0,0.004029304029304029,0.0016117216117216117
2.761942294997425,0.0,0.004029304029304029,0.0016117216117216117
2.7673424129970954,0.0,0.004029304029304029,0.0016117216117216117
2.7689279229998647,0.0,0.004029304029304029,0.0016117216117216117
2.7746973519970197,0.0,0.004029304029304029,0.0016117216117216117
2.7854463689982367,0.0,0.03062271062271062,0.02901098901098901
2.7909371299974737,0.0,0.03062271062271062,0.02901098901098901
2.7924692509986926,0.0,0.03062271062271062,0.02901098901098901
2.7963267669983907,0.0,0.03062271062271062,0.02901098901098901
2.8001024009972753,0.0,0.03062271062271062,0.02901098901098901
2.8045790109972586,0.0,0.03062271062271062,0.02901098901098901
2.8049294459997327,0.0,0.03062271062271062,0.02901098901098901
2.8102867749985307,0.0,0.03062271062271062,0.02901098901098901
2.8125862199995026,0.0,0.03142857142857143,0.02336996336996337
2.8128053679974983,0.0,0.03142857142857143,0.02336996336996337
2.8181173949997174,0.0,0.03142857142857143,0.02336996336996337
2.8204055819987843,0.0,0.03142857142857143,0.02336996336996337
2.820754512998974,0.0,0.03142857142857143,0.02336996336996337
2.8273919509992993,0.0,0.03142857142857143,0.02336996336996337
2.832861207996757,0.0,0.03142857142857143,0.02336996336996337
2.8330812789972697,0.0,0.03142857142857143,0.02336996336996337
2.8404117279969796,0.0,0.03142857142857143,0.02336996336996337
2.846440740999242,0.0,0.03142857142857143,0.02336996336996337
2.8510113889969944,0.0,0.012087912087912087,0.011282051282051281
2.8613344629993662,0.0,0.012087912087912087,0.011282051282051281
2.872205394000048,0.0,0.012087912087912087,0.011282051282051281
2.8798716299970692,0.0,0.012087912087912087,0.011282051282051281
2.88608953399671,0.0,0.012087912087912087,0.011282051282051281
2.890232088997436,0.0,0.016923076923076923,0.004029304029304029
2.8928110460001335,0.0,0.016923076923076923,0.004029304029304029
2.8989716839969333,0.0,0.016923076923076923,0.004029304029304029
2.9033661920002487,0.0,0.016923076923076923,0.004029304029304029
2.90355057099805,0.0,0.016923076923076923,0.004029304029304029
2.908810002998507,0.0,0.016923076923076923,0.004029304029304029
2.9114600859975326,0.0,0.017728937728937726,0.011282051282051281
2.9193249299969466,0.0,0.017728937728937726,0.011282051282051281
2.9244685849989764,0.0,0.017728937728937726,0.011282051282051281
2.92755146899799,0.0,0.017728937728937726,0.011282051282051281
2.930545067996718,0.0,0.012893772893772894,0.011282051282051281
2.934963723997498,0.0,0.03223443223443223,0.028205128205128206
2.9415497640002286,0.0,0.03223443223443223,0.028205128205128206
2.9468383399980667,0.0,0.0032234432234432234,0.0
2.9491376649966696,0.0,0.01531135531135531,0.005641025641025641
2.954825359000097,0.0,0.0,0.0
2.9550378139974782,0.0,0.0,0.0
2.960468030996708,0.0,0.0,0.0
2.9613970889986376,0.0,0.0,0.0
2.962928857999941,0.0,0.0,0.0
2.9688251619991206,0.0,0.0,0.0
2.9727427219986566,0.0,0.0,0.0
2.978614400999504,0.0,0.0,0.0
2.987672545998066,0.0,0.0,0.0
2.9922363289988425,0.0,0.01531135531135531,0.006446886446886447
2.9924427939986344,0.0,0.01531135531135531,0.006446886446886447
2.9984177669975907,0.0,0.01531135531135531,0.006446886446886447
3.0060397559973353,0.0,0.01531135531135531,0.006446886446886447
3.010780155997054,0.0,0.01531135531135531,0.006446886446886447
3.010886757998378,0.0,0.01531135531135531,0.006446886446886447
3.0197093759998097,0.0,0.01531135531135531,0.006446886446886447
3.0243298839995987,0.0,0.01531135531135531,0.006446886446886447
3.02445646599881,0.0,0.01531135531135531,0.006446886446886447
3.0326192299980903,0.0,0.01531135531135531,0.006446886446886447
3.0387326659983955,0.0,0.0,0.0
3.0441979589995753,0.0,0.0,0.0
3.0442997649988683,0.0,0.0,0.0
3.0552005119971,0.0,0.0,0.0
3.0605077979998896,0.0,0.0,0.0
3.0639425499975914,0.0,0.02095238095238095,0.020146520146520144
3.0640356320000137,0.0,0.0,0.0
3.0696890619983606,0.0,0.0,0.0
3.0699110089990427,0.0,0.008058608058608058,0.004835164835164835
3.0757115689993952,0.0,0.008058608058608058,0.004835164835164835
3.0757999540001038,0.0,0.008058608058608058,0.004835164835164835
3.083523379998951,0.0,0.008058608058608058,0.004835164835164835
3.0875482199990074,0.0,0.012893772893772894,0.0016117216117216117
3.091353285999503,0.0,0.012893772893772894,0.0016117216117216117
3.0967045949983003,0.0,0.012893772893772894,0.0016117216117216117
3.098108518999652,0.0,0.01934065934065934,0.0
3.1025905569986207,0.0,0.01934065934065934,0.0
3.1028054549969966,0.0,0.01934065934065934,0.0
3.1089089380002406,0.0,0.01934065934065934,0.0
3.11568797200016,0.0,0.01934065934065934,0.0
3.1192379369967966,0.0,0.014505494505494505,0.0032234432234432234
3.124756563000119,0.0,0.026593406593406595,0.016117216117216115
3.1259918869982357,0.0,0.004835164835164835,0.0
3.136662550998153,0.0,0.004835164835164835,0.0
3.145943960000295,0.0,0.004835164835164835,0.0
3.1542279879977286,0.0,0.00967032967032967,0.01934065934065934
3.161173984997731,0.0,0.00967032967032967,0.01934065934065934
3.1671950469972217,0.0,0.00967032967032967,0.01934065934065934
3.170789304000209,0.0,0.006446886446886447,0.0
3.1766086389980046,0.0,0.006446886446886447,0.0
3.1767936999967787,0.0,0.006446886446886447,0.0
3.1877570349970483,0.0,0.006446886446886447,0.0
3.197395217997837,0.0,0.006446886446886447,0.0
3.205482323999604,0.0,0.0032234432234432234,0.012893772893772894
3.213965682996786,0.0,0.0032234432234432234,0.012893772893772894
3.2187291479967826,0.0,0.012893772893772894,0.0
3.2248479439986113,0.0,0.02175824175824176,0.0
3.2283780830002797,0.0,0.011282051282051281,0.12007326007326008
3.2411705719969177,0.0,0.011282051282051281,0.12007326007326008
3.2414204139968206,0.0,0.014505494505494505,0.012893772893772894
3.2524129609992087,0.0,0.014505494505494505,0.012893772893772894
3.2606008109978575,0.0,0.0032234432234432234,0.0
3.267854424997495,0.0,0.0,0.022564102564102562
3.2729081459983718,0.0,0.02901098901098901,0.0136996336996337
3.280767106996791,0.0,0.02901098901098901,0.0136996336996337
3.286042125997483,0.0,0.02901098901098901,0.0136996336996337
3.2874836880000657,0.0,0.008058608058608058,0.0
3.293531446997804,0.0,0.008058608058608058,0.0
3.2987640549981734,0.0,0.008058608058608058,0.0
3.2996782249974785,0.0,0.008058608058608058,0.0
3.301211535999755,0.0,0.008058608058608058,0.0
3.3058116619977227,0.0,0.014505494505494505,0.0
3.3059091709983477,0.0,0.014505494505494505,0.0
3.311931848998938,0.0,0.014505494505494505,0.0
3.3180690219996904,0.0,0.014505494505494505,0.0
3.321800973997597,0.0,0.0,0.017728937728937726
3.3270858420000877,0.0,0.0,0.017728937728937726
3.3305971629997657,0.0,0.0,0.017728937728937726
3.3367097419977654,0.0,0.0,0.017728937728937726
3.340542807996826,0.0,0.0,0.017728937728937726
3.344753381999908,0.0,0.0,0.017728937728937726
3.3493074029975105,0.0,0.0,0.017728937728937726
3.3550480579979194,0.0,0.0,0.017728937728937726
3.3552232809997804,0.0,0.0,0.017728937728937726
3.3615134989995568,0.0,0.0,0.017728937728937726
3.3672550189985486,0.0,0.0,0.017728937728937726
3.373059944999113,0.0,0.0,0.017728937728937726
3.3790616739970574,0.0,0.0,0.017728937728937726
3.384684146996733,0.0,0.00967032967032967,0.0
3.3899591529989266,0.0,0.00967032967032967,0.0
3.3922528959992633,0.0,0.00967032967032967,0.0
3.39238252299765,0.0,0.0032234432234432234,0.0
3.400004588998854,0.0,0.0032234432234432234,0.0
3.4044908919968293,0.0,0.0,0.0
3.404659066000022,0.0,0.0,0.0
3.4102536020000116,0.0,0.0,0.0
3.410477412999171,0.0,0.0,0.0
3.418428891000076,0.0,0.0,0.0
3.423082498997246,0.0,0.0032234432234432234,0.0
3.423196609997831,0.0,0.0032234432234432234,0.0
3.4290137129974028,0.0,0.0032234432234432234,0.0
3.440749749999668,0.0,0.0032234432234432234,0.0
3.4445849479998287,0.0,0.0032234432234432234,0.0
3.451890887998161,0.0,0.0032234432234432234,0.0
3.4604348609973385,0.0,0.0032234432234432234,0.0
3.4688024199967913,0.0,0.018534798534798533,0.01934065934065934
3.4767332439987513,0.0,0.018534798534798533,0.01934065934065934
3.4835616899981687,0.0,0.018534798534798533,0.01934065934065934
3.4873753289975866,0.0,0.018534798534798533,0.01934065934065934
3.4973354679968907,0.0,0.018534798534798533,0.01934065934065934
3.5065664859976096,0.0,0.018534798534798533,0.01934065934065934
3.512902996997582,0.0,0.018534798534798533,0.01934065934065934
3.5197952919988893,0.0,0.018534798534798533,0.01934065934065934
3.5255627519982227,0.0,0.02336996336996337,0.01531135531135531
3.5330762999983563,0.0,0.02336996336996337,0.01531135531135531
3.5373828989977483,0.0,0.0,0.0
3.537542771999142,0.0,0.0,0.0
3.5434716739982832,0.0,0.0,0.0
3.551144987999578,0.0,0.0,0.0
3.5570558279978286,0.0,0.004029304029304029,0.0008058608058608059
3.5611734300000535,0.0,0.005641025641025641,0.4214652014652014
3.56699722799749,0.0,0.005641025641025641,0.4214652014652014
3.569960564997018,0.0,0.005641025641025641,0.4214652014652014
3.5723816829995485,0.0,0.005641025641025641,0.4214652014652014
3.57256128500012,0.0,0.017728937728937726,0.03223443223443223
3.5783807919979154,0.0,0.017728937728937726,0.03223443223443223
3.5863815149969014,0.0,0.017728937728937726,0.03223443223443223
3.5918332589972124,0.0,0.017728937728937726,0.03223443223443223
3.594440114997269,0.0,0.017728937728937726,0.03223443223443223
3.603061441997852,0.0,0.017728937728937726,0.03223443223443223
3.607686133997049,0.0,0.0032234432234432234,0.0
3.60791555600008,0.0,0.0032234432234432234,0.0
3.615865740997833,0.0,0.0032234432234432234,0.0
3.6199465559984674,0.0,0.0032234432234432234,0.0
3.6231076719996054,0.0,0.0032234432234432234,0.0
3.624119691998203,0.0,0.0032234432234432234,0.0
3.6249864799974603,0.0,0.0032234432234432234,0.0
3.628421352997975,0.0,0.0032234432234432234,0.0
3.635297326996806,0.0,0.006446886446886447,0.0
3.6400001449983392,0.0,0.006446886446886447,0.0
3.646210938997683,0.0,0.0008058608058608059,0.0
3.650668862999737,0.0,0.008864468864468863,0.02095238095238095
3.6508101359977445,0.0,0.008864468864468863,0.02095238095238095
3.6563724989973707,0.0,0.008864468864468863,0.02095238095238095
3.656510568998783,0.0,0.008864468864468863,0.02095238095238095
3.6635282549978,0.0,0.008864468864468863,0.02095238095238095
3.669614599999477,0.0,0.008864468864468863,0.02095238095238095
3.6751597539987415,0.0,0.008864468864468863,0.02095238095238095
3.6753114519997325,0.0,0.008864468864468863,0.02095238095238095
3.683704121998744,0.0,0.008864468864468863,0.02095238095238095
3.688867623997794,0.0,0.005641025641025641,0.0032234432234432234
3.690428936999524,0.0,0.0136996336996337,0.018534798534798533
3.6944316560002335,0.0,0.0136996336996337,0.018534798534798533
3.7000058269986766,0.0,0.0136996336996337,0.018534798534798533
3.7001573569978063,0.0,0.00967032967032967,0.0
3.705656079997425,0.0,0.03706959706959707,0.03706959706959707
3.7064824889966985,0.0,0.03706959706959707,0.03706959706959707
3.7080222320000757,0.0,0.03706959706959707,0.03706959706959707
3.714545568000176,0.0,0.0,0.0
3.7183491489995504,0.0,0.010476190476190476,0.14989010989010987
3.722273884999595,0.0,0.010476190476190476,0.14989010989010987
3.7262971379968803,0.0,0.010476190476190476,0.14989010989010987
3.729651849997026,0.0,0.010476190476190476,0.14989010989010987
3.7299513919970195,0.0,0.010476190476190476,0.14989010989010987
3.7362796689994866,0.0,0.010476190476190476,0.14989010989010987
3.7402336790000845,0.0,0.010476190476190476,0.14989010989010987
3.7497570119994634,0.0,0.033846153846153845,0.02095238095238095
3.7553766269993503,0.0,0.033846153846153845,0.02095238095238095
3.755639622999297,0.0,0.033846153846153845,0.02095238095238095
3.764694615998451,0.0,0.033846153846153845,0.02095238095238095
3.7703586429997813,0.0,0.01531135531135531,0.0
3.7754971899994416,0.0,0.01531135531135531,0.0
3.7803784539974004,0.0,0.01531135531135531,0.0
3.7830057199971634,0.0,0.01531135531135531,0.0
3.7869996079971315,0.0,0.01531135531135531,0.0
3.7901798699967912,0.0,0.01531135531135531,0.0
3.791061071999138,0.0,0.01531135531135531,0.0
3.7926028330002737,0.0,0.01531135531135531,0.0
3.799395928999729,0.0,0.0136996336996337,0.01934065934065934
3.8054130249984155,0.0,0.0136996336996337,0.01934065934065934
3.8098063569996157,0.0,0.016923076923076923,0.022564102564102562
3.810708942997735,0.0,0.016923076923076923,0.022564102564102562
3.8123850599986326,0.0,0.016923076923076923,0.0
3.816620735997276,0.0,0.0008058608058608059,0.012087912087912087
3.816939548996743,0.0,0.0008058608058608059,0.012087912087912087
3.8230673289981496,0.0,0.0008058608058608059,0.012087912087912087
3.8312427189994196,0.0,0.0008058608058608059,0.012087912087912087
3.8356315929995617,0.0,0.0,0.0
3.8358815049978148,0.0,0.008058608058608058,0.02498168498168498
3.846067600999959,0.0,0.008058608058608058,0.02498168498168498
3.8563344289977977,0.0,0.008058608058608058,0.02498168498168498
3.8641449159986223,0.0,0.008058608058608058,0.02498168498168498
3.8720363439970242,0.0,0.008058608058608058,0.02498168498168498
3.8761383479977667,0.0,0.0032234432234432234,0.0
3.879786874000274,0.0,0.0032234432234432234,0.0
3.8859680549976474,0.0,0.0032234432234432234,0.0
3.8890771269980178,0.0,0.0032234432234432234,0.0
3.8906402559987328,0.0,0.0032234432234432234,0.0
3.8953682699975616,0.0,0.007252747252747252,0.00967032967032967
3.895679340999777,0.0,0.007252747252747252,0.00967032967032967
3.902250240000285,0.0,0.007252747252747252,0.00967032967032967
3.9062942799973825,0.0,0.0,0.008058608058608058
3.9093496200002846,0.0,0.0,0.008058608058608058
3.9122654120001243,0.0,0.0,0.008058608058608058
3.915570952998678,0.0,0.0,0.008058608058608058
3.9156912789985654,0.0,0.0,0.008058608058608058
3.921380086998397,0.0,0.0,0.008058608058608058
3.9215104739996605,0.0,0.006446886446886447,0.24417582417582417
3.927380743996764,0.0,0.017728937728937726,0.022564102564102562
3.93661921599778,0.0,0.017728937728937726,0.022564102564102562
3.941985120996833,0.0,0.006446886446886447,0.0
3.944413673998497,0.0,0.006446886446886447,0.0
3.9445468239973707,0.0,0.0016117216117216117,0.0
3.951428994998423,0.0,0.0016117216117216117,0.0
3.955414608997671,0.0,0.0016117216117216117,0.0
3.9585803629997827,0.0,0.018534798534798533,0.0
3.9593943929976376,0.0,0.018534798534798533,0.0
3.9612487199992756,0.0,0.018534798534798533,0.0
3.9654271399995196,0.0,0.018534798534798533,0.0
3.9672177510001347,0.0,0.0016117216117216117,0.012893772893772894
3.9704605959996115,0.0,0.0016117216117216117,0.012893772893772894
3.9713521679987025,0.0,0.0016117216117216117,0.012893772893772894
3.973686548997648,0.0,0.0016117216117216117,0.012893772893772894
3.973859669997182,0.0,0.0016117216117216117,0.012893772893772894
3.9794346669987135,0.0,0.0016117216117216117,0.012893772893772894
3.979617639997741,0.0,0.0016117216117216117,0.012893772893772894
3.986123807997501,0.0,0.0016117216117216117,0.012893772893772894
3.9900948899994546,0.0,0.025787545787545788,0.016117216117216115
3.993947279999702,0.0,0.025787545787545788,0.016117216117216115
4.001055101998645,0.0,0.025787545787545788,0.016117216117216115
4.005549177996727,0.0,0.025787545787545788,0.016117216117216115
4.00634525499845,0.0,0.0024175824175824176,0.0
4.008618518997537,0.0,0.0024175824175824176,0.0
4.008831842998916,0.0,0.0024175824175824176,0.0
4.015009406997706,0.0,0.0024175824175824176,0.0
4.0184949439972115,0.0,0.0024175824175824176,0.0
4.018729014998826,0.0,0.012893772893772894,0.0
4.024213321998104,0.0,0.012893772893772894,0.0
4.024391122999077,0.0,0.008864468864468863,0.03223443223443223
4.030445053998847,0.0,0.008864468864468863,0.03223443223443223
4.036654498999269,0.0,0.008864468864468863,0.03223443223443223
4.039754917997925,0.0,0.008864468864468863,0.03223443223443223
4.0412792099996295,0.0,0.005641025641025641,0.0136996336996337
4.046624444999907,0.0,0.005641025641025641,0.0136996336996337
4.048200124998402,0.0,0.005641025641025641,0.0136996336996337
4.05276135999884,0.0,0.005641025641025641,0.0136996336996337
4.052867900998535,0.0,0.005641025641025641,0.0136996336996337
4.058351291998406,0.0,0.005641025641025641,0.0136996336996337
4.0593386979999195,0.0,0.005641025641025641,0.0136996336996337
4.060135861996969,0.0,0.005641025641025641,0.0136996336996337
4.063234524997824,0.0,0.005641025641025641,0.0136996336996337
4.063427967997995,0.0,0.005641025641025641,0.0136996336996337
4.070574610999756,0.0,0.005641025641025641,0.0136996336996337
4.075674431998777,0.0,0.012893772893772894,0.0
4.082841624996945,0.0,0.012893772893772894,0.0
4.086944118997053,0.0,0.017728937728937726,0.04673992673992674
4.0892054779978935,0.0,0.017728937728937726,0.04673992673992674
4.089380962999712,0.0,0.017728937728937726,0.04673992673992674
4.094677260000026,0.0,0.017728937728937726,0.04673992673992674
4.098504093999509,0.0,0.016117216117216115,0.020146520146520144
4.101917956999387,0.0,0.016117216117216115,0.020146520146520144
4.1021009309988585,0.0,0.016117216117216115,0.020146520146520144
4.107570581996697,0.0,0.016117216117216115,0.020146520146520144
4.108576306000032,0.0,0.016117216117216115,0.020146520146520144
4.109437989998696,0.0,0.016117216117216115,0.020146520146520144
4.111082968000119,0.0,0.016117216117216115,0.020146520146520144
4.115734513998177,0.0,0.016117216117216115,0.020146520146520144
4.1158883110001625,0.0,0.016117216117216115,0.020146520146520144
4.120785287999752,0.0,0.016117216117216115,0.020146520146520144
4.126395305996994,0.0,0.004835164835164835,0.016117216117216115
4.126460763000068,0.0,0.004835164835164835,0.016117216117216115
4.135772682999232,0.0,0.004835164835164835,0.016117216117216115
4.141386592997151,0.0,0.004835164835164835,0.016117216117216115
4.1416859769997245,0.0,0.004835164835164835,0.016117216117216115
4.149273735998577,0.0,0.0,0.0016117216117216117
4.154208566997113,0.0,0.0016117216117216117,0.0
4.159567119997519,0.0,0.011282051282051281,0.03706959706959707
4.159724668999843,0.0,0.011282051282051281,0.03706959706959707
4.171357397997781,0.0,0.0,0.0
4.177231028999813,0.0,0.01934065934065934,0.02095238095238095
4.183610442996724,0.0,0.49399267399267394,0.0
4.187517012996977,0.0,0.49399267399267394,0.0
4.1915721369987295,0.0,0.49399267399267394,0.0
4.197911047998787,0.0,0.49399267399267394,0.0
4.201418691998697,0.0,0.49399267399267394,0.0
4.2016079669992905,0.0,0.49399267399267394,0.0
4.207036324998626,0.0,0.49399267399267394,0.0
4.209420219998719,0.0,0.004029304029304029,0.0
4.217130092998559,0.0,0.004029304029304029,0.0
4.221968516998459,0.0,0.004029304029304029,0.0
4.227732892999484,0.0,0.004029304029304029,0.0
4.2277999609978,0.0,0.004029304029304029,0.0
4.23394525799813,0.0,0.004029304029304029,0.0
4.238035659000161,0.0,0.004029304029304029,0.0
4.240400879996741,0.0,0.004029304029304029,0.0
4.240510006999102,0.0,0.016923076923076923,0.007252747252747252
4.246583771997393,0.0,0.016923076923076923,0.007252747252747252
4.252322565000213,0.0,0.014505494505494505,0.010476190476190476
4.2524201669984905,0.0,0.014505494505494505,0.010476190476190476
4.2579618459967605,0.0,0.014505494505494505,0.010476190476190476
4.258788161998382,0.0,0.014505494505494505,0.010476190476190476
4.260605334999127,0.0,0.014505494505494505,0.010476190476190476
4.264505737999571,0.0,0.014505494505494505,0.010476190476190476
4.268041168998025,0.0,0.014505494505494505,0.010476190476190476
4.2732372999998915,0.0,0.0,0.0
4.275819713999226,0.0,0.0,0.0
4.283216978998098,0.0,0.0,0.0
4.287891975000093,0.0,0.02498168498168498,0.011282051282051281
4.288056126999436,0.0,0.016117216117216115,0.018534798534798533
4.293992480997986,0.0,0.016117216117216115,0.018534798534798533
4.300179906997073,0.0,0.017728937728937726,0.007252747252747252
4.303268584997568,0.0,0.017728937728937726,0.007252747252747252
4.305618954997044,0.0,0.017728937728937726,0.007252747252747252
4.305800656999054,0.0,0.017728937728937726,0.007252747252747252
4.311877090996859,0.0,0.017728937728937726,0.007252747252747252
4.31663395799842,0.0,0.017728937728937726,0.007252747252747252
4.319728528997075,0.0,0.017728937728937726,0.007252747252747252
4.322268760999577,0.0,0.017728937728937726,0.007252747252747252
4.327134459999797,0.0,0.017728937728937726,0.007252747252747252
4.333899168999778,0.0,0.017728937728937726,0.007252747252747252
4.337734107997676,0.0,0.017728937728937726,0.007252747252747252
4.342835245999595,0.0,0.017728937728937726,0.007252747252747252
4.346470659998886,0.0,0.0136996336996337,0.0032234432234432234
4.351181045996782,0.0,0.0136996336996337,0.0032234432234432234
4.35508864700023,0.0,0.004029304029304029,0.02336996336996337
4.359171557996888,0.0,0.004029304029304029,0.02336996336996337
4.362564052997186,0.0,0.004029304029304029,0.02336996336996337
4.362694497998746,0.0,0.004029304029304029,0.02336996336996337
4.369042252998042,0.0,0.004029304029304029,0.02336996336996337
4.372974845999124,0.0,0.011282051282051281,0.0556043956043956
4.377963066999655,0.0,0.011282051282051281,0.0556043956043956
4.385632928999257,0.0,0.011282051282051281,0.0556043956043956
4.392245120998268,0.0,0.011282051282051281,0.0556043956043956
4.396471451000252,0.0,0.0008058608058608059,0.0008058608058608059
4.399179350999475,0.0,0.006446886446886447,0.007252747252747252
4.402758576998167,0.0,0.02095238095238095,0.014505494505494505
4.4103736099968955,0.0,0.02095238095238095,0.014505494505494505
4.41757016399788,0.0,0.02095238095238095,0.014505494505494505
4.421898823999072,0.0,0.0,0.00967032967032967
4.424392566997994,0.0,0.0,0.00967032967032967
4.431982252997841,0.0,0.0,0.016117216117216115
4.436036823997711,0.0,0.0,0.007252747252747252
4.439182440997683,0.0,0.0,0.007252747252747252
4.441492439000285,0.0,0.0,0.007252747252747252
4.441610833997402,0.0,0.0,0.007252747252747252
4.44940081799723,0.0,0.0,0.007252747252747252
4.453303454996785,0.0,0.0,0.007252747252747252
4.457728130997566,0.0,0.0,0.007252747252747252
4.457940393000172,0.0,0.0,0.007252747252747252
4.466407894997246,0.0,0.0,0.007252747252747252
4.4711752149996755,0.0,0.012893772893772894,0.010476190476190476
4.471343473996967,0.0,0.012893772893772894,0.010476190476190476
4.477299824997317,0.0,0.012893772893772894,0.010476190476190476
4.484614389999479,0.0,0.012893772893772894,0.010476190476190476
4.488878522999585,0.0,0.012893772893772894,0.010476190476190476
4.491480234999472,0.0,0.012893772893772894,0.010476190476190476
4.498174910997477,0.0,0.012893772893772894,0.010476190476190476
4.5025697909986775,0.0,0.0,0.0016117216117216117
4.502883710996684,0.0,0.004029304029304029,0.0
4.509939626997948,0.0,0.004029304029304029,0.0
4.516576785998041,0.0,0.004029304029304029,0.0
4.519721441996808,0.0,0.004029304029304029,0.0
4.522298356998363,0.0,0.004029304029304029,0.0
4.529874159998144,0.0,0.010476190476190476,0.0024175824175824176
4.53452599999946,0.0,0.008058608058608058,0.04673992673992674
4.538964653998846,0.0,0.008058608058608058,0.04673992673992674
4.539815946998715,0.0,0.008058608058608058,0.04673992673992674
4.541421676000027,0.0,0.008058608058608058,0.04673992673992674
4.546968531998573,0.0,0.008058608058608058,0.04673992673992674
4.547423562999029,0.0,0.008058608058608058,0.04673992673992674
4.5520253159993445,0.0,0.008058608058608058,0.04673992673992674
4.5521989579974615,0.0,0.008058608058608058,0.04673992673992674
4.55836693299716,0.0,0.008058608058608058,0.04673992673992674
4.5625628489979135,0.0,0.008058608058608058,0.04673992673992674
4.566330524998193,0.0,0.008058608058608058,0.04673992673992674
4.57011358499949,0.0,0.008058608058608058,0.04673992673992674
4.574587769999198,0.0,0.008058608058608058,0.04673992673992674
4.574871364999126,0.0,0.008058608058608058,0.04673992673992674
4.583254526998644,0.0,0.008058608058608058,0.04673992673992674
4.58832055899984,0.0,0.008058608058608058,0.04673992673992674
4.591420728997036,0.0,0.008058608058608058,0.04673992673992674
4.593350970997562,0.0,0.008058608058608058,0.04673992673992674
4.59687620099794,0.0,0.008058608058608058,0.04673992673992674
4.6053891929987,0.0,0.008058608058608058,0.04673992673992674
4.609982658999797,0.0,0.0,0.0
4.610922322997794,0.0,0.0,0.0
4.612951357998099,0.0,0.0,0.0
4.613167555999098,0.0,0.0,0.0
4.61937340899749,0.0,0.0,0.0
4.623525283997878,0.0,0.0,0.0
4.625786712000263,0.0,0.0,0.0
4.625934914998652,0.0,0.0,0.0
4.632775677997415,0.0,0.0,0.0
4.636770334000175,0.0,0.0,0.0
4.640556218997517,0.0,0.0,0.0
4.645073758998478,0.0,0.0,0.0
4.645366344997456,0.0,0.008864468864468863,0.0
4.652305574996717,0.0,0.008864468864468863,0.0
4.656897351997031,0.0,0.00967032967032967,0.0
4.657099986998219,0.0,0.00967032967032967,0.0
4.663061855997512,0.0,0.00967032967032967,0.0
4.6714885879991925,0.0,0.01934065934065934,0.0032234432234432234
4.677345115997014,0.0,0.0,0.012087912087912087
4.685852946997329,0.0,0.010476190476190476,0.01934065934065934
4.6903310069974395,0.0,0.010476190476190476,0.01934065934065934
4.690585877997364,0.0,0.010476190476190476,0.01934065934065934
4.698590111998783,0.0,0.03142857142857143,0.02498168498168498
4.702592308000021,0.0,0.03142857142857143,0.02498168498168498
4.7058293919981224,0.0,0.03142857142857143,0.02498168498168498
4.707548764999956,0.0,0.03142857142857143,0.02498168498168498
4.711929129000055,0.0,0.03142857142857143,0.02498168498168498
4.713603029998922,0.0,0.03142857142857143,0.02498168498168498
4.720041882999794,0.0,0.03142857142857143,0.02498168498168498
4.7253567289990315,0.0,0.03142857142857143,0.02498168498168498
4.725535370998841,0.0,0.03142857142857143,0.02498168498168498
4.73584560299787,0.0,0.03142857142857143,0.02498168498168498
4.744569747999776,0.0,0.03142857142857143,0.02498168498168498
4.752207692999946,0.0,0.03142857142857143,0.02498168498168498
4.756855521998659,0.0,0.024175824175824173,0.03062271062271062
4.756986585998675,0.0,0.024175824175824173,0.03062271062271062
4.76518749999741,0.0,0.024175824175824173,0.03062271062271062
4.7689589349974995,0.0,0.024175824175824173,0.03062271062271062
4.773497656999098,0.0,0.011282051282051281,0.0008058608058608059
4.773614027999429,0.0,0.011282051282051281,0.0008058608058608059
4.781969771000149,0.0,0.011282051282051281,0.0008058608058608059
4.788615280998783,0.0,0.011282051282051281,0.0008058608058608059
4.79242000999875,0.0,0.011282051282051281,0.0008058608058608059
4.7984803119979915,0.0,0.011282051282051281,0.0008058608058608059
4.804614101998595,0.0,0.011282051282051281,0.0008058608058608059
4.810341847998643,0.0,0.011282051282051281,0.0008058608058608059
4.818503326998325,0.0,0.011282051282051281,0.0008058608058608059
4.824014180998347,0.0,0.011282051282051281,0.0008058608058608059
4.824924671996996,0.0,0.04673992673992674,0.02498168498168498
4.826669759997458,0.0,0.04673992673992674,0.02498168498168498
4.833381352000288,0.0,0.04673992673992674,0.02498168498168498
4.836562466996838,0.0,0.022564102564102562,0.022564102564102562
4.83928138599731,0.0,0.004835164835164835,0.0
4.843435536997276,0.0,0.004835164835164835,0.0
4.847984223997628,0.0,0.004835164835164835,0.0
4.853449995996925,0.0,0.0,0.006446886446886447
4.854522984998766,0.0,0.0,0.006446886446886447
4.854824784997618,0.0,0.0,0.006446886446886447
4.86087495999891,0.0,0.0,0.006446886446886447
4.868484478996834,0.0,0.0,0.006446886446886447
4.874202697999863,0.0,0.0,0.006446886446886447
4.882999898996786,0.0,0.0,0.006446886446886447
4.889378044998011,0.0,0.006446886446886447,0.0
4.892382666999765,0.0,0.006446886446886447,0.0
4.8978095069978735,0.0,0.017728937728937726,0.016117216117216115
4.898019837997708,0.0,0.017728937728937726,0.016117216117216115
4.904075600999931,0.0,0.017728937728937726,0.016117216117216115
4.908018397996784,0.0,0.017728937728937726,0.016117216117216115
4.912993992998963,0.0,0.017728937728937726,0.016117216117216115
4.91911374999836,0.0,0.017728937728937726,0.016117216117216115
4.922301875998528,0.0,0.017728937728937726,0.016117216117216115
4.92427588099963,0.0,0.017728937728937726,0.016117216117216115
4.925274910998269,0.0,0.017728937728937726,0.016117216117216115
4.926328966997971,0.0,0.006446886446886447,0.0016117216117216117
4.927382647998456,0.0,0.006446886446886447,0.0016117216117216117
4.927756264998607,0.0,0.006446886446886447,0.0016117216117216117
4.936273907998839,0.0,0.006446886446886447,0.0016117216117216117
4.940852673997142,0.0,0.006446886446886447,0.0016117216117216117
4.941681770997093,0.0,0.006446886446886447,0.0016117216117216117
4.943261659998825,0.0,0.006446886446886447,0.0016117216117216117
4.9499945279967505,0.0,0.006446886446886447,0.0016117216117216117
4.95418571099799,0.0,0.006446886446886447,0.0016117216117216117
4.956574914998782,0.0,0.006446886446886447,0.0016117216117216117
4.964792758997646,0.0,0.006446886446886447,0.0016117216117216117
4.969966492997628,0.0,0.006446886446886447,0.0016117216117216117
4.971371354997245,0.0,0.006446886446886447,0.0016117216117216117
4.97659963699698,0.0,0.006446886446886447,0.0016117216117216117
4.978409337996709,0.0,0.006446886446886447,0.0016117216117216117
4.981960523997259,0.0,0.006446886446886447,0.0016117216117216117
4.988151307999942,0.0,0.006446886446886447,0.0016117216117216117
4.9919690629976685,0.0,0.006446886446886447,0.0016117216117216117
4.999525248000282,0.0,0.006446886446886447,0.0016117216117216117
5.002776677996735,0.0,0.006446886446886447,0.0016117216117216117
5.003616886999225,0.0,0.006446886446886447,0.0016117216117216117
5.004523324998445,0.0,0.006446886446886447,0.0016117216117216117
5.00606529200013,0.0,0.006446886446886447,0.0016117216117216117
5.01027028399767,0.0,0.006446886446886447,0.0016117216117216117
5.0148160889984865,0.0,0.006446886446886447,0.0016117216117216117
5.02052741299849,0.0,0.006446886446886447,0.0016117216117216117
5.020621747997211,0.0,0.012893772893772894,0.004029304029304029
5.026702577997639,0.0,0.012893772893772894,0.004029304029304029
5.033465894997789,0.0,0.0032234432234432234,0.0
5.037373710998509,0.0,0.0032234432234432234,0.0
5.041276525997091,0.0,0.0032234432234432234,0.0
5.04602702199918,0.0,0.0032234432234432234,0.0
5.050690034997388,0.0,0.0032234432234432234,0.0
5.050801530996978,0.0,0.0,0.012893772893772894
5.056538618999184,0.0,0.0,0.012893772893772894
5.056748543996946,0.0,0.0,0.012893772893772894
5.061973012998351,0.0,0.0,0.012893772893772894
5.064207716997771,0.0,0.020146520146520144,0.0008058608058608059
5.064513056997384,0.0,0.02498168498168498,0.0
5.070311868999852,0.0,0.02498168498168498,0.0
5.070403745998192,0.0,0.02498168498168498,0.0
5.075761125997815,0.0,0.016117216117216115,0.016923076923076923
5.077285970997764,0.0,0.0,0.0008058608058608059
5.081844435997482,0.0,0.0,0.0008058608058608059
5.0819797509975615,0.0,0.0,0.0008058608058608059
5.087219740998989,0.0,0.0,0.0008058608058608059
5.08966566899835,0.0,0.012893772893772894,0.0
5.089801081998303,0.0,0.010476190476190476,0.005641025641025641
5.095070254999882,0.0,0.010476190476190476,0.005641025641025641
5.097626022998156,0.0,0.010476190476190476,0.005641025641025641
5.101554774999386,0.0,0.010476190476190476,0.005641025641025641
5.104533541998535,0.0,0.0016117216117216117,0.00967032967032967
5.108836963998328,0.0,0.0016117216117216117,0.00967032967032967
5.109616854999331,0.0,0.0016117216117216117,0.00967032967032967
5.1134279090001655,0.0,0.0016117216117216117,0.00967032967032967
5.117077364997385,0.0,0.0016117216117216117,0.00967032967032967
5.122550183998101,0.0,0.0016117216117216117,0.00967032967032967
5.12335215100029,0.0,0.0016117216117216117,0.00967032967032967
5.125013141998352,0.0,0.0016117216117216117,0.00967032967032967
5.131021557997883,0.0,0.0016117216117216117,0.00967032967032967
5.135221212000033,0.0,0.0016117216117216117,0.00967032967032967
5.135454003997438,0.0,0.0016117216117216117,0.00967032967032967
5.140744679996715,0.0,0.0016117216117216117,0.00967032967032967
5.143136239999876,0.0,0.0016117216117216117,0.00967032967032967
5.143321806997847,0.0,0.0016117216117216117,0.00967032967032967
5.14936915099679,0.0,0.0016117216117216117,0.00967032967032967
5.1531597539978975,0.0,0.01531135531135531,0.018534798534798533
5.15764835599839,0.0,0.01531135531135531,0.018534798534798533
5.15853090499877,0.0,0.007252747252747252,0.0
5.159386136998364,0.0,0.007252747252747252,0.0
5.161004691999551,0.0,0.007252747252747252,0.0
5.165909348997957,0.0,0.0136996336996337,0.0
5.169796153997595,0.0,0.0136996336996337,0.0
5.173751682999864,0.0,0.0136996336996337,0.0
5.178404431997478,0.0,0.0136996336996337,0.0
5.184050951997051,0.0,0.0136996336996337,0.0
5.184279854998749,0.0,0.0136996336996337,0.0
5.189869311998336,0.0,0.0136996336996337,0.0
5.190044507999119,0.0,0.004835164835164835,0.0
5.1954217349994,0.0,0.004835164835164835,0.0
5.196939862998988,0.0,0.0,0.025787545787545788
5.20208113499757,0.0,0.0,0.025787545787545788
5.2043270009999105,0.0,0.02175824175824176,0.008864468864468863
5.204466774997854,0.0,0.02175824175824176,0.008864468864468863
5.209762462996878,0.0,0.02175824175824176,0.008864468864468863
5.212828689996968,0.0,0.02175824175824176,0.008864468864468863
5.215146640999592,0.0,0.02175824175824176,0.008864468864468863
5.21527948199946,0.0,0.02175824175824176,0.008864468864468863
5.2206177419975575,0.0,0.02175824175824176,0.008864468864468863
5.22221706900018,0.0,0.02175824175824176,0.008864468864468863
5.226007575998665,0.0,0.02175824175824176,0.008864468864468863
5.2305580229985935,0.0,0.02175824175824176,0.008864468864468863
5.230807602998539,0.0,0.02175824175824176,0.008864468864468863
5.236265816998639,0.0,0.02175824175824176,0.008864468864468863
5.237792038999032,0.0,0.02175824175824176,0.008864468864468863
5.242234258999815,0.0,0.02175824175824176,0.008864468864468863
5.243063758000062,0.0,0.024175824175824173,0.02336996336996337
5.244641016997775,0.0,0.024175824175824173,0.02336996336996337
5.250277114999335,0.0,0.024175824175824173,0.02336996336996337
5.251493025996751,0.0,0.024175824175824173,0.02336996336996337
5.257170454999141,0.0,0.024175824175824173,0.02336996336996337
5.257364118999249,0.0,0.024175824175824173,0.02336996336996337
5.262906960997498,0.0,0.024175824175824173,0.02336996336996337
5.263729943999351,0.0,0.024175824175824173,0.02336996336996337
5.265941233999911,0.0,0.024175824175824173,0.02336996336996337
5.266671556997608,0.0,0.024175824175824173,0.02336996336996337
5.268938438999612,0.0,0.024175824175824173,0.02336996336996337
5.269186567998986,0.0,0.024175824175824173,0.02336996336996337
5.274023172998568,0.0,0.024175824175824173,0.02336996336996337
5.279461267997249,0.0,0.024175824175824173,0.02336996336996337
5.280302708997624,0.0,0.024175824175824173,0.02336996336996337
5.281895651998639,0.0,0.024175824175824173,0.02336996336996337
5.286412702000234,0.0,0.024175824175824173,0.02336996336996337
5.286613379998016,0.0,0.024175824175824173,0.02336996336996337
5.291941958999814,0.0,0.007252747252747252,0.0
5.294162477999635,0.0,0.007252747252747252,0.0
5.294302923997748,0.0,0.007252747252747252,0.0
5.299714790999133,0.0,0.007252747252747252,0.0
5.300574686996697,0.0,0.007252747252747252,0.0
5.302360928999406,0.0,0.007252747252747252,0.0
5.308303202997195,0.0,0.00967032967032967,0.02336996336996337
5.31065089799813,0.0,0.00967032967032967,0.02336996336996337
5.310870642999362,0.0,0.00967032967032967,0.02336996336996337
5.316211224999279,0.0,0.00967032967032967,0.02336996336996337
5.318471684997348,0.0,0.00967032967032967,0.02336996336996337
5.318644573999336,0.0,0.00967032967032967,0.02336996336996337
5.3239417810000305,0.0,0.00967032967032967,0.02336996336996337
5.327701612997771,0.0,0.00967032967032967,0.02336996336996337
5.333000868999079,0.0,0.00967032967032967,0.02336996336996337
5.3359935309999855,0.0,0.00967032967032967,0.02336996336996337
5.338962685997103,0.0,0.00967032967032967,0.02336996336996337
5.341241183999955,0.0,0.005641025641025641,0.016117216117216115
5.341307058999519,0.0,0.028205128205128206,0.0
5.346700427999167,0.0,0.028205128205128206,0.0
5.349090143998183,0.0,0.028205128205128206,0.0
5.3493056439983775,0.0,0.028205128205128206,0.0
5.354770562997146,0.0,0.028205128205128206,0.0
5.355806674997439,0.0,0.01531135531135531,0.022564102564102562
5.356811741999991,0.0,0.01531135531135531,0.022564102564102562
5.357633920997614,0.0,0.01531135531135531,0.022564102564102562
5.359284843998466,0.0,0.01531135531135531,0.022564102564102562
5.363556976997643,0.0,0.01531135531135531,0.022564102564102562
5.365195737998874,0.0,0.01531135531135531,0.022564102564102562
5.370132588999695,0.0,0.01531135531135531,0.022564102564102562
5.375626344997727,0.0,0.01531135531135531,0.022564102564102562
5.375880301999132,0.0,0.01531135531135531,0.022564102564102562
5.385992609997629,0.0,0.01531135531135531,0.022564102564102562
5.391785418996733,0.0,0.01531135531135531,0.022564102564102562
5.393286998998519,0.0,0.01531135531135531,0.022564102564102562
5.398426789997757,0.0,0.01531135531135531,0.022564102564102562
5.399370650997298,0.0,0.01531135531135531,0.022564102564102562
5.39962609199938,0.0,0.01531135531135531,0.022564102564102562
5.405064506998315,0.0,0.01531135531135531,0.022564102564102562
5.408118083996669,0.0,0.01531135531135531,0.022564102564102562
5.410064318999503,0.0,0.008058608058608058,0.0008058608058608059
5.414159223997558,0.0,0.008058608058608058,0.0008058608058608059
5.414374785999826,0.0,0.008058608058608058,0.0008058608058608059
5.419920712000021,0.0,0.008058608058608058,0.0008058608058608059
5.420167702999606,0.0,0.0136996336996337,0.0
5.425999002996832,0.0,0.0136996336996337,0.0
5.4351727349967405,0.0,0.004029304029304029,0.0016117216117216117
5.440769236996857,0.0,0.004029304029304029,0.0016117216117216117
5.441018677000102,0.0,0.004835164835164835,0.0
5.447372926999378,0.0,0.004835164835164835,0.0
5.450973251998221,0.0,0.011282051282051281,0.0
5.456678911999916,0.0,0.011282051282051281,0.0
5.4567526849969,0.0,0.011282051282051281,0.0
5.463965478997125,0.0,0.011282051282051281,0.0
5.467622901000141,0.0,0.006446886446886447,0.0
5.472578690998489,0.0,0.004029304029304029,0.007252747252747252
5.476383203997102,0.0,0.037875457875457874,0.02095238095238095
5.483150995998585,0.0,0.037875457875457874,0.02095238095238095
5.487066847999813,0.0,0.0024175824175824176,0.0008058608058608059
5.4924192809994565,0.0,0.0024175824175824176,0.0008058608058608059
5.494788482999866,0.0,0.0024175824175824176,0.0008058608058608059
5.495095149999543,0.0,0.0024175824175824176,0.0008058608058608059
5.4995654319973255,0.0,0.0024175824175824176,0.0008058608058608059
5.4996626309985,0.0,0.0024175824175824176,0.0008058608058608059
5.505736455997976,0.0,0.0024175824175824176,0.0008058608058608059
5.511736332999135,0.0,0.016117216117216115,0.012893772893772894
5.518656947999261,0.0,0.016117216117216115,0.012893772893772894
5.523295680999581,0.0,0.022564102564102562,0.04029304029304029
5.523486367997975,0.0,0.017728937728937726,0.03223443223443223
5.531483015998674,0.0,0.017728937728937726,0.03223443223443223
5.535713178996957,0.0,0.006446886446886447,0.022564102564102562
5.538174293997145,0.0,0.006446886446886447,0.022564102564102562
5.538311573996907,0.0,0.006446886446886447,0.022564102564102562
5.5438205169994035,0.0,0.006446886446886447,0.022564102564102562
5.548345850998885,0.0,0.006446886446886447,0.022564102564102562
5.553714674999355,0.0,0.006446886446886447,0.022564102564102562
5.555356141998345,0.0,0.0,0.0
5.558622527998523,0.0,0.0,0.0
5.558894551999401,0.0,0.0,0.0
5.570981441000185,0.0,0.0,0.0
5.581531697996979,0.0,0.0,0.010476190476190476
5.586796402996697,0.0,0.0,0.010476190476190476
5.589453638000123,0.0,0.0,0.010476190476190476
5.593417877997126,0.0,0.0,0.010476190476190476
5.598922255998332,0.0,0.012087912087912087,0.0
5.599051737997797,0.0,0.012087912087912087,0.0
5.607167858997855,0.0,0.012087912087912087,0.0
5.613802001000295,0.0,0.012087912087912087,0.0
5.618600201996742,0.0,0.004029304029304029,0.0
5.624983464000252,0.0,0.004029304029304029,0.0
5.6320375699979195,0.0,0.0032234432234432234,0.0016117216117216117
5.636327531999996,0.0,0.0032234432234432234,0.0016117216117216117
5.636587844997848,0.0,0.010476190476190476,0.0024175824175824176
5.641970729997411,0.0,0.010476190476190476,0.0024175824175824176
5.643967873998918,0.0,0.010476190476190476,0.0024175824175824176
5.647060701998271,0.0,0.010476190476190476,0.0024175824175824176
5.6471842319988355,0.0,0.010476190476190476,0.0024175824175824176
5.6528755519975675,0.0,0.010476190476190476,0.0024175824175824176
5.65299485399737,0.0,0.018534798534798533,0.004835164835164835
5.658852879998449,0.0,0.012893772893772894,0.0273992673992674
5.658924920997379,0.0,0.012893772893772894,0.0273992673992674
5.665477745998942,0.0,0.012893772893772894,0.0273992673992674
5.668609966000076,0.0,0.012893772893772894,0.0273992673992674
5.670280778998858,0.0,0.012893772893772894,0.0273992673992674
5.673998843998561,0.0,0.012893772893772894,0.01531135531135531
5.680900463998114,0.0,0.012893772893772894,0.01531135531135531
5.68433126599848,0.0,0.012893772893772894,0.01531135531135531
5.684416575997602,0.0,0.012893772893772894,0.01531135531135531
5.69032361799691,0.0,0.012893772893772894,0.01531135531135531
5.696869141000207,0.0,0.012893772893772894,0.01531135531135531
5.700324328998249,0.0,0.012893772893772894,0.01531135531135531
5.7004152049994445,0.0,0.012893772893772894,0.01531135531135531
5.705939640996803,0.0,0.02901098901098901,0.007252747252747252
5.706808029997774,0.0,0.02901098901098901,0.007252747252747252
5.70848009600013,0.0,0.02901098901098901,0.007252747252747252
5.7127712779983995,0.0,0.02901098901098901,0.007252747252747252
5.714346176999243,0.0,0.02901098901098901,0.007252747252747252
5.71762076399682,0.0,0.02901098901098901,0.007252747252747252
5.717922550997173,0.0,0.02901098901098901,0.007252747252747252
5.722619929998473,0.0,0.02901098901098901,0.007252747252747252
5.7227489779979805,0.0,0.0032234432234432234,0.0136996336996337
5.72956787899966,0.0,0.0032234432234432234,0.0136996336996337
5.735254735998751,0.0,0.0032234432234432234,0.0136996336996337
5.7412085340001795,0.0,0.0032234432234432234,0.0136996336996337
5.747430109997367,0.0,0.0032234432234432234,0.0136996336996337
5.752663127997948,0.0,0.0032234432234432234,0.0136996336996337
5.752916600999015,0.0,0.0032234432234432234,0.0136996336996337
5.7582318389977445,0.0,0.0032234432234432234,0.0136996336996337
5.760774883998238,0.0,0.018534798534798533,0.008058608058608058
5.766315634999046,0.0,0.018534798534798533,0.008058608058608058
5.767873110999062,0.0,0.03948717948717949,0.016923076923076923
5.7724948239992955,0.0,0.03948717948717949,0.016923076923076923
5.772755736998079,0.0,0.03948717948717949,0.016923076923076923
5.779240953997942,0.0,0.005641025641025641,0.033846153846153845
5.784955449998961,0.0,0.005641025641025641,0.033846153846153845
5.789502931998868,0.0,0.005641025641025641,0.033846153846153845
5.789665720996709,0.0,0.005641025641025641,0.033846153846153845
5.796344102000148,0.0,0.005641025641025641,0.033846153846153845
5.80050968499927,0.0,0.005641025641025641,0.033846153846153845
5.802170758997818,0.0,0.005641025641025641,0.033846153846153845
5.8061996629985515,0.0,0.03545787545787545,0.016117216117216115
5.810216745998332,0.0,0.010476190476190476,0.0
5.815201377998164,0.0,0.010476190476190476,0.0
5.818256478996773,0.0,0.010476190476190476,0.0
5.819899509999232,0.0,0.010476190476190476,0.0
5.823627251000289,0.0,0.010476190476190476,0.0
5.827858291999291,0.0,0.004029304029304029,0.0701098901098901
5.83134844199958,0.0,0.0,0.0
5.838520738998341,0.0,0.0,0.0
5.843074451997381,0.0,0.0,0.0
5.8439087189981365,0.0,0.02175824175824176,0.005641025641025641
5.84622668999873,0.0,0.02175824175824176,0.005641025641025641
5.851861303999613,0.0,0.02175824175824176,0.005641025641025641
5.8519749579972995,0.0,0.02175824175824176,0.005641025641025641
5.857823922997341,0.0,0.02175824175824176,0.005641025641025641
5.867126187997201,0.0,0.02175824175824176,0.005641025641025641
5.874952391997795,0.0,0.02175824175824176,0.005641025641025641
5.8813746529995115,0.0,0.006446886446886447,0.004029304029304029
5.886886453998159,0.0,0.006446886446886447,0.004029304029304029
5.896870312997635,0.0,0.006446886446886447,0.004029304029304029
5.902141354999912,0.0,0.014505494505494505,0.004029304029304029
5.904555004999565,0.0,0.014505494505494505,0.004029304029304029
5.910280631000205,0.0,0.014505494505494505,0.004029304029304029
5.918697621997126,0.0,0.014505494505494505,0.004029304029304029
5.9237296619976405,0.0,0.017728937728937726,0.0032234432234432234
5.92692121899745,0.0,0.017728937728937726,0.0032234432234432234
5.92716390699934,0.0,0.017728937728937726,0.0032234432234432234
5.934367234996898,0.0,0.017728937728937726,0.0032234432234432234
5.939031201000034,0.0,0.006446886446886447,0.0
5.939140824997594,0.0,0.010476190476190476,0.0016117216117216117
5.94595003699942,0.0,0.01531135531135531,0.0016117216117216117
5.951084053998784,0.0,0.01531135531135531,0.0016117216117216117
5.955030466997414,0.0,0.01531135531135531,0.0016117216117216117
5.957288497000263,0.0,0.01531135531135531,0.0016117216117216117
5.966170255000179,0.0,0.01531135531135531,0.0016117216117216117
5.9722032959980424,0.0,0.0,0.0
5.976244325996959,0.0,0.0273992673992674,0.02095238095238095
5.980465229997208,0.0,0.0273992673992674,0.02095238095238095
5.981443054999545,0.0,0.0273992673992674,0.02095238095238095
5.981690057997184,0.0,0.0273992673992674,0.02095238095238095
5.987386018998222,0.0,0.0273992673992674,0.02095238095238095
5.9875376769996365,0.0,0.0273992673992674,0.02095238095238095
5.993397649999679,0.0,0.0024175824175824176,0.0
6.0033164489977935,0.0,0.0,0.004835164835164835
6.012508645999333,0.0,0.0,0.004835164835164835
6.02055124799881,0.0,0.008058608058608058,0.0
6.0254977849981515,0.0,0.0,0.0
6.03273714199895,0.0,0.0,0.0
6.03658513299888,0.0,0.03223443223443223,0.03223443223443223
6.040475396999682,0.0,0.03223443223443223,0.03223443223443223
6.045488957999623,0.0,0.012893772893772894,0.0
6.052756853998289,0.0,0.012893772893772894,0.0
6.057252067999798,0.0,0.012893772893772894,0.0
6.057485600998916,0.0,0.012893772893772894,0.0
6.06649685499724,0.0,0.012893772893772894,0.0
6.071505257998069,0.0,0.0,0.0
6.0748831819983025,0.0,0.0,0.0
6.075090623999131,0.0,0.0,0.0419047619047619
6.082337414998619,0.0,0.0,0.0419047619047619
6.08622667599775,0.0,0.0,0.0419047619047619
6.090743912998732,0.0,0.0,0.0419047619047619
6.091851870998653,0.0,0.0,0.018534798534798533
6.092026211998018,0.0,0.0,0.018534798534798533
6.098440188998211,0.0,0.0,0.018534798534798533
6.102584632997605,0.0,0.0,0.018534798534798533
6.105642564998561,0.0,0.0,0.018534798534798533
6.10721907399784,0.0,0.0,0.007252747252747252
6.1112047449969396,0.0,0.0,0.007252747252747252
6.115915038997628,0.0,0.0,0.007252747252747252
6.120347672997013,0.0,0.0,0.007252747252747252
6.121134716999222,0.0,0.0,0.007252747252747252
6.1234715079990565,0.0,0.0,0.007252747252747252
6.123596866000298,0.0,0.0,0.007252747252747252
6.132330194999668,0.0,0.0,0.007252747252747252
6.139829342999292,0.0,0.006446886446886447,0.005641025641025641
6.1443080749995715,0.0,0.0032234432234432234,0.0
6.144624726999609,0.0,0.0032234432234432234,0.0
6.1514248339990445,0.0,0.0032234432234432234,0.0
6.155442747996858,0.0,0.0032234432234432234,0.0
6.159304626999074,0.0,0.0032234432234432234,0.0
6.165116615997249,0.0,0.025787545787545788,0.006446886446886447
6.169205435999174,0.0,0.025787545787545788,0.006446886446886447
6.171469742999761,0.0,0.025787545787545788,0.006446886446886447
6.171855875996698,0.0,0.025787545787545788,0.006446886446886447
6.177573011998902,0.0,0.025787545787545788,0.006446886446886447
6.177836278999166,0.0,0.008864468864468863,0.010476190476190476
6.1826354559998435,0.0,0.008864468864468863,0.010476190476190476
6.188043157999346,0.0,0.008864468864468863,0.010476190476190476
6.189122777999728,0.0,0.012893772893772894,0.0
6.189306633998058,0.0,0.012893772893772894,0.0
6.19524565899701,0.0,0.012893772893772894,0.0
6.200193671997113,0.0,0.006446886446886447,0.05318681318681319
6.2034789979989,0.0,0.006446886446886447,0.05318681318681319
6.203796906997013,0.0,0.004835164835164835,0.0008058608058608059
6.209809240997856,0.0,0.004835164835164835,0.0008058608058608059
6.214683851998416,0.0,0.004835164835164835,0.0008058608058608059
6.2186577479988046,0.0,0.016117216117216115,0.006446886446886447
6.222692070998164,0.0,0.016117216117216115,0.006446886446886447
6.225064996997389,0.0,0.016117216117216115,0.006446886446886447
6.225399152997852,0.0,0.016117216117216115,0.006446886446886447
6.23483135999777,0.0,0.016117216117216115,0.006446886446886447
6.242019992998394,0.0,0.016117216117216115,0.006446886446886447
6.249260393997247,0.0,0.016117216117216115,0.006446886446886447
6.2534392479974485,0.0,0.026593406593406595,0.025787545787545788
6.255808220998006,0.0,0.026593406593406595,0.025787545787545788
6.256044013000064,0.0,0.006446886446886447,0.0016117216117216117
6.263334866998775,0.0,0.006446886446886447,0.0016117216117216117
6.2670495200000005,0.0,0.0,0.0
6.270824097999139,0.0,0.0,0.0
6.27643639300004,0.0,0.0,0.0
6.276658976999897,0.0,0.0,0.0
6.283658846998151,0.0,0.0,0.0
6.288509701000294,0.0,0.0,0.0
6.293388238998887,0.0,0.0032234432234432234,0.0
6.2992092259992205,0.0,0.0032234432234432234,0.0
6.305511008999019,0.0,0.0032234432234432234,0.0
6.311326641000051,0.0,0.0032234432234432234,0.0
6.316841839998233,0.0,0.0032234432234432234,0.0
6.322135398997489,0.0,0.012893772893772894,0.029816849816849816
6.324400155997864,0.0,0.012893772893772894,0.029816849816849816
6.324588005998521,0.0,0.012893772893772894,0.029816849816849816
6.330248738999217,0.0,0.012893772893772894,0.029816849816849816
6.330424428997503,0.0,0.0,0.005641025641025641
6.3357389899974805,0.0,0.0,0.005641025641025641
6.338198120996822,0.0,0.0,0.005641025641025641
6.34276586699707,0.0,0.008058608058608058,0.020146520146520144
6.342926630997681,0.0,0.008058608058608058,0.020146520146520144
6.3482506169966655,0.0,0.008058608058608058,0.020146520146520144
6.350440762998915,0.0,0.004029304029304029,0.0
6.350658229999681,0.0,0.004029304029304029,0.0
6.356195065000065,0.0,0.004029304029304029,0.0
6.356397110997932,0.0,0.004029304029304029,0.0
6.361672885999724,0.0,0.006446886446886447,0.0016117216117216117
6.363888208998105,0.0,0.006446886446886447,0.0016117216117216117
6.364044461999583,0.0,0.006446886446886447,0.0016117216117216117
6.369244439996692,0.0,0.006446886446886447,0.0016117216117216117
6.372198729997763,0.0,0.0016117216117216117,0.0
6.374448285998369,0.0,0.0016117216117216117,0.0
6.375232241996855,0.0,0.0016117216117216117,0.0
6.377473468997778,0.0,0.0016117216117216117,0.0
6.377658803998202,0.0,0.0016117216117216117,0.0
6.382950348997838,0.0,0.0016117216117216117,0.0
6.386898384997039,0.0,0.0016117216117216117,0.0
6.389175257998431,0.0,0.0016117216117216117,0.0
6.389351680998516,0.0,0.0016117216117216117,0.0
6.394679515997268,0.0,0.0016117216117216117,0.0
6.396325955996872,0.0,0.0016117216117216117,0.0
6.399444097998639,0.0,0.0016117216117216117,0.0
6.400978356999985,0.0,0.0016117216117216117,0.0
6.405514630998368,0.0,0.012893772893772894,0.008864468864468863
6.4056651379978575,0.0,0.012893772893772894,0.008864468864468863
6.411334589996841,0.0,0.012893772893772894,0.008864468864468863
6.411458284997934,0.0,0.012893772893772894,0.008864468864468863
6.416630666997662,0.0,0.012893772893772894,0.008864468864468863
6.418937940998148,0.0,0.0024175824175824176,0.0
6.419083348999266,0.0,0.0024175824175824176,0.0
6.424431593997724,0.0,0.0024175824175824176,0.0
6.42613293300019,0.0,0.0024175824175824176,0.0
6.429139640997164,0.0,0.0024175824175824176,0.0
6.432076308999967,0.0,0.0024175824175824176,0.0
6.435086520999903,0.0,0.0024175824175824176,0.0
6.436741415000142,0.0,0.0024175824175824176,0.0
6.440456663996883,0.0,0.0024175824175824176,0.0
6.444428140999662,0.0,0.0024175824175824176,0.0
6.447377863998554,0.0,0.0024175824175824176,0.0
6.449645239998063,0.0,0.0024175824175824176,0.0
6.449909740000294,0.0,0.014505494505494505,0.0024175824175824176
6.455295058996853,0.0,0.014505494505494505,0.0024175824175824176
6.457660305997706,0.0,0.0032234432234432234,0.0
6.457795869999245,0.0,0.0032234432234432234,0.0
6.463134767000156,0.0,0.0032234432234432234,0.0
6.465688431999297,0.0,0.0032234432234432234,0.0
6.4702487559989095,0.0,0.010476190476190476,0.004835164835164835
6.4703134329975,0.0,0.010476190476190476,0.004835164835164835
6.47594317399853,0.0,0.010476190476190476,0.004835164835164835
6.47602001499763,0.0,0.010476190476190476,0.004835164835164835
6.481412285997067,0.0,0.010476190476190476,0.004835164835164835
6.4829858819975925,0.0,0.010476190476190476,0.004835164835164835
6.487433967999095,0.0,0.0,0.0
6.4882413589984935,0.0,0.0,0.0
6.490443908998714,0.0,0.0,0.0
6.490601038996829,0.0,0.0,0.0
6.49584846399739,0.0,0.0,0.0
6.498105004997342,0.0,0.0,0.0
6.498300264000136,0.0,0.0,0.0
6.503458317998593,0.0,0.0,0.0
6.506422004997148,0.0,0.0,0.0
6.508022802998312,0.0,0.012893772893772894,0.0024175824175824176
6.51261596599943,0.0,0.012893772893772894,0.0024175824175824176
6.512812965000194,0.0,0.012893772893772894,0.0024175824175824176
6.518402636000246,0.0,0.012893772893772894,0.0024175824175824176
6.518479161997675,0.0,0.012893772893772894,0.0024175824175824176
6.523883111996838,0.0,0.012893772893772894,0.0024175824175824176
6.52466115399875,0.0,0.0,0.007252747252747252
6.526282281000022,0.0,0.0,0.007252747252747252
6.530090909996943,0.0,0.0,0.007252747252747252
6.533881329996802,0.0,0.0,0.007252747252747252
6.538388293000025,0.0,0.0,0.007252747252747252
6.5392103679987486,0.0,0.0,0.007252747252747252
6.540748714000074,0.0,0.0,0.007252747252747252
6.545223582998005,0.0,0.0,0.007252747252747252
6.546061381999607,0.0,0.0,0.007252747252747252
6.547589757999958,0.0,0.0,0.007252747252747252
6.552076703999774,0.0,0.0,0.007252747252747252
6.552235177998227,0.0,0.008058608058608058,0.004835164835164835
6.5574496049994195,0.0,0.008058608058608058,0.004835164835164835
6.559142916998098,0.0,0.008058608058608058,0.004835164835164835
6.562856323998858,0.0,0.008058608058608058,0.004835164835164835
6.56732040299903,0.0,0.008058608058608058,0.004835164835164835
6.568988446997537,0.0,0.008058608058608058,0.004835164835164835
6.572909531998448,0.0,0.01531135531135531,0.0032234432234432234
6.576012738998543,0.0,0.01531135531135531,0.0032234432234432234
6.576883084999281,0.0,0.01531135531135531,0.0032234432234432234
6.578452149999066,0.0,0.01531135531135531,0.0032234432234432234
6.582400190000044,0.0,0.01531135531135531,0.0032234432234432234
6.586075760998938,0.0,0.01531135531135531,0.0032234432234432234
6.590602994998335,0.0,0.01531135531135531,0.0032234432234432234
6.59080100799838,0.0,0.01531135531135531,0.0032234432234432234
6.596145001996774,0.0,0.01531135531135531,0.0032234432234432234
6.598523313998157,0.0,0.01934065934065934,0.008058608058608058
6.604209264998644,0.0,0.01934065934065934,0.008058608058608058
6.604439945000195,0.0,0.02901098901098901,0.0136996336996337
6.609980578999966,0.0,0.02901098901098901,0.0136996336996337
6.610182640997664,0.0,0.02901098901098901,0.0136996336996337
6.615395351000188,0.0,0.02901098901098901,0.0136996336996337
6.617675661997055,0.0,0.02901098901098901,0.0136996336996337
6.618470290999539,0.0,0.02901098901098901,0.0136996336996337
6.620036786996934,0.0,0.02901098901098901,0.0136996336996337
6.624435153997183,0.0,0.02901098901098901,0.0136996336996337
6.625329133999912,0.0,0.02901098901098901,0.0136996336996337
6.627097558997775,0.0,0.02901098901098901,0.0136996336996337
6.630118211000081,0.0,0.02901098901098901,0.0136996336996337
6.6325039219991595,0.0,0.011282051282051281,0.006446886446886447
6.6326082889972895,0.0,0.011282051282051281,0.006446886446886447
6.638139366998075,0.0,0.011282051282051281,0.006446886446886447
6.638398011997197,0.0,0.01531135531135531,0.016117216117216115
6.643142582997825,0.0,0.01531135531135531,0.016117216117216115
6.643234309998661,0.0,0.01531135531135531,0.016117216117216115
6.650227160000213,0.0,0.01531135531135531,0.016117216117216115
6.654430331996991,0.0,0.004029304029304029,0.0
6.656584175998432,0.0,0.004029304029304029,0.0
6.656855346998782,0.0,0.004029304029304029,0.0
6.6657491469995875,0.0,0.004029304029304029,0.0
6.673073594996822,0.0,0.004029304029304029,0.0
6.678315432996897,0.0,0.004029304029304029,0.0
6.681417986997985,0.0,0.004029304029304029,0.0
6.683019614996738,0.0,0.004029304029304029,0.0
6.687558722998801,0.0,0.012893772893772894,0.010476190476190476
6.687755318998825,0.0,0.012893772893772894,0.010476190476190476
6.693870926999807,0.0,0.012893772893772894,0.010476190476190476
6.700012784996943,0.0,0.012893772893772894,0.010476190476190476
6.705766475999553,0.0,0.016117216117216115,0.0
6.713190710997878,0.0,0.006446886446886447,0.0008058608058608059
6.717699373999494,0.0,0.006446886446886447,0.0008058608058608059
6.719331894997595,0.0,0.006446886446886447,0.0008058608058608059
6.7224868509983935,0.0,0.006446886446886447,0.0008058608058608059
6.723351125998306,0.0,0.006446886446886447,0.0008058608058608059
6.7256110009984695,0.0,0.006446886446886447,0.0008058608058608059
6.725796095997794,0.0,0.006446886446886447,0.0008058608058608059
6.730994145000295,0.0,0.006446886446886447,0.0008058608058608059
6.734813551996922,0.0,0.006446886446886447,0.0008058608058608059
6.738010402998043,0.0,0.006446886446886447,0.0008058608058608059
6.738923150998744,0.0,0.006446886446886447,0.0008058608058608059
6.740519608996692,0.0,0.006446886446886447,0.0008058608058608059
6.744452048998937,0.0,0.006446886446886447,0.0008058608058608059
6.746887416997197,0.0,0.006446886446886447,0.0008058608058608059
6.752362814997468,0.0,0.006446886446886447,0.0008058608058608059
6.753992966998339,0.0,0.006446886446886447,0.0008058608058608059
6.7578971149996505,0.0,0.006446886446886447,0.0008058608058608059
6.762080180997145,0.0,0.0008058608058608059,0.0
6.763741438997386,0.0,0.0008058608058608059,0.0
6.767128698997112,0.0,0.0008058608058608059,0.0
6.7673781369994686,0.0,0.0024175824175824176,0.0
6.77343298499909,0.0,0.0024175824175824176,0.0
6.778338693999103,0.0,0.010476190476190476,0.011282051282051281
6.78354333599782,0.0,0.0008058608058608059,0.008058608058608058
6.785916951997933,0.0,0.017728937728937726,0.0008058608058608059
6.791157107996696,0.0,0.017728937728937726,0.0008058608058608059
6.794234711000172,0.0,0.017728937728937726,0.0008058608058608059
6.795963392996782,0.0,0.017728937728937726,0.0008058608058608059
6.798947097999189,0.0,0.017728937728937726,0.0008058608058608059
6.800551126998471,0.0,0.017728937728937726,0.0008058608058608059
6.80495818199779,0.0,0.017728937728937726,0.0008058608058608059
6.805956336000236,0.0,0.017728937728937726,0.0008058608058608059
6.806795557997248,0.0,0.017728937728937726,0.0008058608058608059
6.808351107996714,0.0,0.017728937728937726,0.0008058608058608059
6.812130137997883,0.0,0.017728937728937726,0.0008058608058608059
6.815948944997217,0.0,0.008864468864468863,0.007252747252747252
6.819853903998592,0.0,0.008864468864468863,0.007252747252747252
6.823792668998067,0.0,0.008864468864468863,0.007252747252747252
6.826988660999632,0.0,0.008864468864468863,0.007252747252747252
6.8278454760002205,0.0,0.008864468864468863,0.007252747252747252
6.829443627997534,0.0,0.008864468864468863,0.007252747252747252
6.834149700996932,0.0,0.008864468864468863,0.007252747252747252
6.8343111839967605,0.0,0.008864468864468863,0.007252747252747252
6.842140475997439,0.0,0.008864468864468863,0.007252747252747252
6.849352404999081,0.0,0.008864468864468863,0.007252747252747252
6.854836406997492,0.0,0.0008058608058608059,0.0
6.854969113999687,0.0,0.0008058608058608059,0.0
6.861494250999385,0.0,0.0008058608058608059,0.0
6.865262068997254,0.0,0.0,0.0024175824175824176
6.870495888997539,0.0,0.0,0.0024175824175824176
6.874189534999459,0.0,0.0,0.0024175824175824176
6.8785940219968325,0.0,0.0,0.0024175824175824176
6.878904119999788,0.0,0.0,0.0024175824175824176
6.884202593999362,0.0,0.01934065934065934,0.0419047619047619
6.887312809998548,0.0,0.01934065934065934,0.0419047619047619
6.888997704998474,0.0,0.01934065934065934,0.0419047619047619
6.892788479999581,0.0,0.01934065934065934,0.0419047619047619
6.89820408399828,0.0,0.01934065934065934,0.0419047619047619
6.89987672999996,0.0,0.01934065934065934,0.0419047619047619
6.903712991999782,0.0,0.01934065934065934,0.0419047619047619
6.908186335997016,0.0,0.01934065934065934,0.0419047619047619
6.909884659999079,0.0,0.01934065934065934,0.0419047619047619
6.91358675399897,0.0,0.01934065934065934,0.0419047619047619
6.91911898699982,0.0,0.01934065934065934,0.0419047619047619
6.921582549999584,0.0,0.01934065934065934,0.0419047619047619
6.927316797999083,0.0,0.0008058608058608059,0.0
6.928122695997445,0.0,0.012087912087912087,0.02095238095238095
6.929683200996806,0.0,0.012087912087912087,0.02095238095238095
6.9334236750000855,0.0,0.012087912087912087,0.02095238095238095
6.937294811999891,0.0,0.012087912087912087,0.02095238095238095
6.941091755998059,0.0,0.0,0.0
6.945926595999481,0.0,0.0,0.0
6.951433867998276,0.0,0.0,0.0
6.95238583599712,0.0,0.0,0.0
6.953240292998089,0.0,0.0,0.0
6.954800955998508,0.0,0.0,0.0
6.958768459997373,0.0,0.0,0.0
6.963512531998276,0.0,0.0,0.0
6.968383018000168,0.0,0.0016117216117216117,0.0032234432234432234
6.973068872997828,0.0,0.0016117216117216117,0.0032234432234432234
6.9786947809989215,0.0,0.0016117216117216117,0.0032234432234432234
6.979473811999924,0.0,0.0016117216117216117,0.0032234432234432234
6.981002742999408,0.0,0.0016117216117216117,0.0032234432234432234
6.985600036998221,0.0,0.0016117216117216117,0.0032234432234432234
6.985797523997462,0.0,0.0016117216117216117,0.0032234432234432234
6.9911059890000615,0.0,0.0016117216117216117,0.0032234432234432234
6.993351034998341,0.0,0.0016117216117216117,0.0032234432234432234
6.993504892998317,0.0,0.0016117216117216117,0.0032234432234432234
6.9988030809981865,0.0,0.0016117216117216117,0.0032234432234432234
7.001776417997462,0.0,0.0016117216117216117,0.0032234432234432234
7.003986554998846,0.0,0.0016117216117216117,0.0032234432234432234
7.004208736998407,0.0,0.01531135531135531,0.00967032967032967
7.009392554999067,0.0,0.01531135531135531,0.00967032967032967
7.012340712997684,0.0,0.012893772893772894,0.0
7.014576531997591,0.0,0.02095238095238095,0.016117216117216115
7.014906747997884,0.0,0.02095238095238095,0.016117216117216115
7.020111125999392,0.0,0.02095238095238095,0.016117216117216115
7.023103914998501,0.0,0.029816849816849816,0.024175824175824173
7.025435309999011,0.0,0.029816849816849816,0.024175824175824173
7.025619593998272,0.0,0.029816849816849816,0.024175824175824173
7.0313803699973505,0.0,0.029816849816849816,0.024175824175824173
7.03147172899844,0.0,0.029816849816849816,0.024175824175824173
7.036721589000081,0.0,0.029816849816849816,0.024175824175824173
7.040439765998599,0.0,0.029816849816849816,0.024175824175824173
7.045515653997427,0.0,0.029816849816849816,0.024175824175824173
7.047068267998839,0.0,0.029816849816849816,0.024175824175824173
7.051512543999706,0.0,0.029816849816849816,0.024175824175824173
7.053048769997986,0.0,0.02336996336996337,0.004835164835164835
7.056897833997937,0.0,0.02336996336996337,0.004835164835164835
7.061497664999479,0.0,0.02336996336996337,0.004835164835164835
7.061610688997462,0.0,0.02336996336996337,0.004835164835164835
7.067325475996768,0.0,0.02336996336996337,0.004835164835164835
7.067499105996831,0.0,0.02336996336996337,0.004835164835164835
7.072708307998255,0.0,0.02336996336996337,0.004835164835164835
7.074955731997761,0.0,0.02336996336996337,0.004835164835164835
7.075116889998753,0.0,0.02336996336996337,0.004835164835164835
7.080272057999537,0.0,0.02336996336996337,0.004835164835164835
7.0833308169967495,0.0,0.0008058608058608059,0.0
7.0856039989994315,0.0,0.0008058608058608059,0.0
7.085795232997043,0.0,0.0008058608058608059,0.0
7.091026620997582,0.0,0.0136996336996337,0.01934065934065934
7.094167924999056,0.0,0.0136996336996337,0.01934065934065934
7.095953502997872,0.0,0.0136996336996337,0.01934065934065934
7.099126878998504,0.0,0.0136996336996337,0.01934065934065934
7.100716726999963,0.0,0.0136996336996337,0.01934065934065934
7.105658232998394,0.0,0.0136996336996337,0.01934065934065934
7.1086958489977405,0.0,0.01531135531135531,0.014505494505494505
7.11167892499725,0.0,0.0032234432234432234,0.011282051282051281
7.113904893998551,0.0,0.0032234432234432234,0.011282051282051281
7.11404919999768,0.0,0.0032234432234432234,0.011282051282051281
7.11950538399833,0.0,0.0032234432234432234,0.011282051282051281
7.121002292999037,0.0,0.0032234432234432234,0.011282051282051281
7.125437054997747,0.0,0.0032234432234432234,0.011282051282051281
7.1263967839986435,0.0,0.0032234432234432234,0.011282051282051281
7.127658561999851,0.0,0.0032234432234432234,0.011282051282051281
7.136872842998855,0.0,0.0032234432234432234,0.011282051282051281
7.146260554996843,0.0,0.0,0.0
7.154618931999721,0.0,0.0,0.0
7.160473678999551,0.0,0.016923076923076923,0.0
7.170432050999807,0.0,0.016923076923076923,0.0
7.178801051999471,0.0,0.0,0.052380952380952375
7.183636629997636,0.0,0.0,0.052380952380952375
7.189606195999659,0.0,0.0,0.052380952380952375
7.195072031998279,0.0,0.0,0.052380952380952375
7.195939427998383,0.0,0.0,0.052380952380952375
7.1982607879981515,0.0,0.0,0.052380952380952375
7.198362880997593,0.0,0.012893772893772894,0.0
7.207105731999036,0.0,0.02175824175824176,0.0
7.21518729699892,0.0,0.0,0.0
7.224557080997329,0.0,0.0,0.0
7.232707105998998,0.0,0.0,0.0
7.237974036997912,0.0,0.0,0.0
7.240629963998799,0.0,0.0,0.0
7.244198979999055,0.0,0.0,0.0032234432234432234
7.25092054599736,0.0,0.016117216117216115,0.02336996336996337
7.256495873996755,0.0,0.016117216117216115,0.02336996336996337
7.264653743997769,0.0,0.016117216117216115,0.02336996336996337
7.272171485998115,0.0,0.016117216117216115,0.02336996336996337
7.279133268999431,0.0,0.00967032967032967,0.0
7.28465977399901,0.0,0.00967032967032967,0.0
7.292983895997168,0.0,0.016923076923076923,0.01934065934065934
7.297646199000155,0.0,0.017728937728937726,0.0
7.303120101998502,0.0,0.0,0.006446886446886447
7.303425753998454,0.0,0.0,0.006446886446886447
7.308329707997473,0.0,0.0,0.006446886446886447
7.312074681998638,0.0,0.0,0.006446886446886447
7.315974291999737,0.0,0.0,0.006446886446886447
7.319904859999951,0.0,0.01531135531135531,0.01934065934065934
7.323794986998109,0.0,0.01531135531135531,0.01934065934065934
7.327559550998558,0.0,0.01531135531135531,0.01934065934065934
7.3322355579985015,0.0,0.01531135531135531,0.01934065934065934
7.332306931999483,0.0,0.01531135531135531,0.01934065934065934
7.337860723997437,0.0,0.01531135531135531,0.01934065934065934
7.338797362997866,0.0,0.01531135531135531,0.01934065934065934
7.339698613999644,0.0,0.01531135531135531,0.01934065934065934
7.34125423200021,0.0,0.01531135531135531,0.01934065934065934
7.344996657997399,0.0,0.01531135531135531,0.01934065934065934
7.349583036997501,0.0,0.01531135531135531,0.01934065934065934
7.349869776997366,0.0,0.007252747252747252,0.010476190476190476
7.355271919997904,0.0,0.007252747252747252,0.010476190476190476
7.35681452299832,0.0,0.007252747252747252,0.010476190476190476
7.36062213599871,0.0,0.007252747252747252,0.010476190476190476
7.365137210999819,0.0,0.007252747252747252,0.010476190476190476
7.365300516998104,0.0,0.016923076923076923,0.0
7.370607658998779,0.0,0.016923076923076923,0.0
7.372304546999658,0.0,0.016923076923076923,0.0
7.376758696998877,0.0,0.016923076923076923,0.0
7.377583781999419,0.0,0.0136996336996337,0.02336996336996337
7.379217180998239,0.0,0.0136996336996337,0.02336996336996337
7.3830425619999005,0.0,0.0136996336996337,0.02336996336996337
7.387539822997496,0.0,0.0136996336996337,0.02336996336996337
7.387835789999372,0.0,0.0136996336996337,0.02336996336996337
7.393272754998179,0.0,0.0136996336996337,0.02336996336996337
7.394158521998179,0.0,0.0136996336996337,0.02336996336996337
7.3958345869978075,0.0,0.0136996336996337,0.02336996336996337
7.400359529998241,0.0,0.0136996336996337,0.02336996336996337
7.400532309999107,0.0,0.0,0.0
7.405876000997523,0.0,0.0,0.0
7.4074252529972,0.0,0.0,0.0
7.41121048399873,0.0,0.0,0.0
7.415063567998004,0.0,0.0,0.0
7.418860747999133,0.0,0.0,0.0
7.423399557999801,0.0,0.0,0.0
7.42423820499971,0.0,0.0,0.0
7.425996851998207,0.0,0.0,0.0
7.429286388996843,0.0,0.0,0.0
7.429525906998606,0.0,0.0,0.0
7.434934085998975,0.0,0.0,0.0
7.437982578998344,0.0,0.0,0.0
7.440200744997128,0.0,0.0,0.0
7.4404019199973845,0.0,0.0,0.0
7.445833128997037,0.0,0.0,0.0
7.446690258999297,0.0,0.0032234432234432234,0.0
7.448267446998216,0.0,0.0032234432234432234,0.0
7.452191967997351,0.0,0.0032234432234432234,0.0
7.455254106000211,0.0,0.011282051282051281,0.0
7.457704002998071,0.0,0.011282051282051281,0.0
7.457802312997956,0.0,0.011282051282051281,0.0
7.463185894997878,0.0,0.011282051282051281,0.0
7.464853700999811,0.0,0.011282051282051281,0.0
7.469700883997575,0.0,0.011282051282051281,0.0
7.47336072699909,0.0,0.016923076923076923,0.0
7.477527252998698,0.0,0.005641025641025641,0.01531135531135531
7.480407349998131,0.0,0.012893772893772894,0.0
7.48391664799783,0.0,0.012893772893772894,0.0
7.484097816999565,0.0,0.012893772893772894,0.0
7.490977399000258,0.0,0.012893772893772894,0.0
7.497071014997346,0.0,0.0,0.0
7.501070024998626,0.0,0.0,0.0
7.504153133999353,0.0,0.0,0.0
7.506494011999166,0.0,0.0,0.0
7.506744436999725,0.0,0.0,0.0
7.512187941996672,0.0,0.0,0.0
7.513050408997515,0.0,0.0,0.0
7.514512465997541,0.0,0.0,0.0
7.519388224998693,0.0,0.0,0.0
7.5194709850002255,0.0,0.0,0.0
7.524357050999242,0.0,0.0,0.0
7.524450043998513,0.0,0.0,0.0
7.529505708997021,0.0,0.0,0.0
7.532728045996919,0.0,0.0,0.0
7.533563637000043,0.0,0.016117216117216115,0.0
7.53515888399852,0.0,0.016117216117216115,0.0
7.539183664997836,0.0,0.022564102564102562,0.016117216117216115
7.542299299999286,0.0,0.022564102564102562,0.016117216117216115
7.544573942999705,0.0,0.022564102564102562,0.016117216117216115
7.5448082119983155,0.0,0.022564102564102562,0.016117216117216115
7.550087255000108,0.0,0.022564102564102562,0.016117216117216115
7.552400125998247,0.0,0.022564102564102562,0.016117216117216115
7.552612453997426,0.0,0.0,0.025787545787545788
7.55792519500028,0.0,0.0,0.025787545787545788
7.560220911997021,0.0,0.0,0.025787545787545788
7.560405178999645,0.0,0.0032234432234432234,0.0
7.565670074996888,0.0,0.0032234432234432234,0.0
7.567127365997294,0.0,0.0032234432234432234,0.0
7.571324677999655,0.0,0.016117216117216115,0.00967032967032967
7.5740698219997284,0.0,0.016117216117216115,0.00967032967032967
7.578237107998575,0.0,0.016117216117216115,0.00967032967032967
7.58037788799993,0.0,0.016117216117216115,0.00967032967032967
7.581181036999624,0.0,0.010476190476190476,0.004029304029304029
7.583334541999648,0.0,0.010476190476190476,0.004029304029304029
7.584074695998424,0.0,0.010476190476190476,0.004029304029304029
7.586208245997113,0.0,0.010476190476190476,0.004029304029304029
7.586963298999763,0.0,0.010476190476190476,0.004029304029304029
7.589069866997306,0.0,0.010476190476190476,0.004029304029304029
7.590463676999207,0.0,0.010476190476190476,0.004029304029304029
7.5952737879997585,0.0,0.010476190476190476,0.004029304029304029
7.600014379997447,0.0,0.010476190476190476,0.004029304029304029
7.600097963997541,0.0,0.010476190476190476,0.004029304029304029
7.604916371998115,0.0,0.010476190476190476,0.004029304029304029
7.604996355999901,0.0,0.010476190476190476,0.004029304029304029
7.609829427998193,0.0,0.010476190476190476,0.004029304029304029
7.614682408999215,0.0,0.010476190476190476,0.004029304029304029
7.619620683999528,0.0,0.010476190476190476,0.004029304029304029
7.6231415909969655,0.0,0.010476190476190476,0.004029304029304029
7.62387885699718,0.0,0.010476190476190476,0.004029304029304029
7.625953285998548,0.0,0.010476190476190476,0.004029304029304029
7.626891607997095,0.0,0.010476190476190476,0.004029304029304029
7.62768641999719,0.0,0.010476190476190476,0.004029304029304029
7.629756420999911,0.0,0.010476190476190476,0.004029304029304029
7.6305140999975265,0.0,0.010476190476190476,0.004029304029304029
7.631988667999394,0.0,0.010476190476190476,0.004029304029304029
7.636903432998224,0.0,0.010476190476190476,0.004029304029304029
7.641783145998488,0.0,0.010476190476190476,0.004029304029304029
7.64188526399812,0.0,0.010476190476190476,0.004029304029304029
7.646734595997259,0.0,0.010476190476190476,0.004029304029304029
7.646797550998599,0.0,0.010476190476190476,0.004029304029304029
7.651668775997678,0.0,0.010476190476190476,0.004029304029304029
7.656442595998669,0.0,0.005641025641025641,0.0
7.661443535998842,0.0,0.005641025641025641,0.0
7.666262079997978,0.0,0.018534798534798533,0.016923076923076923
7.671152518996678,0.0,0.018534798534798533,0.016923076923076923
7.6761071079999965,0.0,0.018534798534798533,0.016923076923076923
7.680283667999902,0.0,0.018534798534798533,0.016923076923076923
7.682456173999526,0.0,0.018534798534798533,0.016923076923076923
7.683206763998896,0.0,0.018534798534798533,0.016923076923076923
7.68532161499752,0.0,0.018534798534798533,0.016923076923076923
7.686138527998992,0.0,0.018534798534798533,0.016923076923076923
7.688235819998226,0.0,0.018534798534798533,0.016923076923076923
7.689657997998438,0.0,0.018534798534798533,0.016923076923076923
7.689751881996926,0.0,0.018534798534798533,0.016923076923076923
7.69469256299999,0.0,0.018534798534798533,0.016923076923076923
7.6996615449970705,0.0,0.018534798534798533,0.016923076923076923
7.704459669999778,0.0,0.018534798534798533,0.016923076923076923
7.704666962999909,0.0,0.018534798534798533,0.016923076923076923
7.709496348998073,0.0,0.018534798534798533,0.016923076923076923
7.709560403000069,0.0,0.018534798534798533,0.016923076923076923
7.714404602997092,0.0,0.018534798534798533,0.016923076923076923
7.714469624999765,0.0,0.018534798534798533,0.016923076923076923
7.719340709998505,0.0,0.018534798534798533,0.016923076923076923
7.723435439998866,0.0,0.018534798534798533,0.016923076923076923
7.72623197899884,0.0,0.008058608058608058,0.0
7.730708901999606,0.0,0.008058608058608058,0.0
7.730887884998083,0.0,0.008058608058608058,0.0
