time,emg1,emg2,emg3
0.00303429099949426,0.0,0.02336996336996337,0.01934065934065934
0.04237432700028876,0.0,0.02336996336996337,0.01934065934065934
0.042770348001795355,0.0,0.016923076923076923,0.004835164835164835
0.0531269590028387,0.0,0.016923076923076923,0.004835164835164835
0.0601091720018303,0.0,0.016923076923076923,0.004835164835164835
0.06567672200253583,0.0,0.016923076923076923,0.004835164835164835
0.06587597800171352,0.0,0.010476190476190476,0.0
0.07193280800129287,0.0,0.010476190476190476,0.0
0.07562447999953292,0.0,0.010476190476190476,0.0
0.08365802400294342,0.0,0.0,0.012893772893772894
0.09170551500210422,0.0,0.00967032967032967,0.006446886446886447
0.09899667700301507,0.0,0.01531135531135531,0.0
0.10434452200206579,0.0,0.01531135531135531,0.0
0.10461560800104053,0.0,0.01531135531135531,0.0
0.1105912970015197,0.0,0.008864468864468863,0.022564102564102562
0.11474982700019609,0.0,0.008864468864468863,0.022564102564102562
0.1164550710018375,0.0,0.008864468864468863,0.022564102564102562
0.12045117600064259,0.0,0.025787545787545788,0.024175824175824173
0.12350721300026635,0.0,0.025787545787545788,0.024175824175824173
0.12582934700185433,0.0,0.025787545787545788,0.024175824175824173
0.1259916630006046,0.0,0.025787545787545788,0.024175824175824173
0.13136924400168937,0.0,0.025787545787545788,0.024175824175824173
0.13370412400036003,0.0,0.025787545787545788,0.024175824175824173
0.13387572200008435,0.0,0.025787545787545788,0.024175824175824173
0.13921157200093148,0.0,0.025787545787545788,0.024175824175824173
0.14076211599967792,0.0,0.025787545787545788,0.024175824175824173
0.1445195970009081,0.0,0.025787545787545788,0.024175824175824173
0.14932647200112115,0.0,0.010476190476190476,0.022564102564102562
0.1577555450021464,0.0,0.010476190476190476,0.022564102564102562
0.16158463200190454,0.0,0.0024175824175824176,0.0
0.16612163100217003,0.0,0.0024175824175824176,0.0
0.16628205700180843,0.0,0.0024175824175824176,0.0
0.17203580800196505,0.0,0.0024175824175824176,0.0
0.17233308399954694,0.0,0.0024175824175824176,0.0
0.1823960600013379,0.0,0.0024175824175824176,0.0
0.19173439100268297,0.0,0.0024175824175824176,0.0
0.20065949400304817,0.0,0.0024175824175824176,0.0
0.20691955700021936,0.0,0.0024175824175824176,0.0
0.2112390090005647,0.0,0.0,0.022564102564102562
0.21373161600058665,0.0,0.02095238095238095,0.005641025641025641
0.21900766200269572,0.0,0.02095238095238095,0.005641025641025641
0.22280357899944647,0.0,0.008058608058608058,0.0024175824175824176
0.22872676699989825,0.0,0.0,0.0
0.23673288600184605,0.0,0.0,0.0
0.24266864600213012,0.0,0.0,0.0
0.24828044300011243,0.0,0.014505494505494505,0.0273992673992674
0.24848318500153255,0.0,0.020146520146520144,0.012893772893772894
0.25509858400255325,0.0,0.017728937728937726,0.0
0.26099742900260026,0.0,0.017728937728937726,0.0
0.2678477580011531,0.0,0.0,0.029816849816849816
0.2723292280024907,0.0,0.0,0.029816849816849816
0.27253512400056934,0.0,0.0,0.029816849816849816
0.27751304200137383,0.0,0.0,0.029816849816849816
0.28204259099948104,0.0,0.0,0.029816849816849816
0.28947307000271394,0.0,0.0,0.029816849816849816
0.29438582900183974,0.0,0.0,0.029816849816849816
0.3040322289998585,0.0,0.0,0.029816849816849816
0.3105243280006107,0.0,0.0,0.029816849816849816
0.31436908100295113,0.0,0.0,0.006446886446886447
0.32035478300167597,0.0,0.004029304029304029,0.004835164835164835
0.32487216600202373,0.0,0.004029304029304029,0.004835164835164835
0.3250399540011131,0.0,0.0024175824175824176,0.008864468864468863
0.331717185999878,0.0,0.0024175824175824176,0.008864468864468863
0.3361482190011884,0.0,0.0,0.0016117216117216117
0.33632349199979217,0.0,0.0,0.0016117216117216117
0.34208066900100675,0.0,0.0,0.0016117216117216117
0.3491560930015112,0.0,0.0,0.0016117216117216117
0.3532340750025469,0.0,0.0,0.0016117216117216117
0.35430925200125785,0.0,0.0,0.0016117216117216117
0.3545680160023039,0.0,0.0,0.0016117216117216117
0.3610273430022062,0.0,0.0,0.0016117216117216117
0.3665699070006667,0.0,0.012893772893772894,0.007252747252747252
0.3678346600026998,0.0,0.004835164835164835,0.0032234432234432234
0.3737732469999173,0.0,0.00967032967032967,0.0008058608058608059
0.37878801000260864,0.0,0.00967032967032967,0.0008058608058608059
0.3845337359998666,0.0,0.00967032967032967,0.0008058608058608059
0.39063858200097457,0.0,0.00967032967032967,0.0008058608058608059
0.39470257500215666,0.0,0.02175824175824176,0.00967032967032967
0.39886753700193367,0.0,0.02175824175824176,0.00967032967032967
0.4014073920006922,0.0,0.02175824175824176,0.00967032967032967
0.40656231400134857,0.0,0.02175824175824176,0.00967032967032967
0.4099041400004353,0.0,0.02175824175824176,0.00967032967032967
0.410785455002042,0.0,0.02175824175824176,0.00967032967032967
0.4124679330016079,0.0,0.02175824175824176,0.00967032967032967
0.41883479300304316,0.0,0.02175824175824176,0.00967032967032967
0.42218144700018456,0.0,0.02175824175824176,0.00967032967032967
0.4225034110022534,0.0,0.016923076923076923,0.012087912087912087
0.42807900100160623,0.0,0.016923076923076923,0.012087912087912087
0.42819229800079484,0.0,0.016923076923076923,0.012087912087912087
0.4358842790024937,0.0,0.016923076923076923,0.012087912087912087
0.44002443000135827,0.0,0.007252747252747252,0.012087912087912087
0.44256856300125946,0.0,0.007252747252747252,0.012087912087912087
0.4495055030020012,0.0,0.007252747252747252,0.012087912087912087
0.4559023520014307,0.0,0.007252747252747252,0.012087912087912087
0.4612697370030219,0.0,0.007252747252747252,0.012087912087912087
0.4614817360015877,0.0,0.004835164835164835,0.014505494505494505
0.4688965250024921,0.0,0.004835164835164835,0.014505494505494505
0.47332850200109533,0.0,0.004835164835164835,0.014505494505494505
0.47362550600155373,0.0,0.007252747252747252,0.0
0.4793756430008216,0.0,0.007252747252747252,0.0
0.47947634299998754,0.0,0.007252747252747252,0.0
0.4874094970000442,0.0,0.007252747252747252,0.0
0.49319157200079644,0.0,0.006446886446886447,0.0024175824175824176
0.49347770100212074,0.0,0.006446886446886447,0.0024175824175824176
0.5008879090019036,0.0,0.006446886446886447,0.0024175824175824176
0.5054247150001174,0.0,0.006446886446886447,0.0024175824175824176
0.5055942590006453,0.0,0.006446886446886447,0.0024175824175824176
0.5112972750030167,0.0,0.006446886446886447,0.0024175824175824176
0.5114761350014305,0.0,0.006446886446886447,0.0024175824175824176
0.5195799700013595,0.0,0.006446886446886447,0.0024175824175824176
0.5244486410010722,0.0,0.006446886446886447,0.0024175824175824176
0.5285105969996948,0.0,0.006446886446886447,0.0024175824175824176
0.5318947449995903,0.0,0.006446886446886447,0.0024175824175824176
0.5386873669995111,0.0,0.006446886446886447,0.0024175824175824176
0.5435379700029443,0.0,0.0016117216117216117,0.0032234432234432234
0.5500488400030008,0.0,0.00967032967032967,0.01531135531135531
0.5538664430023346,0.0,0.00967032967032967,0.01531135531135531
0.5572613130025275,0.0,0.00967032967032967,0.01531135531135531
0.5576068260015745,0.0,0.00967032967032967,0.01531135531135531
0.5633912020020944,0.0,0.00967032967032967,0.01531135531135531
0.5710432609994314,0.0,0.00967032967032967,0.01531135531135531
0.5759994870022638,0.0,0.00967032967032967,0.01531135531135531
0.5816514050020487,0.0,0.00967032967032967,0.01531135531135531
0.581987724002829,0.0,0.00967032967032967,0.01531135531135531
0.5886200150016521,0.0,0.00967032967032967,0.01531135531135531
0.5919460959994467,0.0,0.00967032967032967,0.01531135531135531
0.5935756790022424,0.0,0.0,0.005641025641025641
0.5985581720015034,0.0,0.0,0.005641025641025641
0.6040454290014168,0.0,0.011282051282051281,0.03868131868131868
0.6042934530014463,0.0,0.011282051282051281,0.03868131868131868
0.6099067440009094,0.0,0.011282051282051281,0.03868131868131868
0.610762660002365,0.0,0.008058608058608058,0.018534798534798533
0.6124579900024401,0.0,0.008058608058608058,0.018534798534798533
0.6185201700027392,0.0,0.008058608058608058,0.018534798534798533
0.6227921710014925,0.0,0.008058608058608058,0.018534798534798533
0.6230336340013309,0.0,0.008058608058608058,0.018534798534798533
0.6278922380006406,0.0,0.008058608058608058,0.018534798534798533
0.6362219930015272,0.0,0.016117216117216115,0.0
0.6431870119995438,0.0,0.016117216117216115,0.0
0.6501729830015393,0.0,0.016117216117216115,0.0
0.6538115670009574,0.0,0.016117216117216115,0.0
0.6586527370018302,0.0,0.016117216117216115,0.0
0.6626600090021384,0.0,0.016117216117216115,0.0
0.6694793839997146,0.0,0.016117216117216115,0.0
0.6742189760007022,0.0,0.016117216117216115,0.0
0.6782122580007126,0.0,0.016117216117216115,0.0
0.6838768279994838,0.0,0.016117216117216115,0.0
0.690240880001511,0.0,0.0,0.0016117216117216117
0.6943365760016604,0.0,0.0,0.0
0.6978498890021001,0.0,0.0032234432234432234,0.0
0.6980258990006405,0.0,0.0032234432234432234,0.0
0.7038398570002755,0.0,0.0032234432234432234,0.0
0.7107138009996561,0.0,0.0032234432234432234,0.0
0.716186606001429,0.0,0.0032234432234432234,0.0
0.7162576330010779,0.0,0.0032234432234432234,0.0
0.7220899990024918,0.0,0.0032234432234432234,0.0
0.7268786340027873,0.0,0.0032234432234432234,0.0
0.733412566001789,0.0,0.0032234432234432234,0.0
0.7367444910014456,0.0,0.0,0.03868131868131868
0.7376402260015311,0.0,0.0,0.03868131868131868
0.7387090840020392,0.0,0.0,0.03868131868131868
0.7395722960027342,0.0,0.0,0.03868131868131868
0.7404855599997973,0.0,0.0,0.03868131868131868
0.742099393002718,0.0,0.0,0.03868131868131868
0.7452465189999202,0.0,0.0,0.03868131868131868
0.7462154740023834,0.0,0.0,0.03868131868131868
0.7471567169995978,0.0,0.0,0.03868131868131868
0.7487251610000385,0.0,0.0,0.03868131868131868
0.7531579390015395,0.0,0.0,0.03868131868131868
0.7533757439996407,0.0,0.0,0.03868131868131868
0.7589955650000775,0.0,0.0,0.03868131868131868
0.7660214019997511,0.0,0.012893772893772894,0.0
0.7708414520020597,0.0,0.011282051282051281,0.004029304029304029
0.7756505710021884,0.0,0.011282051282051281,0.004029304029304029
0.7804382210015319,0.0,0.011282051282051281,0.004029304029304029
0.7897724470021785,0.0,0.011282051282051281,0.004029304029304029
0.7966243260016199,0.0,0.011282051282051281,0.004029304029304029
0.8032869180024136,0.0,0.011282051282051281,0.004029304029304029
0.8105804059996444,0.0,0.011282051282051281,0.004029304029304029
0.8163405410014093,0.0,0.008058608058608058,0.02095238095238095
0.8256867070012959,0.0,0.01934065934065934,0.008864468864468863
0.8344727969997621,0.0,0.01934065934065934,0.008864468864468863
0.8409819610023987,0.0,0.01934065934065934,0.008864468864468863
0.8463704120003968,0.0,0.016923076923076923,0.014505494505494505
0.8466473870030313,0.0,0.024175824175824173,0.03223443223443223
0.8558191720003379,0.0,0.024175824175824173,0.03223443223443223
0.861494490000041,0.0,0.0,0.0
0.8616475710005034,0.0,0.0,0.0
0.8691170810016047,0.0,0.0,0.0
0.8737558120010362,0.0,0.0,0.0
0.8740575280025951,0.0,0.007252747252747252,0.0016117216117216117
0.8787235150011838,0.0,0.007252747252747252,0.0016117216117216117
0.8788215830027184,0.0,0.007252747252747252,0.0016117216117216117
0.8900972840019676,0.0,0.007252747252747252,0.0016117216117216117
0.89502565300063,0.0,0.0024175824175824176,0.0008058608058608059
0.9051174119995267,0.0,0.0024175824175824176,0.0008058608058608059
0.9145994919999794,0.0,0.0024175824175824176,0.0008058608058608059
0.9222108400026627,0.0,0.0024175824175824176,0.0008058608058608059
0.9273403389997839,0.0,0.0024175824175824176,0.0008058608058608059
0.9313420680009585,0.0,0.02095238095238095,0.0032234432234432234
0.9352990280021913,0.0,0.02095238095238095,0.0032234432234432234
0.9379811239996343,0.0,0.02095238095238095,0.0032234432234432234
0.9420996480002941,0.0,0.02095238095238095,0.0032234432234432234
0.9435975730011705,0.0,0.02095238095238095,0.0032234432234432234
0.9509668810023868,0.0,0.02095238095238095,0.0032234432234432234
0.9553714980029326,0.0,0.02095238095238095,0.0032234432234432234
0.956276565000735,0.0,0.014505494505494505,0.0
0.9572729870014882,0.0,0.014505494505494505,0.0
0.9582467430009274,0.0,0.014505494505494505,0.0
0.9591160050003964,0.0,0.014505494505494505,0.0
0.9607318260023021,0.0,0.014505494505494505,0.0
0.9654621080007928,0.0,0.014505494505494505,0.0
0.9748507320000499,0.0,0.014505494505494505,0.0
0.9807550130026357,0.0,0.014505494505494505,0.0
0.9808311609995144,0.0,0.014505494505494505,0.0
0.9882942460026243,0.0,0.014505494505494505,0.0
0.9932501370021782,0.0,0.014505494505494505,0.0
0.9964482320028765,0.0,0.014505494505494505,0.0
0.9988528739995672,0.0,0.0,0.006446886446886447
1.0056458600010956,0.0,0.0,0.006446886446886447
1.0096343920013169,0.0,0.0,0.029816849816849816
1.013584129002993,0.0,0.006446886446886447,0.004835164835164835
1.0192969560011989,0.0,0.006446886446886447,0.004835164835164835
1.027721485002985,0.0,0.006446886446886447,0.004835164835164835
1.0356338160017913,0.0,0.016117216117216115,0.012893772893772894
1.0398331100004725,0.0,0.012893772893772894,0.029816849816849816
1.041766894999455,0.0,0.012893772893772894,0.029816849816849816
1.0442570180020994,0.0,0.012893772893772894,0.029816849816849816
1.0530704550001246,0.0,0.012893772893772894,0.029816849816849816
1.057936248002079,0.0,0.012893772893772894,0.029816849816849816
1.0643782280021696,0.0,0.012893772893772894,0.029816849816849816
1.068535062000592,0.0,0.016117216117216115,0.02901098901098901
1.0703554829997302,0.0,0.0032234432234432234,0.01934065934065934
1.0728127660004247,0.0,0.0032234432234432234,0.01934065934065934
1.0787743120017694,0.0,0.0032234432234432234,0.01934065934065934
1.085273104999942,0.0,0.0032234432234432234,0.01934065934065934
1.0885408160029328,0.0,0.0008058608058608059,0.0
1.090185630000633,0.0,0.0008058608058608059,0.0
1.0933681440001237,0.0,0.0008058608058608059,0.0
1.0942660300024727,0.0,0.0008058608058608059,0.0
1.0958055360024446,0.0,0.0008058608058608059,0.0
1.099634944999707,0.0,0.008058608058608058,0.006446886446886447
1.1035656670028402,0.0,0.008058608058608058,0.006446886446886447
1.1080745370018121,0.0,0.008058608058608058,0.006446886446886447
1.108178187001613,0.0,0.008058608058608058,0.006446886446886447
1.1134583590028342,0.0,0.008058608058608058,0.006446886446886447
1.1149970700025733,0.0,0.008058608058608058,0.006446886446886447
1.1187674180000613,0.0,0.008058608058608058,0.006446886446886447
1.1233498690016859,0.0,0.0024175824175824176,0.010476190476190476
1.123538842999551,0.0,0.0024175824175824176,0.010476190476190476
1.1290164130004996,0.0,0.0024175824175824176,0.010476190476190476
1.1300344209994364,0.0,0.0024175824175824176,0.010476190476190476
1.1302866750011162,0.0,0.0024175824175824176,0.010476190476190476
1.1363486150003155,0.0,0.0024175824175824176,0.010476190476190476
1.1403877459997602,0.0,0.01934065934065934,0.00967032967032967
1.1443213730017305,0.0,0.01934065934065934,0.00967032967032967
1.1467404210015957,0.0,0.01934065934065934,0.00967032967032967
1.146884736001084,0.0,0.01934065934065934,0.00967032967032967
1.1525609340023948,0.0,0.01934065934065934,0.00967032967032967
1.1526772260003781,0.0,0.01934065934065934,0.00967032967032967
1.1583242199994856,0.0,0.01934065934065934,0.00967032967032967
1.1584853900021699,0.0,0.01934065934065934,0.00967032967032967
1.1647255120005866,0.0,0.01934065934065934,0.00967032967032967
1.1689220830012346,0.0,0.0024175824175824176,0.0136996336996337
1.1713822880010412,0.0,0.0024175824175824176,0.0136996336996337
1.1715004120014783,0.0,0.0024175824175824176,0.0136996336996337
1.1837442290016043,0.0,0.0024175824175824176,0.0136996336996337
1.1912910530008958,0.0,0.00967032967032967,0.02336996336996337
1.1975375800029724,0.0,0.00967032967032967,0.02336996336996337
1.203213742999651,0.0,0.00967032967032967,0.02336996336996337
1.2085924550010532,0.0,0.00967032967032967,0.02336996336996337
1.2116189879998274,0.0,0.00967032967032967,0.02336996336996337
1.2132729740005743,0.0,0.00967032967032967,0.02336996336996337
1.217258804001176,0.0,0.00967032967032967,0.02336996336996337
1.2195539490021474,0.0,0.00967032967032967,0.02336996336996337
1.219673978001083,0.0,0.0,0.0
1.2250402060017223,0.0,0.0,0.0
1.2266523739999684,0.0,0.0,0.0
1.2315700790022674,0.0,0.0,0.0
1.236165828002413,0.0,0.0,0.0
1.2364228930018726,0.0,0.0,0.0
1.2417254880019755,0.0,0.0,0.0
1.2432834370010823,0.0,0.004029304029304029,0.0
1.2469337360016652,0.0,0.004029304029304029,0.0
1.2519251379999332,0.0,0.004029304029304029,0.0
1.2553525780022028,0.0,0.004029304029304029,0.0
1.2556039260016405,0.0,0.0,0.0
1.2604445110009692,0.0,0.0,0.0
1.2657343130013032,0.0,0.0136996336996337,0.0
1.2684206800004176,0.0,0.0136996336996337,0.0
1.2719899000003352,0.0,0.0136996336996337,0.0
1.2772242270002607,0.0,0.0136996336996337,0.0
1.2787909319995379,0.0,0.017728937728937726,0.008864468864468863
1.283801345001848,0.0,0.017728937728937726,0.008864468864468863
1.2886528340022778,0.0,0.0,0.005641025641025641
1.2934218180016614,0.0,0.0,0.005641025641025641
1.2934929740004009,0.0,0.0,0.005641025641025641
1.2992323260004923,0.0,0.0,0.005641025641025641
1.2993322500005888,0.0,0.0,0.005641025641025641
1.3049379780022718,0.0,0.0,0.005641025641025641
1.305087843000365,0.0,0.0,0.005641025641025641
1.3110643520012673,0.0,0.0,0.005641025641025641
1.3168920179996348,0.0,0.0,0.005641025641025641
1.3219500910017814,0.0,0.0,0.005641025641025641
1.3246716060020844,0.0,0.011282051282051281,0.0
1.3288873040000908,0.0,0.011282051282051281,0.0
1.3305121080011304,0.0,0.011282051282051281,0.0
1.3352067880005052,0.0,0.011282051282051281,0.0
1.3408055290019547,0.0,0.0,0.0032234432234432234
1.341765724002471,0.0,0.012893772893772894,0.0
1.3426205070027208,0.0,0.012893772893772894,0.0
1.3443236670027545,0.0,0.012893772893772894,0.0
1.3475398959999438,0.0,0.012893772893772894,0.0
1.3477925110018987,0.0,0.012893772893772894,0.0
1.3532944440012216,0.0,0.012893772893772894,0.0
1.354176290002215,0.0,0.012893772893772894,0.0
1.355761942002573,0.0,0.012893772893772894,0.0
1.3596086239995202,0.0,0.012893772893772894,0.0
1.364115001000755,0.0,0.012893772893772894,0.0
1.3642422820012143,0.0,0.012893772893772894,0.0
1.3695631690025039,0.0,0.012893772893772894,0.0
1.371148895999795,0.0,0.012893772893772894,0.0
1.3750123310019262,0.0,0.012893772893772894,0.0
1.3797592910013918,0.0,0.012893772893772894,0.0
1.3844290340020962,0.0,0.012893772893772894,0.0
1.3900826749995758,0.0,0.012893772893772894,0.0
1.3901855809999688,0.0,0.012893772893772894,0.0
1.3960004990003654,0.0,0.012893772893772894,0.0
1.4008300180030346,0.0,0.0,0.0
1.404948556002637,0.0,0.0,0.0
1.4073080160014797,0.0,0.0,0.0
1.407473483002832,0.0,0.0,0.0
1.4127713950001635,0.0,0.0,0.0
1.415995217001182,0.0,0.0,0.0
1.4162362300012319,0.0,0.0,0.0
1.4216358060002676,0.0,0.0,0.0
1.4225103669996315,0.0,0.0,0.0
1.4240924990008352,0.0,0.0,0.0
1.4279412970026897,0.0,0.0,0.0
1.4316962160010007,0.0,0.0,0.0
1.4363854250004806,0.0,0.0,0.0
1.4364735020026274,0.0,0.0,0.0
1.4418401120019553,0.0,0.0,0.0
1.4444108070019865,0.0,0.01934065934065934,0.01531135531135531
1.449736615002621,0.0,0.01934065934065934,0.01531135531135531
1.452001741999993,0.0,0.01934065934065934,0.01531135531135531
1.4521644529995683,0.0,0.0,0.008864468864468863
1.4574346549998154,0.0,0.0,0.008864468864468863
1.459704787001101,0.0,0.0,0.008864468864468863
1.4598324530015816,0.0,0.0,0.008864468864468863
1.4652798440001789,0.0,0.0,0.008864468864468863
1.465621483999712,0.0,0.0032234432234432234,0.012893772893772894
1.470904468002118,0.0,0.0032234432234432234,0.012893772893772894
1.473278041001322,0.0,0.005641025641025641,0.004835164835164835
1.47337227800017,0.0,0.005641025641025641,0.004835164835164835
1.4789006330029224,0.0,0.005641025641025641,0.004835164835164835
1.4798021390015492,0.0,0.01934065934065934,0.020146520146520144
1.4813700459999382,0.0,0.01934065934065934,0.020146520146520144
1.4851662530018075,0.0,0.01934065934065934,0.020146520146520144
1.4889319009998871,0.0,0.01934065934065934,0.020146520146520144
1.4935031690001779,0.0,0.02336996336996337,0.02175824175824176
1.4937425200005237,0.0,0.02336996336996337,0.02175824175824176
1.4990875520015834,0.0,0.0,0.004029304029304029
1.5006879400025355,0.0,0.0,0.004029304029304029
1.5046578210021835,0.0,0.0,0.004029304029304029
1.5084411930001806,0.0,0.0,0.004029304029304029
1.513129838000168,0.0,0.0,0.004029304029304029
1.5132356670001172,0.0,0.0,0.007252747252747252
1.518803849001415,0.0,0.0,0.007252747252747252
1.5189804140027263,0.0,0.0,0.007252747252747252
1.5244305619999068,0.0,0.0,0.007252747252747252
1.5252276330029417,0.0,0.0,0.007252747252747252
1.5267005519999657,0.0,0.0,0.007252747252747252
1.5309671700015315,0.0,0.0,0.007252747252747252
1.5331469789998664,0.0,0.0,0.007252747252747252
1.5334703100015759,0.0,0.0,0.007252747252747252
1.5391982500004815,0.0,0.0,0.007252747252747252
1.5449676850003016,0.0,0.02095238095238095,0.012893772893772894
1.545039747001283,0.0,0.017728937728937726,0.03868131868131868
1.550148751000961,0.0,0.017728937728937726,0.03868131868131868
1.5529965999994602,0.0,0.010476190476190476,0.0
1.5565918020001845,0.0,0.010476190476190476,0.0
1.5566940280004928,0.0,0.010476190476190476,0.0
1.5616843400021025,0.0,0.010476190476190476,0.0
1.5659466830002202,0.0,0.016117216117216115,0.02095238095238095
1.5674334730028932,0.0,0.022564102564102562,0.017728937728937726
1.5725616960007756,0.0,0.022564102564102562,0.017728937728937726
1.5761863740008266,0.0,0.008864468864468863,0.0
1.5812978249996377,0.0,0.008864468864468863,0.0
1.585831677999522,0.0,0.010476190476190476,0.0
1.586133074000827,0.0,0.010476190476190476,0.0
1.591543377002381,0.0,0.010476190476190476,0.0
1.5924291780029307,0.0,0.010476190476190476,0.0
1.5940241220014286,0.0,0.010476190476190476,0.0
1.59780335799951,0.0,0.0008058608058608059,0.0024175824175824176
1.6023695830008364,0.0,0.0032234432234432234,0.0
1.6025956049998058,0.0,0.01531135531135531,0.0
1.6079542770021362,0.0,0.01531135531135531,0.0
1.609513308001624,0.0,0.01531135531135531,0.0
1.6140098409996426,0.0,0.01531135531135531,0.0
1.6142410490028851,0.0,0.01531135531135531,0.0
1.6194382579997182,0.0,0.01531135531135531,0.0
1.6219470130017726,0.0,0.004835164835164835,0.045128205128205125
1.6264588910016755,0.0,0.004835164835164835,0.045128205128205125
1.627318994000234,0.0,0.0,0.0016117216117216117
1.6283515070026624,0.0,0.0,0.0016117216117216117
1.629155239003012,0.0,0.0,0.0016117216117216117
1.6307028660012293,0.0,0.0,0.0016117216117216117
1.6354335970027023,0.0,0.0,0.0016117216117216117
1.6409665520004637,0.0,0.008058608058608058,0.0
1.6411932530027116,0.0,0.008058608058608058,0.0
1.6465653560007922,0.0,0.008058608058608058,0.0
1.648026185001072,0.0,0.00967032967032967,0.0
1.6523037460028718,0.0,0.00967032967032967,0.0
1.653835909000918,0.0,0.0024175824175824176,0.0
1.658713410000928,0.0,0.0024175824175824176,0.0
1.6588091180019546,0.0,0.0024175824175824176,0.0
1.6638112170003296,0.0,0.0024175824175824176,0.0
1.667368376001832,0.0,0.0024175824175824176,0.0
1.6675341290028882,0.0,0.0024175824175824176,0.0
1.672411480001756,0.0,0.0024175824175824176,0.0
1.6724753680027789,0.0,0.0024175824175824176,0.0
1.6774998020009662,0.0,0.0024175824175824176,0.0
1.6810594130001846,0.0,0.008864468864468863,0.008058608058608058
1.6812624250014778,0.0,0.008864468864468863,0.008058608058608058
1.6862687850007205,0.0,0.008864468864468863,0.008058608058608058
1.6904800080010318,0.0,0.00967032967032967,0.022564102564102562
1.6932323410001118,0.0,0.03062271062271062,0.0
1.6973575930023799,0.0,0.005641025641025641,0.0
1.7001326130011876,0.0,0.005641025641025641,0.0
1.702895531001559,0.0,0.005641025641025641,0.0
1.706301624999469,0.0,0.005641025641025641,0.0
1.7065780140001152,0.0,0.005641025641025641,0.0
1.7114127170025313,0.0,0.005641025641025641,0.0
1.711475457999768,0.0,0.007252747252747252,0.020146520146520144
1.7163100940015283,0.0,0.007252747252747252,0.020146520146520144
1.7204783090019191,0.0,0.007252747252747252,0.020146520146520144
1.721972301002097,0.0,0.007252747252747252,0.020146520146520144
1.7260977260011714,0.0,0.007252747252747252,0.020146520146520144
1.7288616920013737,0.0,0.007252747252747252,0.020146520146520144
1.7324508760029858,0.0,0.007252747252747252,0.020146520146520144
1.7325453289995494,0.0,0.007252747252747252,0.020146520146520144
1.7375463580028736,0.0,0.007252747252747252,0.020146520146520144
1.7417138820019318,0.0,0.007252747252747252,0.020146520146520144
1.7444589320002706,0.0,0.007252747252747252,0.020146520146520144
1.7478757640019467,0.0,0.004835164835164835,0.06769230769230769
1.7479815350015997,0.0,0.004835164835164835,0.06769230769230769
1.7528279520010983,0.0,0.004835164835164835,0.06769230769230769
1.7577365690012812,0.0,0.004835164835164835,0.06769230769230769
1.7578271310012497,0.0,0.004835164835164835,0.06769230769230769
1.7629902200023935,0.0,0.004835164835164835,0.06769230769230769
1.7668445750023238,0.0,0.004835164835164835,0.06769230769230769
1.769916874000046,0.0,0.004835164835164835,0.012893772893772894
1.7728957870021986,0.0,0.004835164835164835,0.012893772893772894
1.7752965670006233,0.0,0.004835164835164835,0.012893772893772894
1.775429287001316,0.0,0.004835164835164835,0.012893772893772894
1.7807539280001947,0.0,0.004835164835164835,0.012893772893772894
1.781946342001902,0.0,0.004835164835164835,0.012893772893772894
1.7820379229997343,0.0,0.004835164835164835,0.012893772893772894
1.7873575550001988,0.0,0.004835164835164835,0.012893772893772894
1.7903675310008111,0.0,0.004835164835164835,0.012893772893772894
1.7919364090012095,0.0,0.004835164835164835,0.012893772893772894
1.796394732002227,0.0,0.004835164835164835,0.012893772893772894
1.7966224960000545,0.0,0.004835164835164835,0.012893772893772894
1.8020587630016962,0.0,0.004835164835164835,0.012893772893772894
1.802935839001293,0.0,0.004835164835164835,0.012893772893772894
1.8045653990011488,0.0,0.004835164835164835,0.012893772893772894
1.809060973002488,0.0,0.004835164835164835,0.012893772893772894
1.8092167360009626,0.0,0.02095238095238095,0.012893772893772894
1.8145122220012126,0.0,0.02095238095238095,0.012893772893772894
1.8166646259996924,0.0,0.008058608058608058,0.0
1.8175126370006183,0.0,0.008058608058608058,0.0
1.8196240910001507,0.0,0.008058608058608058,0.0
1.8204146360003506,0.0,0.008058608058608058,0.0
1.8224979460028408,0.0,0.008058608058608058,0.0
1.823950596000941,0.0,0.008058608058608058,0.0
1.828241439001431,0.0,0.008058608058608058,0.0
1.8291061340023589,0.0,0.006446886446886447,0.004029304029304029
1.8306102720016497,0.0,0.006446886446886447,0.004029304029304029
1.8355169080023188,0.0,0.006446886446886447,0.004029304029304029
1.8398386030021356,0.0,0.016117216117216115,0.020146520146520144
1.8407111360029376,0.0,0.0136996336996337,0.0
1.8428298290018574,0.0,0.0136996336996337,0.0
1.8436201410004287,0.0,0.0136996336996337,0.0
1.845773471002758,0.0,0.0136996336996337,0.0
1.8465207030021702,0.0,0.0136996336996337,0.0
1.8481139340001391,0.0,0.0136996336996337,0.0
1.8516630020021694,0.0,0.0136996336996337,0.0
1.8518778350007778,0.0,0.0136996336996337,0.0
1.8568391389999306,0.0,0.0136996336996337,0.0
1.860381676000543,0.0,0.008058608058608058,0.0032234432234432234
1.860476366000512,0.0,0.008058608058608058,0.0032234432234432234
1.8653803980014345,0.0,0.008058608058608058,0.0032234432234432234
1.8703460070028086,0.0,0.008058608058608058,0.0032234432234432234
1.8739694750001945,0.0,0.008058608058608058,0.0032234432234432234
1.8793597580006463,0.0,0.008058608058608058,0.0032234432234432234
1.8816628710010264,0.0,0.008058608058608058,0.0032234432234432234
1.8818320170030347,0.0,0.008058608058608058,0.0032234432234432234
1.8873847110007773,0.0,0.008058608058608058,0.0032234432234432234
1.8875893380027264,0.0,0.008058608058608058,0.0032234432234432234
1.8932877500010363,0.0,0.012893772893772894,0.0
1.8934304760005034,0.0,0.012893772893772894,0.0
1.8992052790017624,0.0,0.012893772893772894,0.0
1.9050054819999787,0.0,0.04915750915750916,0.02175824175824176
1.9106199800007744,0.0,0.010476190476190476,0.0
1.9114227190002566,0.0,0.010476190476190476,0.0
1.9131044640016626,0.0,0.010476190476190476,0.0
1.9169647449998592,0.0,0.010476190476190476,0.0
1.9210107090002566,0.0,0.010476190476190476,0.0
1.924311304002913,0.0,0.010476190476190476,0.0
1.9245900509995408,0.0,0.0,0.0016117216117216117
1.9301196080014051,0.0,0.0,0.0016117216117216117
1.9309475010013557,0.0,0.0,0.0016117216117216117
1.9325876229995629,0.0,0.0,0.0016117216117216117
1.9365259900005185,0.0,0.0,0.0016117216117216117
1.9397478999999294,0.0,0.0,0.0016117216117216117
1.940616701002,0.0,0.0,0.0016117216117216117
1.9422233250006684,0.0,0.0,0.0016117216117216117
1.9453266380005516,0.0,0.024175824175824173,0.017728937728937726
1.9483153490000404,0.0,0.005641025641025641,0.0008058608058608059
1.9505343100026948,0.0,0.005641025641025641,0.0008058608058608059
1.9507184840003902,0.0,0.005641025641025641,0.0008058608058608059
1.9556623380012752,0.0,0.005641025641025641,0.0008058608058608059
1.9599259730021004,0.0,0.005641025641025641,0.0008058608058608059
1.9620261620002566,0.0,0.005641025641025641,0.0008058608058608059
1.9634512860029645,0.0,0.005641025641025641,0.0008058608058608059
1.9677109320000454,0.0,0.005641025641025641,0.0008058608058608059
1.9691968330007512,0.0,0.005641025641025641,0.0008058608058608059
1.9740185530026793,0.0,0.005641025641025641,0.0008058608058608059
1.9788807140030258,0.0,0.008058608058608058,0.0024175824175824176
1.9837234180013184,0.0,0.008058608058608058,0.0024175824175824176
1.9882324999998673,0.0,0.0032234432234432234,0.0016117216117216117
1.9884750870005519,0.0,0.0032234432234432234,0.0016117216117216117
1.993787120001798,0.0,0.0032234432234432234,0.0016117216117216117
1.9967832530019223,0.0,0.0032234432234432234,0.0016117216117216117
1.9991452720023517,0.0,0.0032234432234432234,0.0016117216117216117
1.9992825760018604,0.0,0.0032234432234432234,0.0016117216117216117
2.0046855530017638,0.0,0.0032234432234432234,0.0016117216117216117
2.007050544001686,0.0,0.0032234432234432234,0.0016117216117216117
2.007140812002035,0.0,0.0032234432234432234,0.0016117216117216117
2.0125488990015583,0.0,0.0032234432234432234,0.0016117216117216117
2.01424414000212,0.0,0.0032234432234432234,0.0016117216117216117
2.0166414650011575,0.0,0.0032234432234432234,0.0016117216117216117
2.016723003001971,0.0,0.0032234432234432234,0.0016117216117216117
2.022242978000577,0.0,0.0032234432234432234,0.0016117216117216117
2.02304762499989,0.0,0.0032234432234432234,0.0016117216117216117
2.02477460800219,0.0,0.0032234432234432234,0.0016117216117216117
2.0278528740018373,0.0,0.0032234432234432234,0.0016117216117216117
2.030210288001399,0.0,0.0032234432234432234,0.0016117216117216117
2.0302821950026555,0.0,0.0032234432234432234,0.0016117216117216117
2.0358483680029167,0.0,0.0032234432234432234,0.0016117216117216117
2.0360773370011884,0.0,0.0032234432234432234,0.0016117216117216117
2.0414709220021905,0.0,0.0032234432234432234,0.0016117216117216117
2.0430132479996246,0.0,0.0032234432234432234,0.0016117216117216117
2.04683031100285,0.0,0.0032234432234432234,0.0016117216117216117
2.05144289600139,0.0,0.0032234432234432234,0.0016117216117216117
2.052281934000348,0.0,0.012893772893772894,0.016117216117216115
2.053842749002797,0.0,0.012893772893772894,0.016117216117216115
2.0576599900014116,0.0,0.024175824175824173,0.0
2.062240463001217,0.0,0.024175824175824173,0.0
2.0624867389997235,0.0,0.08139194139194139,0.0016117216117216117
2.0680715779999446,0.0,0.0,0.0
2.0682365230022697,0.0,0.0,0.0
2.0736226010012615,0.0,0.0,0.0
2.075257098000293,0.0,0.004835164835164835,0.0
2.0783832270026323,0.0,0.004835164835164835,0.0
2.079949912000302,0.0,0.004835164835164835,0.0
2.0837406150021707,0.0,0.004835164835164835,0.0
2.08762607600147,0.0,0.004835164835164835,0.0
2.0914660830021603,0.0,0.004835164835164835,0.0
2.096764145000634,0.0,0.004835164835164835,0.0
2.099975565000932,0.0,0.004835164835164835,0.0
2.1009525430017675,0.0,0.004835164835164835,0.0
2.1018397040024865,0.0,0.004835164835164835,0.0
2.1034846080001444,0.0,0.004835164835164835,0.0
2.107520616002148,0.0,0.004835164835164835,0.0
2.10994898500212,0.0,0.004835164835164835,0.0
2.1100319210017915,0.0,0.004835164835164835,0.0
2.115510933999758,0.0,0.004835164835164835,0.0
2.1163212890023715,0.0,0.018534798534798533,0.004835164835164835
2.1181360190021223,0.0,0.018534798534798533,0.004835164835164835
2.1213058670000464,0.0,0.018534798534798533,0.004835164835164835
2.1221744579997903,0.0,0.018534798534798533,0.004835164835164835
2.1237394090021553,0.0,0.018534798534798533,0.004835164835164835
2.128367466000782,0.0,0.018534798534798533,0.004835164835164835
2.1284801510009856,0.0,0.018534798534798533,0.004835164835164835
2.1338599510017957,0.0,0.018534798534798533,0.004835164835164835
2.135415718999866,0.0,0.004029304029304029,0.014505494505494505
2.139967113002058,0.0,0.004029304029304029,0.014505494505494505
2.140794208000443,0.0,0.004029304029304029,0.014505494505494505
2.1424092540000856,0.0,0.004029304029304029,0.014505494505494505
2.1461691980002797,0.0,0.004029304029304029,0.014505494505494505
2.1515476100030355,0.0,0.02336996336996337,0.007252747252747252
2.1523704000028374,0.0,0.0032234432234432234,0.0
2.1539684630006377,0.0,0.0032234432234432234,0.0
2.1579137650005578,0.0,0.0032234432234432234,0.0
2.1624682290021155,0.0,0.007252747252747252,0.0
2.1632671510014916,0.0,0.007252747252747252,0.0
2.164819728001021,0.0,0.007252747252747252,0.0
2.1686092490017472,0.0,0.007252747252747252,0.0
2.1731799799999862,0.0,0.007252747252747252,0.0
2.1734246970008826,0.0,0.007252747252747252,0.0
2.1788371260008716,0.0,0.007252747252747252,0.0
2.179818160002469,0.0,0.007252747252747252,0.0
2.1806847610023397,0.0,0.007252747252747252,0.0
2.1823237000025983,0.0,0.007252747252747252,0.0
2.1854040720027115,0.0,0.007252747252747252,0.0
2.1877882660010073,0.0,0.007252747252747252,0.0
2.187847088000126,0.0,0.007252747252747252,0.0
2.193277759000921,0.0,0.007252747252747252,0.0
2.194809669999813,0.0,0.0,0.0
2.1986371580023842,0.0,0.0,0.0
2.203124134000973,0.0,0.0,0.0
2.2039284670026973,0.0,0.0,0.0
2.2061818390029657,0.0,0.0,0.0
2.2063394659999176,0.0,0.0,0.0
2.211768133001897,0.0,0.0,0.0
2.212630646001344,0.0,0.0,0.0
2.2142661690013483,0.0,0.0,0.0
2.2181287220009835,0.0,0.0,0.0
2.2221038790012244,0.0,0.0,0.0
2.2245564670010936,0.0,0.0,0.0
2.229893380001158,0.0,0.0,0.0
2.2322103950027667,0.0,0.0,0.0
2.232479226000578,0.0,0.0,0.0
2.2379724670026917,0.0,0.0,0.0
2.2387675730024057,0.0,0.004835164835164835,0.0
2.24033307100035,0.0,0.004835164835164835,0.0
2.2441357410025375,0.0,0.004835164835164835,0.0
2.247926289001043,0.0,0.0008058608058608059,0.0
2.2517495390020486,0.0,0.0008058608058608059,0.0
2.2570520139997825,0.0,0.008864468864468863,0.0
2.2593063109998184,0.0,0.008864468864468863,0.0
2.2594805490007275,0.0,0.008864468864468863,0.0
2.2647774090000894,0.0,0.008864468864468863,0.0
2.2670493090008677,0.0,0.008864468864468863,0.0
2.26716633000251,0.0,0.020146520146520144,0.03545787545787545
2.2724627040006453,0.0,0.0032234432234432234,0.006446886446886447
2.275181978002365,0.0,0.011282051282051281,0.022564102564102562
2.2783450030001404,0.0,0.011282051282051281,0.022564102564102562
2.2807706960011274,0.0,0.011282051282051281,0.022564102564102562
2.280905863000953,0.0,0.011282051282051281,0.022564102564102562
2.286275812002714,0.0,0.011282051282051281,0.022564102564102562
2.2887985500019568,0.0,0.00967032967032967,0.008058608058608058
2.2943253539997386,0.0,0.00967032967032967,0.008058608058608058
2.2959265419995063,0.0,0.5302564102564102,0.02095238095238095
2.299061804002122,0.0,0.5302564102564102,0.02095238095238095
2.3006380750011886,0.0,0.5302564102564102,0.02095238095238095
2.3044723510029144,0.0,0.5302564102564102,0.02095238095238095
2.3090256950017647,0.0,0.5302564102564102,0.02095238095238095
2.309248622001178,0.0,0.5302564102564102,0.02095238095238095
2.314581927003019,0.0,0.5302564102564102,0.02095238095238095
2.316900007001095,0.0,0.5302564102564102,0.02095238095238095
2.3222848730001715,0.0,0.5302564102564102,0.02095238095238095
2.3239660399995046,0.0,0.02175824175824176,0.00967032967032967
2.328479897001671,0.0,0.02175824175824176,0.00967032967032967
2.3293348430015612,0.0,0.02175824175824176,0.00967032967032967
2.330965364999429,0.0,0.02175824175824176,0.00967032967032967
2.334741880000365,0.0,0.0,0.0
2.340186518002156,0.0,0.0,0.0
2.341047879999678,0.0,0.0,0.0
2.3426876580015232,0.0,0.0,0.0
2.346481333999691,0.0,0.0,0.0
2.35180094700263,0.0,0.0,0.0
2.353407280999818,0.0,0.0,0.0
2.357215530002577,0.0,0.0,0.0
2.362510270002531,0.0,0.020146520146520144,0.005641025641025641
2.364118898000015,0.0,0.020146520146520144,0.005641025641025641
2.3678819630004,0.0,0.020146520146520144,0.005641025641025641
2.3724351080018096,0.0,0.020146520146520144,0.005641025641025641
2.3725953360008134,0.0,0.020146520146520144,0.005641025641025641
2.3780628120002802,0.0,0.018534798534798533,0.011282051282051281
2.3796335190018,0.0,0.018534798534798533,0.011282051282051281
2.3837806310002634,0.0,0.018534798534798533,0.011282051282051281
2.386291983002593,0.0,0.018534798534798533,0.011282051282051281
2.3917478309995204,0.0,0.018534798534798533,0.011282051282051281
2.394251329002145,0.0,0.018534798534798533,0.011282051282051281
2.394352659001015,0.0,0.018534798534798533,0.011282051282051281
2.3998260150001443,0.0,0.018534798534798533,0.011282051282051281
2.4015030520022265,0.0,0.018534798534798533,0.011282051282051281
2.4056121739995433,0.0,0.018534798534798533,0.011282051282051281
2.4079652360014734,0.0,0.018534798534798533,0.011282051282051281
2.408043039002223,0.0,0.018534798534798533,0.011282051282051281
2.41354493900144,0.0,0.018534798534798533,0.011282051282051281
2.4138151229999494,0.0,0.018534798534798533,0.011282051282051281
2.4191399370029103,0.0,0.018534798534798533,0.011282051282051281
2.4206867140019313,0.0,0.018534798534798533,0.011282051282051281
2.4251341650015092,0.0,0.018534798534798533,0.011282051282051281
2.4253515410018736,0.0,0.018534798534798533,0.011282051282051281
2.430939981000847,0.0,0.018534798534798533,0.011282051282051281
2.4326169320011104,0.0,0.018534798534798533,0.011282051282051281
2.4363892050023424,0.0,0.018534798534798533,0.011282051282051281
2.441172042003018,0.0,0.018534798534798533,0.011282051282051281
2.446836118000647,0.0,0.004029304029304029,0.0
2.4476410300012503,0.0,0.004029304029304029,0.0
2.449257314001443,0.0,0.004029304029304029,0.0
2.452997795000556,0.0,0.004029304029304029,0.0
2.453080368999508,0.0,0.004029304029304029,0.0
2.458476972002245,0.0,0.004029304029304029,0.0
2.4600113640008203,0.0,0.004029304029304029,0.0
2.4637827400001697,0.0,0.004029304029304029,0.0
2.467570050001086,0.0,0.004029304029304029,0.0
2.472112825002114,0.0,0.0008058608058608059,0.0
2.47292951000054,0.0,0.0008058608058608059,0.0
2.4747240120013885,0.0,0.0008058608058608059,0.0
2.4779221070020867,0.0,0.0008058608058608059,0.0
2.4795258960002684,0.0,0.005641025641025641,0.0136996336996337
2.484156841001095,0.0,0.005641025641025641,0.0136996336996337
2.4842417479994765,0.0,0.005641025641025641,0.0136996336996337
2.489786346999608,0.0,0.005641025641025641,0.0136996336996337
2.4914123180024035,0.0,0.0016117216117216117,0.026593406593406595
2.495426765999582,0.0,0.0016117216117216117,0.026593406593406595
2.4993623590016796,0.0,0.0,0.004835164835164835
2.502443730001687,0.0,0.0,0.004835164835164835
2.50505018700278,0.0,0.0,0.004835164835164835
2.5098441030022514,0.0,0.0,0.004835164835164835
2.5147054830013076,0.0,0.0,0.004835164835164835
2.5193463659998088,0.0,0.0,0.004835164835164835
2.519481684001221,0.0,0.00967032967032967,0.0
2.524966631001007,0.0,0.00967032967032967,0.0
2.5251393340004142,0.0,0.00967032967032967,0.0
2.5309004120026657,0.0,0.00967032967032967,0.0
2.535673714002769,0.0,0.00967032967032967,0.0
2.5405401610005356,0.0,0.00967032967032967,0.0
2.545532670999819,0.0,0.00967032967032967,0.0
2.548967883001751,0.0,0.00967032967032967,0.0
2.5490889760003483,0.0,0.00967032967032967,0.0
2.5546162450009433,0.0,0.0032234432234432234,0.011282051282051281
2.5554278590025206,0.0,0.022564102564102562,0.020146520146520144
2.5570557860010013,0.0,0.004835164835164835,0.0
2.560845601001347,0.0,0.004835164835164835,0.0
2.5646587350020127,0.0,0.004835164835164835,0.0
2.5692170200018154,0.0,0.04351648351648352,0.005641025641025641
2.569431047002581,0.0,0.04351648351648352,0.005641025641025641
2.574861607001367,0.0,0.04351648351648352,0.005641025641025641
2.5765518930020335,0.0,0.04351648351648352,0.005641025641025641
2.5803308590002416,0.0,0.04351648351648352,0.005641025641025641
2.58600908399967,0.0,0.04351648351648352,0.005641025641025641
2.58630294500108,0.0,0.04351648351648352,0.005641025641025641
2.5921205790000386,0.0,0.04351648351648352,0.005641025641025641
2.59224186800202,0.0,0.04351648351648352,0.005641025641025641
2.5977629760018317,0.0,0.04351648351648352,0.005641025641025641
2.59792398600257,0.0,0.0016117216117216117,0.005641025641025641
2.603639460001432,0.0,0.0016117216117216117,0.005641025641025641
2.603699178001989,0.0,0.0016117216117216117,0.005641025641025641
2.6090498760022456,0.0,0.005641025641025641,0.004835164835164835
2.6108044640022854,0.0,0.0,0.012893772893772894
2.6147397670029022,0.0,0.0,0.012893772893772894
2.6184213350024947,0.0,0.0,0.012893772893772894
2.623769001002074,0.0,0.004029304029304029,0.10153846153846154
2.6247579890005,0.0,0.004029304029304029,0.10153846153846154
2.625623166000878,0.0,0.004029304029304029,0.10153846153846154
2.627163727000152,0.0,0.004029304029304029,0.10153846153846154
2.6310609659994952,0.0,0.004029304029304029,0.10153846153846154
2.634477864001383,0.0,0.004029304029304029,0.10153846153846154
2.6357817509997403,0.0,0.004029304029304029,0.10153846153846154
2.635907178002526,0.0,0.004029304029304029,0.10153846153846154
2.6440599210000073,0.0,0.004029304029304029,0.10153846153846154
2.6506530710030347,0.0,0.0,0.006446886446886447
2.6551319800018973,0.0,0.0,0.006446886446886447
2.655288076002762,0.0,0.004029304029304029,0.016923076923076923
2.662879477000388,0.0,0.004029304029304029,0.016923076923076923
2.6700012710025476,0.0,0.010476190476190476,0.012893772893772894
2.6773638730010134,0.0,0.0,0.012087912087912087
2.683721520999825,0.0,0.0,0.012087912087912087
2.6896094660005474,0.0,0.0,0.012087912087912087
2.6963320940012636,0.0,0.0,0.012087912087912087
2.7018154580000555,0.0,0.0,0.012087912087912087
2.7122814829999697,0.0,0.012893772893772894,0.016117216117216115
2.7188237400005164,0.0,0.0032234432234432234,0.0032234432234432234
2.7227635930030374,0.0,0.0032234432234432234,0.0032234432234432234
2.7266717330021493,0.0,0.0032234432234432234,0.0032234432234432234
2.7307767160018557,0.0,0.01934065934065934,0.00967032967032967
2.736585211001511,0.0,0.01934065934065934,0.00967032967032967
2.743223768000462,0.0,0.01934065934065934,0.00967032967032967
2.747929256001953,0.0,0.0,0.0032234432234432234
2.7574934500007657,0.0,0.0,0.0032234432234432234
2.765770253001392,0.0,0.006446886446886447,0.0
2.7703326900009415,0.0,0.006446886446886447,0.0
2.7704831850023766,0.0,0.006446886446886447,0.0
2.7765745950018754,0.0,0.006446886446886447,0.0
2.780374366000615,0.0,0.006446886446886447,0.0
2.7865886370018416,0.0,0.006446886446886447,0.0
2.791947734000132,0.0,0.006446886446886447,0.0
2.792174137000984,0.0,0.006446886446886447,0.0
2.80273398600184,0.0,0.006446886446886447,0.0
2.8122134980003466,0.0,0.006446886446886447,0.0
2.820072741000331,0.0,0.0,0.0
2.82701378999991,0.0,0.0,0.0
2.8322282299996004,0.0,0.0,0.0
2.834468494002067,0.0,0.006446886446886447,0.0016117216117216117
2.835909747002006,0.0,0.006446886446886447,0.0016117216117216117
2.8424333580005623,0.0,0.006446886446886447,0.0016117216117216117
2.847940940002445,0.0,0.00967032967032967,0.008058608058608058
2.858665217001544,0.0,0.00967032967032967,0.008058608058608058
2.8703724059996603,0.0,0.03223443223443223,0.025787545787545788
2.880263715000183,0.0,0.016923076923076923,0.0273992673992674
2.886870970000018,0.0,0.016923076923076923,0.0273992673992674
2.8916517040015606,0.0,0.006446886446886447,0.0032234432234432234
2.8979950610009837,0.0,0.006446886446886447,0.0032234432234432234
2.9027744400009396,0.0,0.006446886446886447,0.0032234432234432234
2.908789239001635,0.0,0.0,0.0016117216117216117
2.914785724002286,0.0,0.0,0.0016117216117216117
2.917886831000942,0.0,0.02175824175824176,0.014505494505494505
2.919657383001322,0.0,0.02175824175824176,0.014505494505494505
2.9232625879994885,0.0,0.02175824175824176,0.014505494505494505
2.9282965550009976,0.0,0.02175824175824176,0.014505494505494505
2.9333537260026787,0.0,0.007252747252747252,0.03304029304029304
2.935977899000136,0.0,0.007252747252747252,0.03304029304029304
2.940116146000946,0.0,0.007252747252747252,0.03304029304029304
2.9425591510007507,0.0,0.007252747252747252,0.03304029304029304
2.9501880259995232,0.0,0.007252747252747252,0.03304029304029304
2.954830997001409,0.0,0.007252747252747252,0.03304029304029304
2.954985194002802,0.0,0.007252747252747252,0.03304029304029304
2.9605196720003732,0.0,0.007252747252747252,0.03304029304029304
2.9607832900001085,0.0,0.007252747252747252,0.03304029304029304
2.9684898140003497,0.0,0.007252747252747252,0.03304029304029304
2.9730666739997105,0.0,0.007252747252747252,0.03304029304029304
2.9733386330008216,0.0,0.007252747252747252,0.03304029304029304
2.9795529460025136,0.0,0.007252747252747252,0.03304029304029304
2.9848227160000533,0.0,0.0,0.0
2.985679876001086,0.0,0.0,0.0
2.9872905740012357,0.0,0.0,0.0
2.991175032002502,0.0,0.0,0.0
2.994917322001129,0.0,0.016923076923076923,0.005641025641025641
3.002307901002496,0.0,0.016923076923076923,0.005641025641025641
3.0068380720003915,0.0,0.016923076923076923,0.005641025641025641
3.0070382970006904,0.0,0.016923076923076923,0.005641025641025641
3.0130315850001352,0.0,0.0032234432234432234,0.0
3.0186692970019067,0.0,0.006446886446886447,0.007252747252747252
3.0241114190030203,0.0,0.006446886446886447,0.007252747252747252
3.0249723340020864,0.0,0.006446886446886447,0.0032234432234432234
3.02669464200153,0.0,0.006446886446886447,0.0032234432234432234
3.0325436040002387,0.0,0.006446886446886447,0.0032234432234432234
3.037055615001009,0.0,0.006446886446886447,0.0032234432234432234
3.03724367200266,0.0,0.006446886446886447,0.0032234432234432234
3.042460127002414,0.0,0.006446886446886447,0.0032234432234432234
3.0465161690008244,0.0,0.006446886446886447,0.0032234432234432234
3.0507718510016275,0.0,0.006446886446886447,0.0032234432234432234
3.0521013230027165,0.0,0.006446886446886447,0.0032234432234432234
3.0613465280002856,0.0,0.006446886446886447,0.0032234432234432234
3.070029909002187,0.0,0.02901098901098901,0.01934065934065934
3.0748612330025935,0.0,0.02901098901098901,0.01934065934065934
3.0806492820011044,0.0,0.02901098901098901,0.01934065934065934
3.080815468001674,0.0,0.014505494505494505,0.004835164835164835
3.0868274929998734,0.0,0.014505494505494505,0.004835164835164835
3.0907755460029875,0.0,0.0024175824175824176,0.0
3.093858864001959,0.0,0.0024175824175824176,0.0
3.0971084630000405,0.0,0.0024175824175824176,0.0
3.099054373000399,0.0,0.0024175824175824176,0.0
3.1005996980020427,0.0,0.0024175824175824176,0.0
3.1054774670010374,0.0,0.0024175824175824176,0.0
3.1099357250022877,0.0,0.0024175824175824176,0.0
3.1101515800000925,0.0,0.0032234432234432234,0.0
3.1175425500005076,0.0,0.0032234432234432234,0.0
3.121532269000454,0.0,0.07172161172161172,0.016117216117216115
3.124079494002217,0.0,0.07172161172161172,0.016117216117216115
3.1304436009995698,0.0,0.07172161172161172,0.016117216117216115
3.1348563579995243,0.0,0.0008058608058608059,0.024175824175824173
3.1349390680006763,0.0,0.0008058608058608059,0.024175824175824173
3.140272149001248,0.0,0.0008058608058608059,0.024175824175824173
3.1411778910005523,0.0,0.0008058608058608059,0.024175824175824173
3.1427685449998535,0.0,0.0008058608058608059,0.024175824175824173
3.150549576002959,0.0,0.0008058608058608059,0.024175824175824173
3.1553993199995602,0.0,0.0008058608058608059,0.024175824175824173
3.1599644500020077,0.0,0.0008058608058608059,0.024175824175824173
3.168626236001728,0.0,0.0008058608058608059,0.024175824175824173
3.1732664610026404,0.0,0.0008058608058608059,0.024175824175824173
3.17351108100047,0.0,0.0008058608058608059,0.024175824175824173
3.179361267000786,0.0,0.0008058608058608059,0.024175824175824173
3.1871546380025393,0.0,0.0008058608058608059,0.024175824175824173
3.1911331129995233,0.0,0.0008058608058608059,0.024175824175824173
3.1950330889994802,0.0,0.0,0.0
3.201186898000742,0.0,0.0,0.0
3.204917781000404,0.0,0.0,0.0
3.2095131470014167,0.0,0.0,0.0
3.2095721290024812,0.0,0.0,0.0
3.216845639002713,0.0,0.0,0.0
3.223941274001845,0.0,0.008058608058608058,0.004835164835164835
3.2274678310022864,0.0,0.008058608058608058,0.004835164835164835
3.2275647210008174,0.0,0.008058608058608058,0.004835164835164835
3.2349396560020978,0.0,0.008058608058608058,0.004835164835164835
3.2388911939997342,0.0,0.008058608058608058,0.004835164835164835
3.2427646569994977,0.0,0.008058608058608058,0.004835164835164835
3.249278356001014,0.0,0.008058608058608058,0.004835164835164835
3.2534999560011784,0.0,0.008058608058608058,0.004835164835164835
3.2551757159999397,0.0,0.008058608058608058,0.004835164835164835
3.2583711799998127,0.0,0.008058608058608058,0.004835164835164835
3.2599641880005947,0.0,0.008058608058608058,0.004835164835164835
3.266412262000813,0.0,0.008058608058608058,0.004835164835164835
3.2695831050004927,0.0,0.008058608058608058,0.004835164835164835
3.27118954999969,0.0,0.008058608058608058,0.004835164835164835
3.2749040449998574,0.0,0.008058608058608058,0.004835164835164835
3.280274216001999,0.0,0.008058608058608058,0.004835164835164835
3.2814113650019863,0.0,0.004835164835164835,0.0
3.2815989470000204,0.0,0.004835164835164835,0.0
3.2876568860010593,0.0,0.004835164835164835,0.0
3.2921267530000478,0.0,0.004029304029304029,0.0
3.292341567001131,0.0,0.004029304029304029,0.0
3.299677901002724,0.0,0.004029304029304029,0.0
3.3049231010008953,0.0,0.004029304029304029,0.0
3.3073807130022033,0.0,0.004029304029304029,0.0
3.316718859001412,0.0,0.004029304029304029,0.0
3.3249355440020736,0.0,0.004029304029304029,0.0
3.3326857590000145,0.0,0.0136996336996337,0.010476190476190476
3.336051361002319,0.0,0.0136996336996337,0.010476190476190476
3.336296773999493,0.0,0.0136996336996337,0.010476190476190476
3.3418463300004078,0.0,0.0136996336996337,0.010476190476190476
3.3433825070023886,0.0,0.02336996336996337,0.01934065934065934
3.3493997090008634,0.0,0.02336996336996337,0.01934065934065934
3.3533629570010817,0.0,0.012893772893772894,0.0024175824175824176
3.3556865680002375,0.0,0.012893772893772894,0.0024175824175824176
3.355936505002319,0.0,0.012893772893772894,0.0024175824175824176
3.3612217910012987,0.0,0.012893772893772894,0.0024175824175824176
3.3642737440022756,0.0,0.012893772893772894,0.0024175824175824176
3.36567950600147,0.0,0.024175824175824173,0.016117216117216115
3.3719195070007117,0.0,0.024175824175824173,0.016117216117216115
3.3769484479998937,0.0,0.024175824175824173,0.016117216117216115
3.3818020399994566,0.0,0.008058608058608058,0.0
3.3858104160026414,0.0,0.008058608058608058,0.0
3.387434200001735,0.0,0.008058608058608058,0.0
3.3912602180025715,0.0,0.012893772893772894,0.00967032967032967
3.3952134490027674,0.0,0.012893772893772894,0.00967032967032967
3.4009073820016056,0.0,0.0008058608058608059,0.0
3.405627424002887,0.0,0.014505494505494505,0.0
3.411034181001014,0.0,0.014505494505494505,0.0
3.4138726580022194,0.0,0.010476190476190476,0.006446886446886447
3.4169320840010187,0.0,0.010476190476190476,0.006446886446886447
3.418956691002677,0.0,0.010476190476190476,0.006446886446886447
3.4198174720004317,0.0,0.010476190476190476,0.006446886446886447
3.421478977001243,0.0,0.010476190476190476,0.006446886446886447
3.4246186570017016,0.0,0.010476190476190476,0.006446886446886447
3.425455882999813,0.0,0.010476190476190476,0.006446886446886447
3.428226939002343,0.0,0.010476190476190476,0.006446886446886447
3.4346774790028576,0.0,0.010476190476190476,0.006446886446886447
3.4386570310016396,0.0,0.008058608058608058,0.024175824175824173
3.442400271000224,0.0,0.008058608058608058,0.024175824175824173
3.4486071270002867,0.0,0.008058608058608058,0.024175824175824173
3.454012980000698,0.0,0.008058608058608058,0.024175824175824173
3.454279782999947,0.0,0.006446886446886447,0.0
3.463207914999657,0.0,0.004029304029304029,0.0024175824175824176
3.4686394029995427,0.0,0.004029304029304029,0.0024175824175824176
3.4694340830028523,0.0,0.0016117216117216117,0.0
3.4710897500008286,0.0,0.0016117216117216117,0.0
3.4748249700023734,0.0,0.0016117216117216117,0.0
3.481890890001523,0.0,0.0016117216117216117,0.0
3.485448778999853,0.0,0.0016117216117216117,0.0
3.4910722759996133,0.0,0.0016117216117216117,0.0
3.4912884420009505,0.0,0.0016117216117216117,0.0
3.49738500100284,0.0,0.005641025641025641,0.005641025641025641
3.5016234560025623,0.0,0.022564102564102562,0.008864468864468863
3.502495935001207,0.0,0.02175824175824176,0.0
3.5041065490004257,0.0,0.02175824175824176,0.0
3.5072073949995684,0.0,0.02175824175824176,0.0
3.5110793769999873,0.0,0.02175824175824176,0.0
3.5157418650014733,0.0,0.02175824175824176,0.0
3.521522030001506,0.0,0.0273992673992674,0.007252747252747252
3.5215888300008373,0.0,0.0273992673992674,0.007252747252747252
3.52700485600144,0.0,0.0,0.010476190476190476
3.528718073001073,0.0,0.012087912087912087,0.01934065934065934
3.533766368000215,0.0,0.012087912087912087,0.01934065934065934
3.537371262002125,0.0,0.03223443223443223,0.007252747252747252
3.543691148999642,0.0,0.03223443223443223,0.007252747252747252
3.5489774880006735,0.0,0.03223443223443223,0.007252747252747252
3.5500269750009465,0.0,0.03223443223443223,0.007252747252747252
3.550187177002954,0.0,0.03223443223443223,0.007252747252747252
3.5558668930025306,0.0,0.03223443223443223,0.007252747252747252
3.5616909860000305,0.0,0.03223443223443223,0.007252747252747252
3.5700308660016162,0.0,0.00967032967032967,0.004835164835164835
3.5759293920018536,0.0,0.00967032967032967,0.004835164835164835
3.575996687002771,0.0,0.0016117216117216117,0.029816849816849816
3.585183823000989,0.0,0.0016117216117216117,0.029816849816849816
3.5907838140010426,0.0,0.0024175824175824176,0.0
3.5910137190003297,0.0,0.0024175824175824176,0.0
3.598697760000505,0.0,0.0024175824175824176,0.0
3.604127063001215,0.0,0.0,0.0016117216117216117
3.6042361600011645,0.0,0.0024175824175824176,0.004835164835164835
3.613445289000083,0.0,0.0024175824175824176,0.004835164835164835
3.6213798110002244,0.0,0.0024175824175824176,0.004835164835164835
3.626654674000747,0.0,0.0032234432234432234,0.0
3.6282580370025244,0.0,0.0032234432234432234,0.0
3.634042773002875,0.0,0.0032234432234432234,0.0
3.634137698001723,0.0,0.0032234432234432234,0.0
3.639365656999871,0.0,0.0032234432234432234,0.0
3.642405153001164,0.0,0.0032234432234432234,0.0
3.643928682002297,0.0,0.0032234432234432234,0.0
3.6501813320028305,0.0,0.0032234432234432234,0.0
3.6564692330030084,0.0,0.0136996336996337,0.004029304029304029
3.6614938820021052,0.0,0.0136996336996337,0.004029304029304029
3.6662466680027137,0.0,0.0136996336996337,0.004029304029304029
3.6700405100018543,0.0,0.0136996336996337,0.004029304029304029
3.6726874390005833,0.0,0.0032234432234432234,0.0
3.6776645470017684,0.0,0.0032234432234432234,0.0
3.685340809999616,0.0,0.007252747252747252,0.0
3.692288408001332,0.0,0.007252747252747252,0.0
3.698213954001403,0.0,0.007252747252747252,0.0
3.7050377010018565,0.0,0.007252747252747252,0.0
3.7094769540017296,0.0,0.007252747252747252,0.0
3.7096165090006252,0.0,0.007252747252747252,0.0
3.7179640700014716,0.0,0.007252747252747252,0.0
3.7225816050013236,0.0,0.007252747252747252,0.0
3.722781054002553,0.0,0.007252747252747252,0.0
3.728488474000187,0.0,0.007252747252747252,0.0
3.7285880020026525,0.0,0.007252747252747252,0.0
3.7358606410016364,0.0,0.007252747252747252,0.0
3.741247950001707,0.0,0.007252747252747252,0.0
3.747185118001653,0.0,0.007252747252747252,0.0
3.7526584650004224,0.0,0.007252747252747252,0.0
3.767369150002196,0.0,0.007252747252747252,0.01531135531135531
3.7815009240002837,0.0,0.007252747252747252,0.01531135531135531
3.7927652960024716,0.0,0.007252747252747252,0.01531135531135531
3.8003298770017864,0.0,0.007252747252747252,0.01531135531135531
3.8114912740020372,0.0,0.00967032967032967,0.008864468864468863
3.819653766000556,0.0,0.00967032967032967,0.008864468864468863
3.8252284879999934,0.0,0.00967032967032967,0.008864468864468863
3.8265075310009706,0.0,0.00967032967032967,0.008864468864468863
3.8348727180018614,0.0,0.00967032967032967,0.008864468864468863
3.8391587950027315,0.0,0.00967032967032967,0.008864468864468863
3.8409114490023057,0.0,0.00967032967032967,0.008864468864468863
3.8442627809999976,0.0,0.00967032967032967,0.008864468864468863
3.8445501230016816,0.0,0.00967032967032967,0.008864468864468863
3.8516385540024203,0.0,0.00967032967032967,0.008864468864468863
3.85574070200164,0.0,0.00967032967032967,0.008864468864468863
3.858924357002252,0.0,0.02095238095238095,0.01531135531135531
3.8605042270028207,0.0,0.006446886446886447,0.0024175824175824176
3.8671716560020286,0.0,0.006446886446886447,0.0024175824175824176
3.870435300999816,0.0,0.07816849816849816,0.0
3.8729179250003654,0.0,0.07816849816849816,0.0
3.8775746390019776,0.0,0.07816849816849816,0.0
3.877687551001145,0.0,0.03706959706959707,0.028205128205128206
3.8858964040009596,0.0,0.03706959706959707,0.028205128205128206
3.8905587180015573,0.0,0.03706959706959707,0.028205128205128206
3.892207865999808,0.0,0.03706959706959707,0.028205128205128206
3.894552788002329,0.0,0.03706959706959707,0.028205128205128206
3.8960553649994836,0.0,0.016117216117216115,0.026593406593406595
3.901923882000119,0.0,0.016117216117216115,0.026593406593406595
3.905707251000422,0.0,0.016117216117216115,0.026593406593406595
3.9102917350028292,0.0,0.016117216117216115,0.026593406593406595
3.9111867640021956,0.0,0.016117216117216115,0.026593406593406595
3.9128478310012724,0.0,0.016117216117216115,0.026593406593406595
3.9176031400020292,0.0,0.016117216117216115,0.026593406593406595
3.9229907400003867,0.0,0.016117216117216115,0.026593406593406595
3.925334728002781,0.0,0.016117216117216115,0.026593406593406595
3.9255963030009298,0.0,0.016117216117216115,0.026593406593406595
3.932024325000384,0.0,0.016117216117216115,0.026593406593406595
3.9357057190027263,0.0,0.016117216117216115,0.026593406593406595
3.9403043430029356,0.0,0.025787545787545788,0.0
3.9405500650027534,0.0,0.025787545787545788,0.0
3.947129626001697,0.0,0.025787545787545788,0.0
3.951464025001769,0.0,0.025787545787545788,0.0
3.95302301600168,0.0,0.0,0.0016117216117216117
3.956876700001885,0.0,0.0,0.0016117216117216117
3.9599917080013256,0.0,0.01531135531135531,0.0136996336996337
3.9617174720006005,0.0,0.01531135531135531,0.0136996336996337
3.9678078800025105,0.0,0.01531135531135531,0.0136996336996337
3.9716401360019518,0.0,0.01531135531135531,0.0136996336996337
3.9767443670025386,0.0,0.02095238095238095,0.00967032967032967
3.980520692999562,0.0,0.02095238095238095,0.00967032967032967
3.9885868650017073,0.0,0.02095238095238095,0.00967032967032967
3.9932022810025956,0.0,0.02095238095238095,0.00967032967032967
3.9933647890029533,0.0,0.02095238095238095,0.00967032967032967
4.001470072002121,0.0,0.02095238095238095,0.00967032967032967
4.006114333002188,0.0,0.02095238095238095,0.00967032967032967
4.006346219000989,0.0,0.02095238095238095,0.00967032967032967
4.012109955001506,0.0,0.02095238095238095,0.00967032967032967
4.012259873001312,0.0,0.008058608058608058,0.0
4.019834473001538,0.0,0.008058608058608058,0.0
4.024600371001725,0.0,0.029816849816849816,0.0136996336996337
4.024691348000488,0.0,0.029816849816849816,0.0136996336996337
4.031707508002,0.0,0.0032234432234432234,0.00967032967032967
4.035276184000395,0.0,0.004029304029304029,0.0024175824175824176
4.040526935001253,0.0,0.004029304029304029,0.0024175824175824176
4.043074749999505,0.0,0.010476190476190476,0.0024175824175824176
4.049757826000132,0.0,0.010476190476190476,0.0024175824175824176
4.055135487000371,0.0,0.010476190476190476,0.0024175824175824176
4.055322714000795,0.0,0.010476190476190476,0.0024175824175824176
4.0641169310001715,0.0,0.010476190476190476,0.0024175824175824176
4.072026319001452,0.0,0.010476190476190476,0.0024175824175824176
4.080208740000671,0.0,0.020146520146520144,0.016117216117216115
4.085946608000086,0.0,0.020146520146520144,0.016117216117216115
4.086023889001808,0.0,0.020146520146520144,0.016117216117216115
4.092132638001203,0.0,0.020146520146520144,0.016117216117216115
4.100035258001299,0.0,0.020146520146520144,0.016117216117216115
4.106916030003049,0.0,0.020146520146520144,0.016117216117216115
4.110816813001293,0.0,0.020146520146520144,0.016117216117216115
4.114982958999462,0.0,0.020146520146520144,0.016117216117216115
4.117069654999796,0.0,0.020146520146520144,0.016117216117216115
4.117998276000435,0.0,0.020146520146520144,0.016117216117216115
4.119609614001092,0.0,0.020146520146520144,0.016117216117216115
4.123458927002503,0.0,0.020146520146520144,0.016117216117216115
4.127382798000326,0.0,0.007252747252747252,0.0
4.1331734220002545,0.0,0.007252747252747252,0.0
4.136520077001478,0.0,0.007252747252747252,0.0
4.137361992001388,0.0,0.007252747252747252,0.0
4.138898244000302,0.0,0.025787545787545788,0.008864468864468863
4.14300239899967,0.0,0.025787545787545788,0.008864468864468863
4.145494846001384,0.0,0.012893772893772894,0.008058608058608058
4.152691147999576,0.0,0.012893772893772894,0.008058608058608058
4.157762664999609,0.0,0.012893772893772894,0.008058608058608058
4.162003354002081,0.0,0.012893772893772894,0.008058608058608058
4.162284554000507,0.0,0.012893772893772894,0.0136996336996337
4.172358891999465,0.0,0.012893772893772894,0.0136996336996337
4.178119719003007,0.0,0.012893772893772894,0.0136996336996337
4.1782159130016225,0.0,0.012893772893772894,0.0136996336996337
4.184594122001727,0.0,0.012893772893772894,0.0136996336996337
4.188681955001812,0.0,0.006446886446886447,0.0
4.191837580001447,0.0,0.006446886446886447,0.0
4.1920873150011175,0.0,0.006446886446886447,0.0
4.1998464339994825,0.0,0.006446886446886447,0.0
4.204992792001576,0.0,0.011282051282051281,0.0
4.20787246799955,0.0,0.011282051282051281,0.0
4.2120742309998604,0.0,0.011282051282051281,0.0
4.21231793500192,0.0,0.007252747252747252,0.0
4.220215504999942,0.0,0.007252747252747252,0.0
4.224281933002203,0.0,0.0008058608058608059,0.0
4.227569908001897,0.0,0.0008058608058608059,0.0
4.227779839002324,0.0,0.0008058608058608059,0.0
4.237851400001091,0.0,0.0008058608058608059,0.0
4.24316123600147,0.0,0.0008058608058608059,0.0
4.246916992000479,0.0,0.0008058608058608059,0.0
4.251920296002936,0.0,0.0008058608058608059,0.0
4.254377774999739,0.0,0.0008058608058608059,0.0
4.254515202002949,0.0,0.0008058608058608059,0.0
4.26000545900024,0.0,0.0008058608058608059,0.0
4.260914250000496,0.0,0.0008058608058608059,0.0
4.2638724190001085,0.0,0.0008058608058608059,0.0
4.265208895001706,0.0,0.0008058608058608059,0.0
4.271110150002642,0.0,0.0008058608058608059,0.0
4.276520027000515,0.0,0.010476190476190476,0.0
4.277383810000174,0.0,0.01934065934065934,0.01531135531135531
4.280318209002871,0.0,0.01934065934065934,0.01531135531135531
4.281760453002789,0.0,0.01934065934065934,0.01531135531135531
4.28709531700224,0.0,0.01934065934065934,0.01531135531135531
4.287948342000163,0.0,0.01934065934065934,0.01531135531135531
4.289504480002506,0.0,0.01934065934065934,0.01531135531135531
4.2933274720016925,0.0,0.01934065934065934,0.01531135531135531
4.3017258280015085,0.0,0.01934065934065934,0.01531135531135531
4.3065760400022555,0.0,0.01934065934065934,0.01531135531135531
4.312499593001121,0.0,0.0,0.0
4.312662513002579,0.0,0.0,0.0
4.318485627001792,0.0,0.0,0.0
4.323053575000813,0.0,0.0,0.022564102564102562
4.3289742060005665,0.0,0.017728937728937726,0.0008058608058608059
4.3335007690002385,0.0,0.017728937728937726,0.0008058608058608059
4.333628137999767,0.0,0.017728937728937726,0.0008058608058608059
4.33935861700229,0.0,0.017728937728937726,0.0008058608058608059
4.339499108002201,0.0,0.017728937728937726,0.004835164835164835
4.3453773700020975,0.0,0.017728937728937726,0.004835164835164835
4.345480123000016,0.0,0.0008058608058608059,0.004029304029304029
4.3520038800015755,0.0,0.0008058608058608059,0.004029304029304029
4.355967591000081,0.0,0.0008058608058608059,0.004029304029304029
4.360495105000155,0.0,0.005641025641025641,0.010476190476190476
4.360576809001941,0.0,0.005641025641025641,0.010476190476190476
4.366957086000184,0.0,0.005641025641025641,0.010476190476190476
4.370974684999965,0.0,0.005641025641025641,0.010476190476190476
4.374754980002763,0.0,0.005641025641025641,0.010476190476190476
4.379901754000457,0.0,0.005641025641025641,0.010476190476190476
4.3831714500011,0.0,0.011282051282051281,0.0
4.383271496000816,0.0,0.011282051282051281,0.0
4.391054224000982,0.0,0.011282051282051281,0.0
4.398631224001292,0.0,0.007252747252747252,0.0
4.404297166001925,0.0,0.0136996336996337,0.008058608058608058
4.408775555999455,0.0,0.007252747252747252,0.014505494505494505
4.41667050000251,0.0,0.007252747252747252,0.014505494505494505
4.421393552001973,0.0,0.011282051282051281,0.0
4.421490556000208,0.0,0.0,0.0
4.42689296500248,0.0,0.0,0.0
4.430336206001812,0.0,0.02095238095238095,0.00967032967032967
4.430482339001173,0.0,0.02095238095238095,0.00967032967032967
4.436286215001019,0.0,0.02095238095238095,0.00967032967032967
4.442004841999733,0.0,0.02095238095238095,0.00967032967032967
4.44220754500202,0.0,0.012893772893772894,0.0
4.449882418000925,0.0,0.012893772893772894,0.0
4.453847961001884,0.0,0.012893772893772894,0.0
4.458392305001325,0.0,0.012893772893772894,0.0
4.458483100002923,0.0,0.012893772893772894,0.0
4.4653210249998665,0.0,0.012893772893772894,0.0
4.470186202001059,0.0,0.0032234432234432234,0.03626373626373627
4.475010186000873,0.0,0.00967032967032967,0.00967032967032967
4.481599378003011,0.0,0.01934065934065934,0.010476190476190476
4.485473181000998,0.0,0.005641025641025641,0.024175824175824173
4.489684759002557,0.0,0.005641025641025641,0.024175824175824173
4.491589125002065,0.0,0.005641025641025641,0.024175824175824173
4.4939810950018,0.0,0.005641025641025641,0.024175824175824173
4.502077553999698,0.0,0.005641025641025641,0.024175824175824173
4.506797242000175,0.0,0.014505494505494505,0.02095238095238095
4.5130775540019386,0.0,0.004835164835164835,0.0
4.5179327389996615,0.0,0.004835164835164835,0.0
4.52266240300014,0.0,0.004835164835164835,0.0
4.522822022001492,0.0,0.004835164835164835,0.0
4.529502828001569,0.0,0.004835164835164835,0.0
4.534761508999509,0.0,0.03223443223443223,0.04029304029304029
4.534914807001769,0.0,0.03223443223443223,0.04029304029304029
4.540840366000339,0.0,0.03223443223443223,0.04029304029304029
4.54943158000242,0.0,0.03223443223443223,0.04029304029304029
4.553273162000551,0.0,0.03223443223443223,0.04029304029304029
4.556475196000974,0.0,0.03223443223443223,0.04029304029304029
4.557530324000254,0.0,0.03223443223443223,0.04029304029304029
4.557834117000311,0.0,0.03223443223443223,0.04029304029304029
4.565474868999445,0.0,0.03223443223443223,0.04029304029304029
4.571866919002787,0.0,0.03223443223443223,0.04029304029304029
4.577283960999921,0.0,0.03223443223443223,0.04029304029304029
4.590356231001351,0.0,0.03223443223443223,0.04029304029304029
4.590744917000848,0.0,0.03223443223443223,0.04029304029304029
4.597569009001745,0.0,0.014505494505494505,0.00967032967032967
4.603953666002781,0.0,0.014505494505494505,0.00967032967032967
4.608481531002326,0.0,0.014505494505494505,0.00967032967032967
4.608605205001368,0.0,0.014505494505494505,0.00967032967032967
4.618216217000736,0.0,0.014505494505494505,0.00967032967032967
4.622805073002382,0.0,0.014505494505494505,0.00967032967032967
4.6231062690021645,0.0,0.014505494505494505,0.00967032967032967
4.627961843001685,0.0,0.014505494505494505,0.008058608058608058
4.63809848800156,0.0,0.014505494505494505,0.008058608058608058
4.646466326001246,0.0,0.0032234432234432234,0.0032234432234432234
4.652199305000977,0.0,0.0032234432234432234,0.0032234432234432234
4.65227109999978,0.0,0.016117216117216115,0.0
4.657725662000303,0.0,0.016117216117216115,0.0
4.657925028001046,0.0,0.016117216117216115,0.0
4.66554746300244,0.0,0.016117216117216115,0.0
4.670971892002854,0.0,0.008058608058608058,0.004029304029304029
4.678054252999573,0.0,0.008058608058608058,0.004029304029304029
4.684482477001438,0.0,0.0,0.010476190476190476
4.688565583001036,0.0,0.016923076923076923,0.004835164835164835
4.692334927000047,0.0,0.016923076923076923,0.004835164835164835
4.699377118002303,0.0,0.005641025641025641,0.0
4.703677303001314,0.0,0.005641025641025641,0.0
4.705297807002353,0.0,0.005641025641025641,0.0
4.708843938002246,0.0,0.005641025641025641,0.0
4.718350900002406,0.0,0.005641025641025641,0.0
4.724196325001685,0.0,0.005641025641025641,0.0
4.7294005710027704,0.0,0.00967032967032967,0.0
4.733096810999996,0.0,0.00967032967032967,0.0
4.736233529001765,0.0,0.00967032967032967,0.0
4.73654360799992,0.0,0.00967032967032967,0.0
4.741845800999727,0.0,0.00967032967032967,0.0
4.743376108999655,0.0,0.00967032967032967,0.0
4.749569904000964,0.0,0.00967032967032967,0.0
4.752815834002831,0.0,0.004029304029304029,0.008058608058608058
4.753660152000521,0.0,0.004029304029304029,0.008058608058608058
4.75521292400299,0.0,0.004029304029304029,0.008058608058608058
4.759033436002937,0.0,0.004029304029304029,0.008058608058608058
4.763001854000322,0.0,0.004029304029304029,0.008058608058608058
4.768558203002613,0.0,0.007252747252747252,0.004835164835164835
4.773492315001931,0.0,0.007252747252747252,0.004835164835164835
4.779070066000713,0.0,0.007252747252747252,0.004835164835164835
4.779205629001808,0.0,0.007252747252747252,0.004835164835164835
4.786239422002836,0.0,0.007252747252747252,0.004835164835164835
4.790857948999474,0.0,0.0008058608058608059,0.0024175824175824176
4.791086656001426,0.0,0.0008058608058608059,0.0024175824175824176
4.798323073002393,0.0,0.0008058608058608059,0.0024175824175824176
4.801944024002296,0.0,0.007252747252747252,0.0
4.807512704999681,0.0,0.007252747252747252,0.0
4.8083822410008,0.0,0.007252747252747252,0.0
4.809960515001876,0.0,0.007252747252747252,0.0
4.815907103002246,0.0,0.007252747252747252,0.0
4.822306161000597,0.0,0.01934065934065934,0.0
4.826974367002549,0.0,0.03223443223443223,0.0
4.833253490000061,0.0,0.03223443223443223,0.0
4.837102235000202,0.0,0.0,0.00967032967032967
4.84344053300083,0.0,0.0,0.00967032967032967
4.849319050001213,0.0,0.004835164835164835,0.02901098901098901
4.854832026001532,0.0,0.02336996336996337,0.024175824175824173
4.854958789001103,0.0,0.02336996336996337,0.024175824175824173
4.860548570999526,0.0,0.02336996336996337,0.024175824175824173
4.860674663999816,0.0,0.02336996336996337,0.024175824175824173
4.867881677000696,0.0,0.02336996336996337,0.024175824175824173
4.871982957,0.0,0.02336996336996337,0.024175824175824173
4.87444776600023,0.0,0.008864468864468863,0.0016117216117216117
4.874610376002238,0.0,0.008864468864468863,0.0016117216117216117
4.881306516999757,0.0,0.008864468864468863,0.0016117216117216117
4.8853473590024805,0.0,0.008864468864468863,0.0016117216117216117
4.888516842001991,0.0,0.0,0.011282051282051281
4.889370288001373,0.0,0.007252747252747252,0.011282051282051281
4.89113320999968,0.0,0.007252747252747252,0.011282051282051281
4.89420223200068,0.0,0.007252747252747252,0.011282051282051281
4.897608354000113,0.0,0.0,0.0
4.903855631000624,0.0,0.0,0.0
4.9077015690018015,0.0,0.0,0.0
4.914881345001049,0.0,0.025787545787545788,0.0008058608058608059
4.920914491001895,0.0,0.025787545787545788,0.0008058608058608059
4.924007020003046,0.0,0.025787545787545788,0.0008058608058608059
4.926381847999437,0.0,0.025787545787545788,0.0008058608058608059
4.926547421000578,0.0,0.025787545787545788,0.0008058608058608059
4.935265199001151,0.0,0.025787545787545788,0.0008058608058608059
4.939953647000948,0.0,0.025787545787545788,0.0008058608058608059
4.940193041002203,0.0,0.025787545787545788,0.0008058608058608059
4.9472185949998675,0.0,0.025787545787545788,0.0008058608058608059
4.950907359001576,0.0,0.025787545787545788,0.0008058608058608059
4.9557199430018954,0.0,0.00967032967032967,0.0
4.9558848990018305,0.0,0.00967032967032967,0.0
4.961692536002374,0.0,0.00967032967032967,0.0
4.96901724500276,0.0,0.0024175824175824176,0.006446886446886447
4.973643255001662,0.0,0.0024175824175824176,0.006446886446886447
4.974025472001813,0.0,0.0024175824175824176,0.006446886446886447
4.979862707001303,0.0,0.0024175824175824176,0.006446886446886447
4.984641387000011,0.0,0.014505494505494505,0.0016117216117216117
4.989219097002206,0.0,0.014505494505494505,0.0016117216117216117
4.989431273002992,0.0,0.004835164835164835,0.02336996336996337
4.99619135499961,0.0,0.004835164835164835,0.02336996336996337
5.0019636300021375,0.0,0.004835164835164835,0.02336996336996337
5.008527332000085,0.0,0.004835164835164835,0.02336996336996337
5.015139417002501,0.0,0.010476190476190476,0.008864468864468863
5.018811748002918,0.0,0.010476190476190476,0.008864468864468863
5.023391746002744,0.0,0.03223443223443223,0.0
5.023508564001531,0.0,0.03223443223443223,0.0
5.030561956002202,0.0,0.0,0.012893772893772894
5.03430915500212,0.0,0.0,0.012893772893772894
5.0390215950028505,0.0,0.004835164835164835,0.0024175824175824176
5.039126708001277,0.0,0.004835164835164835,0.0024175824175824176
5.0445304839995515,0.0,0.004029304029304029,0.00967032967032967
5.048131430001376,0.0,0.004029304029304029,0.007252747252747252
5.051970169999549,0.0,0.004029304029304029,0.007252747252747252
5.056311379001272,0.0,0.004029304029304029,0.007252747252747252
5.0585288960028265,0.0,0.004029304029304029,0.007252747252747252
5.05930260400055,0.0,0.004029304029304029,0.007252747252747252
5.0609001770026225,0.0,0.004029304029304029,0.007252747252747252
5.064805775000423,0.0,0.004029304029304029,0.007252747252747252
5.068566934001865,0.0,0.004029304029304029,0.007252747252747252
5.072808026001439,0.0,0.004029304029304029,0.007252747252747252
5.074988583000959,0.0,0.004029304029304029,0.007252747252747252
5.075295244001609,0.0,0.00967032967032967,0.012893772893772894
5.080579569003021,0.0,0.00967032967032967,0.012893772893772894
5.083036165000522,0.0,0.00967032967032967,0.012893772893772894
5.0831414200001745,0.0,0.00967032967032967,0.012893772893772894
5.088692838002316,0.0,0.00967032967032967,0.012893772893772894
5.088880783001514,0.0,0.025787545787545788,0.004029304029304029
5.0944591560000845,0.0,0.025787545787545788,0.004029304029304029
5.095271214002423,0.0,0.025787545787545788,0.004029304029304029
5.097382951000327,0.0,0.025787545787545788,0.004029304029304029
5.099227474001964,0.0,0.0136996336996337,0.0
5.102321551999921,0.0,0.0,0.0
5.102592770002957,0.0,0.0,0.0
5.112459138003032,0.0,0.0,0.0
5.1189487209994695,0.0,0.0,0.0
5.123194499999954,0.0,0.0,0.0
5.125020683000912,0.0,0.0,0.0
5.128135172002658,0.0,0.0,0.0
5.132651203002752,0.0,0.0,0.0
5.137876075001259,0.0,0.01934065934065934,0.004835164835164835
5.140190829002677,0.0,0.01934065934065934,0.004835164835164835
5.146469860002981,0.0,0.0,0.0
5.14985133600203,0.0,0.0136996336996337,0.016923076923076923
5.150145007999527,0.0,0.0136996336996337,0.016923076923076923
5.155332540001837,0.0,0.0136996336996337,0.016923076923076923
5.15927935199943,0.0,0.0136996336996337,0.016923076923076923
5.163297426999634,0.0,0.0136996336996337,0.016923076923076923
5.166293768001196,0.0,0.0136996336996337,0.016923076923076923
5.169277502001933,0.0,0.0136996336996337,0.016923076923076923
5.172267423000449,0.0,0.0136996336996337,0.016923076923076923
5.174456459000794,0.0,0.0136996336996337,0.016923076923076923
5.17527383900233,0.0,0.0136996336996337,0.016923076923076923
5.177120759002719,0.0,0.0136996336996337,0.016923076923076923
5.180768990001525,0.0,0.0136996336996337,0.016923076923076923
5.186605254002643,0.0,0.0136996336996337,0.016923076923076923
5.19230642200273,0.0,0.012893772893772894,0.004835164835164835
5.198028596001677,0.0,0.012893772893772894,0.004835164835164835
5.199570450000465,0.0,0.012893772893772894,0.004835164835164835
5.204968794001616,0.0,0.012893772893772894,0.004835164835164835
5.205170961002295,0.0,0.0273992673992674,0.018534798534798533
5.210365230002935,0.0,0.0,0.004029304029304029
5.214302514999872,0.0,0.012893772893772894,0.0
5.216648775000067,0.0,0.03062271062271062,0.01934065934065934
5.216888003000349,0.0,0.03062271062271062,0.01934065934065934
5.222655189001671,0.0,0.03062271062271062,0.01934065934065934
5.222835106000275,0.0,0.03062271062271062,0.01934065934065934
5.228531402000954,0.0,0.03062271062271062,0.01934065934065934
5.228683244000422,0.0,0.03062271062271062,0.01934065934065934
5.234298723000393,0.0,0.03062271062271062,0.01934065934065934
5.234491300001537,0.0,0.03062271062271062,0.01934065934065934
5.239838915000291,0.0,0.03062271062271062,0.01934065934065934
5.242303527000331,0.0,0.03062271062271062,0.01934065934065934
5.247844722001901,0.0,0.03062271062271062,0.01934065934065934
5.248684526002762,0.0,0.03062271062271062,0.01934065934065934
5.250338289002684,0.0,0.03062271062271062,0.01934065934065934
5.2544144410021545,0.0,0.03062271062271062,0.01934065934065934
5.258191742002964,0.0,0.03062271062271062,0.01934065934065934
5.2613009750020865,0.0,0.03062271062271062,0.01934065934065934
5.263823159999447,0.0,0.03062271062271062,0.01934065934065934
5.269455033001577,0.0,0.0,0.006446886446886447
5.269675488001667,0.0,0.0,0.006446886446886447
5.275035923001269,0.0,0.0,0.006446886446886447
5.276630366999598,0.0,0.0,0.006446886446886447
5.2816841500025475,0.0,0.0,0.006446886446886447
5.284763556002872,0.0,0.0,0.006446886446886447
5.286368835000758,0.0,0.0,0.006446886446886447
5.290177577000577,0.0,0.0,0.006446886446886447
5.293996045002132,0.0,0.0,0.006446886446886447
5.297973869000998,0.0,0.0008058608058608059,0.0273992673992674
5.301840454001649,0.0,0.0008058608058608059,0.0273992673992674
5.306060528000671,0.0,0.014505494505494505,0.012893772893772894
5.306938026002172,0.0,0.006446886446886447,0.0
5.3098171790006745,0.0,0.006446886446886447,0.0
5.312258534002467,0.0,0.006446886446886447,0.0
5.317824303001544,0.0,0.006446886446886447,0.0
5.3179632800020045,0.0,0.020146520146520144,0.010476190476190476
5.32345527200232,0.0,0.016117216117216115,0.008058608058608058
5.324335887002235,0.0,0.0,0.0
5.325901765001618,0.0,0.0,0.0
5.329674052001792,0.0,0.0,0.0
5.334370317999856,0.0,0.0,0.0
5.3344790560004185,0.0,0.0,0.0
5.339899918999436,0.0,0.0,0.0
5.341487821002374,0.0,0.0,0.0
5.345476497001073,0.0,0.0032234432234432234,0.01934065934065934
5.347862490001717,0.0,0.0032234432234432234,0.01934065934065934
5.347939357001451,0.0,0.014505494505494505,0.0
5.353306150002027,0.0,0.014505494505494505,0.0
5.355653042002814,0.0,0.014505494505494505,0.0
5.361613086002762,0.0,0.014505494505494505,0.0
5.367657202001283,0.0,0.0032234432234432234,0.0
5.371869761002017,0.0,0.0032234432234432234,0.0
5.375789608002378,0.0,0.0032234432234432234,0.0
5.381241415001568,0.0,0.0032234432234432234,0.0
5.3909297620011785,0.0,0.008058608058608058,0.03465201465201465
5.401167971001996,0.0,0.0032234432234432234,0.00967032967032967
5.408623504001298,0.0,0.0032234432234432234,0.00967032967032967
5.417368726000859,0.0,0.0032234432234432234,0.00967032967032967
5.422274174001359,0.0,0.0032234432234432234,0.00967032967032967
5.4278831770025135,0.0,0.0032234432234432234,0.00967032967032967
5.434583524001937,0.0,0.0032234432234432234,0.00967032967032967
5.43872115799968,0.0,0.0032234432234432234,0.00967032967032967
5.44105267499981,0.0,0.0032234432234432234,0.00967032967032967
5.441285283002799,0.0,0.0032234432234432234,0.00967032967032967
5.447176023000793,0.0,0.0032234432234432234,0.00967032967032967
5.4556205610024335,0.0,0.0032234432234432234,0.00967032967032967
5.462788436001574,0.0,0.0032234432234432234,0.00967032967032967
5.467449214000226,0.0,0.0032234432234432234,0.00967032967032967
5.472937843002001,0.0,0.0032234432234432234,0.00967032967032967
5.473138150002342,0.0,0.0032234432234432234,0.00967032967032967
5.480014151002251,0.0,0.0032234432234432234,0.00967032967032967
5.4849045560004015,0.0,0.008058608058608058,0.0032234432234432234
5.488019289001386,0.0,0.008058608058608058,0.0032234432234432234
5.49038965300133,0.0,0.008058608058608058,0.0032234432234432234
5.498543271001836,0.0,0.008058608058608058,0.0032234432234432234
5.502818482000293,0.0,0.008058608058608058,0.0032234432234432234
5.505223916999967,0.0,0.008058608058608058,0.0032234432234432234
5.511287782999716,0.0,0.008058608058608058,0.0032234432234432234
5.516405676000431,0.0,0.004835164835164835,0.0
5.519073782001215,0.0,0.004835164835164835,0.0
5.522125424002297,0.0,0.004835164835164835,0.0
5.52367974200024,0.0,0.004835164835164835,0.0
5.530360726002982,0.0,0.004835164835164835,0.0
5.534612718001881,0.0,0.004835164835164835,0.0
5.536888672002533,0.0,0.004835164835164835,0.0
5.537102619000507,0.0,0.004835164835164835,0.0
5.542481471002247,0.0,0.004835164835164835,0.0
5.544083960001444,0.0,0.004835164835164835,0.0
5.5485955650001415,0.0,0.0032234432234432234,0.006446886446886447
5.554685655999492,0.0,0.01531135531135531,0.02336996336996337
5.55845565799973,0.0,0.0,0.0016117216117216117
5.562775689002592,0.0,0.0,0.0016117216117216117
5.563081798001804,0.0,0.0,0.0016117216117216117
5.568835538000712,0.0,0.0,0.0016117216117216117
5.5690191780013265,0.0,0.0,0.0016117216117216117
5.574390083002072,0.0,0.0,0.0016117216117216117
5.575238159002765,0.0,0.012893772893772894,0.0
5.5761788050003815,0.0,0.012893772893772894,0.0
5.57710030400267,0.0,0.012893772893772894,0.0
5.578711903999647,0.0,0.012893772893772894,0.0
5.583613827002409,0.0,0.012893772893772894,0.0
5.587678235002386,0.0,0.012893772893772894,0.0
5.590151781001623,0.0,0.012893772893772894,0.0
5.594787625002937,0.0,0.012893772893772894,0.0
5.604457241999626,0.0,0.012893772893772894,0.0
5.613185070000327,0.0,0.012893772893772894,0.0
5.618114068001887,0.0,0.012893772893772894,0.0
5.622161893999873,0.0,0.012893772893772894,0.0
5.626184305001516,0.0,0.012893772893772894,0.0
5.631606574999751,0.0,0.012893772893772894,0.0
5.6332416820005164,0.0,0.0016117216117216117,0.0
5.636566166002012,0.0,0.004029304029304029,0.0
5.637370513999485,0.0,0.004029304029304029,0.0
5.639205483999831,0.0,0.004029304029304029,0.0
5.641097810999781,0.0,0.004029304029304029,0.0
5.643476241999451,0.0,0.004029304029304029,0.0
5.643675041003007,0.0,0.004029304029304029,0.0
5.653257067002414,0.0,0.017728937728937726,0.004835164835164835
5.663775610002631,0.0,0.011282051282051281,0.020146520146520144
5.669540187001985,0.0,0.011282051282051281,0.020146520146520144
5.669615171002079,0.0,0.011282051282051281,0.020146520146520144
5.675480975001847,0.0,0.011282051282051281,0.020146520146520144
5.684867217001738,0.0,0.011282051282051281,0.020146520146520144
5.692586102002679,0.0,0.02095238095238095,0.026593406593406595
5.699727881001309,0.0,0.02095238095238095,0.026593406593406595
5.7052586390018405,0.0,0.008864468864468863,0.0
5.7121936380026455,0.0,0.008864468864468863,0.0
5.71684085400193,0.0,0.008864468864468863,0.0
5.717021964999731,0.0,0.008864468864468863,0.0
5.721762179000507,0.0,0.008864468864468863,0.0
5.727512113000557,0.0,0.008864468864468863,0.0
5.72770369600039,0.0,0.007252747252747252,0.016923076923076923
5.735724684000161,0.0,0.007252747252747252,0.016923076923076923
5.740334564001387,0.0,0.007252747252747252,0.016923076923076923
5.740666951001913,0.0,0.007252747252747252,0.016923076923076923
5.746059215001878,0.0,0.007252747252747252,0.016923076923076923
5.748295040000812,0.0,0.004029304029304029,0.0016117216117216117
5.7483955190000415,0.0,0.004029304029304029,0.0016117216117216117
5.755642080999678,0.0,0.004029304029304029,0.0016117216117216117
5.763111305001075,0.0,0.02095238095238095,0.024175824175824173
5.76769860100103,0.0,0.008058608058608058,0.195018315018315
5.767884955002955,0.0,0.008058608058608058,0.195018315018315
5.774383635001868,0.0,0.008058608058608058,0.195018315018315
5.7798894200022914,0.0,0.010476190476190476,0.0
5.788065439002821,0.0,0.010476190476190476,0.0
5.794158018001326,0.0,0.010476190476190476,0.0
5.800844741002948,0.0,0.010476190476190476,0.0
5.806893922002928,0.0,0.025787545787545788,0.004835164835164835
5.812743525002588,0.0,0.00967032967032967,0.007252747252747252
5.818688725001266,0.0,0.008864468864468863,0.0
5.823432059001789,0.0,0.025787545787545788,0.00967032967032967
5.834417363999819,0.0,0.020146520146520144,0.006446886446886447
5.839050362999842,0.0,0.020146520146520144,0.006446886446886447
5.839295673002198,0.0,0.020146520146520144,0.006446886446886447
5.844630138002685,0.0,0.020146520146520144,0.006446886446886447
5.847786629001348,0.0,0.012893772893772894,0.008864468864468863
5.848127725999802,0.0,0.012893772893772894,0.008864468864468863
5.852962752000167,0.0,0.012893772893772894,0.008864468864468863
5.858527497999603,0.0,0.012893772893772894,0.008864468864468863
5.8593768020000425,0.0,0.012893772893772894,0.008864468864468863
5.861115472001984,0.0,0.012893772893772894,0.008864468864468863
5.866424064002786,0.0,0.012087912087912087,0.008864468864468863
5.8679966060008155,0.0,0.012087912087912087,0.008864468864468863
5.871907313001429,0.0,0.012087912087912087,0.008864468864468863
5.875760082999477,0.0,0.012087912087912087,0.008864468864468863
5.881350822000968,0.0,0.012087912087912087,0.008864468864468863
5.881577050000487,0.0,0.012087912087912087,0.008864468864468863
5.886311711001326,0.0,0.012087912087912087,0.008864468864468863
5.886446344000433,0.0,0.012087912087912087,0.008864468864468863
5.892233216000022,0.0,0.012087912087912087,0.008864468864468863
5.892354773000989,0.0,0.012087912087912087,0.008864468864468863
5.899128977001965,0.0,0.0032234432234432234,0.0
5.902986881999823,0.0,0.03223443223443223,0.07816849816849816
5.908649211000011,0.0,0.03223443223443223,0.07816849816849816
5.908913235001819,0.0,0.03223443223443223,0.07816849816849816
5.916321090000565,0.0,0.03223443223443223,0.07816849816849816
5.920555232001789,0.0,0.03223443223443223,0.07816849816849816
5.922980813000322,0.0,0.03223443223443223,0.07816849816849816
5.931646338001883,0.0,0.03223443223443223,0.07816849816849816
5.937442643000395,0.0,0.012893772893772894,0.004835164835164835
5.945724504999816,0.0,0.012893772893772894,0.004835164835164835
5.951235688000452,0.0,0.012893772893772894,0.004835164835164835
5.951343638000253,0.0,0.012893772893772894,0.0032234432234432234
5.956730420002714,0.0,0.012893772893772894,0.0032234432234432234
5.957578205001482,0.0,0.012893772893772894,0.0032234432234432234
5.959157250999851,0.0,0.02175824175824176,0.047545787545787546
5.963978214000235,0.0,0.02175824175824176,0.047545787545787546
5.969472738001059,0.0,0.02175824175824176,0.047545787545787546
5.971369155002321,0.0,0.02175824175824176,0.047545787545787546
5.973899962002179,0.0,0.02175824175824176,0.047545787545787546
5.979529467000248,0.0,0.02175824175824176,0.047545787545787546
5.979697853999824,0.0,0.02175824175824176,0.047545787545787546
5.987417969001399,0.0,0.0,0.0032234432234432234
5.991429688001517,0.0,0.008058608058608058,0.004835164835164835
5.99383830700026,0.0,0.006446886446886447,0.007252747252747252
5.994016782002291,0.0,0.006446886446886447,0.007252747252747252
6.001995077000174,0.0,0.006446886446886447,0.007252747252747252
6.007331246000831,0.0,0.006446886446886447,0.007252747252747252
6.012181947000499,0.0,0.00967032967032967,0.03868131868131868
6.016558272000111,0.0,0.007252747252747252,0.0008058608058608059
6.0166957630026445,0.0,0.007252747252747252,0.0008058608058608059
6.02213733300232,0.0,0.007252747252747252,0.0008058608058608059
6.023089471000276,0.0,0.0,0.0
6.023937320002005,0.0,0.0,0.0
6.0261786240007496,0.0,0.0,0.0
6.026477512001293,0.0,0.0,0.0
6.036221417001798,0.0,0.0,0.0
6.042736759001855,0.0,0.0,0.0
6.048138477999601,0.0,0.018534798534798533,0.0
6.049468451001303,0.0,0.018534798534798533,0.0
6.055443454999477,0.0,0.018534798534798533,0.0
6.059378478999861,0.0,0.029816849816849816,0.008864468864468863
6.063604397000745,0.0,0.005641025641025641,0.0008058608058608059
6.064801950000401,0.0,0.0,0.0
6.064962873002514,0.0,0.0,0.0
6.0710516040016955,0.0,0.0,0.0
6.075311918000807,0.0,0.008058608058608058,0.0
6.076698960001522,0.0,0.008058608058608058,0.0
6.084232178000093,0.0,0.008058608058608058,0.0
6.088992039000004,0.0,0.008058608058608058,0.0
6.089096325002174,0.0,0.0136996336996337,0.008864468864468863
6.094793029002176,0.0,0.011282051282051281,0.0556043956043956
6.095020632001251,0.0,0.004029304029304029,0.0136996336996337
6.101750599002116,0.0,0.004029304029304029,0.0136996336996337
6.105773576000502,0.0,0.011282051282051281,0.0
6.108938774999842,0.0,0.011282051282051281,0.0
6.1098744080009055,0.0,0.0,0.006446886446886447
6.112591400000383,0.0,0.0,0.006446886446886447
6.1159548070027085,0.0,0.0,0.006446886446886447
6.116060854001262,0.0,0.006446886446886447,0.045128205128205125
6.121812821002095,0.0,0.006446886446886447,0.045128205128205125
6.121882261002611,0.0,0.006446886446886447,0.045128205128205125
6.127986863000842,0.0,0.006446886446886447,0.045128205128205125
6.133841480001138,0.0,0.006446886446886447,0.045128205128205125
6.137730616002955,0.0,0.006446886446886447,0.045128205128205125
6.141939224002272,0.0,0.006446886446886447,0.045128205128205125
6.143559541000286,0.0,0.006446886446886447,0.045128205128205125
6.153549586000736,0.0,0.006446886446886447,0.045128205128205125
6.161952155001927,0.0,0.006446886446886447,0.045128205128205125
6.167552561000775,0.0,0.006446886446886447,0.045128205128205125
6.173002465002355,0.0,0.006446886446886447,0.045128205128205125
6.1745572079998965,0.0,0.006446886446886447,0.045128205128205125
6.17976151500261,0.0,0.006446886446886447,0.045128205128205125
6.18222149900248,0.0,0.006446886446886447,0.045128205128205125
6.191388920000463,0.0,0.006446886446886447,0.045128205128205125
6.199572610999894,0.0,0.006446886446886447,0.045128205128205125
6.206367340000725,0.0,0.020146520146520144,0.0032234432234432234
6.211335626001528,0.0,0.008058608058608058,0.0
6.21364243700009,0.0,0.008058608058608058,0.0
6.213832076002291,0.0,0.008058608058608058,0.0
6.219173653000325,0.0,0.008058608058608058,0.0
6.220028911000554,0.0,0.008058608058608058,0.0
6.222304812999937,0.0,0.008058608058608058,0.0
6.222484006000741,0.0,0.008058608058608058,0.0
6.227560420000373,0.0,0.008058608058608058,0.0
6.235331424999458,0.0,0.008058608058608058,0.0
6.24232693200247,0.0,0.008058608058608058,0.0
6.248357022002892,0.0,0.008058608058608058,0.0
6.252030627001659,0.0,0.008058608058608058,0.0
6.25682467000297,0.0,0.008058608058608058,0.0
6.2569582290016115,0.0,0.012087912087912087,0.0008058608058608059
6.2644996930030175,0.0,0.012087912087912087,0.0008058608058608059
6.268208636000054,0.0,0.020146520146520144,0.0024175824175824176
6.272800599002949,0.0,0.020146520146520144,0.0024175824175824176
6.272912595002708,0.0,0.008058608058608058,0.007252747252747252
6.280431123002927,0.0,0.008058608058608058,0.007252747252747252
6.283891172999574,0.0,0.008058608058608058,0.007252747252747252
6.284039627000311,0.0,0.0032234432234432234,0.0
6.290208294001786,0.0,0.0032234432234432234,0.0
6.295395961002214,0.0,0.0032234432234432234,0.0
6.295745909003017,0.0,0.0032234432234432234,0.0
6.302550983000401,0.0,0.0032234432234432234,0.0
6.306801214999723,0.0,0.018534798534798533,0.0032234432234432234
6.308446065002499,0.0,0.018534798534798533,0.0032234432234432234
6.312456324001687,0.0,0.018534798534798533,0.0032234432234432234
6.314887623000686,0.0,0.018534798534798533,0.0032234432234432234
6.320303938002326,0.0,0.018534798534798533,0.0032234432234432234
6.321185372002219,0.0,0.008058608058608058,0.0032234432234432234
6.322755713001243,0.0,0.008058608058608058,0.0032234432234432234
6.327330565000011,0.0,0.008058608058608058,0.0032234432234432234
6.327478195002186,0.0,0.0016117216117216117,0.0
6.332922402001714,0.0,0.0016117216117216117,0.0
6.33467748700059,0.0,0.0016117216117216117,0.0
6.337063956001657,0.0,0.0016117216117216117,0.0
6.3371442910029145,0.0,0.0016117216117216117,0.0
6.342575509002927,0.0,0.0016117216117216117,0.0
6.343421404002584,0.0,0.0016117216117216117,0.0
6.345057924001594,0.0,0.0016117216117216117,0.0
6.348186745002749,0.0,0.026593406593406595,0.01934065934065934
6.3497438760023215,0.0,0.026593406593406595,0.01934065934065934
6.354361911002343,0.0,0.026593406593406595,0.01934065934065934
6.354490058001829,0.0,0.026593406593406595,0.01934065934065934
6.359824966002634,0.0,0.026593406593406595,0.01934065934065934
6.361439543001325,0.0,0.016117216117216115,0.0032234432234432234
6.365992893999646,0.0,0.016117216117216115,0.0032234432234432234
6.366085486999509,0.0,0.004835164835164835,0.0
6.3716432729997905,0.0,0.004835164835164835,0.0
6.371843577002437,0.0,0.0,0.006446886446886447
6.377242672002467,0.0,0.0,0.006446886446886447
6.379759687999467,0.0,0.0,0.006446886446886447
6.384386055000505,0.0,0.0,0.006446886446886447
6.384477899002377,0.0,0.0,0.006446886446886447
6.389929069002392,0.0,0.0,0.006446886446886447
6.391573037002672,0.0,0.0,0.006446886446886447
6.39555889100302,0.0,0.010476190476190476,0.0016117216117216117
6.398104700001568,0.0,0.051575091575091575,0.0
6.403679127000942,0.0,0.051575091575091575,0.0
6.403882861999591,0.0,0.051575091575091575,0.0
6.409266277001734,0.0,0.051575091575091575,0.0
6.4102214859995,0.0,0.051575091575091575,0.0
6.411019911000039,0.0,0.051575091575091575,0.0
6.413294170000881,0.0,0.051575091575091575,0.0
6.41348322200065,0.0,0.051575091575091575,0.0
6.4189557999998215,0.0,0.051575091575091575,0.0
6.41977674699956,0.0,0.051575091575091575,0.0
6.421554705000744,0.0,0.051575091575091575,0.0
6.423902688002272,0.0,0.051575091575091575,0.0
6.424021762002667,0.0,0.051575091575091575,0.0
6.429632101000607,0.0,0.051575091575091575,0.0
6.4296977010017144,0.0,0.051575091575091575,0.0
6.435295473002043,0.0,0.051575091575091575,0.0
6.4355864450008085,0.0,0.0,0.006446886446886447
6.440901677000511,0.0,0.0,0.006446886446886447
6.443193848001101,0.0,0.0,0.006446886446886447
6.443432228999882,0.0,0.005641025641025641,0.008864468864468863
6.448771446001047,0.0,0.005641025641025641,0.008864468864468863
6.4510445360028825,0.0,0.005641025641025641,0.008864468864468863
6.451187561000552,0.0,0.007252747252747252,0.03223443223443223
6.456539209000766,0.0,0.007252747252747252,0.03223443223443223
6.459639641001559,0.0,0.007252747252747252,0.03223443223443223
6.460488492000877,0.0,0.007252747252747252,0.03223443223443223
6.4621634899995115,0.0,0.007252747252747252,0.03223443223443223
6.465198699999746,0.0,0.007252747252747252,0.03223443223443223
6.467585817001236,0.0,0.007252747252747252,0.03223443223443223
6.467718726002204,0.0,0.007252747252747252,0.03223443223443223
6.473303776001558,0.0,0.005641025641025641,0.0
6.473560991002159,0.0,0.005641025641025641,0.0
6.478875902001164,0.0,0.005641025641025641,0.0
6.481421398002567,0.0,0.017728937728937726,0.017728937728937726
6.48614940400148,0.0,0.017728937728937726,0.017728937728937726
6.48626919399976,0.0,0.017728937728937726,0.017728937728937726
6.491686123001273,0.0,0.017728937728937726,0.017728937728937726
6.493387345999508,0.0,0.008058608058608058,0.004835164835164835
6.497435630000837,0.0,0.008058608058608058,0.004835164835164835
6.49979818599968,0.0,0.028205128205128206,0.0
6.505532213999686,0.0,0.028205128205128206,0.0
6.505597977000434,0.0,0.0,0.00967032967032967
6.511079857002187,0.0,0.0,0.00967032967032967
6.511933849000343,0.0,0.0,0.00967032967032967
6.513554264001868,0.0,0.0,0.00967032967032967
6.517300756000623,0.0,0.0,0.00967032967032967
6.521089190002385,0.0,0.0,0.00967032967032967
6.525587169002392,0.0,0.0,0.00967032967032967
6.525835453001491,0.0,0.0032234432234432234,0.020146520146520144
6.5312198550018365,0.0,0.0032234432234432234,0.020146520146520144
6.532984437002597,0.0,0.0032234432234432234,0.020146520146520144
6.536198613001034,0.0,0.0032234432234432234,0.020146520146520144
6.537080924001202,0.0,0.0032234432234432234,0.020146520146520144
6.5386687660029565,0.0,0.0032234432234432234,0.020146520146520144
6.543319974000042,0.0,0.0032234432234432234,0.020146520146520144
6.543432071001007,0.0,0.0032234432234432234,0.020146520146520144
6.5488382229996205,0.0,0.0032234432234432234,0.020146520146520144
6.551491452002665,0.0,0.0032234432234432234,0.020146520146520144
6.555437396000343,0.0,0.0032234432234432234,0.020146520146520144
6.558491408999544,0.0,0.0016117216117216117,0.0
6.56006142300248,0.0,0.0016117216117216117,0.0
6.563997193999967,0.0,0.0016117216117216117,0.0
6.566384598001605,0.0,0.0016117216117216117,0.0
6.566586548000487,0.0,0.0016117216117216117,0.0
6.57190909700148,0.0,0.0016117216117216117,0.0
6.574333270000352,0.0,0.0016117216117216117,0.0
6.5797413720029,0.0,0.0016117216117216117,0.0
6.58128399600173,0.0,0.0016117216117216117,0.0
6.585232285000529,0.0,0.0016117216117216117,0.0
6.588400046002789,0.0,0.0016117216117216117,0.0
6.589254767000966,0.0,0.0016117216117216117,0.0
6.590798107001319,0.0,0.0016117216117216117,0.0
6.5948700299995835,0.0,0.0016117216117216117,0.0
6.598120221002318,0.0,0.0016117216117216117,0.0
6.5989235260021815,0.0,0.0016117216117216117,0.0
6.601174641000398,0.0,0.0016117216117216117,0.0
6.601425597000343,0.0,0.0016117216117216117,0.0
6.607020659001137,0.0,0.0016117216117216117,0.0
6.607083656999748,0.0,0.0016117216117216117,0.0
6.612551550002536,0.0,0.0016117216117216117,0.0
6.614095204000478,0.0,0.005641025641025641,0.012893772893772894
6.617893804002961,0.0,0.005641025641025641,0.012893772893772894
6.621797163999872,0.0,0.005641025641025641,0.012893772893772894
6.626470193001296,0.0,0.006446886446886447,0.004835164835164835
6.62659908200294,0.0,0.006446886446886447,0.004835164835164835
6.631993504001002,0.0,0.006446886446886447,0.004835164835164835
6.633703472001798,0.0,0.006446886446886447,0.004835164835164835
6.63675345700176,0.0,0.0032234432234432234,0.0
6.6398760990014125,0.0,0.0032234432234432234,0.0
6.641512572001375,0.0,0.0032234432234432234,0.0
6.644716197002708,0.0,0.0032234432234432234,0.0
6.6455754110029375,0.0,0.00967032967032967,0.00967032967032967
6.647229989001062,0.0,0.00967032967032967,0.00967032967032967
6.651880081000854,0.0,0.00967032967032967,0.00967032967032967
6.657404634999693,0.0,0.00967032967032967,0.00967032967032967
6.659147534002841,0.0,0.00967032967032967,0.00967032967032967
6.662282461002178,0.0,0.00967032967032967,0.00967032967032967
6.663812254002551,0.0,0.00967032967032967,0.00967032967032967
6.667731821002235,0.0,0.00967032967032967,0.00967032967032967
6.670803637000063,0.0,0.007252747252747252,0.012893772893772894
6.673118016002263,0.0,0.012087912087912087,0.007252747252747252
6.673243728000671,0.0,0.012087912087912087,0.007252747252747252
6.678734522000013,0.0,0.012087912087912087,0.007252747252747252
6.680390781002643,0.0,0.012087912087912087,0.007252747252747252
6.683594485002686,0.0,0.012087912087912087,0.007252747252747252
6.685251655002503,0.0,0.012087912087912087,0.007252747252747252
6.688494238002022,0.0,0.012087912087912087,0.007252747252747252
6.689308789002098,0.0,0.012087912087912087,0.007252747252747252
6.6910126760012645,0.0,0.012087912087912087,0.007252747252747252
6.69437064000158,0.0,0.012087912087912087,0.007252747252747252
6.69462397100142,0.0,0.012087912087912087,0.007252747252747252
6.700152960002015,0.0,0.012087912087912087,0.007252747252747252
6.700962298000377,0.0,0.012087912087912087,0.007252747252747252
6.70255117400302,0.0,0.012087912087912087,0.007252747252747252
6.707027177002601,0.0,0.012087912087912087,0.007252747252747252
6.707143142000859,0.0,0.012087912087912087,0.007252747252747252
6.712496472002385,0.0,0.012087912087912087,0.007252747252747252
6.713396291001118,0.0,0.012087912087912087,0.007252747252747252
6.715106927000306,0.0,0.012087912087912087,0.007252747252747252
6.717534863000765,0.0,0.012087912087912087,0.007252747252747252
6.717744560002757,0.0,0.012087912087912087,0.007252747252747252
6.723321735000354,0.0,0.012087912087912087,0.007252747252747252
6.724301951002417,0.0,0.0024175824175824176,0.006446886446886447
6.725189781001973,0.0,0.0024175824175824176,0.006446886446886447
6.726747177002835,0.0,0.0024175824175824176,0.006446886446886447
6.731397425999603,0.0,0.0024175824175824176,0.006446886446886447
6.731476583001495,0.0,0.0024175824175824176,0.006446886446886447
6.737069206999877,0.0,0.0024175824175824176,0.006446886446886447
6.737285912000516,0.0,0.0024175824175824176,0.006446886446886447
6.742814402001386,0.0,0.0024175824175824176,0.006446886446886447
6.744348530999559,0.0,0.02095238095238095,0.02901098901098901
6.748140629002592,0.0,0.02095238095238095,0.02901098901098901
6.751843164001912,0.0,0.02095238095238095,0.02901098901098901
6.757147983000323,0.0,0.02095238095238095,0.02901098901098901
6.7608383300030255,0.0,0.02095238095238095,0.02901098901098901
6.766206407002755,0.0,0.02095238095238095,0.02901098901098901
6.768704346999584,0.0,0.02095238095238095,0.02901098901098901
6.768786357999488,0.0,0.0136996336996337,0.03868131868131868
6.774439447999612,0.0,0.0136996336996337,0.03868131868131868
6.775298865002696,0.0,0.0136996336996337,0.03868131868131868
6.776934732002701,0.0,0.0136996336996337,0.03868131868131868
6.7800376630002575,0.0,0.0136996336996337,0.03868131868131868
6.782481935002579,0.0,0.0,0.005641025641025641
6.782586555000307,0.0,0.0,0.005641025641025641
6.788028255999961,0.0,0.0,0.005641025641025641
6.789565258000948,0.0,0.0,0.005641025641025641
6.794232132000616,0.0,0.0,0.005641025641025641
6.799842634001834,0.0,0.017728937728937726,0.0016117216117216117
6.79999977800253,0.0,0.01934065934065934,0.01934065934065934
6.805610638999497,0.0,0.01934065934065934,0.01934065934065934
6.805789370002458,0.0,0.01934065934065934,0.01934065934065934
6.811520623999968,0.0,0.01934065934065934,0.01934065934065934
6.811789363000571,0.0,0.01934065934065934,0.01934065934065934
6.817461340000591,0.0,0.01934065934065934,0.01934065934065934
6.817632451002282,0.0,0.006446886446886447,0.008058608058608058
6.823109658002068,0.0,0.006446886446886447,0.008058608058608058
6.823923387000832,0.0,0.007252747252747252,0.01531135531135531
6.826056941001298,0.0,0.007252747252747252,0.01531135531135531
6.826831040001707,0.0,0.007252747252747252,0.01531135531135531
6.828362883999944,0.0,0.007252747252747252,0.01531135531135531
6.833295324002393,0.0,0.007252747252747252,0.01531135531135531
6.836876143002883,0.0,0.007252747252747252,0.01531135531135531
6.842107142001623,0.0,0.007252747252747252,0.01531135531135531
6.844763922999846,0.0,0.007252747252747252,0.01531135531135531
6.84955557700232,0.0,0.007252747252747252,0.01531135531135531
6.854180423000798,0.0,0.007252747252747252,0.01531135531135531
6.854361366000376,0.0,0.0,0.0
6.859896165002283,0.0,0.0,0.0
6.860136685001635,0.0,0.0,0.0
6.865518012000393,0.0,0.005641025641025641,0.0
6.867070208001678,0.0,0.005641025641025641,0.0
6.870975980000367,0.0,0.005641025641025641,0.0
6.874022225001681,0.0,0.005641025641025641,0.0
6.876349802001641,0.0,0.005641025641025641,0.0
6.876483325002482,0.0,0.020146520146520144,0.0
6.881876908002596,0.0,0.020146520146520144,0.0
6.883429131001321,0.0701098901098901,0.0032234432234432234,0.0016117216117216117
6.887739066001814,0.0701098901098901,0.0032234432234432234,0.0016117216117216117
6.88993207400199,0.0701098901098901,0.0032234432234432234,0.0016117216117216117
6.890763026000059,0.0701098901098901,0.0032234432234432234,0.0016117216117216117
6.892599897000764,0.0,0.012087912087912087,0.014505494505494505
6.8958895840005425,0.0,0.012087912087912087,0.014505494505494505
6.8967400760011515,0.0,0.012087912087912087,0.014505494505494505
6.898363185002381,0.0,0.012087912087912087,0.014505494505494505
6.902160274999915,0.0,0.012087912087912087,0.014505494505494505
6.905904040002497,0.0,0.012087912087912087,0.014505494505494505
6.9111468580013025,0.0,0.012087912087912087,0.014505494505494505
6.914701857000182,0.0,0.012087912087912087,0.014505494505494505
6.914810010999645,0.0,0.012087912087912087,0.014505494505494505
6.9196767329995055,0.0,0.012087912087912087,0.014505494505494505
6.9197786309996445,0.0,0.012087912087912087,0.014505494505494505
6.924748334000469,0.0,0.012087912087912087,0.014505494505494505
6.929434584002593,0.0,0.0032234432234432234,0.008864468864468863
6.935073428001488,0.0,0.0032234432234432234,0.008864468864468863
6.93529134200071,0.0,0.0032234432234432234,0.008864468864468863
6.940951134001807,0.0,0.0032234432234432234,0.008864468864468863
6.941187926000566,0.0,0.0032234432234432234,0.008864468864468863
6.946852122000564,0.0,0.0032234432234432234,0.008864468864468863
6.952160141001514,0.0,0.01934065934065934,0.005641025641025641
6.954855713000143,0.0,0.01934065934065934,0.005641025641025641
6.958761283000058,0.0,0.0,0.00967032967032967
6.9625322930005495,0.0,0.0,0.00967032967032967
6.968006876002619,0.0,0.0,0.00967032967032967
6.968837209002231,0.0,0.0016117216117216117,0.010476190476190476
6.970421657002589,0.0,0.0032234432234432234,0.0024175824175824176
6.974218090999784,0.0,0.0032234432234432234,0.0024175824175824176
6.978016659002606,0.0,0.0032234432234432234,0.0024175824175824176
6.9824919490019965,0.0,0.0032234432234432234,0.0024175824175824176
6.982625500000722,0.0,0.0032234432234432234,0.0024175824175824176
6.988002740999946,0.0,0.0032234432234432234,0.0024175824175824176
6.989695026000845,0.0,0.0032234432234432234,0.0024175824175824176
6.993522663000476,0.0,0.0032234432234432234,0.0024175824175824176
6.997289716000523,0.0,0.0032234432234432234,0.0024175824175824176
7.002053321000858,0.0,0.0032234432234432234,0.0024175824175824176
7.002133998001227,0.0,0.0032234432234432234,0.0024175824175824176
7.008008777000214,0.0,0.0032234432234432234,0.0024175824175824176
7.012243938002939,0.0,0.0032234432234432234,0.0024175824175824176
7.013098996001645,0.0,0.0032234432234432234,0.0024175824175824176
7.014622074002546,0.0,0.0032234432234432234,0.0024175824175824176
7.019532555001206,0.0,0.0032234432234432234,0.0024175824175824176
7.023894499001472,0.0,0.0,0.008864468864468863
7.024737179999647,0.0,0.0,0.008864468864468863
7.026247453999531,0.0,0.0,0.008864468864468863
7.030527998002071,0.0,0.008058608058608058,0.004835164835164835
7.0327914520021295,0.0,0.017728937728937726,0.0
7.032989559000271,0.0,0.017728937728937726,0.0
7.0383376050012885,0.0,0.017728937728937726,0.0
7.039955166001164,0.0,0.017728937728937726,0.0
7.044435821000661,0.0,0.00967032967032967,0.010476190476190476
7.045268670000951,0.0,0.00967032967032967,0.010476190476190476
7.046801393000351,0.0,0.00967032967032967,0.010476190476190476
7.051320525002666,0.0,0.00967032967032967,0.010476190476190476
7.052161381001497,0.0,0.00967032967032967,0.010476190476190476
7.0537019110015535,0.0,0.00967032967032967,0.010476190476190476
7.058186457001284,0.0,0.00967032967032967,0.010476190476190476
7.05843699199977,0.0,0.00967032967032967,0.010476190476190476
7.063703363000968,0.0,0.00967032967032967,0.010476190476190476
7.066087449002225,0.0,0.00967032967032967,0.010476190476190476
7.066300687001785,0.0,0.00967032967032967,0.010476190476190476
7.071616675002588,0.0,0.00967032967032967,0.010476190476190476
7.074668176999694,0.0,0.00967032967032967,0.010476190476190476
7.076984049002931,0.0,0.00967032967032967,0.010476190476190476
7.077102546001697,0.0,0.00967032967032967,0.010476190476190476
7.082561956001882,0.0,0.00967032967032967,0.010476190476190476
7.08438740299971,0.0,0.00967032967032967,0.010476190476190476
7.087494340001285,0.0,0.00967032967032967,0.010476190476190476
7.088367260002997,0.0,0.0,0.0
7.089937649001513,0.0,0.0,0.0
7.093968286000745,0.0,0.0,0.0
7.0978528410014405,0.0,0.0,0.0
7.100910885001213,0.0,0.0,0.0
7.103180695001356,0.0,0.0,0.0
7.103477169002872,0.0,0.0,0.0
7.108889295999688,0.0,0.0,0.0
7.111357937003049,0.0,0.0,0.0
7.111478169001202,0.0,0.0,0.0
7.11678207300065,0.0,0.0,0.0
7.118492134999542,0.0,0.026593406593406595,0.01934065934065934
7.122419450002781,0.0,0.007252747252747252,0.0
7.1262160440019215,0.0,0.007252747252747252,0.0
7.130048490002082,0.0,0.007252747252747252,0.0
7.134598103002645,0.0,0.016117216117216115,0.0136996336996337
7.135476486000698,0.0,0.010476190476190476,0.018534798534798533
7.137104328001442,0.0,0.010476190476190476,0.018534798534798533
7.141103286001453,0.0,0.010476190476190476,0.018534798534798533
7.1448606490012025,0.0,0.010476190476190476,0.018534798534798533
7.150368954000442,0.0,0.008058608058608058,0.0
7.151213582001219,0.0,0.008058608058608058,0.0
7.1527516930000274,0.0,0.008058608058608058,0.0
7.156525373000477,0.0,0.008058608058608058,0.0
7.160846612001478,0.0,0.008058608058608058,0.0
7.162371010002971,0.0,0.008058608058608058,0.0
7.167282922000595,0.0,0.008058608058608058,0.0
7.171547453999665,0.0,0.00967032967032967,0.0016117216117216117
7.173687065002014,0.0,0.00967032967032967,0.0016117216117216117
7.1744837570004165,0.0,0.00967032967032967,0.0016117216117216117
7.1759923480021826,0.0,0.00967032967032967,0.0016117216117216117
7.181398664000881,0.0,0.00967032967032967,0.0016117216117216117
7.18297431800238,0.0,0.0,0.0008058608058608059
7.186680242000875,0.0,0.0,0.0008058608058608059
7.191261752999708,0.0,0.0,0.0008058608058608059
7.191480460001912,0.0,0.0,0.0008058608058608059
7.197070417001669,0.0,0.0,0.0008058608058608059
7.197323178999795,0.0,0.0,0.0008058608058608059
7.202970301001187,0.0,0.0,0.0008058608058608059
7.203034309000941,0.0,0.0,0.0008058608058608059
7.2083324900013395,0.0,0.0,0.0008058608058608059
7.209889212001144,0.0,0.0,0.0008058608058608059
7.214372318001551,0.0,0.0,0.0008058608058608059
7.214655072999449,0.0,0.012893772893772894,0.014505494505494505
7.219950396000058,0.0,0.012893772893772894,0.014505494505494505
7.222273842002323,0.0,0.012893772893772894,0.014505494505494505
7.222489632000361,0.0,0.012893772893772894,0.014505494505494505
7.227789896001923,0.0,0.012893772893772894,0.014505494505494505
7.229379390002578,0.0,0.012893772893772894,0.014505494505494505
7.233899230999668,0.0,0.012893772893772894,0.014505494505494505
7.234184332002769,0.0,0.012893772893772894,0.014505494505494505
7.238994454000931,0.0,0.012893772893772894,0.014505494505494505
7.239065626999945,0.0,0.012893772893772894,0.014505494505494505
7.244396719001088,0.0,0.012893772893772894,0.014505494505494505
7.246909486002551,0.0,0.012893772893772894,0.014505494505494505
7.2522993050006335,0.0,0.012893772893772894,0.014505494505494505
7.253212196999812,0.0,0.012087912087912087,0.0
7.254795267002919,0.0,0.012087912087912087,0.0
7.258556920001865,0.0,0.012087912087912087,0.0
7.2630658140005835,0.0,0.012087912087912087,0.0
7.263879625003028,0.0,0.012087912087912087,0.0
7.265485934000026,0.0,0.012087912087912087,0.0
7.269233163002355,0.0,0.012087912087912087,0.05399267399267399
7.273791987001459,0.0,0.006446886446886447,0.0008058608058608059
7.274660037001013,0.0,0.006446886446886447,0.0008058608058608059
7.276237960002618,0.0,0.006446886446886447,0.0008058608058608059
7.279981032002979,0.0,0.006446886446886447,0.0008058608058608059
7.284637836000911,0.0,0.0,0.0
7.290080464001221,0.0,0.0,0.0
7.290936089000752,0.0,0.008058608058608058,0.008864468864468863
7.292563008002617,0.0,0.008058608058608058,0.008864468864468863
7.297014496001793,0.0,0.008058608058608058,0.008864468864468863
7.2972957540005154,0.0,0.018534798534798533,0.07252747252747253
7.302756113000214,0.0,0.018534798534798533,0.07252747252747253
7.305101474001276,0.0,0.018534798534798533,0.07252747252747253
7.30526274300064,0.0,0.018534798534798533,0.07252747252747253
7.310761028002162,0.0,0.018534798534798533,0.07252747252747253
7.312352824999834,0.0,0.018534798534798533,0.07252747252747253
7.316110776002461,0.0,0.018534798534798533,0.07252747252747253
7.319894594002108,0.0,0.018534798534798533,0.07252747252747253
7.325216105000436,0.0,0.018534798534798533,0.07252747252747253
7.3267869830015115,0.0,0.012893772893772894,0.006446886446886447
7.331415922002634,0.0,0.014505494505494505,0.0
7.331573374001891,0.0,0.014505494505494505,0.0
7.336873074000323,0.0,0.014505494505494505,0.0
7.339949766002974,0.0,0.014505494505494505,0.0
7.341558052001346,0.0,0.0,0.0
7.34608923199994,0.0,0.0,0.0
7.346291453999584,0.0,0.0,0.0
7.351680091000162,0.0,0.0,0.0
7.353270429000986,0.0,0.0032234432234432234,0.0
7.357137420000072,0.0,0.0032234432234432234,0.0
7.36024456800078,0.0,0.0032234432234432234,0.0
7.361718326999835,0.0,0.0032234432234432234,0.0
7.365989571000682,0.0,0.0032234432234432234,0.0
7.368122998999752,0.0,0.0032234432234432234,0.0
7.368868958001258,0.0,0.0032234432234432234,0.0
7.371035072999803,0.0,0.0032234432234432234,0.0
7.372481317001075,0.0,0.0032234432234432234,0.0
7.37671437100289,0.0,0.0032234432234432234,0.0
7.379580507000355,0.0,0.0032234432234432234,0.0
7.382411085000058,0.0,0.0032234432234432234,0.0
7.38590509200003,0.0,0.0032234432234432234,0.0
7.385978274000081,0.0,0.0032234432234432234,0.0
7.390918675002467,0.0,0.006446886446886447,0.00967032967032967
7.396525399999518,0.0,0.006446886446886447,0.00967032967032967
7.396732089000579,0.0,0.0136996336996337,0.0008058608058608059
7.401702932002081,0.0,0.0136996336996337,0.0008058608058608059
7.405957464001403,0.0,0.028205128205128206,0.017728937728937726
7.408132363001641,0.0,0.028205128205128206,0.017728937728937726
7.408875492001243,0.0,0.028205128205128206,0.017728937728937726
7.411013021002873,0.0,0.028205128205128206,0.017728937728937726
7.411810929999774,0.0,0.028205128205128206,0.017728937728937726
7.413961566002399,0.0,0.028205128205128206,0.017728937728937726
7.4147271100009675,0.0,0.028205128205128206,0.017728937728937726
7.416917190999811,0.0,0.028205128205128206,0.017728937728937726
7.4177692890007165,0.0,0.028205128205128206,0.017728937728937726
7.419254071999603,0.0,0.028205128205128206,0.017728937728937726
7.423551662999671,0.0,0.017728937728937726,0.0
7.425711594001768,0.0,0.017728937728937726,0.0
7.427176479999616,0.0,0.017728937728937726,0.0
7.431479140999727,0.0,0.017728937728937726,0.0
7.4329906740022125,0.0,0.017728937728937726,0.0
7.437950233001175,0.0,0.017728937728937726,0.0
7.441424044001906,0.0,0.017728937728937726,0.0
7.441594518000784,0.0,0.017728937728937726,0.0
7.446524885002873,0.0,0.017728937728937726,0.0
7.450730353000836,0.0,0.017728937728937726,0.0
7.452284164002776,0.0,0.017728937728937726,0.0
7.45642792900253,0.0,0.017728937728937726,0.0
7.45797386599952,0.0,0.017728937728937726,0.0
7.4621477340006095,0.0,0.017728937728937726,0.0
7.464323036001588,0.0,0.0,0.0
7.465107203999651,0.0,0.0,0.0
7.467211507002503,0.0,0.0,0.0
7.468098634999478,0.0,0.0,0.0
7.4702651650004555,0.0,0.0,0.0
7.471147082000243,0.0,0.0,0.0
7.473217939001188,0.0,0.0,0.0
7.474625497001398,0.0,0.0,0.0
7.478869009002665,0.0,0.0,0.0
7.481097877000138,0.0,0.0,0.0
7.4818754170009925,0.0,0.0,0.0
7.484043286000087,0.0,0.0,0.0
7.485471300002246,0.0,0.0,0.0
7.489640248000796,0.0,0.0,0.0
7.4920988630001375,0.0,0.0,0.0
7.497139156999765,0.0,0.008864468864468863,0.028205128205128206
7.50138783500006,0.0,0.022564102564102562,0.02095238095238095
7.503514596999594,0.0,0.00967032967032967,0.007252747252747252
7.504344316002971,0.0,0.00967032967032967,0.007252747252747252
7.505830540001625,0.0,0.00967032967032967,0.007252747252747252
7.510903185000643,0.0,0.006446886446886447,0.0008058608058608059
7.513771740002994,0.0,0.006446886446886447,0.0008058608058608059
7.517318997000984,0.0,0.016117216117216115,0.024175824175824173
7.517548920000991,0.0,0.016117216117216115,0.024175824175824173
7.522503098000016,0.0,0.016117216117216115,0.024175824175824173
7.526735891002318,0.0,0.0,0.01934065934065934
7.528271743001824,0.0,0.0,0.01934065934065934
7.532516249000764,0.0,0.0,0.01934065934065934
7.535379635002755,0.0,0.0,0.01934065934065934
7.539095256001019,0.0,0.0,0.01934065934065934
7.54457567999998,0.0,0.0,0.01934065934065934
7.546120683000481,0.0,0.0,0.01934065934065934
7.550075023002137,0.0,0.0,0.01934065934065934
7.554056674001913,0.0,0.0,0.01934065934065934
7.556459166000423,0.0,0.0,0.0
7.5565918989996135,0.0,0.0,0.0
7.561921117001475,0.0,0.0,0.0
7.5641848020022735,0.0,0.0,0.0
7.564427061002789,0.0,0.0,0.0
7.569372250000015,0.0,0.0,0.0
7.572880968000391,0.0,0.0,0.0
7.573027654001635,0.0,0.0,0.0
7.578021209999861,0.0,0.006446886446886447,0.0
7.5816135380009655,0.0,0.006446886446886447,0.0
7.581754776001617,0.0,0.006446886446886447,0.0
7.586705019002693,0.0,0.006446886446886447,0.0
7.590944080002373,0.0,0.0,0.008058608058608058
7.59266331100298,0.0,0.0,0.008058608058608058
7.598887280000781,0.0,0.008058608058608058,0.016923076923076923
7.603843749002408,0.0,0.011282051282051281,0.0008058608058608059
7.608914298001764,0.0,0.011282051282051281,0.0008058608058608059
7.609186636000231,0.0,0.011282051282051281,0.0008058608058608059
7.616398031001154,0.0,0.011282051282051281,0.0008058608058608059
7.622339116001967,0.0,0.007252747252747252,0.0
7.626186034001876,0.0,0.007252747252747252,0.0
7.630107487002533,0.0,0.007252747252747252,0.0
7.6331164770017494,0.0,0.007252747252747252,0.0
7.634851107999566,0.0,0.00967032967032967,0.0
7.638102707001963,0.0,0.00967032967032967,0.0
7.638938223000878,0.0,0.012087912087912087,0.0
7.640569868002785,0.0,0.012087912087912087,0.0
7.645520000001852,0.0,0.012087912087912087,0.0
7.650265166001191,0.0,0.0,0.05963369963369963
7.654030137000518,0.0,0.0,0.05963369963369963
7.660901094001019,0.0,0.016117216117216115,0.0032234432234432234
7.666775940000662,0.0,0.0016117216117216117,0.0
7.672662958000728,0.0,0.03304029304029304,0.0
7.677971707002143,0.0,0.03304029304029304,0.0
7.6782566830006544,0.0,0.10556776556776555,0.02498168498168498
7.68679514500036,0.0,0.10556776556776555,0.02498168498168498
7.693575048000639,0.0,0.011282051282051281,0.026593406593406595
7.698873828001524,0.0,0.011282051282051281,0.026593406593406595
7.699114703002124,0.0,0.011282051282051281,0.026593406593406595
7.70761542100081,0.0,0.011282051282051281,0.026593406593406595
7.716399270000693,0.0,0.011282051282051281,0.026593406593406595
7.7233784689997265,0.0,0.011282051282051281,0.026593406593406595
7.728795213999547,0.0,0.011282051282051281,0.026593406593406595
7.729045136002242,0.0,0.0,0.0
7.736895803001971,0.0,0.0,0.0
7.744187369000429,0.0,0.0,0.0
7.747904992000258,0.0,0.0,0.008864468864468863
7.7555723330006,0.0,0.014505494505494505,0.0
7.761561638002604,0.0,0.014505494505494505,0.0
7.770009402000142,0.0,0.005641025641025641,0.0
7.774174717000278,0.0,0.005641025641025641,0.0
7.776972720002959,0.0,0.005641025641025641,0.0
7.7798774060029245,0.0,0.005641025641025641,0.0
7.7831492200020875,0.0,0.005641025641025641,0.0
7.783478127999842,0.0,0.005641025641025641,0.0
7.789061308001692,0.0,0.005641025641025641,0.0
7.7898757080001815,0.0,0.005641025641025641,0.0
7.791498563001369,0.0,0.005641025641025641,0.0
7.7955540910006675,0.0,0.005641025641025641,0.0
7.79714671200054,0.0,0.005641025641025641,0.0
7.800964230002137,0.0,0.005641025641025641,0.0
7.804761308001616,0.0,0.005641025641025641,0.0
7.808663410000008,0.0,0.005641025641025641,0.0
7.812533653002902,0.0,0.005641025641025641,0.0
7.817015972999798,0.0,0.005641025641025641,0.0
7.817246189999423,0.0,0.005641025641025641,0.0
7.822651638001844,0.0,0.005641025641025641,0.0
7.824932126000931,0.0,0.005641025641025641,0.0
7.825028495000879,0.0,0.005641025641025641,0.0
7.830228332000843,0.0,0.005641025641025641,0.0
7.833410522001941,0.0,0.0,0.01531135531135531
7.83497907200217,0.0,0.0,0.01531135531135531
7.838856182999734,0.0,0.0,0.01531135531135531
7.843678664001345,0.0,0.0,0.01531135531135531
7.8481877430022,0.0,0.017728937728937726,0.0032234432234432234
7.848489128002257,0.0,0.017728937728937726,0.0032234432234432234
7.853835230002005,0.0,0.017728937728937726,0.0032234432234432234
7.8555320859995845,0.0,0.017728937728937726,0.0032234432234432234
7.858669541001291,0.0,0.017728937728937726,0.0032234432234432234
7.8595156200026395,0.0,0.017728937728937726,0.0032234432234432234
7.861197793001338,0.0,0.017728937728937726,0.0032234432234432234
7.864945821002038,0.0,0.017728937728937726,0.0032234432234432234
7.869450837999466,0.0,0.017728937728937726,0.0032234432234432234
7.8697061960010615,0.0,0.017728937728937726,0.0032234432234432234
