time,emg1,emg2,emg3
0.002044859000307042,0.0,0.2651282051282051,1.7503296703296702
0.0337188019984751,0.0,0.2651282051282051,1.7503296703296702
0.03409401499811793,0.0,0.2651282051282051,1.7503296703296702
0.04392393500165781,0.0,0.2651282051282051,1.7503296703296702
0.05127821399946697,0.0,0.2651282051282051,1.7503296703296702
0.05639747399982298,1.6624908424908424,1.4352380952380952,1.4634432234432233
0.059174408997932915,1.6624908424908424,1.4352380952380952,1.4634432234432233
0.06367750900244573,1.6624908424908424,1.4352380952380952,1.4634432234432233
0.06386415599990869,1.6624908424908424,1.4352380952380952,1.4634432234432233
0.06909268400340807,1.6624908424908424,1.4352380952380952,1.4634432234432233
0.07174782999936724,1.5746520146520147,0.5786080586080585,3.1646153846153844
0.0769537880041753,1.5746520146520147,0.5786080586080585,3.1646153846153844
0.08114749000378652,1.5746520146520147,0.5786080586080585,3.1646153846153844
0.083698013004323,0.0,0.1805128205128205,1.2450549450549449
0.08956753100210335,0.3690842490842491,0.46417582417582415,3.3
0.08968330900097499,0.3690842490842491,0.46417582417582415,3.3
0.09472137400007341,0.3690842490842491,0.46417582417582415,3.3
0.09912049800186651,0.29010989010989013,0.17809523809523808,2.2136996336996333
0.10003909099759767,0.29010989010989013,0.17809523809523808,2.2136996336996333
0.10094599700096296,0.29010989010989013,0.17809523809523808,2.2136996336996333
0.10260890000063227,0.29010989010989013,0.17809523809523808,2.2136996336996333
0.10574473199812928,0.29010989010989013,0.17809523809523808,2.2136996336996333
0.10802076900290558,0.29010989010989013,0.17809523809523808,2.2136996336996333
0.10825745300098788,0.29010989010989013,0.17809523809523808,2.2136996336996333
0.11285222900187364,0.9275457875457875,0.2602930402930403,3.3
0.1137734400035697,0.9275457875457875,0.2602930402930403,3.3
0.11532330499903765,0.9275457875457875,0.2602930402930403,3.3
0.11970336100057466,0.9275457875457875,0.2602930402930403,3.3
0.12129686799744377,0.0,0.22725274725274724,1.58996336996337
0.12568805900082225,0.0,0.22725274725274724,1.58996336996337
0.12666167499992298,0.0,0.22725274725274724,1.58996336996337
0.12751546499930555,0.0,0.22725274725274724,1.58996336996337
0.12975731799815549,0.0,0.22725274725274724,1.58996336996337
0.1300097769999411,0.0,0.22725274725274724,1.58996336996337
0.13508099599857815,0.0,0.22725274725274724,1.58996336996337
0.13948466099827783,0.0,0.22725274725274724,1.58996336996337
0.14037008000013884,0.0,0.2087179487179487,1.3788278388278388
0.1420006309999735,0.0,0.2087179487179487,1.3788278388278388
0.15002308200200787,0.0,0.2087179487179487,1.3788278388278388
0.15379206200304907,0.07494505494505493,0.1821245421245421,1.2192673992673992
0.15911381899786647,0.07494505494505493,0.1821245421245421,1.2192673992673992
0.1621346110041486,0.07494505494505493,0.1821245421245421,1.2192673992673992
0.164614398003323,0.07494505494505493,0.1821245421245421,1.2192673992673992
0.1700938470021356,0.07494505494505493,0.1821245421245421,1.2192673992673992
0.17241514300258132,0.07494505494505493,0.1821245421245421,1.2192673992673992
0.1726814670037129,0.07494505494505493,0.1821245421245421,1.2192673992673992
0.17746317200362682,0.07494505494505493,0.1821245421245421,1.2192673992673992
0.1869120350020239,0.2917216117216117,0.5536263736263736,0.689010989010989
0.19539831799920648,0.2917216117216117,0.5536263736263736,0.689010989010989
0.20117240199761,0.0,0.3884249084249084,2.37003663003663
0.20665660600207048,0.0,0.3884249084249084,2.37003663003663
0.2081741520014475,0.0,0.3884249084249084,2.37003663003663
0.21306672900391277,0.0,0.3884249084249084,2.37003663003663
0.22100189000047976,0.0,0.3884249084249084,2.37003663003663
0.22658875300112413,0.0,0.18373626373626373,1.2039560439560437
0.235840517001634,1.5947985347985347,0.6197069597069597,3.03003663003663
0.24498487100208877,0.726080586080586,0.190989010989011,3.3
0.2533712970034685,1.9783882783882782,0.6543589743589743,2.561831501831502
0.2605641710033524,1.9783882783882782,0.6543589743589743,2.561831501831502
0.26473160100431414,0.0,0.22564102564102564,1.5174358974358972
0.2670059200027026,0.0,0.22564102564102564,1.5174358974358972
0.2672460449975915,0.0,0.22564102564102564,1.5174358974358972
0.2760846050005057,0.0,0.22564102564102564,1.5174358974358972
0.2812607579980977,1.1193406593406594,0.2715750915750916,3.3
0.2863026519989944,1.1193406593406594,0.2715750915750916,3.3
0.2892693620015052,0.33926739926739924,0.6245421245421244,0.7663736263736264
0.2917564079980366,0.33926739926739924,0.6245421245421244,0.7663736263736264
0.297249663999537,0.33926739926739924,0.6245421245421244,0.7663736263736264
0.29878846499923384,0.33926739926739924,0.6245421245421244,0.7663736263736264
0.3051200810004957,0.33926739926739924,0.6245421245421244,0.7663736263736264
0.3084938449974288,0.33926739926739924,0.6245421245421244,0.7663736263736264
0.30877641400002176,0.33926739926739924,0.6245421245421244,0.7663736263736264
0.3145958259992767,0.33926739926739924,0.6245421245421244,0.7663736263736264
0.31478346299991244,0.1523076923076923,0.4512820512820513,0.8590476190476191
0.32263949700427474,0.1523076923076923,0.4512820512820513,0.8590476190476191
0.3266295369976433,0.1523076923076923,0.4512820512820513,0.8590476190476191
0.3306442379980581,0.1523076923076923,0.4512820512820513,0.8590476190476191
0.33517452600062825,0.1523076923076923,0.4512820512820513,0.8590476190476191
0.33544995699776337,0.1523076923076923,0.4512820512820513,0.8590476190476191
0.34130521200131625,0.1523076923076923,0.4512820512820513,0.8590476190476191
0.3468521239992697,0.1523076923076923,0.4512820512820513,0.8590476190476191
0.348433698003646,0.1523076923076923,0.4512820512820513,0.8590476190476191
0.3536133529996732,1.6334798534798534,0.32556776556776557,2.552967032967033
0.3566025160034769,1.6334798534798534,0.32556776556776557,2.552967032967033
0.359087452001404,1.6334798534798534,0.32556776556776557,2.552967032967033
0.36461989000235917,1.6334798534798534,0.32556776556776557,2.552967032967033
0.3654650780008524,1.6334798534798534,0.32556776556776557,2.552967032967033
0.3676037519981037,1.6334798534798534,0.32556776556776557,2.552967032967033
0.3688954780009226,1.6334798534798534,0.32556776556776557,2.552967032967033
0.37731285500194645,1.6334798534798534,0.32556776556776557,2.552967032967033
0.3827458710002247,0.5068864468864469,0.21032967032967032,2.274945054945055
0.38620959000400035,0.5068864468864469,0.21032967032967032,2.274945054945055
0.39503275400056737,0.5068864468864469,0.21032967032967032,2.274945054945055
0.40133818599861115,0.5068864468864469,0.21032967032967032,2.274945054945055
0.40613046100042993,0.5068864468864469,0.21032967032967032,2.274945054945055
0.41119688100297935,0.5068864468864469,0.21032967032967032,2.274945054945055
0.4149649379978655,0.5068864468864469,0.21032967032967032,2.274945054945055
0.4224554510001326,0.5068864468864469,0.21032967032967032,2.274945054945055
0.4263856149991625,0.0,0.253040293040293,1.4328205128205127
0.430253120000998,0.0,0.253040293040293,1.4328205128205127
0.4367002639992279,0.0,0.253040293040293,1.4328205128205127
0.44029069100361085,0.0,0.253040293040293,1.4328205128205127
0.4459802790006506,0.0,0.253040293040293,1.4328205128205127
0.44623153500288026,1.7172893772893774,1.4304029304029304,0.7832967032967032
0.45305709300009767,1.7172893772893774,1.4304029304029304,0.7832967032967032
0.4592410600016592,1.7172893772893774,1.4304029304029304,0.7832967032967032
0.4635208510007942,1.7172893772893774,1.4304029304029304,0.7832967032967032
0.4638066940024146,1.7172893772893774,1.4304029304029304,0.7832967032967032
0.4731494430016028,1.7172893772893774,1.4304029304029304,0.7832967032967032
0.4784480669986806,1.7172893772893774,1.4304029304029304,0.7832967032967032
0.48005000300327083,1.7172893772893774,1.4304029304029304,0.7832967032967032
0.4848016510004527,1.7172893772893774,1.4304029304029304,0.7832967032967032
0.48514307800360257,1.7172893772893774,1.4304029304029304,0.7832967032967032
0.4901803800021298,1.7172893772893774,1.4304029304029304,0.7832967032967032
0.49409626299893716,1.7172893772893774,1.4304029304029304,0.7832967032967032
0.49809440100216307,1.7172893772893774,1.4304029304029304,0.7832967032967032
0.5013489300035872,1.7172893772893774,1.4304029304029304,0.7832967032967032
0.5025380480001331,1.7172893772893774,1.4304029304029304,0.7832967032967032
0.5026993229985237,1.7172893772893774,1.4304029304029304,0.7832967032967032
0.5086617470005876,1.7172893772893774,1.4304029304029304,0.7832967032967032
0.5141519879980478,1.7172893772893774,1.4304029304029304,0.7832967032967032
0.5150347630042234,1.7172893772893774,1.4304029304029304,0.7832967032967032
0.5170211069998913,1.7172893772893774,1.4304029304029304,0.7832967032967032
0.5203580529996543,0.0,0.3424908424908425,2.386959706959707
0.5204860250014463,0.0,0.3424908424908425,2.386959706959707
0.5271192209984292,0.0,0.3424908424908425,2.386959706959707
0.531349347998912,0.0,0.3424908424908425,2.386959706959707
0.5349278100038646,0.0,0.3424908424908425,2.386959706959707
0.544270049998886,0.0,0.3424908424908425,2.386959706959707
0.5493410499984748,0.0,0.3424908424908425,2.386959706959707
0.5579616210015956,0.9920146520146519,0.2562637362637363,3.3
0.5626640980044613,0.9920146520146519,0.2562637362637363,3.3
0.5629405470026541,0.9920146520146519,0.2562637362637363,3.3
0.5702527770044981,0.9920146520146519,0.2562637362637363,3.3
0.5744064079990494,0.9920146520146519,0.2562637362637363,3.3
0.5753653549982118,2.104102564102564,1.5254945054945055,1.0395604395604394
0.5763103619974572,2.104102564102564,1.5254945054945055,1.0395604395604394
0.5780166530021233,2.104102564102564,1.5254945054945055,1.0395604395604394
0.5811429960012902,0.0,0.2756043956043956,1.4304029304029304
0.5839173639978981,0.029816849816849816,0.1805128205128205,1.3151648351648353
0.5911282489978475,0.029816849816849816,0.1805128205128205,1.3151648351648353
0.5976209220025339,0.029816849816849816,0.1805128205128205,1.3151648351648353
0.6022384660027456,0.43113553113553116,0.6438827838827839,0.5616849816849817
0.6024503490043571,1.1596336996336996,0.49802197802197795,3.3
0.6084256340036518,1.1596336996336996,0.49802197802197795,3.3
0.6130379040041589,1.1596336996336996,0.49802197802197795,3.3
0.6133077420017798,1.0016849816849815,0.24578754578754577,3.3
0.6192051920006634,1.0016849816849815,0.24578754578754577,3.3
0.6273067860020092,1.0016849816849815,0.24578754578754577,3.3
0.6319073699996807,1.9252014652014653,0.4964102564102564,2.557802197802198
0.6321470629991381,1.9252014652014653,0.4964102564102564,2.557802197802198
0.6390901729973848,1.9252014652014653,0.4964102564102564,2.557802197802198
0.6433650250037317,0.016117216117216115,0.2756043956043956,1.2039560439560437
0.6462369430009858,0.016117216117216115,0.2756043956043956,1.2039560439560437
0.6509583060033037,0.016117216117216115,0.2756043956043956,1.2039560439560437
0.6582560579990968,0.016117216117216115,0.2756043956043956,1.2039560439560437
0.6631623810026213,0.016117216117216115,0.2756043956043956,1.2039560439560437
0.6689831390031031,0.016117216117216115,0.2756043956043956,1.2039560439560437
0.6692145659981179,0.016117216117216115,0.2756043956043956,1.2039560439560437
0.6757635180038051,0.016117216117216115,0.2756043956043956,1.2039560439560437
0.679813169001136,0.7389743589743589,0.20307692307692307,3.3
0.6841557310035569,0.7389743589743589,0.20307692307692307,3.3
0.6869542010026635,0.7389743589743589,0.20307692307692307,3.3
0.6896747950013378,0.7389743589743589,0.20307692307692307,3.3
0.6944583290023729,1.1854212454212454,0.3021978021978022,3.3
0.6998534180020215,1.1854212454212454,0.3021978021978022,3.3
0.7032192410042626,1.1854212454212454,0.3021978021978022,3.3
0.70357159699779,2.1363369963369965,0.7567032967032966,2.5715018315018314
0.7083319040029892,2.1363369963369965,0.7567032967032966,2.5715018315018314
0.7129360390026704,1.556117216117216,0.5471794871794872,3.3
0.7132154479986639,0.8058608058608058,0.2345054945054945,3.3
0.718682439000986,0.8058608058608058,0.2345054945054945,3.3
0.720571548998123,1.7043956043956046,1.5206593406593405,1.2587545787545786
0.7227145750002819,1.7043956043956046,1.5206593406593405,1.2587545787545786
0.7229919210003573,1.7043956043956046,1.5206593406593405,1.2587545787545786
0.7277383410037146,1.7043956043956046,1.5206593406593405,1.2587545787545786
0.7279812670021784,1.5625641025641024,0.5157509157509157,3.3
0.7325086780037964,1.5625641025641024,0.5157509157509157,3.3
0.7333984400029294,0.0419047619047619,0.21435897435897436,0.7978021978021977
0.7351932189994841,0.0419047619047619,0.21435897435897436,0.7978021978021977
0.7414234730022145,0.0419047619047619,0.21435897435897436,0.7978021978021977
0.7450501600033022,0.0419047619047619,0.21435897435897436,0.7978021978021977
0.7452103719988372,0.0419047619047619,0.21435897435897436,0.7978021978021977
0.7503503289990476,0.0419047619047619,0.21435897435897436,0.7978021978021977
0.7550824130012188,0.0419047619047619,0.21435897435897436,0.7978021978021977
0.7597447049993207,0.0419047619047619,0.21435897435897436,0.7978021978021977
0.7598740489993361,0.0419047619047619,0.21435897435897436,0.7978021978021977
0.7652842800016515,0.0419047619047619,0.21435897435897436,0.7978021978021977
0.769389218003198,0.0419047619047619,0.21435897435897436,0.7978021978021977
0.7729009809991112,1.311135531135531,0.3545787545787546,3.3
0.7790849829980289,1.311135531135531,0.3545787545787546,3.3
0.7829788220042246,1.311135531135531,0.3545787545787546,3.3
0.7899298740012455,1.311135531135531,0.3545787545787546,3.3
0.7935842930019135,1.569010989010989,0.40534798534798533,2.5481318681318683
0.7984800659978646,1.569010989010989,0.40534798534798533,2.5481318681318683
0.8063228180035367,1.569010989010989,0.40534798534798533,2.5481318681318683
0.8114497240021592,0.6712820512820512,0.3876190476190476,2.5642490842490844
0.8145089550016564,0.6712820512820512,0.3876190476190476,2.5642490842490844
0.8160686909977812,0.6712820512820512,0.3876190476190476,2.5642490842490844
0.8235316990030697,0.6712820512820512,0.3876190476190476,2.5642490842490844
0.8278110750034102,0.3432967032967033,0.6479120879120879,0.7405860805860806
0.8298184939994826,1.5625641025641024,0.6285714285714284,2.7326739926739925
0.8314351860026363,1.5625641025641024,0.6285714285714284,2.7326739926739925
0.8377883510038373,1.5625641025641024,0.6285714285714284,2.7326739926739925
0.84149517500191,1.5625641025641024,0.6285714285714284,2.7326739926739925
0.8460491509977146,0.7776556776556776,0.4520879120879121,2.7334798534798534
0.8462982639975962,0.7776556776556776,0.4520879120879121,2.7334798534798534
0.8525182079974911,0.7776556776556776,0.4520879120879121,2.7334798534798534
0.8569727520007291,0.7776556776556776,0.4520879120879121,2.7334798534798534
0.8579297920005047,0.7776556776556776,0.4520879120879121,2.7334798534798534
0.8596291190042393,0.7776556776556776,0.4520879120879121,2.7334798534798534
0.8628508280016831,0.9646153846153847,0.30864468864468864,3.2387545787545786
0.8646019750012783,0.9646153846153847,0.30864468864468864,3.2387545787545786
0.8678096310031833,0.9646153846153847,0.30864468864468864,3.2387545787545786
0.869168012002774,0.9646153846153847,0.30864468864468864,3.2387545787545786
0.876633485997445,0.9646153846153847,0.30864468864468864,3.2387545787545786
0.8812514419987565,0.9646153846153847,0.30864468864468864,3.2387545787545786
0.881535125998198,0.9646153846153847,0.30864468864468864,3.2387545787545786
0.8907018559984863,0.9557509157509158,0.4383882783882784,2.552967032967033
0.8956978650021483,1.506959706959707,0.61003663003663,2.5021978021978017
0.9008956929974374,0.2079120879120879,0.18615384615384614,1.8792673992673992
0.9053640010024537,0.2079120879120879,0.18615384615384614,1.8792673992673992
0.9118411290037329,0.2079120879120879,0.18615384615384614,1.8792673992673992
0.9155565960027161,0.2079120879120879,0.18615384615384614,1.8792673992673992
0.9235898820043076,0.2079120879120879,0.18615384615384614,1.8792673992673992
0.9283369199984008,0.2079120879120879,0.18615384615384614,1.8792673992673992
0.9286118719974183,0.2079120879120879,0.18615384615384614,1.8792673992673992
0.9332138009995106,0.2079120879120879,0.18615384615384614,1.8792673992673992
0.9348606650019065,0.2079120879120879,0.18615384615384614,1.8792673992673992
0.9387716210039798,0.2079120879120879,0.18615384615384614,1.8792673992673992
0.9422956390044419,0.2079120879120879,0.18615384615384614,1.8792673992673992
0.9426085049999529,0.2079120879120879,0.18615384615384614,1.8792673992673992
0.9464706430007936,0.2079120879120879,0.18615384615384614,1.8792673992673992
0.9522723100017174,0.2079120879120879,0.18615384615384614,1.8792673992673992
0.9588219500001287,0.006446886446886447,0.18534798534798536,0.8485714285714284
0.9627615440040245,0.0,0.28446886446886444,1.4070329670329669
0.9663607210022747,0.0,0.28446886446886444,1.4070329670329669
0.9665865220013075,0.0,0.28446886446886444,1.4070329670329669
0.9738076740031829,0.0,0.28446886446886444,1.4070329670329669
0.9778292100018007,0.2643223443223443,0.61003663003663,0.6197069597069597
0.9817555909976363,0.2643223443223443,0.61003663003663,0.6197069597069597
0.9885330789984437,0.2643223443223443,0.61003663003663,0.6197069597069597
0.9939071900007548,0.8630769230769231,0.24175824175824176,3.2347252747252746
0.9948467369977152,0.2095238095238095,0.18534798534798536,1.581904761904762
0.9964368599976297,0.2095238095238095,0.18534798534798536,1.581904761904762
1.0005593379974016,0.2095238095238095,0.18534798534798536,1.581904761904762
1.0050069670032826,0.022564102564102562,0.27076923076923076,0.904981684981685
1.0051830480006174,0.022564102564102562,0.27076923076923076,0.904981684981685
1.0106841529996018,0.022564102564102562,0.27076923076923076,0.904981684981685
1.0123198159999447,0.022564102564102562,0.27076923076923076,0.904981684981685
1.0169404150001355,0.27076923076923076,0.1813186813186813,2.006593406593406
1.017182893003337,0.27076923076923076,0.1813186813186813,2.006593406593406
1.0229734149979777,0.27076923076923076,0.1813186813186813,2.006593406593406
1.0284591630042996,0.27076923076923076,0.1813186813186813,2.006593406593406
1.0300057170024957,0.27076923076923076,0.1813186813186813,2.006593406593406
1.035414824000327,0.21435897435897436,0.1958241758241758,1.5158241758241757
1.0374836350019905,0.3078388278388278,0.1942124542124542,2.166153846153846
1.037792470997374,0.3078388278388278,0.1942124542124542,2.166153846153846
1.043000484998629,0.3078388278388278,0.1942124542124542,2.166153846153846
1.048127469002793,0.5600732600732601,0.4142124542124542,2.4756043956043956
1.0518913690029876,1.5851282051282052,0.5173626373626373,3.3
1.0562393639993388,1.5851282051282052,0.5173626373626373,3.3
1.0571594840002945,1.5851282051282052,0.5173626373626373,3.3
1.058082456002012,1.5851282051282052,0.5173626373626373,3.3
1.059788896003738,1.5851282051282052,0.5173626373626373,3.3
1.0629818360030185,0.0,0.17809523809523808,1.2144322344322345
1.0646560579989455,0.0,0.17809523809523808,1.2144322344322345
1.0684482170036063,0.0,0.17809523809523808,1.2144322344322345
1.073899454997445,0.0,0.17809523809523808,1.2144322344322345
1.0759794000041438,0.0,0.17809523809523808,1.2144322344322345
1.0769599100021878,1.9268131868131868,1.506153846153846,1.2579487179487179
1.0779049030024908,1.9268131868131868,1.506153846153846,1.2579487179487179
1.0800051120022545,1.9268131868131868,1.506153846153846,1.2579487179487179
1.0804452759984997,1.9268131868131868,1.506153846153846,1.2579487179487179
1.0859102530012024,1.9268131868131868,1.506153846153846,1.2579487179487179
1.0869238150044112,0.49399267399267394,0.4351648351648352,3.3
1.0878175660036504,0.49399267399267394,0.4351648351648352,3.3
1.088850532003562,0.49399267399267394,0.4351648351648352,3.3
1.089753184998699,0.49399267399267394,0.4351648351648352,3.3
1.0906897130043944,0.49399267399267394,0.4351648351648352,3.3
1.0916236940029194,0.49399267399267394,0.4351648351648352,3.3
1.09322799200163,0.49399267399267394,0.4351648351648352,3.3
1.0970820330039714,0.31186813186813184,0.20065934065934066,2.1008791208791204
1.102590873997542,0.31186813186813184,0.20065934065934066,2.1008791208791204
1.1042102580031496,0.31186813186813184,0.20065934065934066,2.1008791208791204
1.1082073889992898,0.1942124542124542,0.3537728937728937,2.8471062271062273
1.1117426440032432,0.1942124542124542,0.3537728937728937,2.8471062271062273
1.1220923500004574,0.5125274725274725,0.2377289377289377,2.5295970695970698
1.1312927010003477,0.0,0.26754578754578756,1.3433699633699634
1.138494899001671,0.0,0.26754578754578756,1.3433699633699634
1.1435830760019599,0.0,0.3698901098901099,2.3885714285714283
1.1475444789975882,2.007399267399267,0.6664468864468864,2.5682783882783884
1.152560563001316,2.007399267399267,0.6664468864468864,2.5682783882783884
1.1551734520035097,2.007399267399267,0.6664468864468864,2.5682783882783884
1.1616199860000052,2.007399267399267,0.6664468864468864,2.5682783882783884
1.1663496429973748,2.007399267399267,0.6664468864468864,2.5682783882783884
1.1727646810031729,2.007399267399267,0.6664468864468864,2.5682783882783884
1.1766255629991065,2.007399267399267,0.6664468864468864,2.5682783882783884
1.1813556990018697,2.007399267399267,0.6664468864468864,2.5682783882783884
1.1815729009977076,0.5117216117216117,0.3384615384615384,2.3603663003663002
1.1917701950005721,0.5117216117216117,0.3384615384615384,2.3603663003663002
1.1982204070009175,1.4739194139194138,0.523003663003663,3.3
1.2053052810006193,1.4739194139194138,0.523003663003663,3.3
1.2086852380016353,0.022564102564102562,0.3553846153846154,1.759194139194139
1.2090368380013388,0.022564102564102562,0.3553846153846154,1.759194139194139
1.2135830059996806,0.022564102564102562,0.3553846153846154,1.759194139194139
1.2144082590020844,0.4424175824175824,0.2063003663003663,2.3007326007326006
1.216066861001309,0.4424175824175824,0.2063003663003663,2.3007326007326006
1.2198425739989034,0.083003663003663,0.4794871794871795,2.273333333333333
1.2239377540026908,0.083003663003663,0.4794871794871795,2.273333333333333
1.226755431998754,0.083003663003663,0.4794871794871795,2.273333333333333
1.23034940600337,1.6753846153846153,1.3828571428571428,0.8582417582417583
1.2306137780033168,1.6753846153846153,1.3828571428571428,0.8582417582417583
1.235174494999228,1.6753846153846153,1.3828571428571428,0.8582417582417583
1.2354526569979498,1.6753846153846153,1.3828571428571428,0.8582417582417583
1.2402992959978292,1.6753846153846153,1.3828571428571428,0.8582417582417583
1.2404610400044476,0.0,0.20227106227106226,0.8606593406593407
1.245217493000382,0.0,0.20227106227106226,0.8606593406593407
1.250560802000109,0.0,0.20227106227106226,0.8606593406593407
1.2528368150015012,0.0,0.20227106227106226,0.8606593406593407
1.2536611469986383,0.0,0.20227106227106226,0.8606593406593407
1.2552240939985495,0.0,0.20227106227106226,0.8606593406593407
1.2600632289977511,0.0,0.20227106227106226,0.8606593406593407
1.2644308540038764,0.0,0.20227106227106226,0.8606593406593407
1.2659713110042503,0.0,0.20227106227106226,0.8606593406593407
1.2703354240002227,0.0,0.20227106227106226,0.8606593406593407
1.2720437870011665,0.0,0.20227106227106226,0.8606593406593407
1.2758851670005242,0.0,0.20227106227106226,0.8606593406593407
1.279589505000331,0.0,0.20227106227106226,0.8606593406593407
1.2849844009979279,0.0,0.20227106227106226,0.8606593406593407
1.2872592260027886,1.6093040293040293,1.3514285714285714,0.90014652014652
1.288210047998291,1.6093040293040293,1.3514285714285714,0.90014652014652
1.2891570909996517,1.6093040293040293,1.3514285714285714,0.90014652014652
1.2907916800031671,1.6093040293040293,1.3514285714285714,0.90014652014652
1.2944913190003717,1.6093040293040293,1.3514285714285714,0.90014652014652
1.299825875001261,1.6093040293040293,1.3514285714285714,0.90014652014652
1.3014985830013757,1.6093040293040293,1.3514285714285714,0.90014652014652
1.3053581819985993,1.6093040293040293,1.3514285714285714,0.90014652014652
1.3091617270038114,1.6093040293040293,1.3514285714285714,0.90014652014652
1.313765628998226,1.6093040293040293,1.3514285714285714,0.90014652014652
1.3141131630036398,0.6535531135531135,0.2063003663003663,3.3
1.3188939419997041,0.6535531135531135,0.2063003663003663,3.3
1.319148356000369,0.6535531135531135,0.2063003663003663,3.3
1.3238808809983311,0.0,0.1958241758241758,0.9726739926739927
1.3240909980013384,0.0,0.1958241758241758,0.9726739926739927
1.328827691002516,0.0,0.1958241758241758,0.9726739926739927
1.328975750002428,0.0,0.1958241758241758,0.9726739926739927
1.333652068999072,0.0,0.1958241758241758,0.9726739926739927
1.3338724150016787,0.0,0.1958241758241758,0.9726739926739927
1.3387126460002037,0.0,0.1958241758241758,0.9726739926739927
1.338816488001612,0.0,0.1958241758241758,0.9726739926739927
1.3435877360025188,0.0,0.1958241758241758,0.9726739926739927
1.3437429269979475,0.0,0.1958241758241758,0.9726739926739927
1.3486203790016589,0.0,0.1958241758241758,0.9726739926739927
1.3575234210002236,0.0,0.1958241758241758,0.9726739926739927
1.3646384099993156,1.9864468864468863,1.4287912087912087,0.9573626373626374
1.3694001090043457,1.9864468864468863,1.4287912087912087,0.9573626373626374
1.3772054670043872,1.9864468864468863,1.4287912087912087,0.9573626373626374
1.3833646990024135,1.9864468864468863,1.4287912087912087,0.9573626373626374
1.3864932990036323,1.9864468864468863,1.4287912087912087,0.9573626373626374
1.3887953450030182,1.9864468864468863,1.4287912087912087,0.9573626373626374
1.3891202450031415,1.9864468864468863,1.4287912087912087,0.9573626373626374
1.3936499140036176,1.9864468864468863,1.4287912087912087,0.9573626373626374
1.393984091002494,1.9864468864468863,1.4287912087912087,0.9573626373626374
1.3986427819982055,1.9864468864468863,1.4287912087912087,0.9573626373626374
1.3987828989993432,1.9864468864468863,1.4287912087912087,0.9573626373626374
1.4036825000002864,1.9864468864468863,1.4287912087912087,0.9573626373626374
1.4081664879995515,1.9864468864468863,1.4287912087912087,0.9573626373626374
1.4090143400026136,1.9864468864468863,1.4287912087912087,0.9573626373626374
1.4105075140032568,1.1628571428571428,0.32073260073260074,3.3
1.4146541570007685,1.1628571428571428,0.32073260073260074,3.3
1.4180898260019603,1.1628571428571428,0.32073260073260074,3.3
1.4189369750019978,1.5657875457875456,1.498095238095238,1.2643956043956044
1.4204785129986703,1.5657875457875456,1.498095238095238,1.2643956043956044
1.4245699899984174,1.5657875457875456,1.498095238095238,1.2643956043956044
1.4274349120023544,1.5657875457875456,1.498095238095238,1.2643956043956044
1.4309093409974594,1.5657875457875456,1.498095238095238,1.2643956043956044
1.4311975410018931,1.5657875457875456,1.498095238095238,1.2643956043956044
1.4359495539974887,1.5657875457875456,1.498095238095238,1.2643956043956044
1.4361414480008534,1.5657875457875456,1.498095238095238,1.2643956043956044
1.4408755190015654,1.5657875457875456,1.498095238095238,1.2643956043956044
1.4410107389994664,0.010476190476190476,0.16842490842490843,1.3667399267399267
1.4457318790009595,0.010476190476190476,0.16842490842490843,1.3667399267399267
1.4505240389989922,0.010476190476190476,0.16842490842490843,1.3667399267399267
1.4507828490022803,0.010476190476190476,0.16842490842490843,1.3667399267399267
1.4556187569978647,0.010476190476190476,0.16842490842490843,1.3667399267399267
1.4610425940045388,0.010476190476190476,0.16842490842490843,1.3667399267399267
1.463435023004422,0.04915750915750916,0.19904761904761903,1.2474725274725273
1.4687863569997717,0.04915750915750916,0.19904761904761903,1.2474725274725273
1.4712414059977164,1.2660073260073261,0.33604395604395604,3.3
1.4714363640014199,1.2660073260073261,0.33604395604395604,3.3
1.4768969479991938,1.2660073260073261,0.33604395604395604,3.3
1.4786033609998412,1.2660073260073261,0.33604395604395604,3.3
1.4817028590041446,1.2660073260073261,0.33604395604395604,3.3
1.4833245990012074,1.2660073260073261,0.33604395604395604,3.3
1.4876667740027187,1.2660073260073261,0.33604395604395604,3.3
1.4885171139976592,1.2660073260073261,0.33604395604395604,3.3
1.4900873150036205,1.2660073260073261,0.33604395604395604,3.3
1.4944648329983465,1.2660073260073261,0.33604395604395604,3.3
1.4964830980025,1.2660073260073261,0.33604395604395604,3.3
1.499379938999482,1.2660073260073261,0.33604395604395604,3.3
1.5022096440006862,1.2660073260073261,0.33604395604395604,3.3
1.5064290619993699,1.2660073260073261,0.33604395604395604,3.3
1.5067663279987755,1.2660073260073261,0.33604395604395604,3.3
1.5151131540042115,1.2660073260073261,0.33604395604395604,3.3
1.522549474000698,1.5287179487179487,0.43435897435897436,3.3
1.5266477480035974,0.49560439560439556,0.49076923076923074,3.3
1.5292626720038243,0.49560439560439556,0.49076923076923074,3.3
1.5340938709996408,1.614139194139194,0.4738461538461538,3.3
1.5393392780024442,1.614139194139194,0.4738461538461538,3.3
1.5424142260017106,1.614139194139194,0.4738461538461538,3.3
1.5441946639984963,2.0557509157509157,0.788937728937729,2.56989010989011
1.5474305210009334,2.0557509157509157,0.788937728937729,2.56989010989011
1.5483205229975283,2.0557509157509157,0.788937728937729,2.56989010989011
1.5500477390014566,2.0557509157509157,0.788937728937729,2.56989010989011
1.5540028129980783,2.0557509157509157,0.788937728937729,2.56989010989011
1.5574247769982321,0.4085714285714286,0.1643956043956044,2.406300366300366
1.5576334840006894,0.4085714285714286,0.1643956043956044,2.406300366300366
1.5624984180030879,0.4085714285714286,0.1643956043956044,2.406300366300366
1.5682534130028216,0.4085714285714286,0.1643956043956044,2.406300366300366
1.5684500560018932,0.4085714285714286,0.1643956043956044,2.406300366300366
1.5742161730013322,0.4085714285714286,0.1643956043956044,2.406300366300366
1.5743274100022973,0.4085714285714286,0.1643956043956044,2.406300366300366
1.5801137820017175,0.4085714285714286,0.1643956043956044,2.406300366300366
1.580299916000513,0.0,0.311062271062271,1.5408058608058608
1.5860357860001386,0.0,0.311062271062271,1.5408058608058608
1.5862414720031666,0.0,0.311062271062271,1.5408058608058608
1.5921114570010104,1.6149450549450548,0.6019780219780219,2.9712087912087912
1.5922139800022705,1.7205128205128206,0.448058608058608,2.5521611721611723
1.5967699750035536,1.7205128205128206,0.448058608058608,2.5521611721611723
1.5978109030038468,1.0999999999999999,1.062930402930403,0.7325274725274724
1.598814589997346,1.0999999999999999,1.062930402930403,0.7325274725274724
1.5991532780026319,1.0999999999999999,1.062930402930403,0.7325274725274724
1.6037533460039413,1.0999999999999999,1.062930402930403,0.7325274725274724
1.6040607949980767,2.1266666666666665,0.7575091575091575,2.5747252747252745
1.6098977860019659,0.684981684981685,0.9259340659340659,0.6454945054945055
1.615634300003876,0.684981684981685,0.9259340659340659,0.6454945054945055
1.61593752400222,0.684981684981685,0.9259340659340659,0.6454945054945055
1.6220673819989315,0.684981684981685,0.9259340659340659,0.6454945054945055
1.6258608610005467,0.684981684981685,0.9259340659340659,0.6454945054945055
1.6310673429979943,0.684981684981685,0.9259340659340659,0.6454945054945055
1.6351875090040267,1.3828571428571428,0.2957509157509157,2.548937728937729
1.6369669870036887,0.42630036630036633,0.18776556776556774,2.4820512820512817
1.6401889710032265,0.42630036630036633,0.18776556776556774,2.4820512820512817
1.6410785949992714,0.42630036630036633,0.18776556776556774,2.4820512820512817
1.642643165003392,0.42630036630036633,0.18776556776556774,2.4820512820512817
1.6466447429993423,0.6342124542124542,0.4158241758241758,3.3
1.6512363010042463,1.7785347985347983,1.5851282051282052,1.2579487179487179
1.6514333439990878,1.7785347985347983,1.5851282051282052,1.2579487179487179
1.6567773620045045,1.7785347985347983,1.5851282051282052,1.2579487179487179
1.6576942460014834,2.121831501831502,1.5206593406593405,1.1016117216117214
1.6593295610000496,2.121831501831502,1.5206593406593405,1.1016117216117214
1.663412640999013,0.03868131868131868,0.1813186813186813,1.3884981684981685
1.6665619269988383,0.03868131868131868,0.1813186813186813,1.3884981684981685
1.6674518770014402,1.6584615384615384,1.6455677655677654,1.0742124542124543
1.669296685999143,1.6584615384615384,1.6455677655677654,1.0742124542124543
1.6723709310026607,1.6584615384615384,1.6455677655677654,1.0742124542124543
1.6754708400039817,1.6584615384615384,1.6455677655677654,1.0742124542124543
1.6764604690033593,1.6584615384615384,1.6455677655677654,1.0742124542124543
1.6773166630009655,1.6584615384615384,1.6455677655677654,1.0742124542124543
1.678934150004352,1.6584615384615384,1.6455677655677654,1.0742124542124543
1.6831789940042654,0.03465201465201465,0.1772893772893773,1.4118681318681316
1.685763831002987,0.03465201465201465,0.1772893772893773,1.4118681318681316
1.6907639960045344,0.03465201465201465,0.1772893772893773,1.4118681318681316
1.6956589850015007,0.03465201465201465,0.1772893772893773,1.4118681318681316
1.701423081001849,0.3449084249084249,0.19743589743589743,2.149230769230769
1.7016486180000356,0.3449084249084249,0.19743589743589743,2.149230769230769
1.7076832860038849,0.3449084249084249,0.19743589743589743,2.149230769230769
1.7118395939978654,0.3449084249084249,0.19743589743589743,2.149230769230769
1.7154584029995021,0.3449084249084249,0.19743589743589743,2.149230769230769
1.7156636569998227,1.7205128205128206,1.2039560439560437,0.9767032967032967
1.7212730259998352,1.7205128205128206,1.2039560439560437,0.9767032967032967
1.7214487509991159,0.05963369963369963,0.190989010989011,1.3844688644688645
1.7263064549988485,2.007399267399267,0.6527472527472526,2.5626373626373624
1.7317209739994723,1.6866666666666665,1.543223443223443,1.5496703296703296
1.7333177660038928,1.6866666666666665,1.543223443223443,1.5496703296703296
1.737996951000241,1.6866666666666665,1.543223443223443,1.5496703296703296
1.7381934740042198,0.2095238095238095,0.3352380952380952,1.523076923076923
1.743036188003316,0.2095238095238095,0.3352380952380952,1.523076923076923
1.743245969999407,0.06849816849816849,0.17003663003663003,1.4191208791208791
1.7487694090013974,0.06849816849816849,0.17003663003663003,1.4191208791208791
1.7498317950012279,0.06849816849816849,0.17003663003663003,1.4191208791208791
1.7505974029991194,0.06849816849816849,0.17003663003663003,1.4191208791208791
1.7529848710037186,0.06849816849816849,0.17003663003663003,1.4191208791208791
1.7532167040044442,0.06849816849816849,0.17003663003663003,1.4191208791208791
1.7585313149975264,0.06849816849816849,0.17003663003663003,1.4191208791208791
1.7602724570024293,0.06849816849816849,0.17003663003663003,1.4191208791208791
1.763412389998848,0.06849816849816849,0.17003663003663003,1.4191208791208791
1.7650423770028283,0.06849816849816849,0.17003663003663003,1.4191208791208791
1.7695969769993098,0.06849816849816849,0.17003663003663003,1.4191208791208791
1.7705434230010724,0.06849816849816849,0.17003663003663003,1.4191208791208791
1.7715064130024984,0.06849816849816849,0.17003663003663003,1.4191208791208791
1.7724013379993266,0.0,0.1539194139194139,0.6052014652014651
1.7743572990002576,0.0,0.1539194139194139,0.6052014652014651
1.7759480540044024,0.0,0.1539194139194139,0.6052014652014651
1.7803078790020663,0.0,0.1539194139194139,0.6052014652014651
1.782117027003551,0.0,0.1539194139194139,0.6052014652014651
1.7850016390002565,0.0,0.1539194139194139,0.6052014652014651
1.7885229500025162,0.0,0.1539194139194139,0.6052014652014651
1.7886700680028298,0.0,0.1539194139194139,0.6052014652014651
1.7940291190025164,0.0,0.1539194139194139,0.6052014652014651
1.7961823229998117,0.0,0.1539194139194139,0.6052014652014651
1.7969520350015955,0.0,0.1539194139194139,0.6052014652014651
1.7990898540010676,0.0,0.1539194139194139,0.6052014652014651
1.7999290349980583,0.0,0.1539194139194139,0.6052014652014651
1.8021051280011307,0.0,0.1539194139194139,0.6052014652014651
1.802408818002732,0.0,0.1539194139194139,0.6052014652014651
1.806650931997865,0.0,0.1539194139194139,0.6052014652014651
1.8094208109978354,0.0,0.1539194139194139,0.6052014652014651
1.8134435920001124,0.0,0.1539194139194139,0.6052014652014651
1.816515493002953,0.5915018315018314,0.2063003663003663,3.1138461538461537
1.8187383969998336,0.0,0.39890109890109887,2.378901098901099
1.8190287910038023,0.0,0.39890109890109887,2.378901098901099
1.8244650780034135,0.0,0.39890109890109887,2.378901098901099
1.8263623770035338,0.0,0.39890109890109887,2.378901098901099
1.82800213900191,0.0,0.39890109890109887,2.378901098901099
1.8324765279976418,1.4747252747252748,0.42710622710622714,3.3
1.8333982059994014,1.4747252747252748,0.42710622710622714,3.3
1.8342868170002475,1.4747252747252748,0.42710622710622714,3.3
1.8368520540025202,1.4747252747252748,0.42710622710622714,3.3
1.8413365579981473,0.0,0.26754578754578756,1.0742124542124543
1.8421808080020128,0.0,0.26754578754578756,1.0742124542124543
1.8446119529980933,0.0,0.26754578754578756,1.0742124542124543
1.8498317490011686,0.0,0.26754578754578756,1.0742124542124543
1.8535901510040276,1.818827838827839,0.47062271062271055,2.557802197802198
1.8588238829979673,1.818827838827839,0.47062271062271055,2.557802197802198
1.8625546179973753,0.0,0.2208058608058608,1.3852747252747253
1.8626594950037543,0.0,0.2208058608058608,1.3852747252747253
1.8676745769989793,0.0,0.2208058608058608,1.3852747252747253
1.8725164560019039,1.543223443223443,0.5520146520146519,3.2210256410256406
1.8775921659980668,0.2602930402930403,0.1789010989010989,2.0444688644688642
1.8823944460018538,0.2602930402930403,0.1789010989010989,2.0444688644688642
1.888209139004175,0.0,0.18695970695970696,1.598021978021978
1.8884147690041573,0.0,0.18695970695970696,1.598021978021978
1.8935202209977433,0.0,0.18695970695970696,1.598021978021978
1.8972495260022697,0.0975091575091575,0.20388278388278389,1.631062271062271
1.9024389760015765,0.0975091575091575,0.20388278388278389,1.631062271062271
1.9066803090026951,2.1427838827838825,0.7204395604395604,2.573113553113553
1.9082461119978689,2.1427838827838825,0.7204395604395604,2.573113553113553
1.912671682999644,1.4191208791208791,0.386007326007326,3.3
1.9135601910020341,0.7236630036630036,0.2079120879120879,3.266153846153846
1.915140055003576,0.7236630036630036,0.2079120879120879,3.266153846153846
1.9198190390015952,0.7236630036630036,0.2079120879120879,3.266153846153846
1.9200576310031465,0.7236630036630036,0.2079120879120879,3.266153846153846
1.9247726800022065,0.7236630036630036,0.2079120879120879,3.266153846153846
1.924969573999988,0.6043956043956044,0.8227838827838827,0.7091575091575092
1.9302480760015897,0.6043956043956044,0.8227838827838827,0.7091575091575092
1.9325367710043793,0.6043956043956044,0.8227838827838827,0.7091575091575092
1.9333385069985525,0.6043956043956044,0.8227838827838827,0.7091575091575092
1.934917056998529,0.6043956043956044,0.8227838827838827,0.7091575091575092
1.9404337910018512,0.6043956043956044,0.8227838827838827,0.7091575091575092
1.9412783610023325,0.6043956043956044,0.8227838827838827,0.7091575091575092
1.9435796969992225,0.6043956043956044,0.8227838827838827,0.7091575091575092
1.9437774149992038,0.6043956043956044,0.8227838827838827,0.7091575091575092
1.9487611880031181,0.6043956043956044,0.8227838827838827,0.7091575091575092
1.953477226998075,0.9323809523809523,0.25706959706959703,3.3
1.9588802220023354,0.9323809523809523,0.25706959706959703,3.3
1.96132912900066,0.0,0.23208791208791207,1.0838827838827838
1.9664391910046106,2.0436630036630037,0.7123809523809523,2.5682783882783884
1.970235054002842,2.0436630036630037,0.7123809523809523,2.5682783882783884
1.9745647020026809,2.0436630036630037,0.7123809523809523,2.5682783882783884
1.9761569800029974,0.2949450549450549,0.17326007326007326,2.071868131868132
1.9797358420037199,0.2949450549450549,0.17326007326007326,2.071868131868132
1.9798671290045604,0.0,0.2627106227106227,1.2297435897435898
1.9855614059997606,0.0,0.2627106227106227,1.2297435897435898
1.985984427999938,0.0,0.2627106227106227,1.2297435897435898
1.9906481750003877,0.0,0.2627106227106227,1.2297435897435898
1.996330672998738,1.5786813186813187,0.4512820512820513,3.3
1.9965592790031224,1.5786813186813187,0.4512820512820513,3.3
2.0016407470029662,1.5786813186813187,0.4512820512820513,3.3
2.0066320589976385,1.5786813186813187,0.4512820512820513,3.3
2.0109443300025305,1.5786813186813187,0.4512820512820513,3.3
2.0125661909987684,1.5786813186813187,0.4512820512820513,3.3
2.016988791998301,0.6608058608058608,0.2224175824175824,3.2129670329670326
2.0178192669991404,0.6608058608058608,0.2224175824175824,3.2129670329670326
2.0196317529989756,0.0,0.24901098901098898,1.6157509157509156
2.0231544519992894,0.0,0.24901098901098898,1.6157509157509156
2.028590820998943,2.241098901098901,0.7857142857142856,2.5723076923076924
2.030330296001921,2.241098901098901,0.7857142857142856,2.5723076923076924
2.0334160159982275,1.1177289377289377,0.2909157509157509,3.3
2.0357324249998783,0.6632234432234432,0.20388278388278389,3.3
2.035896232999221,0.6632234432234432,0.20388278388278389,3.3
2.04148360399995,0.6632234432234432,0.20388278388278389,3.3
2.042310292003094,1.7809523809523808,0.6672527472527472,2.552967032967033
2.0439047920008306,1.7809523809523808,0.6672527472527472,2.552967032967033
2.0482364060007967,1.7809523809523808,0.6672527472527472,2.552967032967033
2.0498529050018988,1.7809523809523808,0.6672527472527472,2.552967032967033
2.0537748450005893,1.7809523809523808,0.6672527472527472,2.552967032967033
2.0569873050044407,0.0032234432234432234,0.307032967032967,1.1854212454212454
2.059326668997528,0.0032234432234432234,0.307032967032967,1.1854212454212454
2.0595134149989462,0.0,0.2087179487179487,1.290989010989011
2.064855536002142,0.0,0.2087179487179487,1.290989010989011
2.0673526620012126,0.0,0.2087179487179487,1.290989010989011
2.073201314000471,1.5786813186813187,0.4786813186813187,3.3
2.0733260690030875,0.8590476190476191,0.21435897435897436,3.3
2.0784748750011204,0.8590476190476191,0.21435897435897436,3.3
2.0835863100001006,0.8590476190476191,0.21435897435897436,3.3
2.085990323997976,0.8590476190476191,0.21435897435897436,3.3
2.0861009470027057,0.8590476190476191,0.21435897435897436,3.3
2.094778475999192,0.8590476190476191,0.21435897435897436,3.3
2.101071871999011,1.5609523809523809,0.49882783882783877,3.3
2.1059082120045787,1.5609523809523809,0.49882783882783877,3.3
2.1128179490042385,0.11846153846153845,0.3312087912087912,2.573113553113553
2.1175410319992807,0.11846153846153845,0.3312087912087912,2.573113553113553
2.1268036640030914,0.11846153846153845,0.3312087912087912,2.573113553113553
2.1337281150044873,1.7720879120879118,0.66,2.5505494505494504
2.1393977309999173,1.4618315018315018,0.35619047619047617,2.5473260073260073
2.1395662819995778,0.012893772893772894,0.2651282051282051,1.0218315018315018
2.147584206999454,0.012893772893772894,0.2651282051282051,1.0218315018315018
2.155663211000501,0.012893772893772894,0.2651282051282051,1.0218315018315018
2.161506948999886,0.012893772893772894,0.2651282051282051,1.0218315018315018
2.1711354250001023,0.0,0.0975091575091575,1.116923076923077
2.178300493003917,0.0,0.0975091575091575,1.116923076923077
2.1822512520011514,0.0,0.0975091575091575,1.116923076923077
2.1875458499998786,0.0,0.0975091575091575,1.116923076923077
2.1888767010023003,0.4585347985347985,0.6696703296703297,0.7115750915750916
2.1979542580011184,0.4585347985347985,0.6696703296703297,0.7115750915750916
2.206015768002544,0.7905494505494506,0.722051282051282,0.5391208791208791
2.212389018997783,0.4005128205128205,0.3916483516483516,3.291135531135531
2.2180008569994243,0.4005128205128205,0.3916483516483516,3.291135531135531
2.218172182998387,0.49802197802197795,0.6358241758241758,0.61003663003663
2.2271878980027395,0.49802197802197795,0.6358241758241758,0.61003663003663
2.233128214000317,0.49802197802197795,0.6358241758241758,0.61003663003663
2.239757618001022,0.49802197802197795,0.6358241758241758,0.61003663003663
2.2441543210006785,0.49802197802197795,0.6358241758241758,0.61003663003663
2.244394399000157,0.49802197802197795,0.6358241758241758,0.61003663003663
2.2527442179998616,0.49802197802197795,0.6358241758241758,0.61003663003663
2.2603053959974204,1.7801465201465199,1.4658608058608058,1.1354578754578755
2.2678599010032485,1.7801465201465199,1.4658608058608058,1.1354578754578755
2.274698911998712,1.4223443223443224,0.3755311355311355,3.3
2.2810099790003733,1.4223443223443224,0.3755311355311355,3.3
2.2868943650028086,1.3095238095238093,0.5117216117216117,3.3
2.296125660002872,1.9936996336996335,0.6809523809523809,2.5634432234432234
2.304533253001864,1.9936996336996335,0.6809523809523809,2.5634432234432234
2.311318205000134,1.9936996336996335,0.6809523809523809,2.5634432234432234
2.31571985300252,1.5625641025641024,0.4158241758241758,3.3
2.316085363003367,1.5625641025641024,0.4158241758241758,3.3
2.3220273940023617,1.5625641025641024,0.4158241758241758,3.3
2.331477944004291,2.013040293040293,0.6785347985347985,2.5666666666666664
2.3396014450045186,2.013040293040293,0.6785347985347985,2.5666666666666664
2.3446402580011636,2.013040293040293,0.6785347985347985,2.5666666666666664
2.3487232609986677,1.3659340659340657,1.212820512820513,0.751062271062271
2.3503388820026885,1.3659340659340657,1.212820512820513,0.751062271062271
2.357699710999441,1.3659340659340657,1.212820512820513,0.751062271062271
2.3632326660008403,0.0,0.28527472527472525,1.1008058608058606
2.3635511590036913,0.0,0.28527472527472525,1.1008058608058606
2.371375232003629,0.0,0.28527472527472525,1.1008058608058606
2.3773142760037445,1.6407326007326006,1.4030036630036629,1.1636630036630036
2.3832389259987394,1.6407326007326006,1.4030036630036629,1.1636630036630036
2.389278683003795,1.6407326007326006,1.4030036630036629,1.1636630036630036
2.3952575310031534,1.6407326007326006,1.4030036630036629,1.1636630036630036
2.3988084070006153,1.6407326007326006,1.4030036630036629,1.1636630036630036
2.4056653599982383,1.6407326007326006,1.4030036630036629,1.1636630036630036
2.41047335100302,1.6407326007326006,1.4030036630036629,1.1636630036630036
2.4161764140008017,1.581904761904762,0.4472527472527472,3.3
2.4274307410014444,1.0597069597069597,1.108058608058608,1.2297435897435898
2.435308157997497,1.0597069597069597,1.108058608058608,1.2297435897435898
2.442234032001579,1.1177289377289377,0.25545787545787546,3.3
2.4467831319998368,0.04673992673992674,0.15311355311355312,1.4328205128205127
2.4470854489991325,0.04673992673992674,0.15311355311355312,1.4328205128205127
2.45524080600444,0.04673992673992674,0.15311355311355312,1.4328205128205127
2.4626730060044792,1.3602930402930402,0.386007326007326,3.3
2.4700315650043194,0.5294505494505495,0.46739926739926735,3.3
2.476577936002286,0.5294505494505495,0.46739926739926735,3.3
2.4811706600012258,0.5294505494505495,0.46739926739926735,3.3
2.4814283919986337,0.5294505494505495,0.46739926739926735,3.3
2.4874940700028674,0.5294505494505495,0.46739926739926735,3.3
2.4912532570015173,0.5294505494505495,0.46739926739926735,3.3
2.4964639649988385,0.4778754578754579,0.2562637362637363,2.4860805860805857
2.4993807619975996,0.4778754578754579,0.2562637362637363,2.4860805860805857
2.501654291001614,0.4778754578754579,0.2562637362637363,2.4860805860805857
2.5020699899978354,0.4778754578754579,0.2562637362637363,2.4860805860805857
2.506854536004539,0.4778754578754579,0.2562637362637363,2.4860805860805857
2.50702403899777,0.4778754578754579,0.2562637362637363,2.4860805860805857
2.512193198002933,0.4778754578754579,0.2562637362637363,2.4860805860805857
2.5151236380042974,0.4778754578754579,0.2562637362637363,2.4860805860805857
2.518817650998244,0.4778754578754579,0.2562637362637363,2.4860805860805857
2.523906624999654,0.4778754578754579,0.2562637362637363,2.4860805860805857
2.5283415500016417,0.4778754578754579,0.2562637362637363,2.4860805860805857
2.529274690998136,0.9944322344322343,1.0057142857142858,0.5423443223443223
2.530854527001793,0.9944322344322343,1.0057142857142858,0.5423443223443223
2.535239242002717,0.9944322344322343,1.0057142857142858,0.5423443223443223
2.5363849109999137,0.9944322344322343,1.0057142857142858,0.5423443223443223
2.536594215001969,0.9944322344322343,1.0057142857142858,0.5423443223443223
2.5411123220037553,0.9944322344322343,1.0057142857142858,0.5423443223443223
2.541982435999671,0.9944322344322343,1.0057142857142858,0.5423443223443223
2.543668860998878,0.9944322344322343,1.0057142857142858,0.5423443223443223
2.5479663900041487,0.9944322344322343,1.0057142857142858,0.5423443223443223
2.550221766003233,0.9944322344322343,1.0057142857142858,0.5423443223443223
2.5504508369995165,0.9944322344322343,1.0057142857142858,0.5423443223443223
2.555947002998437,0.9944322344322343,1.0057142857142858,0.5423443223443223
2.5575932299980195,1.0887179487179486,0.8759706959706959,0.5342857142857143
2.5609102439993876,1.0887179487179486,0.8759706959706959,0.5342857142857143
2.5617726470009075,1.0887179487179486,0.8759706959706959,0.5342857142857143
2.563528878003126,1.0887179487179486,0.8759706959706959,0.5342857142857143
2.566566163004609,0.4005128205128205,0.4593406593406593,3.3
2.569902027003991,0.4005128205128205,0.4593406593406593,3.3
2.570808386997669,0.4005128205128205,0.4593406593406593,3.3
2.571727754002495,0.4005128205128205,0.4593406593406593,3.3
2.5734692289988743,0.5487912087912087,0.18534798534798536,2.864029304029304
2.5765202890033834,0.5487912087912087,0.18534798534798536,2.864029304029304
2.5781862400035607,0.5487912087912087,0.18534798534798536,2.864029304029304
2.582053170997824,0.5487912087912087,0.18534798534798536,2.864029304029304
2.587144350000017,0.5487912087912087,0.18534798534798536,2.864029304029304
2.590910792001523,0.5487912087912087,0.18534798534798536,2.864029304029304
2.595363606000319,0.5487912087912087,0.18534798534798536,2.864029304029304
2.595656074001454,0.5487912087912087,0.18534798534798536,2.864029304029304
2.600781597000605,0.5487912087912087,0.18534798534798536,2.864029304029304
2.6049652910005534,0.5487912087912087,0.18534798534798536,2.864029304029304
2.607902861003822,0.5487912087912087,0.18534798534798536,2.864029304029304
2.6109559280012036,0.5487912087912087,0.18534798534798536,2.864029304029304
2.6125319979983033,0.5487912087912087,0.18534798534798536,2.864029304029304
2.616817276997608,0.5487912087912087,0.18534798534798536,2.864029304029304
2.6192667770010303,0.5487912087912087,0.18534798534798536,2.864029304029304
2.6250996220041998,0.5487912087912087,0.18534798534798536,2.864029304029304
2.625300778003293,1.9074725274725273,0.6463003663003662,2.569084249084249
2.630813934003527,1.9074725274725273,0.6463003663003662,2.569084249084249
2.6311784650024492,1.9074725274725273,0.6463003663003662,2.569084249084249
2.6358810759993503,1.9074725274725273,0.6463003663003662,2.569084249084249
2.636119028000394,0.2796336996336996,0.1539194139194139,2.125860805860806
2.6408912560000317,0.0,0.42468864468864465,2.327326007326007
2.6462205429997994,0.0,0.42468864468864465,2.327326007326007
2.648470300002373,0.0,0.42468864468864465,2.327326007326007
2.649275208998006,0.0,0.42468864468864465,2.327326007326007
2.65080580200447,0.0,0.42468864468864465,2.327326007326007
2.655702091004059,0.0,0.42468864468864465,2.327326007326007
2.66030719599803,0.0,0.42468864468864465,2.327326007326007
2.660586707002949,0.0,0.42468864468864465,2.327326007326007
2.6659004390021437,0.0,0.42468864468864465,2.327326007326007
2.66897990200232,0.0,0.42468864468864465,2.327326007326007
2.6716036180005176,0.0,0.42468864468864465,2.327326007326007
2.675976176004042,0.14424908424908423,0.17567765567765567,1.3216117216117216
2.6780857129997457,0.14424908424908423,0.17567765567765567,1.3216117216117216
2.6798059979992104,0.14424908424908423,0.17567765567765567,1.3216117216117216
2.6828953599979286,0.14424908424908423,0.17567765567765567,1.3216117216117216
2.686279959998501,0.14424908424908423,0.17567765567765567,1.3216117216117216
2.686552584003948,0.8832234432234431,0.9557509157509158,0.5487912087912087
2.6910703660032596,0.8832234432234431,0.9557509157509158,0.5487912087912087
2.6918932140033576,0.8832234432234431,0.9557509157509158,0.5487912087912087
2.6935542179999175,0.8832234432234431,0.9557509157509158,0.5487912087912087
2.6972425999992993,0.8832234432234431,0.9557509157509158,0.5487912087912087
2.702686957003607,0.8832234432234431,0.9557509157509158,0.5487912087912087
2.705118655998376,0.0,0.20307692307692307,1.5794871794871794
2.7103850769999553,0.0,0.20307692307692307,1.5794871794871794
2.7135787590013933,1.3353113553113554,0.3618315018315018,3.3
2.7145117660038522,1.3353113553113554,0.3618315018315018,3.3
2.7160589560007793,1.3353113553113554,0.3618315018315018,3.3
2.7210653950023698,0.0,0.3449084249084249,2.0194871794871796
2.7248851980039035,2.00014652014652,0.7575091575091575,2.5666666666666664
2.729560489002324,1.5786813186813187,1.4191208791208791,1.32
2.729719674003718,1.5786813186813187,1.4191208791208791,1.32
2.734465125002316,1.5786813186813187,1.4191208791208791,1.32
2.7347159769997234,1.5786813186813187,1.4191208791208791,1.32
2.740875399002107,1.5786813186813187,1.4191208791208791,1.32
2.7465267009974923,1.5786813186813187,1.4191208791208791,1.32
2.7551972510045744,1.5786813186813187,1.4191208791208791,1.32
2.7626329280028585,1.5786813186813187,1.4191208791208791,1.32
2.7677214850045857,1.5786813186813187,1.4191208791208791,1.32
2.770395188999828,1.5287179487179487,0.46417582417582415,3.3
2.778783205001673,1.6979487179487176,0.3529670329670329,2.5594139194139194
2.786983092002629,1.6979487179487176,0.3529670329670329,2.5594139194139194
2.7959195290022762,1.6979487179487176,0.3529670329670329,2.5594139194139194
2.8035165180044714,1.1475457875457875,0.28285714285714286,3.3
2.809449125001265,1.1475457875457875,0.28285714285714286,3.3
2.816965849000553,0.9976556776556775,0.3158974358974359,3.3
2.824417732997972,0.9976556776556775,0.3158974358974359,3.3
2.8316852479983936,0.9976556776556775,0.3158974358974359,3.3
2.8373261840024497,0.9976556776556775,0.3158974358974359,3.3
2.837594415002968,0.9976556776556775,0.3158974358974359,3.3
2.8454914079993614,0.9976556776556775,0.3158974358974359,3.3
2.8529930939985206,1.5883516483516482,1.5657875457875456,1.5424175824175823
2.858295645004546,1.5883516483516482,1.5657875457875456,1.5424175824175823
2.8595938279977418,1.5883516483516482,1.5657875457875456,1.5424175824175823
2.8702628030005144,0.0,0.19018315018315018,1.1676923076923076
2.880374127002142,0.0,0.19018315018315018,1.1676923076923076
2.8917489590021432,0.0,0.19018315018315018,1.1676923076923076
2.9007339360032347,0.0,0.19018315018315018,1.1676923076923076
2.907968608000374,0.0,0.19018315018315018,1.1676923076923076
2.9122869620041456,0.0,0.19018315018315018,1.1676923076923076
2.914681827001914,0.718021978021978,0.23369963369963367,3.034065934065934
2.9255256180040305,0.718021978021978,0.23369963369963367,3.034065934065934
2.934345100999053,0.718021978021978,0.23369963369963367,3.034065934065934
2.9433062539974344,0.718021978021978,0.23369963369963367,3.034065934065934
2.9518610710001667,0.718021978021978,0.23369963369963367,3.034065934065934
2.9597356419981224,0.718021978021978,0.23369963369963367,3.034065934065934
2.9637819179988583,0.09106227106227105,0.2796336996336996,0.904981684981685
2.9694204879997415,0.09106227106227105,0.2796336996336996,0.904981684981685
2.975455501000397,0.09106227106227105,0.2796336996336996,0.904981684981685
2.9810319940006593,0.09106227106227105,0.2796336996336996,0.904981684981685
2.9819092719990294,0.09106227106227105,0.2796336996336996,0.904981684981685
2.9846367729987833,0.09106227106227105,0.2796336996336996,0.904981684981685
2.98976623499766,0.09106227106227105,0.2796336996336996,0.904981684981685
2.9915001039989875,1.5254945054945055,0.3473260073260073,2.553772893772894
2.995453096998972,1.5254945054945055,0.3473260073260073,2.553772893772894
2.998583327003871,1.5254945054945055,0.3473260073260073,2.553772893772894
3.0016868759994395,1.5254945054945055,0.3473260073260073,2.553772893772894
3.0033874150030897,1.5254945054945055,0.3473260073260073,2.553772893772894
3.0092622349984595,1.5254945054945055,0.3473260073260073,2.553772893772894
3.0131647439993685,0.6495238095238095,0.8324542124542124,0.6334065934065934
3.0206828500013216,0.6495238095238095,0.8324542124542124,0.6334065934065934
3.024206120004237,0.6495238095238095,0.8324542124542124,0.6334065934065934
3.02438756400079,1.4223443223443224,0.49802197802197795,2.5602197802197804
3.0292387640001834,1.4223443223443224,0.49802197802197795,2.5602197802197804
3.029348313997616,1.4223443223443224,0.49802197802197795,2.5602197802197804
3.0365897700030473,0.9162637362637363,0.26754578754578756,3.3
3.0411006700014696,0.9162637362637363,0.26754578754578756,3.3
3.0412672059974284,0.0,0.25223443223443226,1.8204395604395605
3.046971219002444,0.0,0.25223443223443226,1.8204395604395605
3.047181569003442,1.9945054945054943,0.7325274725274724,2.565860805860806
3.055769484002667,1.9945054945054943,0.7325274725274724,2.565860805860806
3.061498948998633,1.9945054945054943,0.7325274725274724,2.565860805860806
3.0681683709990466,1.9945054945054943,0.7325274725274724,2.565860805860806
3.0737517430025036,1.9945054945054943,0.7325274725274724,2.565860805860806
3.0739050150004914,1.9945054945054943,0.7325274725274724,2.565860805860806
3.0802880129995174,1.9945054945054943,0.7325274725274724,2.565860805860806
3.0852214300030028,1.9945054945054943,0.7325274725274724,2.565860805860806
3.092615341003693,1.9945054945054943,0.7325274725274724,2.565860805860806
3.0987559350032825,1.9945054945054943,0.7325274725274724,2.565860805860806
3.1041786260029767,1.9945054945054943,0.7325274725274724,2.565860805860806
3.104408555998816,1.9945054945054943,0.7325274725274724,2.565860805860806
3.109147766001115,1.9945054945054943,0.7325274725274724,2.565860805860806
3.109420148997742,1.9945054945054943,0.7325274725274724,2.565860805860806
3.114035550999688,1.9945054945054943,0.7325274725274724,2.565860805860806
3.114192016997549,0.7067399267399267,0.17164835164835165,3.3
3.124670908000553,0.7067399267399267,0.17164835164835165,3.3
3.1339138519979315,1.0532600732600732,1.1032234432234431,1.1999267399267397
3.1420846019973396,1.6004395604395603,0.48754578754578753,3.3
3.1476897520042257,1.6004395604395603,0.48754578754578753,3.3
3.155993328000477,1.6004395604395603,0.48754578754578753,3.3
3.1609559880016604,1.4046153846153846,0.3038095238095238,2.5513553113553114
3.167192323002382,1.4046153846153846,0.3038095238095238,2.5513553113553114
3.1716817030028324,1.804322344322344,1.552087912087912,1.062930402930403
3.171852197003318,1.804322344322344,1.552087912087912,1.062930402930403
3.177486469001451,1.804322344322344,1.552087912087912,1.062930402930403
3.1776910960034,1.804322344322344,1.552087912087912,1.062930402930403
3.1827545370033477,1.804322344322344,1.552087912087912,1.062930402930403
3.1907996619993355,1.804322344322344,1.552087912087912,1.062930402930403
3.1953974459975143,1.804322344322344,1.552087912087912,1.062930402930403
3.196267703999183,0.5826373626373627,0.18695970695970696,3.00021978021978
3.197849224001402,0.5826373626373627,0.18695970695970696,3.00021978021978
3.204631997999968,0.5826373626373627,0.18695970695970696,3.00021978021978
3.2084609970042948,0.5826373626373627,0.18695970695970696,3.00021978021978
3.2141952110032435,1.5673992673992672,0.49560439560439556,3.3
3.2143824529994163,1.5673992673992672,0.49560439560439556,3.3
3.2203241309980513,1.5673992673992672,0.49560439560439556,3.3
3.2250332760013407,1.5673992673992672,0.49560439560439556,3.3
3.2304975020015263,1.5673992673992672,0.49560439560439556,3.3
3.2313435079995543,1.5673992673992672,0.49560439560439556,3.3
3.234004156998708,1.5673992673992672,0.49560439560439556,3.3
3.238372949999757,1.5673992673992672,0.49560439560439556,3.3
3.2393200470032752,1.5673992673992672,0.49560439560439556,3.3
3.240937907998159,1.5673992673992672,0.49560439560439556,3.3
3.244818958999531,1.5673992673992672,0.49560439560439556,3.3
3.2486270500012324,1.5673992673992672,0.49560439560439556,3.3
3.2568314719974296,1.5673992673992672,0.49560439560439556,3.3
3.2641542080018553,0.0016117216117216117,0.2909157509157509,0.8735531135531135
3.270627329002309,0.0016117216117216117,0.2909157509157509,0.8735531135531135
3.274124864001351,0.0016117216117216117,0.2909157509157509,0.8735531135531135
3.274409960999037,0.0016117216117216117,0.2909157509157509,0.8735531135531135
3.2798068530028104,0.0016117216117216117,0.2909157509157509,0.8735531135531135
3.281432779003808,0.3287912087912088,0.6632234432234432,1.8035164835164832
3.287892237000051,0.3287912087912088,0.6632234432234432,1.8035164835164832
3.2921162139973603,0.3287912087912088,0.6632234432234432,1.8035164835164832
3.2948084230010863,0.3287912087912088,0.6632234432234432,1.8035164835164832
3.301671503999387,0.16278388278388278,0.1797069597069597,1.5698168498168497
3.3087094060028903,0.16278388278388278,0.1797069597069597,1.5698168498168497
3.313899159998982,0.16278388278388278,0.1797069597069597,1.5698168498168497
3.316578188998392,0.16278388278388278,0.1797069597069597,1.5698168498168497
3.3232768290035892,0.16278388278388278,0.1797069597069597,1.5698168498168497
3.3278908200009027,1.9461538461538461,0.7397802197802198,2.565054945054945
3.328048118004517,1.9461538461538461,0.7397802197802198,2.565054945054945
3.336566962003417,1.9461538461538461,0.7397802197802198,2.565054945054945
3.3410290140018333,0.0273992673992674,0.1813186813186813,0.8735531135531135
3.3419733429982443,0.0273992673992674,0.1813186813186813,0.8735531135531135
3.3429147909992025,0.0273992673992674,0.1813186813186813,0.8735531135531135
3.3446080630019424,0.0273992673992674,0.1813186813186813,0.8735531135531135
3.3505550600020797,0.5681318681318681,0.3763369963369963,3.3
3.354692974004138,1.5198534798534797,0.4496703296703296,3.3
3.35567846900085,1.5198534798534797,0.4496703296703296,3.3
3.356674754002597,1.5198534798534797,0.4496703296703296,3.3
3.3583625350001967,1.5198534798534797,0.4496703296703296,3.3
3.3616960420040414,1.5198534798534797,0.4496703296703296,3.3
3.362005228998896,1.5198534798534797,0.4496703296703296,3.3
3.3682689370034495,1.5682051282051281,0.5995604395604395,2.565054945054945
3.3719933800020954,1.5682051282051281,0.5995604395604395,2.565054945054945
3.37694997300423,1.5682051282051281,0.5995604395604395,2.565054945054945
3.381056502003048,1.5682051282051281,0.5995604395604395,2.565054945054945
3.3848643620003713,1.5682051282051281,0.5995604395604395,2.565054945054945
3.390379017997475,1.5682051282051281,0.5995604395604395,2.565054945054945
3.3906708950016764,0.855018315018315,0.2369230769230769,3.3
3.395443859997613,0.855018315018315,0.2369230769230769,3.3
3.3955813869979465,0.855018315018315,0.2369230769230769,3.3
3.403156801003206,0.855018315018315,0.2369230769230769,3.3
3.406602914998075,1.9961172161172158,0.7430036630036629,2.5594139194139194
3.4067102530025295,1.9961172161172158,0.7430036630036629,2.5594139194139194
3.412245511004585,1.9961172161172158,0.7430036630036629,2.5594139194139194
3.4138954549998743,1.5287179487179487,0.4545054945054945,3.3
3.4208625510000275,1.5287179487179487,0.4545054945054945,3.3
3.424771862999478,0.0,0.25868131868131866,1.872014652014652
3.428779530004249,0.0,0.25868131868131866,1.872014652014652
3.432327324000653,0.0,0.25868131868131866,1.872014652014652
3.4327597540032,0.0,0.25868131868131866,1.872014652014652
3.43874233400129,0.0,0.25868131868131866,1.872014652014652
3.443273262004368,0.0,0.25868131868131866,1.872014652014652
3.443639625002106,0.0,0.25868131868131866,1.872014652014652
3.4499502449980355,0.0,0.25868131868131866,1.872014652014652
3.4548088960000314,1.743076923076923,1.4690842490842488,1.1338461538461537
3.459585575001256,1.743076923076923,1.4690842490842488,1.1338461538461537
3.465071992999583,1.743076923076923,1.4690842490842488,1.1338461538461537
3.465301060998172,1.743076923076923,1.4690842490842488,1.1338461538461537
3.4750189350015717,1.743076923076923,1.4690842490842488,1.1338461538461537
3.4839340270045795,1.7777289377289376,0.43435897435897436,2.5561904761904763
3.4900133300034213,1.7777289377289376,0.43435897435897436,2.5561904761904763
3.4933508340036497,1.7777289377289376,0.43435897435897436,2.5561904761904763
3.4936175039983937,1.7777289377289376,0.43435897435897436,2.5561904761904763
3.4981540049993782,1.7777289377289376,0.43435897435897436,2.5561904761904763
3.5017780409980332,1.7777289377289376,0.43435897435897436,2.5561904761904763
3.506412922004529,1.7777289377289376,0.43435897435897436,2.5561904761904763
3.5066495630017016,1.7777289377289376,0.43435897435897436,2.5561904761904763
3.51123476200155,1.7777289377289376,0.43435897435897436,2.5561904761904763
3.5121095779977622,1.5488644688644688,0.49560439560439556,3.3
3.5137713389995042,1.5488644688644688,0.49560439560439556,3.3
3.518495009004255,1.5488644688644688,0.49560439560439556,3.3
3.5186845639982494,1.5488644688644688,0.49560439560439556,3.3
3.5237558009976055,1.5488644688644688,0.49560439560439556,3.3
3.527688346002833,1.5488644688644688,0.49560439560439556,3.3
3.5327386610006215,1.5915750915750915,0.5068864468864469,3.3
3.53867694499786,1.5915750915750915,0.5068864468864469,3.3
3.543199840998568,1.9332600732600733,1.464249084249084,1.1443223443223443
3.5434299720000126,2.02996336996337,0.6454945054945055,2.569084249084249
3.5479569410017575,2.02996336996337,0.6454945054945055,2.569084249084249
3.549334246003127,2.02996336996337,0.6454945054945055,2.569084249084249
3.556811665002897,2.02996336996337,0.6454945054945055,2.569084249084249
3.561857011001848,2.02996336996337,0.6454945054945055,2.569084249084249
3.566602265003894,2.02996336996337,0.6454945054945055,2.569084249084249
3.5749981390035828,2.02996336996337,0.6454945054945055,2.569084249084249
3.5804848820043844,1.4255677655677657,0.3876190476190476,3.3
3.5821374770021066,1.4255677655677657,0.3876190476190476,3.3
3.5886019239987945,1.494871794871795,0.6406593406593406,3.3
3.5927972990029957,1.494871794871795,0.6406593406593406,3.3
3.595235316999606,1.494871794871795,0.6406593406593406,3.3
3.595433098002104,1.494871794871795,0.6406593406593406,3.3
3.6044109810027294,1.494871794871795,0.6406593406593406,3.3
3.6116829630045686,1.494871794871795,0.6406593406593406,3.3
3.618263394004316,1.494871794871795,0.6406593406593406,3.3
3.625438633003796,0.6825641025641025,0.17406593406593407,3.3
3.6289779810031177,1.551282051282051,1.5714285714285712,0.9356043956043956
3.6291556770011084,1.551282051282051,1.5714285714285712,0.9356043956043956
3.6356267470036983,1.551282051282051,1.5714285714285712,0.9356043956043956
3.6392041279978002,1.551282051282051,1.5714285714285712,0.9356043956043956
3.639410506999411,1.551282051282051,1.5714285714285712,0.9356043956043956
3.6447196009976324,1.551282051282051,1.5714285714285712,0.9356043956043956
3.646445439000672,1.551282051282051,1.5714285714285712,0.9356043956043956
3.6499167240035604,1.551282051282051,1.5714285714285712,0.9356043956043956
3.650094825999986,1.5835164835164834,0.5084981684981685,3.3
3.6580992590024834,0.7873260073260073,0.21677655677655677,3.236336996336996
3.663223346004088,0.7873260073260073,0.21677655677655677,3.236336996336996
3.667414089999511,0.7873260073260073,0.21677655677655677,3.236336996336996
3.669152911999845,0.7873260073260073,0.21677655677655677,3.236336996336996
3.6720770809988608,0.7873260073260073,0.21677655677655677,3.236336996336996
3.6754947709996486,0.1523076923076923,0.2111355311355311,1.270842490842491
3.675984872999834,0.755091575091575,0.763956043956044,0.48754578754578753
3.67922489400371,0.755091575091575,0.763956043956044,0.48754578754578753
3.6815414240045357,0.755091575091575,0.763956043956044,0.48754578754578753
3.681766859997879,0.755091575091575,0.763956043956044,0.48754578754578753
3.6891136210033437,0.755091575091575,0.763956043956044,0.48754578754578753
3.694130652998865,0.755091575091575,0.763956043956044,0.48754578754578753
3.6979161850031232,0.755091575091575,0.763956043956044,0.48754578754578753
3.707482172998425,0.755091575091575,0.763956043956044,0.48754578754578753
3.713545778999105,0.755091575091575,0.763956043956044,0.48754578754578753
3.7229426150006475,0.755091575091575,0.763956043956044,0.48754578754578753
3.727973278997524,2.046080586080586,1.5093772893772892,1.212014652014652
3.7318469770034426,1.5488644688644688,0.5068864468864469,3.3
3.7400789780003834,0.06124542124542124,0.15633699633699633,1.0234432234432234
3.744954977002635,0.06124542124542124,0.15633699633699633,1.0234432234432234
3.7533331439990434,0.06124542124542124,0.15633699633699633,1.0234432234432234
3.759024484999827,1.7785347985347983,1.527106227106227,1.1967032967032967
3.7708384500001557,1.7785347985347983,1.527106227106227,1.1967032967032967
3.779081717999361,0.5697435897435897,0.7623443223443224,0.618095238095238
3.787884238998231,0.5697435897435897,0.7623443223443224,0.618095238095238
3.7949464640041697,0.5697435897435897,0.7623443223443224,0.618095238095238
3.798291282997525,0.30864468864468864,0.1772893772893773,2.0783150183150183
3.8000518740009284,0.30864468864468864,0.1772893772893773,2.0783150183150183
3.8038929009999265,0.30864468864468864,0.1772893772893773,2.0783150183150183
3.8101230309985112,0.30864468864468864,0.1772893772893773,2.0783150183150183
3.8139788879998378,0.30864468864468864,0.1772893772893773,2.0783150183150183
3.8214093709975714,0.30864468864468864,0.1772893772893773,2.0783150183150183
3.8252926909990492,0.30864468864468864,0.1772893772893773,2.0783150183150183
3.829734783997992,0.30864468864468864,0.1772893772893773,2.0783150183150183
3.8312682270043297,0.30864468864468864,0.1772893772893773,2.0783150183150183
3.838315025997872,0.30864468864468864,0.1772893772893773,2.0783150183150183
3.8432079089980107,0.30864468864468864,0.1772893772893773,2.0783150183150183
3.848548246001883,0.30864468864468864,0.1772893772893773,2.0783150183150183
3.8507871399997384,0.30864468864468864,0.1772893772893773,2.0783150183150183
3.851062166999327,0.30864468864468864,0.1772893772893773,2.0783150183150183
3.8560047630016925,0.30864468864468864,0.1772893772893773,2.0783150183150183
3.8605714590012212,0.30864468864468864,0.1772893772893773,2.0783150183150183
3.860788420002791,0.30864468864468864,0.1772893772893773,2.0783150183150183
3.866737477997958,0.30864468864468864,0.1772893772893773,2.0783150183150183
3.8735384789979435,0.30864468864468864,0.1772893772893773,2.0783150183150183
3.8782170659978874,0.30864468864468864,0.1772893772893773,2.0783150183150183
3.878421564004384,0.30864468864468864,0.1772893772893773,2.0783150183150183
3.885893434002355,0.30864468864468864,0.1772893772893773,2.0783150183150183
3.8924718580019544,0.09670329670329669,0.3723076923076923,2.278168498168498
3.8976460350022535,1.569010989010989,0.614065934065934,2.7818315018315016
3.9032262600012473,1.6254212454212453,1.2885714285714285,1.2458608058608058
3.908055409003282,1.6254212454212453,1.2885714285714285,1.2458608058608058
3.9125461139992694,0.7704029304029304,0.8646886446886447,0.5197802197802197
3.9134598239979823,0.7704029304029304,0.8646886446886447,0.5197802197802197
3.915102796003339,0.7704029304029304,0.8646886446886447,0.5197802197802197
3.9211536869988777,0.7704029304029304,0.8646886446886447,0.5197802197802197
3.9260924749978585,0.7704029304029304,0.8646886446886447,0.5197802197802197
3.9301045980027993,0.7704029304029304,0.8646886446886447,0.5197802197802197
3.9344048200000543,0.7704029304029304,0.8646886446886447,0.5197802197802197
3.935673174004478,0.7704029304029304,0.8646886446886447,0.5197802197802197
3.935818513004051,0.7704029304029304,0.8646886446886447,0.5197802197802197
3.942192383001384,2.0621978021978022,1.614139194139194,1.1314285714285715
3.9472850630045286,0.02175824175824176,0.1942124542124542,1.344981684981685
3.953680949001864,0.02175824175824176,0.1942124542124542,1.344981684981685
3.957207617997483,0.02175824175824176,0.1942124542124542,1.344981684981685
3.9573936259985203,0.0,0.3046153846153846,1.8526739926739926
3.9629472930027987,0.0,0.3046153846153846,1.8526739926739926
3.963741637999192,0.0,0.3046153846153846,1.8526739926739926
3.9656485470040934,0.0,0.3046153846153846,1.8526739926739926
3.9704976779976278,0.0,0.3046153846153846,1.8526739926739926
3.972974360003718,0.0,0.3046153846153846,1.8526739926739926
3.973126513999887,0.0,0.3046153846153846,1.8526739926739926
3.978585133998422,0.0,0.3046153846153846,1.8526739926739926
3.979472077000537,0.0,0.3046153846153846,1.8526739926739926
3.981068642999162,0.0,0.3046153846153846,1.8526739926739926
3.988793299002282,0.0,0.3046153846153846,1.8526739926739926
3.9938466180028627,0.0,0.3046153846153846,1.8526739926739926
3.998836090999248,0.10234432234432234,0.1805128205128205,1.1040293040293039
4.007783172004565,0.0,0.3642490842490842,2.2797802197802195
4.013260521001939,0.25384615384615383,0.3602197802197802,2.8237362637362633
4.014980075000494,0.03465201465201465,0.17809523809523808,0.8002197802197801
4.022377731002052,0.03465201465201465,0.17809523809523808,0.8002197802197801
4.027590819998295,0.03465201465201465,0.17809523809523808,0.8002197802197801
4.029222891003883,0.9855677655677655,0.4287179487179487,2.548937728937729
4.037432301003719,0.9855677655677655,0.4287179487179487,2.548937728937729
4.0442694400044275,0.9855677655677655,0.4287179487179487,2.548937728937729
4.051681392003957,0.9855677655677655,0.4287179487179487,2.548937728937729
4.055995405004069,0.9855677655677655,0.4287179487179487,2.548937728937729
4.056898373004515,1.5383882783882783,1.0999999999999999,0.801025641025641
4.058605992002413,1.5383882783882783,1.0999999999999999,0.801025641025641
4.061652071002754,1.5383882783882783,1.0999999999999999,0.801025641025641
4.064742262002255,1.991282051282051,0.6938461538461538,2.5666666666666664
4.066603605999262,1.991282051282051,0.6938461538461538,2.5666666666666664
4.070220408997557,1.531941391941392,0.6519413919413919,2.848717948717949
4.075046655001643,1.531941391941392,0.6519413919413919,2.848717948717949
4.080431194000994,0.49479853479853475,0.6068131868131869,0.5221978021978021
4.084226179002144,0.49479853479853475,0.6068131868131869,0.5221978021978021
4.089644895000674,0.045128205128205125,0.29333333333333333,2.2024175824175822
4.0912563469973975,1.5464468864468863,0.5705494505494505,3.094505494505494
4.095063409004069,1.211208791208791,0.29736263736263735,3.3
4.099523625001893,1.211208791208791,0.29736263736263735,3.3
4.100667913000507,1.211208791208791,0.29736263736263735,3.3
4.100818222002999,1.211208791208791,0.29736263736263735,3.3
4.109539140001289,1.987252747252747,0.7454212454212454,2.561025641025641
4.114768450999691,1.987252747252747,0.7454212454212454,2.561025641025641
4.118996600001992,1.987252747252747,0.7454212454212454,2.561025641025641
4.120574706001207,2.0783150183150183,1.4997069597069597,1.0339194139194139
4.126160020001407,2.0783150183150183,1.4997069597069597,1.0339194139194139
4.137204053004098,1.5625641025641024,0.5761904761904761,2.5682783882783884
4.141851341002621,0.3304029304029304,0.17406593406593407,1.8857142857142855
4.142026760004228,0.3304029304029304,0.17406593406593407,1.8857142857142855
4.147250252004596,0.3304029304029304,0.17406593406593407,1.8857142857142855
4.151455712002644,0.3304029304029304,0.17406593406593407,1.8857142857142855
4.153669450999587,0.3304029304029304,0.17406593406593407,1.8857142857142855
4.153893848997541,0.3304029304029304,0.17406593406593407,1.8857142857142855
4.15939656500268,0.3304029304029304,0.17406593406593407,1.8857142857142855
4.160281698001199,0.3304029304029304,0.17406593406593407,1.8857142857142855
4.16190028499841,0.3304029304029304,0.17406593406593407,1.8857142857142855
4.166881534998538,0.3304029304029304,0.17406593406593407,1.8857142857142855
4.171395511002629,1.4916483516483516,0.5334798534798535,3.212161172161172
4.171592897997471,0.9484981684981684,0.26190476190476186,3.3
4.177122765999229,0.9484981684981684,0.26190476190476186,3.3
4.177378334999958,0.2957509157509157,0.16842490842490843,2.0678388278388278
4.184009037002397,0.2957509157509157,0.16842490842490843,2.0678388278388278
4.188419284997508,0.2957509157509157,0.16842490842490843,2.0678388278388278
4.188666403002571,0.2957509157509157,0.16842490842490843,2.0678388278388278
4.1934156810020795,0.2957509157509157,0.16842490842490843,2.0678388278388278
4.193515184997523,0.2957509157509157,0.16842490842490843,2.0678388278388278
4.1981517399981385,0.2957509157509157,0.16842490842490843,2.0678388278388278
4.200141617002373,0.2957509157509157,0.16842490842490843,2.0678388278388278
4.201367508001567,0.2957509157509157,0.16842490842490843,2.0678388278388278
4.2018411539975205,0.2957509157509157,0.16842490842490843,2.0678388278388278
4.205672500000219,0.2957509157509157,0.16842490842490843,2.0678388278388278
4.209617947002698,0.2957509157509157,0.16842490842490843,2.0678388278388278
4.214054178999504,0.2957509157509157,0.16842490842490843,2.0678388278388278
4.2168068360042525,0.2957509157509157,0.16842490842490843,2.0678388278388278
4.220457159004582,0.2957509157509157,0.16842490842490843,2.0678388278388278
4.226382371001819,0.2957509157509157,0.16842490842490843,2.0678388278388278
4.235852306002926,0.2957509157509157,0.16842490842490843,2.0678388278388278
4.24190735600132,0.9114285714285715,0.22564102564102564,3.3
4.245896018001076,1.9848351648351645,0.6664468864468864,2.5634432234432234
4.250639891004539,1.9848351648351645,0.6664468864468864,2.5634432234432234
4.256288860000495,0.7832967032967032,0.24175824175824176,3.2379487179487176
4.256558708999364,0.0701098901098901,0.3441025641025641,1.0967765567765566
4.2622227760002716,0.0701098901098901,0.3441025641025641,1.0967765567765566
4.262534588997369,0.0701098901098901,0.3441025641025641,1.0967765567765566
4.268686119998165,0.0701098901098901,0.3441025641025641,1.0967765567765566
4.271986038998875,0.5246153846153846,0.4126007326007326,3.3
4.273623614004464,0.6116483516483516,0.21435897435897436,2.6408058608058607
4.277379610000935,0.7236630036630036,0.2248351648351648,3.3
4.282618113000353,2.1443956043956045,1.6028571428571428,1.1217582417582417
4.286382621001394,2.1443956043956045,1.6028571428571428,1.1217582417582417
4.292193323999527,0.0016117216117216117,0.32556776556776557,1.706007326007326
4.297369733001688,0.0016117216117216117,0.32556776556776557,1.706007326007326
4.302217467004084,0.0016117216117216117,0.32556776556776557,1.706007326007326
4.307207942001696,0.0016117216117216117,0.32556776556776557,1.706007326007326
4.310323616999085,0.0016117216117216117,0.32556776556776557,1.706007326007326
4.312705131000257,0.0016117216117216117,0.32556776556776557,1.706007326007326
4.312880944002245,0.0016117216117216117,0.32556776556776557,1.706007326007326
4.321213620998606,0.0016117216117216117,0.32556776556776557,1.706007326007326
4.326130526002089,1.9695238095238095,0.7147985347985348,2.5545787545787544
4.3306225830019685,1.9695238095238095,0.7147985347985348,2.5545787545787544
4.331610123997962,1.9695238095238095,0.7147985347985348,2.5545787545787544
4.333354563998,1.9695238095238095,0.7147985347985348,2.5545787545787544
4.336523949998082,1.9695238095238095,0.7147985347985348,2.5545787545787544
4.336852382999496,1.9695238095238095,0.7147985347985348,2.5545787545787544
4.34228080700268,1.9695238095238095,0.7147985347985348,2.5545787545787544
4.343152400004328,1.9695238095238095,0.7147985347985348,2.5545787545787544
4.344664174997888,1.9695238095238095,0.7147985347985348,2.5545787545787544
4.34937492699828,1.9695238095238095,0.7147985347985348,2.5545787545787544
4.349675664001552,1.041978021978022,0.8235897435897436,1.8905494505494502
4.355153620002966,1.041978021978022,0.8235897435897436,1.8905494505494502
4.35671225200349,1.041978021978022,0.8235897435897436,1.8905494505494502
4.359829401997558,0.03304029304029304,0.42952380952380953,2.2241758241758243
4.362835555002675,0.03304029304029304,0.42952380952380953,2.2241758241758243
4.3659008009999525,0.03304029304029304,0.42952380952380953,2.2241758241758243
4.3694153250035015,0.03304029304029304,0.42952380952380953,2.2241758241758243
4.379639687002054,0.03304029304029304,0.42952380952380953,2.2241758241758243
4.387012348997814,0.03304029304029304,0.42952380952380953,2.2241758241758243
4.390817913998035,0.03304029304029304,0.42952380952380953,2.2241758241758243
4.395549772998493,0.03304029304029304,0.42952380952380953,2.2241758241758243
4.396021325002948,0.03304029304029304,0.42952380952380953,2.2241758241758243
4.400236900997697,0.03304029304029304,0.42952380952380953,2.2241758241758243
4.403119515998696,0.03304029304029304,0.42952380952380953,2.2241758241758243
4.405801098997472,0.03304029304029304,0.42952380952380953,2.2241758241758243
4.410156623001967,0.03304029304029304,0.42952380952380953,2.2241758241758243
4.411922876999597,1.6109157509157508,0.3497435897435897,2.556996336996337
4.416589460000978,1.6109157509157508,0.3497435897435897,2.556996336996337
4.426228372998594,1.6109157509157508,0.3497435897435897,2.556996336996337
4.432705095001438,1.6109157509157508,0.3497435897435897,2.556996336996337
4.438072406999709,0.46095238095238095,0.2087179487179487,2.335384615384615
4.439127999998163,0.46095238095238095,0.2087179487179487,2.335384615384615
4.43933860299876,0.46095238095238095,0.2087179487179487,2.335384615384615
4.444450021001103,0.46095238095238095,0.2087179487179487,2.335384615384615
4.447606927002198,1.9429304029304029,0.7131868131868132,2.553772893772894
4.449584351998055,1.9429304029304029,0.7131868131868132,2.553772893772894
4.452627117003431,1.9429304029304029,0.7131868131868132,2.553772893772894
4.454400488000829,1.9429304029304029,0.7131868131868132,2.553772893772894
4.456865419000678,1.9429304029304029,0.7131868131868132,2.553772893772894
4.457036780004273,1.9429304029304029,0.7131868131868132,2.553772893772894
4.4627233920036815,1.9429304029304029,0.7131868131868132,2.553772893772894
4.462986780003121,1.9429304029304029,0.7131868131868132,2.553772893772894
4.470760185999097,1.9429304029304029,0.7131868131868132,2.553772893772894
4.474955972000316,1.9429304029304029,0.7131868131868132,2.553772893772894
4.47811262000323,1.9429304029304029,0.7131868131868132,2.553772893772894
4.479753468003764,1.9429304029304029,0.7131868131868132,2.553772893772894
4.485542094000266,1.9429304029304029,0.7131868131868132,2.553772893772894
4.490240339000593,1.9429304029304029,0.7131868131868132,2.553772893772894
4.490355779998936,1.9429304029304029,0.7131868131868132,2.553772893772894
4.495579317997908,1.9429304029304029,0.7131868131868132,2.553772893772894
4.498607317000278,1.9429304029304029,0.7131868131868132,2.553772893772894
4.502044788001513,1.9429304029304029,0.7131868131868132,2.553772893772894
4.502156661998015,1.9429304029304029,0.7131868131868132,2.553772893772894
4.507003031001659,1.9429304029304029,0.7131868131868132,2.553772893772894
4.512177525997686,1.9429304029304029,0.7131868131868132,2.553772893772894
4.515472199003852,0.6350183150183151,0.21597069597069596,3.1130402930402927
4.516530049004359,0.6350183150183151,0.21597069597069596,3.1130402930402927
4.516844629004481,0.6350183150183151,0.21597069597069596,3.1130402930402927
4.523075668003003,0.6350183150183151,0.21597069597069596,3.1130402930402927
4.526816646997759,0.6350183150183151,0.21597069597069596,3.1130402930402927
4.532600407001155,0.6350183150183151,0.21597069597069596,3.1130402930402927
4.539165665002656,0.6350183150183151,0.21597069597069596,3.1130402930402927
4.542929993003781,0.6350183150183151,0.21597069597069596,3.1130402930402927
4.548338380998757,0.6350183150183151,0.21597069597069596,3.1130402930402927
4.550662551999267,1.464249084249084,0.8066666666666666,2.4127472527472524
4.556228813002235,1.464249084249084,0.8066666666666666,2.4127472527472524
4.557118611999613,1.464249084249084,0.8066666666666666,2.4127472527472524
4.558779356004379,1.464249084249084,0.8066666666666666,2.4127472527472524
4.562565745000029,1.464249084249084,0.8066666666666666,2.4127472527472524
4.568558405997464,1.464249084249084,0.8066666666666666,2.4127472527472524
4.574185721001413,1.464249084249084,0.8066666666666666,2.4127472527472524
4.574455825997575,0.14102564102564102,0.17809523809523808,1.6592673992673992
4.57963571199798,0.14102564102564102,0.17809523809523808,1.6592673992673992
4.586166490000323,0.14102564102564102,0.17809523809523808,1.6592673992673992
4.589972269001009,0.14102564102564102,0.17809523809523808,1.6592673992673992
4.593919177001226,0.14102564102564102,0.17809523809523808,1.6592673992673992
4.598451803998614,0.14102564102564102,0.17809523809523808,1.6592673992673992
4.599031054000079,0.14102564102564102,0.17809523809523808,1.6592673992673992
4.604399764997652,0.14102564102564102,0.17809523809523808,1.6592673992673992
4.605275401001563,0.14102564102564102,0.17809523809523808,1.6592673992673992
4.606980267999461,0.14102564102564102,0.17809523809523808,1.6592673992673992
4.610164095000073,0.14102564102564102,0.17809523809523808,1.6592673992673992
4.611755937003181,0.14102564102564102,0.17809523809523808,1.6592673992673992
4.616667656999198,0.14102564102564102,0.17809523809523808,1.6592673992673992
4.623006223002449,0.14102564102564102,0.17809523809523808,1.6592673992673992
4.627032518001215,0.14102564102564102,0.17809523809523808,1.6592673992673992
4.6309370630042395,0.14102564102564102,0.17809523809523808,1.6592673992673992
4.635771528999612,1.0983882783882783,0.27318681318681315,3.3
4.639780030003749,1.0983882783882783,0.27318681318681315,3.3
4.643052990002616,1.0983882783882783,0.27318681318681315,3.3
4.643938342000183,1.0983882783882783,0.27318681318681315,3.3
4.64627435500006,1.0983882783882783,0.27318681318681315,3.3
4.6465437580045545,1.0983882783882783,0.27318681318681315,3.3
4.653443460003473,1.0983882783882783,0.27318681318681315,3.3
4.6578417790005915,0.6326007326007326,0.2111355311355311,2.6964102564102563
4.658698343999276,1.7656410256410255,1.548058608058608,1.299047619047619
4.660407175004366,1.7656410256410255,1.548058608058608,1.299047619047619
4.663450560001365,1.7656410256410255,1.548058608058608,1.299047619047619
4.666947516998334,0.896117216117216,0.4504761904761904,3.3
4.67450581400044,0.896117216117216,0.4504761904761904,3.3
4.679226457999903,0.896117216117216,0.4504761904761904,3.3
4.6794765400045435,1.3401465201465201,1.0959706959706959,0.7832967032967032
4.685872822003148,0.0,0.1668131868131868,0.9138461538461539
4.689715612003056,1.9799999999999998,0.7357509157509158,2.565860805860806
4.692768473003525,1.9799999999999998,0.7357509157509158,2.565860805860806
4.695285157999024,1.9799999999999998,0.7357509157509158,2.565860805860806
4.702753520999977,0.19743589743589743,0.17567765567765567,1.8172161172161172
4.70789511899784,0.19743589743589743,0.17567765567765567,1.8172161172161172
4.711861936004425,0.19743589743589743,0.17567765567765567,1.8172161172161172
4.7168471589975525,0.19743589743589743,0.17567765567765567,1.8172161172161172
4.721837409000727,0.19743589743589743,0.17567765567765567,1.8172161172161172
4.724924390000524,0.047545787545787546,0.18534798534798536,0.8872527472527472
4.727280689003237,0.7059340659340658,0.43435897435897436,3.3
4.727498519001529,0.7059340659340658,0.43435897435897436,3.3
4.7348091610037955,0.7059340659340658,0.43435897435897436,3.3
4.738726941002824,0.7059340659340658,0.19018315018315018,3.3
4.741967114001454,0.7059340659340658,0.19018315018315018,3.3
4.743488665997575,0.7059340659340658,0.19018315018315018,3.3
4.747980337997433,0.7059340659340658,0.19018315018315018,3.3
4.7493387909999,0.7059340659340658,0.19018315018315018,3.3
4.749608580998029,0.7059340659340658,0.19018315018315018,3.3
4.754442532001121,0.7059340659340658,0.19018315018315018,3.3
4.75816050600406,1.1676923076923076,0.2957509157509157,3.3
4.763332066999283,1.1676923076923076,0.2957509157509157,3.3
4.768715443002293,1.1435164835164835,0.5302564102564102,3.3
4.769167006001226,1.1435164835164835,0.5302564102564102,3.3
4.774649605002196,1.1435164835164835,0.5302564102564102,3.3
4.774867565000022,1.1435164835164835,0.5302564102564102,3.3
4.7804589389998,1.1435164835164835,0.5302564102564102,3.3
4.780696629000886,1.4304029304029304,1.1902564102564102,1.2539194139194139
4.788446942999144,1.4304029304029304,1.1902564102564102,1.2539194139194139
4.793081477000669,0.2248351648351648,0.5584615384615385,0.7405860805860806
4.793382773001213,0.8179487179487179,0.224029304029304,3.3
4.797890544003167,0.8179487179487179,0.224029304029304,3.3
4.798814023997693,0.8179487179487179,0.224029304029304,3.3
4.80058262500097,0.8179487179487179,0.224029304029304,3.3
4.804428777999419,0.0,0.17326007326007326,0.9307692307692307
4.807462445001875,0.0,0.17326007326007326,0.9307692307692307
4.8103705320027075,0.0,0.17326007326007326,0.9307692307692307
4.81381231299747,0.0,0.17326007326007326,0.9307692307692307
4.813976176999859,0.0,0.17326007326007326,0.9307692307692307
4.820452526997542,0.0,0.17326007326007326,0.9307692307692307
4.8242345890030265,0.0,0.17326007326007326,0.9307692307692307
4.829406080003537,0.0,0.17326007326007326,0.9307692307692307
4.8341580880005495,1.207179487179487,0.32073260073260074,3.3
4.84196442800021,1.207179487179487,0.32073260073260074,3.3
4.847172399997362,1.207179487179487,0.32073260073260074,3.3
4.8515202530034,1.207179487179487,0.32073260073260074,3.3
4.8519302400018205,1.3232234432234433,0.3658608058608058,3.3
4.856437849004578,1.3232234432234433,0.3658608058608058,3.3
4.856724850003957,1.3232234432234433,0.3658608058608058,3.3
4.861359784998058,1.3232234432234433,0.3658608058608058,3.3
4.861637435002194,1.3232234432234433,0.3658608058608058,3.3
4.867445551004494,1.3232234432234433,0.3658608058608058,3.3
4.867646808997961,1.3232234432234433,0.3658608058608058,3.3
4.876157138001872,1.3232234432234433,0.3658608058608058,3.3
4.885116151002876,1.3232234432234433,0.3658608058608058,3.3
4.8896044440043624,0.025787545787545788,0.18695970695970696,1.4118681318681316
4.889747708002687,0.025787545787545788,0.18695970695970696,1.4118681318681316
4.895058751004399,0.025787545787545788,0.18695970695970696,1.4118681318681316
4.899933688000601,0.28124542124542123,0.18776556776556774,1.9316483516483516
4.908734524004103,1.8172161172161172,1.4167032967032966,1.0274725274725274
4.91689746100019,1.8172161172161172,1.4167032967032966,1.0274725274725274
4.922955100999388,1.8172161172161172,1.4167032967032966,1.0274725274725274
4.928451104999112,1.8172161172161172,1.4167032967032966,1.0274725274725274
4.928730641004222,1.5013186813186812,0.5495970695970696,3.187179487179487
4.933937027002685,1.5013186813186812,0.5495970695970696,3.187179487179487
4.936889901000541,1.5013186813186812,0.5495970695970696,3.187179487179487
4.93916543800151,1.6495970695970694,1.3143589743589743,1.2595604395604394
4.939986826000677,1.6495970695970694,1.3143589743589743,1.2595604395604394
4.941637267002079,1.6495970695970694,1.3143589743589743,1.2595604395604394
4.945181394999963,1.6495970695970694,1.3143589743589743,1.2595604395604394
4.945349952002289,1.6495970695970694,1.3143589743589743,1.2595604395604394
4.951084562999313,1.6495970695970694,1.3143589743589743,1.2595604395604394
4.95135209900036,1.6495970695970694,1.3143589743589743,1.2595604395604394
4.957239759998629,1.6495970695970694,1.3143589743589743,1.2595604395604394
4.96107787299843,1.6495970695970694,1.3143589743589743,1.2595604395604394
4.9657841340012965,1.6495970695970694,1.3143589743589743,1.2595604395604394
4.966058039004565,1.6495970695970694,1.3143589743589743,1.2595604395604394
4.9714963599981274,1.6495970695970694,1.3143589743589743,1.2595604395604394
4.971744173002662,1.6495970695970694,1.3143589743589743,1.2595604395604394
4.976783992999117,1.6495970695970694,1.3143589743589743,1.2595604395604394
4.980623987001309,1.6495970695970694,1.3143589743589743,1.2595604395604394
4.9864319789994624,1.6495970695970694,1.3143589743589743,1.2595604395604394
4.993551521001791,1.6495970695970694,1.3143589743589743,1.2595604395604394
4.998354784002004,1.6495970695970694,1.3143589743589743,1.2595604395604394
5.005910231004236,0.0,0.2063003663003663,1.8325274725274725
5.010552544001257,0.0,0.2063003663003663,1.8325274725274725
5.010767177998787,0.0,0.2063003663003663,1.8325274725274725
5.016106394003145,0.0,0.2063003663003663,1.8325274725274725
5.020806491003896,0.0,0.2063003663003663,1.8325274725274725
5.025424307998037,0.0,0.2377289377289377,1.2506959706959706
5.025656149002316,1.9977289377289376,0.6873992673992674,2.5642490842490844
5.030216658000427,1.9977289377289376,0.6873992673992674,2.5642490842490844
5.030526537004334,1.9977289377289376,0.6873992673992674,2.5642490842490844
5.036961988000257,1.9977289377289376,0.6873992673992674,2.5642490842490844
5.040176624999731,1.9977289377289376,0.6873992673992674,2.5642490842490844
5.041713144004461,1.9977289377289376,0.6873992673992674,2.5642490842490844
5.045527376001701,1.9977289377289376,0.6873992673992674,2.5642490842490844
5.0535378659988055,1.5786813186813187,1.5714285714285712,1.4118681318681316
5.060090926002886,1.5786813186813187,1.5714285714285712,1.4118681318681316
5.064934836002067,1.5786813186813187,1.5714285714285712,1.4118681318681316
5.071235198003706,1.5786813186813187,1.5714285714285712,1.4118681318681316
5.0761409789993195,1.614139194139194,1.6334798534798534,1.4763369963369963
5.081756439998571,1.614139194139194,1.6334798534798534,1.4763369963369963
5.092635703003907,0.0,0.190989010989011,1.157216117216117
5.100443385999824,0.0,0.190989010989011,1.157216117216117
5.106348671004525,0.0,0.190989010989011,1.157216117216117
5.112787896003283,0.0,0.190989010989011,1.157216117216117
5.119488078002178,1.095164835164835,0.36344322344322344,3.3
5.12264740899991,1.095164835164835,0.36344322344322344,3.3
5.124214317998849,2.012234432234432,0.6479120879120879,2.561831501831502
5.128600588002882,2.012234432234432,0.6479120879120879,2.561831501831502
5.12946392899903,2.012234432234432,0.6479120879120879,2.561831501831502
5.132008163003775,2.012234432234432,0.6479120879120879,2.561831501831502
5.1374131470001885,2.012234432234432,0.6479120879120879,2.561831501831502
5.138937738003733,2.012234432234432,0.6479120879120879,2.561831501831502
5.14327177600353,2.012234432234432,0.6479120879120879,2.561831501831502
5.145322971002315,0.1692307692307692,0.16842490842490843,1.606080586080586
5.146786229001009,0.1692307692307692,0.16842490842490843,1.606080586080586
5.15238186300121,1.54,0.5665201465201465,3.038095238095238
5.152652621000016,1.54,0.5665201465201465,3.038095238095238
5.157672902998456,1.54,0.5665201465201465,3.038095238095238
5.162680679000914,1.54,0.5665201465201465,3.038095238095238
5.166624263001722,1.9284249084249083,0.6825641025641025,2.5634432234432234
5.171125038003083,1.9284249084249083,0.6825641025641025,2.5634432234432234
5.171356905004359,1.3296703296703296,0.3505494505494505,3.3
5.176885453998693,1.3296703296703296,0.3505494505494505,3.3
5.177807637002843,1.9928937728937726,1.4158974358974357,1.0387545787545787
5.17883633600286,1.9928937728937726,1.4158974358974357,1.0387545787545787
5.179860948002897,1.9928937728937726,1.4158974358974357,1.0387545787545787
5.180814619998273,1.9928937728937726,1.4158974358974357,1.0387545787545787
5.181169659997977,1.9928937728937726,1.4158974358974357,1.0387545787545787
5.187266950000776,1.9928937728937726,1.4158974358974357,1.0387545787545787
5.1918329690015526,1.9928937728937726,1.4158974358974357,1.0387545787545787
5.19814253700315,0.22644688644688646,0.16036630036630037,1.6093040293040293
5.203035238999291,0.22644688644688646,0.16036630036630037,1.6093040293040293
5.206863006002095,0.22644688644688646,0.16036630036630037,1.6093040293040293
5.215441287000431,1.3046886446886445,1.1789743589743589,1.6995604395604393
5.219989237004484,1.3046886446886445,1.1789743589743589,1.6995604395604393
5.220173537003575,1.3046886446886445,1.1789743589743589,1.6995604395604393
5.2247029680002015,1.3046886446886445,1.1789743589743589,1.6995604395604393
5.22555088000081,1.551282051282051,0.6696703296703297,3.3
5.227185879004537,0.49479853479853475,0.7695970695970695,0.5697435897435897
5.230911284001195,0.49479853479853475,0.7695970695970695,0.5697435897435897
5.236511433002306,0.49479853479853475,0.7695970695970695,0.5697435897435897
5.23805172900029,0.49479853479853475,0.7695970695970695,0.5697435897435897
5.242483271002129,0.49479853479853475,0.7695970695970695,0.5697435897435897
5.244076930997835,0.49479853479853475,0.7695970695970695,0.5697435897435897
5.2484550820008735,0.49479853479853475,0.7695970695970695,0.5697435897435897
5.250022280000849,0.49479853479853475,0.7695970695970695,0.5697435897435897
5.255534026000532,0.49479853479853475,0.7695970695970695,0.5697435897435897
5.256368205999024,0.0410989010989011,0.18695970695970696,1.2740659340659342
5.2580200049997075,0.0410989010989011,0.18695970695970696,1.2740659340659342
5.262054468003043,0.0410989010989011,0.18695970695970696,1.2740659340659342
5.265805957002158,0.0410989010989011,0.18695970695970696,1.2740659340659342
5.270756464000442,0.0410989010989011,0.18695970695970696,1.2740659340659342
5.275351543998113,0.4319413919413919,0.1829304029304029,2.0686446886446883
5.2756390610011294,0.4319413919413919,0.1829304029304029,2.0686446886446883
5.281198597003822,0.4319413919413919,0.1829304029304029,2.0686446886446883
5.28206905299885,0.4319413919413919,0.1829304029304029,2.0686446886446883
5.2835962980025215,0.4319413919413919,0.1829304029304029,2.0686446886446883
5.2888947859974,0.4319413919413919,0.1829304029304029,2.0686446886446883
5.291251968999859,0.4319413919413919,0.1829304029304029,2.0686446886446883
5.291375070002687,0.4319413919413919,0.1829304029304029,2.0686446886446883
5.296854309999617,0.4319413919413919,0.1829304029304029,2.0686446886446883
5.298416661004012,0.4319413919413919,0.1829304029304029,2.0686446886446883
5.302608439000323,0.4319413919413919,0.1829304029304029,2.0686446886446883
5.304200202001084,0.4319413919413919,0.1829304029304029,2.0686446886446883
5.308591619002982,0.4319413919413919,0.1829304029304029,2.0686446886446883
5.309564435003267,1.6342857142857143,1.6189743589743588,1.4578021978021978
5.310466665003332,1.6342857142857143,1.6189743589743588,1.4578021978021978
5.312090983999951,1.6342857142857143,1.6189743589743588,1.4578021978021978
5.316541910004162,1.6342857142857143,1.6189743589743588,1.4578021978021978
5.316888396002469,1.6342857142857143,1.6189743589743588,1.4578021978021978
5.328471246000845,1.6342857142857143,1.6189743589743588,1.4578021978021978
5.337617176002823,1.6342857142857143,1.6189743589743588,1.4578021978021978
5.34499572400091,1.6342857142857143,1.6189743589743588,1.4578021978021978
5.3490620919983485,1.6342857142857143,1.6189743589743588,1.4578021978021978
5.354358511001919,1.6342857142857143,1.6189743589743588,1.4578021978021978
5.354636896001466,0.9557509157509158,0.26190476190476186,3.3
5.362867167001241,0.9557509157509158,0.26190476190476186,3.3
5.367146513999614,0.9557509157509158,0.26190476190476186,3.3
5.369133434003743,0.9557509157509158,0.26190476190476186,3.3
5.370718575002684,0.9557509157509158,0.26190476190476186,3.3
5.374632441002177,0.9557509157509158,0.26190476190476186,3.3
5.379270482997526,0.6205128205128204,0.18857142857142856,3.0606593406593405
5.37946591200307,1.0016849816849815,0.8397069597069596,0.6197069597069597
5.384388637001393,1.0016849816849815,0.8397069597069596,0.6197069597069597
5.393484419997549,1.7857875457875456,0.6293772893772893,2.5642490842490844
5.4024718340006075,0.28205128205128205,0.17567765567765567,2.013846153846154
5.409062965998601,0.28205128205128205,0.17567765567765567,2.013846153846154
5.413615892997768,0.28205128205128205,0.17567765567765567,2.013846153846154
5.413714879003237,0.28205128205128205,0.17567765567765567,2.013846153846154
5.42446912000014,0.28205128205128205,0.17567765567765567,2.013846153846154
5.433408650002093,0.28205128205128205,0.17567765567765567,2.013846153846154
5.440248215003521,0.28205128205128205,0.17567765567765567,2.013846153846154
5.445562797001912,0.0,0.21194139194139192,1.6125274725274723
5.446936220003408,0.0,0.21194139194139192,1.6125274725274723
5.4553545550006675,0.0,0.21194139194139192,1.6125274725274723
5.459850473002007,0.3602197802197802,0.17326007326007326,2.0847619047619044
5.460737583001901,0.3602197802197802,0.17326007326007326,2.0847619047619044
5.4625180610019015,0.0,0.18857142857142856,0.6672527472527472
5.466670173998864,0.0,0.18857142857142856,0.6672527472527472
5.467128253003466,0.0,0.18857142857142856,0.6672527472527472
5.472926565002126,0.0,0.18857142857142856,0.6672527472527472
5.473032416004571,1.519047619047619,0.4472527472527472,3.3
5.478611013000773,1.519047619047619,0.4472527472527472,3.3
5.478951165998296,1.519047619047619,0.4472527472527472,3.3
5.484508273002575,1.519047619047619,0.4472527472527472,3.3
5.484858256000734,1.519047619047619,0.4472527472527472,3.3
5.489962241001194,1.519047619047619,0.4472527472527472,3.3
5.49365434399806,1.514212454212454,0.4383882783882784,3.3
5.499204589003057,1.514212454212454,0.4383882783882784,3.3
5.501488774003519,1.514212454212454,0.4383882783882784,3.3
5.501725424001052,1.514212454212454,0.4383882783882784,3.3
5.50679410900193,1.514212454212454,0.4383882783882784,3.3
5.509742052003276,1.514212454212454,0.4383882783882784,3.3
5.5124304330020095,1.514212454212454,0.4383882783882784,3.3
5.517870233001304,1.514212454212454,0.4383882783882784,3.3
5.520016973998281,1.514212454212454,0.4383882783882784,3.3
5.520229736001056,1.514212454212454,0.4383882783882784,3.3
5.526076505004312,1.514212454212454,0.4383882783882784,3.3
5.534601774998009,1.514212454212454,0.4383882783882784,3.3
5.539823523002269,1.514212454212454,0.4383882783882784,3.3
5.542417035001563,0.0,0.2651282051282051,0.8477655677655677
5.54766930200276,1.9703296703296702,0.6583882783882784,2.561025641025641
5.551663513004314,0.8074725274725274,0.40615384615384614,3.3
5.554312391002895,0.8074725274725274,0.40615384615384614,3.3
5.55887627699849,0.8074725274725274,0.40615384615384614,3.3
5.559103034000145,0.8074725274725274,0.40615384615384614,3.3
5.563639460997365,0.8074725274725274,0.40615384615384614,3.3
5.564655570000468,0.8074725274725274,0.40615384615384614,3.3
5.566004476000671,0.8074725274725274,0.40615384615384614,3.3
5.57375097500335,1.6213919413919413,1.4167032967032966,1.581904761904762
5.579811920004431,1.1918681318681317,0.3199267399267399,3.3
5.583646658000362,1.0661538461538462,0.8904761904761904,0.5391208791208791
5.587836840997625,1.0661538461538462,0.8904761904761904,0.5391208791208791
5.590103232003457,1.0661538461538462,0.8904761904761904,0.5391208791208791
5.590384216004168,1.3546520146520145,0.3586080586080586,3.3
5.5958920269986265,1.3546520146520145,0.3586080586080586,3.3
5.598733655002434,1.3546520146520145,0.3586080586080586,3.3
5.600830123003107,0.0,0.3167032967032967,1.934065934065934
5.60199640999781,0.0,0.3167032967032967,1.934065934065934
5.602328359003877,0.0,0.3167032967032967,1.934065934065934
5.60689246700349,0.0,0.3167032967032967,1.934065934065934
5.607720813000924,0.0,0.3167032967032967,1.934065934065934
5.6094385420001345,0.0,0.3167032967032967,1.934065934065934
5.612563059999957,0.0,0.3167032967032967,1.934065934065934
5.61527002100047,0.0,0.3167032967032967,1.934065934065934
5.620241274002183,0.0,0.2208058608058608,0.8687179487179487
5.626944303003256,0.0,0.2208058608058608,0.8687179487179487
5.630724635004299,0.0,0.2208058608058608,0.8687179487179487
5.639392078002857,0.0,0.2208058608058608,0.8687179487179487
5.644816047002678,0.0,0.2208058608058608,0.8687179487179487
5.645143467998423,0.0,0.2208058608058608,0.8687179487179487
5.654487405998225,0.0,0.2208058608058608,0.8687179487179487
5.662295209003787,1.4352380952380952,0.41340659340659336,3.3
5.669206350998138,1.4352380952380952,0.41340659340659336,3.3
5.67248361500242,1.5649816849816849,0.5673260073260072,3.042930402930403
5.674048344997573,1.5649816849816849,0.5673260073260072,3.042930402930403
5.677817408002738,1.5649816849816849,0.5673260073260072,3.042930402930403
5.683665673001087,1.5649816849816849,0.5673260073260072,3.042930402930403
5.691491411998868,1.7769230769230768,0.689010989010989,2.5473260073260073
5.696076186999562,1.7769230769230768,0.689010989010989,2.5473260073260073
5.696947921998799,1.7769230769230768,0.689010989010989,2.5473260073260073
5.700444187001267,1.7769230769230768,0.689010989010989,2.5473260073260073
5.706886083004065,1.7769230769230768,0.689010989010989,2.5473260073260073
5.7106087030042545,1.7769230769230768,0.689010989010989,2.5473260073260073
5.717071261002275,1.7769230769230768,0.689010989010989,2.5473260073260073
5.723066359998484,1.7769230769230768,0.689010989010989,2.5473260073260073
5.726130688999547,1.7769230769230768,0.689010989010989,2.5473260073260073
5.7285139610030456,1.7769230769230768,0.689010989010989,2.5473260073260073
5.72871607200068,1.7769230769230768,0.689010989010989,2.5473260073260073
5.737074602999201,1.7769230769230768,0.689010989010989,2.5473260073260073
5.741656308004167,1.7769230769230768,0.689010989010989,2.5473260073260073
5.741981384002429,1.7769230769230768,0.689010989010989,2.5473260073260073
5.748519674001727,1.7769230769230768,0.689010989010989,2.5473260073260073
5.754308035997383,1.7769230769230768,0.689010989010989,2.5473260073260073
5.758818880000035,0.12571428571428572,0.17406593406593407,1.261172161172161
5.759689730999526,0.12571428571428572,0.17406593406593407,1.261172161172161
5.761228800001845,0.12571428571428572,0.17406593406593407,1.261172161172161
5.769327390000399,0.9621978021978022,0.4391941391941392,3.087252747252747
5.774003065002034,0.9621978021978022,0.4391941391941392,3.087252747252747
5.774304245998792,0.7212454212454212,0.2063003663003663,3.3
5.779409408998617,0.7212454212454212,0.2063003663003663,3.3
5.785943793001934,0.7212454212454212,0.2063003663003663,3.3
5.789162248001958,0.7212454212454212,0.2063003663003663,3.3
5.789999318003538,0.7212454212454212,0.2063003663003663,3.3
5.791570444998797,0.7212454212454212,0.2063003663003663,3.3
5.796039567998378,0.7212454212454212,0.2063003663003663,3.3
5.796932691999245,1.066959706959707,0.8542124542124543,0.6035897435897435
5.798726615001215,1.066959706959707,0.8542124542124543,0.6035897435897435
5.80218237900408,1.066959706959707,0.8542124542124543,0.6035897435897435
5.80238465200091,1.066959706959707,0.8542124542124543,0.6035897435897435
5.806885402998887,1.066959706959707,0.8542124542124543,0.6035897435897435
5.808452737997868,1.066959706959707,0.8542124542124543,0.6035897435897435
5.8127531630016165,1.066959706959707,0.8542124542124543,0.6035897435897435
5.8136933839996345,1.066959706959707,0.8542124542124543,0.6035897435897435
5.8145672640021075,1.066959706959707,0.8542124542124543,0.6035897435897435
5.8165421090016025,1.066959706959707,0.8542124542124543,0.6035897435897435
5.8184337860002415,1.066959706959707,0.8542124542124543,0.6035897435897435
5.820757865003543,1.066959706959707,0.8542124542124543,0.6035897435897435
5.820980197000608,1.066959706959707,0.8542124542124543,0.6035897435897435
5.826684956999088,1.066959706959707,0.8542124542124543,0.6035897435897435
5.826864943999681,0.1789010989010989,0.3924542124542124,2.5312087912087913
5.832888744000229,0.1789010989010989,0.3924542124542124,2.5312087912087913
5.838089401004254,0.1789010989010989,0.3924542124542124,2.5312087912087913
5.84036895600002,0.0,0.2345054945054945,1.806739926739927
5.840642928000307,0.0,0.2345054945054945,1.806739926739927
5.846574232004059,0.0,0.2345054945054945,1.806739926739927
5.846692455001175,0.0,0.2345054945054945,1.806739926739927
5.853212091999012,1.535164835164835,0.5874725274725274,2.6996336996336994
5.8563439450008445,1.535164835164835,0.5874725274725274,2.6996336996336994
5.857896793000691,1.535164835164835,0.5874725274725274,2.6996336996336994
5.862391745999048,1.535164835164835,0.5874725274725274,2.6996336996336994
5.864026102004573,1.4690842490842488,0.5649084249084249,3.3
5.870706883004459,1.4690842490842488,0.5649084249084249,3.3
5.874476056000276,1.4690842490842488,0.5649084249084249,3.3
5.8788800980037195,0.10637362637362638,0.16197802197802197,1.4852014652014651
5.879758351999044,0.10637362637362638,0.16197802197802197,1.4852014652014651
5.881848748998891,0.10637362637362638,0.16197802197802197,1.4852014652014651
5.883321166002133,1.2942124542124542,0.5326739926739926,3.3
5.888518172003387,1.2942124542124542,0.5326739926739926,3.3
5.890840261999983,0.3553846153846154,0.6463003663003662,0.5834432234432234
5.891045153999585,0.3553846153846154,0.6463003663003662,0.5834432234432234
5.896579947999271,0.3553846153846154,0.6463003663003662,0.5834432234432234
5.897841764999612,0.3553846153846154,0.6463003663003662,0.5834432234432234
5.898235439002747,0.3553846153846154,0.6463003663003662,0.5834432234432234
5.903198509004142,0.3553846153846154,0.6463003663003662,0.5834432234432234
5.906448719004402,1.008131868131868,0.4738461538461538,3.1356043956043953
5.907368125997891,1.008131868131868,0.4738461538461538,3.1356043956043953
5.908921094000107,1.008131868131868,0.4738461538461538,3.1356043956043953
5.9134832700001425,1.008131868131868,0.4738461538461538,3.1356043956043953
5.914484993998485,1.008131868131868,0.4738461538461538,3.1356043956043953
5.915941315004602,1.008131868131868,0.4738461538461538,3.1356043956043953
5.922985495002649,1.008131868131868,0.4738461538461538,3.1356043956043953
5.929837918003614,1.008131868131868,0.4738461538461538,3.1356043956043953
5.935773566001444,1.519047619047619,0.5600732600732601,3.017948717948718
5.940239125004155,1.519047619047619,0.5600732600732601,3.017948717948718
5.940515490001417,0.0,0.2804395604395604,1.9235897435897436
5.9461634710023645,0.0,0.2804395604395604,1.9235897435897436
5.946415206999518,0.0,0.2804395604395604,1.9235897435897436
5.95225877899793,0.0,0.2804395604395604,1.9235897435897436
5.952396412998496,0.9904029304029303,0.25384615384615383,3.3
5.957077106002544,0.006446886446886447,0.15794871794871795,0.6833699633699634
5.957231320004212,0.006446886446886447,0.15794871794871795,0.6833699633699634
5.9656382059984026,0.006446886446886447,0.15794871794871795,0.6833699633699634
5.971076458001335,0.006446886446886447,0.15794871794871795,0.6833699633699634
5.971888259999105,0.006446886446886447,0.15794871794871795,0.6833699633699634
5.9734998179992544,0.006446886446886447,0.15794871794871795,0.6833699633699634
5.977513172001636,0.006446886446886447,0.15794871794871795,0.6833699633699634
5.98071284499747,0.006446886446886447,0.15794871794871795,0.6833699633699634
5.9824603450033464,0.0,0.190989010989011,1.1749450549450549
5.987232573002984,0.0,0.190989010989011,1.1749450549450549
5.993993700998544,0.0,0.190989010989011,1.1749450549450549
6.000698798998201,0.0,0.190989010989011,1.1749450549450549
6.005112195998663,0.0,0.190989010989011,1.1749450549450549
6.00536447000195,0.0,0.190989010989011,1.1749450549450549
6.010874847997911,0.0,0.190989010989011,1.1749450549450549
6.012367048999295,0.0,0.190989010989011,1.1749450549450549
6.019359896999958,0.0,0.190989010989011,1.1749450549450549
6.023600721004186,0.0,0.25384615384615383,1.8075457875457877
6.024489039002219,0.0,0.25384615384615383,1.8075457875457877
6.026446422001754,0.0,0.25384615384615383,1.8075457875457877
6.028783588000806,0.0,0.25384615384615383,1.8075457875457877
6.03687101900141,0.0,0.25384615384615383,1.8075457875457877
6.040821264999977,0.14424908424908423,0.16358974358974357,1.4932600732600732
6.04459212400252,0.14424908424908423,0.16358974358974357,1.4932600732600732
6.049251044001721,0.14424908424908423,0.16358974358974357,1.4932600732600732
6.049500822002301,0.14424908424908423,0.16358974358974357,1.4932600732600732
6.055644571002631,0.14424908424908423,0.16358974358974357,1.4932600732600732
6.059513015003176,0.14424908424908423,0.16358974358974357,1.4932600732600732
6.064813917997526,0.14424908424908423,0.16358974358974357,1.4932600732600732
6.067500044002372,0.14424908424908423,0.16358974358974357,1.4932600732600732
6.071544557999005,0.14424908424908423,0.16358974358974357,1.4932600732600732
6.07386541699816,1.2652014652014651,0.3263736263736263,3.3
6.074146122002276,1.2652014652014651,0.3263736263736263,3.3
6.079285111001809,1.2652014652014651,0.3263736263736263,3.3
6.0838269619998755,0.0,0.23369963369963367,1.9026373626373623
6.084054473001743,0.0,0.23369963369963367,1.9026373626373623
6.089706432001549,0.0,0.23369963369963367,1.9026373626373623
6.090081907997956,1.8075457875457877,1.4997069597069597,1.1298168498168497
6.0947334810043685,1.8075457875457877,1.4997069597069597,1.1298168498168497
6.094874437003455,1.8075457875457877,1.4997069597069597,1.1298168498168497
6.102758125998662,1.8075457875457877,1.4997069597069597,1.1298168498168497
6.106861075997585,1.8075457875457877,1.4997069597069597,1.1298168498168497
6.109205275999557,0.15472527472527473,0.3505494505494505,2.324102564102564
6.10940704800305,0.15472527472527473,0.3505494505494505,2.324102564102564
6.114336231999914,0.15472527472527473,0.3505494505494505,2.324102564102564
6.121282323998457,0.13296703296703297,0.20227106227106226,1.5424175824175823
6.1253822639991995,0.13296703296703297,0.20227106227106226,1.5424175824175823
6.127750562001893,0.23208791208791207,0.5520146520146519,0.697069597069597
6.127893602999393,0.23208791208791207,0.5520146520146519,0.697069597069597
6.135721024002123,0.23208791208791207,0.5520146520146519,0.697069597069597
6.139707258000271,0.23208791208791207,0.5520146520146519,0.697069597069597
6.143479350001144,0.0,0.22886446886446887,1.8164102564102564
6.149759591004113,0.0,0.22886446886446887,1.8164102564102564
6.153563148000103,1.5198534798534797,0.5342857142857143,3.0106959706959704
6.157345125997381,1.5198534798534797,0.5342857142857143,3.0106959706959704
6.161476663997746,1.5198534798534797,0.5342857142857143,3.0106959706959704
6.164960152003914,1.5198534798534797,0.5342857142857143,3.0106959706959704
6.165292126002896,1.5198534798534797,0.5342857142857143,3.0106959706959704
6.169585053001356,0.14344322344322344,0.4754578754578754,0.8799999999999999
6.171728507004445,1.8623443223443221,1.5915750915750915,1.244249084249084
6.173187093001616,1.8623443223443221,1.5915750915750915,1.244249084249084
6.17831902999751,1.8623443223443221,1.5915750915750915,1.244249084249084
6.1821357590015396,1.8623443223443221,1.5915750915750915,1.244249084249084
6.186328256997513,0.0,0.1821245421245421,0.9138461538461539
6.189394314002129,0.0,0.1821245421245421,0.9138461538461539
6.191509723001218,0.0,0.1821245421245421,0.9138461538461539
6.192419480998069,0.0,0.1821245421245421,0.9138461538461539
6.193866781999532,0.0,0.1821245421245421,0.9138461538461539
6.198919121001381,0.0,0.1821245421245421,0.9138461538461539
6.203068517002976,0.0,0.1821245421245421,0.9138461538461539
6.205784452002263,0.0,0.21516483516483517,1.004102564102564
6.209890179998183,0.0,0.21516483516483517,1.004102564102564
6.213544814003399,0.0,0.21516483516483517,1.004102564102564
6.21874780899816,0.0,0.21516483516483517,1.004102564102564
6.22239710699796,0.0,0.26190476190476186,1.7745054945054943
6.222507669001061,0.0,0.26190476190476186,1.7745054945054943
6.227310702997784,0.0,0.26190476190476186,1.7745054945054943
6.227502148001804,1.8115750915750917,1.4610256410256408,1.1588278388278386
6.232322554002167,1.8115750915750917,1.4610256410256408,1.1588278388278386
6.232448075003049,1.8115750915750917,1.4610256410256408,1.1588278388278386
6.236629372004245,0.14908424908424908,0.190989010989011,1.1934798534798534
6.241381829997408,0.14908424908424908,0.190989010989011,1.1934798534798534
6.247181274004106,1.0508424908424907,0.5560439560439561,3.3
6.254587445997458,1.8196336996336997,0.7502564102564102,2.565054945054945
6.258887096999388,1.8196336996336997,0.7502564102564102,2.565054945054945
6.2606715180008905,1.8196336996336997,0.7502564102564102,2.565054945054945
6.263282933003211,0.0,0.19743589743589743,1.3933333333333333
6.273754751004162,0.0,0.19743589743589743,1.3933333333333333
6.2824983690006775,0.0,0.19743589743589743,1.3933333333333333
6.288339983999322,0.0,0.19743589743589743,1.3933333333333333
6.288551014004042,1.656043956043956,1.506153846153846,1.4666666666666666
6.293168837000849,1.656043956043956,1.506153846153846,1.4666666666666666
6.293411122001999,0.0,0.1789010989010989,0.5729670329670329
6.298502750003536,0.0,0.1789010989010989,0.5729670329670329
6.302179589001753,0.0,0.1789010989010989,0.5729670329670329
6.302287746002548,1.7446886446886447,0.7373626373626374,3.3
6.306904167999164,1.7446886446886447,0.7373626373626374,3.3
6.307192305997887,0.3021978021978022,0.7518681318681318,0.7349450549450549
6.312516003003111,0.3021978021978022,0.7518681318681318,0.7349450549450549
6.3156147050030995,1.5174358974358972,0.5963369963369963,3.22021978021978
6.318027596003958,1.3063003663003663,1.216849816849817,0.8163369963369963
6.318235566002841,1.3063003663003663,1.216849816849817,0.8163369963369963
6.32267929900263,1.3063003663003663,1.216849816849817,0.8163369963369963
6.323554927002988,1.3063003663003663,1.216849816849817,0.8163369963369963
6.325129114004085,1.3063003663003663,1.216849816849817,0.8163369963369963
6.329728582997632,1.3063003663003663,1.216849816849817,0.8163369963369963
6.329927963000955,1.3063003663003663,1.216849816849817,0.8163369963369963
6.33545858800062,1.3063003663003663,1.216849816849817,0.8163369963369963
6.335723775999213,1.3063003663003663,1.216849816849817,0.8163369963369963
6.340181510000548,1.3063003663003663,1.216849816849817,0.8163369963369963
6.34240105599747,0.0,0.4794871794871795,2.1065201465201464
6.342738170998928,0.0,0.4794871794871795,2.1065201465201464
6.348561457001779,0.0,0.4794871794871795,2.1065201465201464
6.353734351003368,0.0,0.4794871794871795,2.1065201465201464
6.357412450000993,0.0016117216117216117,0.2191941391941392,0.6205128205128204
6.361847111998941,0.0016117216117216117,0.2191941391941392,0.6205128205128204
6.3635452820017235,0.0016117216117216117,0.2191941391941392,0.6205128205128204
6.366627925002831,0.0016117216117216117,0.2191941391941392,0.6205128205128204
6.368893872000626,0.0016117216117216117,0.2191941391941392,0.6205128205128204
6.369956868998997,1.4167032967032966,0.7712087912087912,1.6939194139194136
6.370812993001891,1.4167032967032966,0.7712087912087912,1.6939194139194136
6.3717372009996325,0.8791941391941391,0.2602930402930403,2.5561904761904763
6.373533106998366,0.8791941391941391,0.2602930402930403,2.5561904761904763
6.377372285001911,0.8791941391941391,0.2602930402930403,2.5561904761904763
6.382000288002018,0.8791941391941391,0.2602930402930403,2.5561904761904763
6.382307626998227,0.0,0.32798534798534795,1.547252747252747
6.387917218999064,0.0,0.32798534798534795,1.547252747252747
6.38875132099929,0.0,0.32798534798534795,1.547252747252747
6.390329670000938,0.0,0.32798534798534795,1.547252747252747
6.394769926002482,0.0,0.32798534798534795,1.547252747252747
6.396288711002853,0.0975091575091575,0.24498168498168496,0.5141391941391941
6.40074796800036,0.0975091575091575,0.24498168498168496,0.5141391941391941
6.401661638003134,0.0975091575091575,0.24498168498168496,0.5141391941391941
6.403219045001606,0.0975091575091575,0.24498168498168496,0.5141391941391941
6.407055287003459,0.0975091575091575,0.24498168498168496,0.5141391941391941
6.411409391002962,0.0975091575091575,0.24498168498168496,0.5141391941391941
6.413148341998749,0.0975091575091575,0.24498168498168496,0.5141391941391941
6.416756527003599,0.0975091575091575,0.24498168498168496,0.5141391941391941
6.416967803001171,0.0975091575091575,0.24498168498168496,0.5141391941391941
6.422156047003227,0.0975091575091575,0.24498168498168496,0.5141391941391941
6.4258999840021715,0.0975091575091575,0.24498168498168496,0.5141391941391941
6.431275030998222,0.0975091575091575,0.24498168498168496,0.5141391941391941
6.432835929997964,0.734139194139194,0.28446886446886444,2.6198534798534796
6.437248239002656,0.734139194139194,0.28446886446886444,2.6198534798534796
6.438823878001131,1.635091575091575,1.959047619047619,1.4070329670329669
