time,emg1,emg2,emg3
0.007581719997688197,1.2434432234432233,0.40937728937728934,3.3
0.027350035998097155,1.2434432234432233,0.40937728937728934,3.3
0.043321536999428645,0.6293772893772893,0.26915750915750913,1.676190476190476
0.051937819000158925,0.6293772893772893,0.26915750915750913,1.676190476190476
0.0587461719987914,1.801098901098901,0.6019780219780219,3.3
0.0655360499949893,1.801098901098901,0.6019780219780219,3.3
0.07033028599835234,1.801098901098901,0.6019780219780219,3.3
0.07619495599647053,1.801098901098901,0.6019780219780219,3.3
0.08764862499810988,0.13377289377289378,0.24256410256410255,0.6591941391941392
0.09696712900040438,0.13377289377289378,0.24256410256410255,0.6591941391941392
0.10297820499545196,0.13377289377289378,0.24256410256410255,0.6591941391941392
0.11116696099634282,0.13377289377289378,0.24256410256410255,0.6591941391941392
0.11747067199758021,0.13377289377289378,0.24256410256410255,0.6591941391941392
0.12274779099971056,0.423076923076923,0.26673992673992675,1.6592673992673992
0.1240619140007766,0.423076923076923,0.26673992673992675,1.6592673992673992
0.1339103950012941,0.423076923076923,0.26673992673992675,1.6592673992673992
0.14007631500135176,0.423076923076923,0.26673992673992675,1.6592673992673992
0.1451396949996706,0.0,0.39809523809523806,0.8775824175824175
0.15154966399859404,0.0,0.39809523809523806,0.8775824175824175
0.15528318099677563,0.0,0.39809523809523806,0.8775824175824175
0.15987491399573628,1.8172161172161172,1.569010989010989,0.9452747252747251
0.16075801799888723,0.08622710622710622,0.28608058608058606,2.083150183150183
0.16273629199713469,0.08622710622710622,0.28608058608058606,2.083150183150183
0.16365699799644062,0.08622710622710622,0.28608058608058606,2.083150183150183
0.16529908499796875,0.08622710622710622,0.28608058608058606,2.083150183150183
0.16930783899442758,0.08622710622710622,0.28608058608058606,2.083150183150183
0.17331604399805656,1.6431501831501831,0.4391941391941392,3.3
0.17712570000003325,1.2982417582417582,0.3424908424908425,3.3
0.18191185599425808,1.2982417582417582,0.3424908424908425,3.3
0.18213701700005913,1.2982417582417582,0.3424908424908425,3.3
0.1868420109967701,1.2982417582417582,0.3424908424908425,3.3
0.18701170299755177,1.2982417582417582,0.3424908424908425,3.3
0.19261474999802886,1.2982417582417582,0.3424908424908425,3.3
0.19427343799907248,1.843003663003663,0.5721611721611721,2.5473260073260073
0.19832854400010547,0.6116483516483516,0.24739926739926738,2.282197802197802
0.20069747499655932,0.6116483516483516,0.24739926739926738,2.282197802197802
0.20097781799995573,0.6116483516483516,0.24739926739926738,2.282197802197802
0.20921791000000667,0.6116483516483516,0.24739926739926738,2.282197802197802
0.21558540399564663,1.1596336996336996,1.2450549450549449,2.4876923076923076
0.22055682399513898,1.1596336996336996,1.2450549450549449,2.4876923076923076
0.22819296899979236,1.1596336996336996,1.2450549450549449,2.4876923076923076
0.23419375899538863,1.1596336996336996,1.2450549450549449,2.4876923076923076
0.24261441300041042,1.1596336996336996,1.2450549450549449,2.4876923076923076
0.2503624940000009,0.0,0.3223443223443223,0.8219780219780219
0.2573874989975593,0.0,0.3223443223443223,0.8219780219780219
0.26111364299868,0.3747252747252747,0.2602930402930403,1.2797069597069597
0.2662611339983414,0.3747252747252747,0.2602930402930403,1.2797069597069597
0.27164915399771417,1.0435897435897434,0.5431501831501832,3.3
0.27452213499782374,1.0435897435897434,0.5431501831501832,3.3
0.27863945799617795,1.0435897435897434,0.5431501831501832,3.3
0.2795204529975308,1.0435897435897434,0.5431501831501832,3.3
0.2810995699983323,1.0435897435897434,0.5431501831501832,3.3
0.28578354499768466,1.0435897435897434,0.5431501831501832,3.3
0.29596983199735405,1.7946520146520144,1.779340659340659,2.05010989010989
0.30363783199572936,1.7946520146520144,1.779340659340659,2.05010989010989
0.31081217299652053,0.0,0.2602930402930403,0.8002197802197801
0.3147584239995922,0.0,0.2602930402930403,0.8002197802197801
0.3186169510008767,0.0,0.2602930402930403,0.8002197802197801
0.3234958069951972,0.0,0.3473260073260073,1.2378021978021978
0.328323443995032,0.0,0.3473260073260073,1.2378021978021978
0.3340634739943198,1.6495970695970694,0.5584615384615385,3.3
0.33418273799907183,1.6495970695970694,0.5584615384615385,3.3
0.33903840000130003,1.6495970695970694,0.5584615384615385,3.3
0.3464058989993646,1.6495970695970694,0.5584615384615385,3.3
0.3512335389968939,1.6495970695970694,0.5584615384615385,3.3
0.3568932889975258,1.6495970695970694,0.5584615384615385,3.3
0.3571265649952693,0.7575091575091575,0.24659340659340656,2.617435897435897
0.36322762099734973,0.7575091575091575,0.24659340659340656,2.617435897435897
0.36795313799666474,0.7575091575091575,0.24659340659340656,2.617435897435897
0.36809729100059485,0.7575091575091575,0.24659340659340656,2.617435897435897
0.3765875139943091,0.7575091575091575,0.24659340659340656,2.617435897435897
0.38281608800025424,0.46417582417582415,0.2594871794871795,1.5367765567765568
0.3871213059974252,2.146007326007326,0.7881318681318681,2.5594139194139194
0.38756088000081945,2.146007326007326,0.7881318681318681,2.5594139194139194
0.3966388049957459,2.146007326007326,0.7881318681318681,2.5594139194139194
0.4014973649973399,1.3103296703296703,0.4045421245421245,3.3
0.40726435800024774,1.3103296703296703,0.4045421245421245,3.3
0.4188793169960263,1.3103296703296703,0.4045421245421245,3.3
0.43116853299579816,1.3103296703296703,0.4045421245421245,3.3
0.44334236099530244,1.3103296703296703,0.4045421245421245,3.3
0.4538170559972059,1.3103296703296703,0.4045421245421245,3.3
0.4650682239953312,1.622197802197802,0.7204395604395604,3.005054945054945
0.47388272299576784,1.622197802197802,0.7204395604395604,3.005054945054945
0.4813713920011651,1.622197802197802,0.7204395604395604,3.005054945054945
0.48624294599721907,1.622197802197802,0.7204395604395604,3.005054945054945
0.49413707399799023,1.622197802197802,0.7204395604395604,3.005054945054945
0.49911931099632056,0.2175824175824176,0.25787545787545785,1.021025641025641
0.5039591719978489,2.01062271062271,1.9356776556776556,0.9065934065934066
0.5117468719981844,2.01062271062271,1.9356776556776556,0.9065934065934066
0.5180631789990002,1.7954578754578752,1.701978021978022,1.7084249084249086
0.5215448309972999,1.7954578754578752,1.701978021978022,1.7084249084249086
0.5220334100013133,1.7954578754578752,1.701978021978022,1.7084249084249086
0.5273472400003811,1.7954578754578752,1.701978021978022,1.7084249084249086
0.5282980949996272,0.26754578754578756,0.47142857142857136,1.843003663003663
0.529279869995662,0.26754578754578756,0.47142857142857136,1.843003663003663
0.530230420998123,0.26754578754578756,0.47142857142857136,1.843003663003663
0.5312355040005059,0.26754578754578756,0.47142857142857136,1.843003663003663
0.5322695029972238,0.26754578754578756,0.47142857142857136,1.843003663003663
0.5331927279985393,0.26754578754578756,0.47142857142857136,1.843003663003663
0.5341221709968522,0.26754578754578756,0.47142857142857136,1.843003663003663
0.5357658339999034,0.26754578754578756,0.47142857142857136,1.843003663003663
0.5405693909997353,0.190989010989011,0.5068864468864469,0.6205128205128204
0.5461464149993844,0.190989010989011,0.5068864468864469,0.6205128205128204
0.5463250549946679,0.190989010989011,0.5068864468864469,0.6205128205128204
0.5519751489991904,0.190989010989011,0.5068864468864469,0.6205128205128204
0.5528095539993956,0.190989010989011,0.5068864468864469,0.6205128205128204
0.5557424689977779,0.190989010989011,0.5068864468864469,0.6205128205128204
0.5601034200008144,2.3007326007326006,1.917948717948718,1.046007326007326
0.5603501449950272,0.09347985347985348,0.26109890109890105,1.1120879120879121
0.5660369629986235,0.09347985347985348,0.26109890109890105,1.1120879120879121
0.5662021669995738,0.09347985347985348,0.26109890109890105,1.1120879120879121
0.5718640829945798,0.09347985347985348,0.26109890109890105,1.1120879120879121
0.5722928850009339,0.09347985347985348,0.26109890109890105,1.1120879120879121
0.5783387089977623,0.09347985347985348,0.26109890109890105,1.1120879120879121
0.5815676450001774,0.09347985347985348,0.26109890109890105,1.1120879120879121
0.5835430980005185,0.09347985347985348,0.26109890109890105,1.1120879120879121
0.5852710619947175,0.09347985347985348,0.26109890109890105,1.1120879120879121
0.5907523380010389,0.09347985347985348,0.26109890109890105,1.1120879120879121
0.5910719189996598,0.09347985347985348,0.26109890109890105,1.1120879120879121
0.5960828870011028,0.09347985347985348,0.26109890109890105,1.1120879120879121
0.6002917570003774,0.09347985347985348,0.26109890109890105,1.1120879120879121
0.6020693030004622,0.09347985347985348,0.26109890109890105,1.1120879120879121
0.608149814994249,0.09347985347985348,0.26109890109890105,1.1120879120879121
0.6119600409947452,1.896190476190476,0.7623443223443224,3.3
0.6160689629978151,1.4545787545787545,0.4625641025641025,3.3
0.619237875995168,1.4545787545787545,0.4625641025641025,3.3
0.6201746329970774,0.0,0.3078388278388278,1.0274725274725274
0.6220430109970039,0.0,0.3078388278388278,1.0274725274725274
0.6256639759958489,0.0,0.3078388278388278,1.0274725274725274
0.6308772089978447,0.0,0.3078388278388278,1.0274725274725274
0.633274777996121,0.0,0.3078388278388278,1.0274725274725274
0.633452545000182,0.0,0.3078388278388278,1.0274725274725274
0.639766617998248,0.0,0.3078388278388278,1.0274725274725274
0.644497560999298,0.014505494505494505,0.4319413919413919,1.991282051282051
0.6493165969950496,0.014505494505494505,0.4319413919413919,1.991282051282051
0.6551990329971886,0.014505494505494505,0.4319413919413919,1.991282051282051
0.6553984089987352,0.014505494505494505,0.4319413919413919,1.991282051282051
0.6632734109953162,0.014505494505494505,0.4319413919413919,1.991282051282051
0.6681443249981385,0.014505494505494505,0.4319413919413919,1.991282051282051
0.6774653719985508,0.014505494505494505,0.4319413919413919,1.991282051282051
0.6817334009974729,0.014505494505494505,0.4319413919413919,1.991282051282051
0.6833995449997019,0.014505494505494505,0.4319413919413919,1.991282051282051
0.6872587889956776,2.4199999999999995,0.7953846153846154,2.565054945054945
0.6940856119981618,2.4199999999999995,0.7953846153846154,2.565054945054945
0.6981205439951736,2.4199999999999995,0.7953846153846154,2.565054945054945
0.7012814289992093,2.4199999999999995,0.7953846153846154,2.565054945054945
0.7022821729988209,2.4199999999999995,0.7953846153846154,2.565054945054945
0.703193861998443,2.4199999999999995,0.7953846153846154,2.565054945054945
0.704881897996529,2.4199999999999995,0.7953846153846154,2.565054945054945
0.7104241799970623,2.4199999999999995,0.7953846153846154,2.565054945054945
0.7105881519964896,2.4199999999999995,0.7953846153846154,2.565054945054945
0.71550886699697,2.4199999999999995,0.7953846153846154,2.565054945054945
0.7201682689992595,2.4199999999999995,0.7953846153846154,2.565054945054945
0.7203117749959347,2.4199999999999995,0.7953846153846154,2.565054945054945
0.7281298449961469,2.4199999999999995,0.7953846153846154,2.565054945054945
0.7322139379975852,0.332014652014652,0.7575091575091575,0.5383150183150183
0.7354130120002083,0.332014652014652,0.7575091575091575,0.5383150183150183
0.7379773869979545,0.332014652014652,0.7575091575091575,0.5383150183150183
0.7457461049998528,0.332014652014652,0.7575091575091575,0.5383150183150183
0.7502737499962677,0.332014652014652,0.7575091575091575,0.5383150183150183
0.7511910859975615,0.332014652014652,0.7575091575091575,0.5383150183150183
0.7528094559966121,0.332014652014652,0.7575091575091575,0.5383150183150183
0.7608381879981607,0.332014652014652,0.7575091575091575,0.5383150183150183
0.7648460009950213,0.332014652014652,0.7575091575091575,0.5383150183150183
0.7686434749994078,0.332014652014652,0.7575091575091575,0.5383150183150183
0.7758007980010007,0.332014652014652,0.7575091575091575,0.5383150183150183
0.7809998339944286,0.332014652014652,0.7575091575091575,0.5383150183150183
0.7826030689975596,0.332014652014652,0.7575091575091575,0.5383150183150183
0.7866711509996094,0.332014652014652,0.7575091575091575,0.5383150183150183
0.7901940149968141,0.332014652014652,0.7575091575091575,0.5383150183150183
0.7971835770003963,1.7978754578754577,0.6035897435897435,3.3
0.8011804099951405,1.7978754578754577,0.6035897435897435,3.3
0.8073080429967376,1.7978754578754577,0.6035897435897435,3.3
0.8117063210011111,0.8211721611721612,0.5342857142857143,3.028424908424908
0.8120150609975099,0.8211721611721612,0.5342857142857143,3.028424908424908
0.8169510049992823,0.8211721611721612,0.5342857142857143,3.028424908424908
0.8220738029995118,0.8211721611721612,0.5342857142857143,3.028424908424908
0.8287808699969901,0.08622710622710622,0.28608058608058606,1.332087912087912
0.8331921700009843,0.08622710622710622,0.28608058608058606,1.332087912087912
0.8334991090014228,0.2643223443223443,0.19018315018315018,0.8163369963369963
0.8380223220010521,0.2643223443223443,0.19018315018315018,0.8163369963369963
0.8390909640002064,0.2643223443223443,0.19018315018315018,0.8163369963369963
0.8394102629972622,0.2643223443223443,0.19018315018315018,0.8163369963369963
0.8465061419992708,0.2643223443223443,0.19018315018315018,0.8163369963369963
0.8504795330009074,0.2643223443223443,0.19018315018315018,0.8163369963369963
0.8562122980001732,0.2643223443223443,0.19018315018315018,0.8163369963369963
0.8635231129956082,0.5342857142857143,0.8679120879120878,0.4472527472527472
0.8681570539993118,0.5342857142857143,0.8679120879120878,0.4472527472527472
0.8685955190012464,0.5342857142857143,0.8679120879120878,0.4472527472527472
0.8756363450011122,0.5342857142857143,0.8679120879120878,0.4472527472527472
0.8789386589996866,0.5342857142857143,0.8679120879120878,0.4472527472527472
0.8798434439959237,0.5342857142857143,0.8679120879120878,0.4472527472527472
0.881507865000458,0.5342857142857143,0.8679120879120878,0.4472527472527472
0.8855434270008118,0.5342857142857143,0.8679120879120878,0.4472527472527472
0.8913346999979694,0.1643956043956044,0.46498168498168496,1.5408058608058608
0.8967177769955015,0.1643956043956044,0.46498168498168496,1.5408058608058608
0.8991155639960198,0.1643956043956044,0.46498168498168496,1.5408058608058608
0.8992809289993602,0.1643956043956044,0.46498168498168496,1.5408058608058608
0.9039031270003761,0.1643956043956044,0.46498168498168496,1.5408058608058608
0.9041798879989074,2.407106227106227,0.9339926739926739,2.5602197802197804
0.9117414899956202,2.407106227106227,0.9339926739926739,2.5602197802197804
0.9164916219961015,1.3828571428571428,0.4158241758241758,3.3
0.9166005039951415,0.5600732600732601,0.2772161172161172,1.834945054945055
0.923224897000182,0.5600732600732601,0.2772161172161172,1.834945054945055
0.9279577029956272,0.5600732600732601,0.2772161172161172,1.834945054945055
0.933578607000527,1.7535531135531135,0.6003663003663003,3.3
0.9344115999992937,1.7535531135531135,0.6003663003663003,3.3
0.936313419995713,1.7535531135531135,0.6003663003663003,3.3
0.9385173749979003,2.0678388278388278,1.6528205128205127,1.1048351648351646
0.9392097809977713,2.0678388278388278,1.6528205128205127,1.1048351648351646
0.9424187179974979,2.0678388278388278,1.6528205128205127,1.1048351648351646
0.9427061169990338,2.0678388278388278,1.6528205128205127,1.1048351648351646
0.9475815149999107,2.0678388278388278,1.6528205128205127,1.1048351648351646
0.9531086630013306,2.0678388278388278,1.6528205128205127,1.1048351648351646
0.9533476020005764,0.4786813186813187,0.25787545787545785,1.2974358974358973
0.9612767539947527,0.4786813186813187,0.25787545787545785,1.2974358974358973
0.966157780996582,0.13216117216117215,0.5463736263736263,2.229010989010989
0.9729940559991519,0.13216117216117215,0.5463736263736263,2.229010989010989
0.9775924790010322,0.13216117216117215,0.5463736263736263,2.229010989010989
0.9777932020006119,0.13216117216117215,0.5463736263736263,2.229010989010989
0.982812547001231,0.13216117216117215,0.5463736263736263,2.229010989010989
0.9867343070000061,0.13216117216117215,0.5463736263736263,2.229010989010989
0.9926795399951516,0.13216117216117215,0.5463736263736263,2.229010989010989
0.997827311999572,0.13216117216117215,0.5463736263736263,2.229010989010989
1.000262200999714,0.13216117216117215,0.5463736263736263,2.229010989010989
1.0004635709992726,0.13216117216117215,0.5463736263736263,2.229010989010989
1.0080593019956723,0.13216117216117215,0.5463736263736263,2.229010989010989
1.0114127079941682,0.7986080586080586,1.0726007326007325,0.4810989010989011
1.012299855996389,0.6712820512820512,0.30864468864468864,1.6632967032967032
1.013275524994242,0.6712820512820512,0.30864468864468864,1.6632967032967032
1.014249658001063,0.6712820512820512,0.30864468864468864,1.6632967032967032
1.015264253001078,0.6672527472527472,0.22886446886446887,1.8728205128205127
1.0162312309985282,0.6672527472527472,0.22886446886446887,1.8728205128205127
1.0178283079949324,0.6672527472527472,0.22886446886446887,1.8728205128205127
1.0230376600011368,0.6672527472527472,0.22886446886446887,1.8728205128205127
1.0258226619989728,0.6672527472527472,0.22886446886446887,1.8728205128205127
1.0299256859943853,1.9034432234432233,1.7358241758241757,1.4352380952380952
1.0324027429960552,1.9034432234432233,1.7358241758241757,1.4352380952380952
1.0325567839972791,1.9034432234432233,1.7358241758241757,1.4352380952380952
1.0372133329947246,1.9034432234432233,1.7358241758241757,1.4352380952380952
1.03742198299733,1.9034432234432233,1.7358241758241757,1.4352380952380952
1.0440088199975435,1.9034432234432233,1.7358241758241757,1.4352380952380952
1.0475284470012411,1.9034432234432233,1.7358241758241757,1.4352380952380952
1.0478129209950566,1.9034432234432233,1.7358241758241757,1.4352380952380952
1.0535994870006107,1.9034432234432233,1.7358241758241757,1.4352380952380952
1.0537894869994489,0.3191208791208791,0.29333333333333333,0.8622710622710623
1.062751446996117,0.3191208791208791,0.29333333333333333,0.8622710622710623
1.0673651170000085,0.3191208791208791,0.29333333333333333,0.8622710622710623
1.0682408069988014,1.1821978021978021,0.5544322344322344,3.3
1.0698365299977013,1.1821978021978021,0.5544322344322344,3.3
1.0755939239970758,1.1821978021978021,0.5544322344322344,3.3
1.0812052609981038,0.49479853479853475,0.3038095238095238,1.4819780219780219
1.081519011000637,0.49479853479853475,0.3038095238095238,1.4819780219780219
1.0862328349976451,0.49479853479853475,0.3038095238095238,1.4819780219780219
1.0937551239985623,0.49479853479853475,0.3038095238095238,1.4819780219780219
1.0984058329995605,2.071868131868132,0.6414652014652015,2.5465201465201464
1.0987067169990041,2.071868131868132,0.6414652014652015,2.5465201465201464
1.1041032770008314,2.071868131868132,0.6414652014652015,2.5465201465201464
1.107920162998198,2.071868131868132,0.6414652014652015,2.5465201465201464
1.112358566999319,2.071868131868132,0.6414652014652015,2.5465201465201464
1.112631190000684,2.071868131868132,0.6414652014652015,2.5465201465201464
1.1182749259969569,2.071868131868132,0.6414652014652015,2.5465201465201464
1.118550087994663,0.9106227106227106,0.9057875457875458,0.41340659340659336
1.1235292669953196,0.9106227106227106,0.9057875457875458,0.41340659340659336
1.1271834219951415,0.9106227106227106,0.9057875457875458,0.41340659340659336
1.132164931994339,0.9106227106227106,0.9057875457875458,0.41340659340659336
1.1363338749943068,0.9106227106227106,0.9057875457875458,0.41340659340659336
1.1398181650001789,0.9106227106227106,0.9057875457875458,0.41340659340659336
1.1400589409968234,0.9106227106227106,0.9057875457875458,0.41340659340659336
1.1448822349993861,0.9106227106227106,0.9057875457875458,0.41340659340659336
1.150987367000198,0.9106227106227106,0.9057875457875458,0.41340659340659336
1.1600514379970264,0.9106227106227106,0.9057875457875458,0.41340659340659336
1.1692537549970439,0.9106227106227106,0.9057875457875458,0.41340659340659336
1.1779782029989292,2.2088644688644687,0.6575824175824176,2.5545787545787544
1.1849711149989162,2.2088644688644687,0.6575824175824176,2.5545787545787544
1.1929862379984115,0.6664468864468864,1.0822710622710623,0.43113553113553116
1.2003089339996222,0.6664468864468864,1.0822710622710623,0.43113553113553116
1.2040769679952064,0.6664468864468864,1.0822710622710623,0.43113553113553116
1.2118781549943378,0.6664468864468864,1.0822710622710623,0.43113553113553116
1.2199062399959075,0.6664468864468864,1.0822710622710623,0.43113553113553116
1.226488526997855,0.6712820512820512,0.27076923076923076,1.979194139194139
1.2322766469951603,0.6712820512820512,0.27076923076923076,1.979194139194139
1.240654976994847,0.6712820512820512,0.27076923076923076,1.979194139194139
1.2479466699951445,1.0097435897435898,1.0468131868131867,0.5246153846153846
1.2524379850001424,1.0097435897435898,1.0468131868131867,0.5246153846153846
1.2527423079955042,1.0097435897435898,1.0468131868131867,0.5246153846153846
1.2581231959993602,1.0097435897435898,1.0468131868131867,0.5246153846153846
1.261904330996913,0.1265201465201465,0.5544322344322344,0.5931135531135531
1.2671948579954915,0.1265201465201465,0.5544322344322344,0.5931135531135531
1.2694906420001644,0.1265201465201465,0.5544322344322344,0.5931135531135531
1.2697682229991187,0.1265201465201465,0.5544322344322344,0.5931135531135531
1.2765121639968129,0.1265201465201465,0.5544322344322344,0.5931135531135531
1.2807821780006634,0.1265201465201465,0.5544322344322344,0.5931135531135531
1.2826345329958713,0.1265201465201465,0.5544322344322344,0.5931135531135531
1.2859865959981107,0.1265201465201465,0.5544322344322344,0.5931135531135531
1.2863362889984273,0.1265201465201465,0.5544322344322344,0.5931135531135531
1.2923157129989704,0.1265201465201465,0.5544322344322344,0.5931135531135531
1.2979496359985205,0.1265201465201465,0.5544322344322344,0.5931135531135531
1.2988904749945505,0.1265201465201465,0.5544322344322344,0.5931135531135531
1.2997835040005157,0.1265201465201465,0.5544322344322344,0.5931135531135531
1.3014604939962737,0.1265201465201465,0.5544322344322344,0.5931135531135531
1.3058798860001843,0.1265201465201465,0.5544322344322344,0.5931135531135531
1.30688571799692,0.1265201465201465,0.5544322344322344,0.5931135531135531
1.3085633910013712,0.1265201465201465,0.5544322344322344,0.5931135531135531
1.3127641419996507,0.1265201465201465,0.5544322344322344,0.5931135531135531
1.315124137996463,0.1265201465201465,0.5544322344322344,0.5931135531135531
1.315290507998725,0.1265201465201465,0.5544322344322344,0.5931135531135531
1.3200749460011139,0.1265201465201465,0.5544322344322344,0.5931135531135531
1.3203099339953042,0.1265201465201465,0.5544322344322344,0.5931135531135531
1.3251645179989282,0.1265201465201465,0.5544322344322344,0.5931135531135531
1.325284220998583,0.1265201465201465,0.5544322344322344,0.5931135531135531
1.3301425489989924,0.1265201465201465,0.5544322344322344,0.5931135531135531
1.3303109369953745,0.1265201465201465,0.5544322344322344,0.5931135531135531
1.3351919689957867,0.1265201465201465,0.5544322344322344,0.5931135531135531
1.3352850429946557,0.1265201465201465,0.5544322344322344,0.5931135531135531
1.3400853610000922,0.1265201465201465,0.5544322344322344,0.5931135531135531
1.340334456996061,0.1265201465201465,0.5544322344322344,0.5931135531135531
1.34538270199846,0.1265201465201465,0.5544322344322344,0.5931135531135531
1.3503846129970043,0.1265201465201465,0.5544322344322344,0.5931135531135531
1.3551806089963065,0.1265201465201465,0.5544322344322344,0.5931135531135531
1.3605353929960984,0.4287179487179487,0.855018315018315,0.40695970695970696
1.36309488400002,0.09267399267399268,0.27238095238095233,1.3022710622710623
1.3677945179952076,2.4312820512820514,0.8936996336996336,2.561831501831502
1.3679509749999852,2.4312820512820514,0.8936996336996336,2.561831501831502
1.3728588359954301,2.4312820512820514,0.8936996336996336,2.561831501831502
1.3786382420003065,0.8920879120879119,0.3021978021978022,2.629523809523809
1.3787753029973828,0.0,0.37150183150183147,1.2603663003663002
1.3841992739980924,0.0,0.37150183150183147,1.2603663003663002
1.3857611610001186,1.3248351648351648,0.5423443223443223,3.3
1.3903578649988049,1.3248351648351648,0.5423443223443223,3.3
1.3906001020004624,1.3248351648351648,0.5423443223443223,3.3
1.395876018999843,1.3248351648351648,0.5423443223443223,3.3
1.3983621449951897,0.7502564102564102,0.29978021978021974,2.0694505494505493
1.398510119994171,0.7502564102564102,0.29978021978021974,2.0694505494505493
1.4039375779975671,0.7502564102564102,0.29978021978021974,2.0694505494505493
1.4062187070012442,0.7502564102564102,0.29978021978021974,2.0694505494505493
1.4065104519977467,0.7502564102564102,0.29978021978021974,2.0694505494505493
1.411633420997532,0.7502564102564102,0.29978021978021974,2.0694505494505493
1.4153474119957536,0.7502564102564102,0.29978021978021974,2.0694505494505493
1.4203695739997784,0.7502564102564102,0.29978021978021974,2.0694505494505493
1.4246137539958,0.7502564102564102,0.29978021978021974,2.0694505494505493
1.4268403120004223,0.7502564102564102,0.29978021978021974,2.0694505494505493
1.4276462799971341,0.7502564102564102,0.29978021978021974,2.0694505494505493
1.4298459109995747,0.7502564102564102,0.29978021978021974,2.0694505494505493
1.4301113999972586,0.7502564102564102,0.29978021978021974,2.0694505494505493
1.4348885500003234,0.7502564102564102,0.29978021978021974,2.0694505494505493
1.4350552209943999,0.7502564102564102,0.29978021978021974,2.0694505494505493
1.4393020009956672,0.7502564102564102,0.29978021978021974,2.0694505494505493
1.441534090998175,0.06446886446886446,0.361025641025641,1.0597069597069597
1.442363383997872,0.06446886446886446,0.361025641025641,1.0597069597069597
1.4438489889944321,2.294285714285714,0.8413186813186813,2.5545787545787544
1.4480548509964137,2.4393406593406595,0.9412454212454211,2.561025641025641
1.4502324089989997,2.4393406593406595,0.9412454212454211,2.561025641025641
1.4510788029947435,1.6931135531135528,0.6019780219780219,3.3
1.4525987219967647,1.6931135531135528,0.6019780219780219,3.3
1.457457696997153,1.6931135531135528,0.6019780219780219,3.3
1.4625124469966977,1.6931135531135528,0.6019780219780219,3.3
1.4670935659960378,1.6931135531135528,0.6019780219780219,3.3
1.467381722999562,1.6931135531135528,0.6019780219780219,3.3
1.4729384419988492,1.6931135531135528,0.6019780219780219,3.3
1.4739189809988602,1.6931135531135528,0.6019780219780219,3.3
1.4748682829958852,1.6931135531135528,0.6019780219780219,3.3
1.4759381089970702,1.6931135531135528,0.6019780219780219,3.3
1.476812938999501,1.6931135531135528,0.6019780219780219,3.3
1.478447565001261,1.6931135531135528,0.6019780219780219,3.3
1.4831294709947542,1.6931135531135528,0.6019780219780219,3.3
1.4833643800011487,1.6931135531135528,0.6019780219780219,3.3
1.4883068880008068,1.6931135531135528,0.6019780219780219,3.3
1.4931529280001996,1.6931135531135528,0.6019780219780219,3.3
1.4974992439965717,1.6931135531135528,0.6019780219780219,3.3
1.4990120139991632,1.6931135531135528,0.6019780219780219,3.3
1.5032580769984634,1.6931135531135528,0.6019780219780219,3.3
1.5055079019948607,1.6931135531135528,0.6019780219780219,3.3
1.5063257520014304,1.6931135531135528,0.6019780219780219,3.3
1.5079057319962885,1.6931135531135528,0.6019780219780219,3.3
1.5114717789983843,1.6931135531135528,0.6019780219780219,3.3
1.5117431359976763,1.6624908424908424,0.6148717948717949,3.3
1.5160371469974052,1.6624908424908424,0.6148717948717949,3.3
1.5181783149964758,1.3345054945054944,1.3304761904761904,0.6189010989010989
1.5190461769961985,1.3345054945054944,1.3304761904761904,0.6189010989010989
1.5205429959969479,1.3345054945054944,1.3304761904761904,0.6189010989010989
1.5247856399946613,1.3345054945054944,1.3304761904761904,0.6189010989010989
1.5276726669981144,1.3345054945054944,1.3304761904761904,0.6189010989010989
1.5305627079942496,1.3345054945054944,1.3304761904761904,0.6189010989010989
1.5341418629977852,2.02996336996337,0.5520146520146519,2.5586080586080584
1.5392122009943705,2.02996336996337,0.5520146520146519,2.5586080586080584
1.542862474998401,2.02996336996337,0.5520146520146519,2.5586080586080584
1.5430868229959742,2.02996336996337,0.5520146520146519,2.5586080586080584
1.5479684679958154,2.02996336996337,0.5520146520146519,2.5586080586080584
1.5533328219971736,2.02996336996337,0.5520146520146519,2.5586080586080584
1.5557017109968,0.8614652014652014,0.33282051282051284,2.4353113553113555
1.5558695779982372,0.8614652014652014,0.33282051282051284,2.4353113553113555
1.5611325680001755,0.8614652014652014,0.33282051282051284,2.4353113553113555
1.563569286998245,0.8614652014652014,0.33282051282051284,2.4353113553113555
1.5637655919999816,0.8614652014652014,0.33282051282051284,2.4353113553113555
1.5692497579948395,0.8614652014652014,0.33282051282051284,2.4353113553113555
1.5703349670002353,0.8614652014652014,0.33282051282051284,2.4353113553113555
1.570638040000631,0.8614652014652014,0.33282051282051284,2.4353113553113555
1.5762269449987798,1.1967032967032967,0.365054945054945,3.3
1.5764679559943033,1.1967032967032967,0.365054945054945,3.3
1.5813935179976397,1.1967032967032967,0.365054945054945,3.3
1.586365343995567,1.1967032967032967,0.365054945054945,3.3
1.5910626309996587,0.8953113553113552,0.4964102564102564,3.3
1.5967807869965327,1.261172161172161,0.3642490842490842,3.3
1.5969483079970814,1.261172161172161,0.3642490842490842,3.3
1.6018960799992783,1.261172161172161,0.3642490842490842,3.3
1.6075547110012849,1.261172161172161,0.3642490842490842,3.3
1.6078200659976574,1.261172161172161,0.3642490842490842,3.3
1.6129604399975506,1.261172161172161,0.3642490842490842,3.3
1.6167013160011265,1.261172161172161,0.3642490842490842,3.3
1.6219092019964592,1.261172161172161,0.3642490842490842,3.3
1.6248561789980158,0.0,0.2925274725274725,0.7059340659340658
1.627882127999328,2.2556043956043954,0.9186813186813186,2.5602197802197804
1.6301723099968513,2.2556043956043954,0.9186813186813186,2.5602197802197804
1.6304700519976905,2.2556043956043954,0.9186813186813186,2.5602197802197804
1.6352310160000343,2.2556043956043954,0.9186813186813186,2.5602197802197804
1.6407124179968378,2.2556043956043954,0.9186813186813186,2.5602197802197804
1.6424285289976979,2.2556043956043954,0.9186813186813186,2.5602197802197804
1.6456533839955227,2.2556043956043954,0.9186813186813186,2.5602197802197804
1.646553339996899,2.2556043956043954,0.9186813186813186,2.5602197802197804
1.6481231449943152,2.2556043956043954,0.9186813186813186,2.5602197802197804
1.652017991997127,2.2556043956043954,0.9186813186813186,2.5602197802197804
1.655883879000612,1.216043956043956,0.4126007326007326,3.2298901098901096
1.6595954069998697,1.216043956043956,0.4126007326007326,3.2298901098901096
1.664939026995853,1.216043956043956,0.4126007326007326,3.2298901098901096
1.6671927829956985,1.216043956043956,0.4126007326007326,3.2298901098901096
1.6675146279958426,1.216043956043956,0.4126007326007326,3.2298901098901096
1.6727804959955392,1.216043956043956,0.4126007326007326,3.2298901098901096
1.6757894929978647,1.216043956043956,0.4126007326007326,3.2298901098901096
1.6773979739955394,1.216043956043956,0.4126007326007326,3.2298901098901096
1.6817750459958916,1.3369230769230769,1.3772161172161173,1.1314285714285715
1.6826827119948575,0.0,0.2594871794871795,1.477142857142857
1.6842803729959996,0.0,0.2594871794871795,1.477142857142857
1.6878929000013159,0.0,0.2594871794871795,1.477142857142857
1.6880951919956715,0.0,0.2594871794871795,1.477142857142857
1.6930064330008463,0.0,0.2594871794871795,1.477142857142857
1.6978650460005156,0.0,0.2594871794871795,1.477142857142857
1.6979919649966178,0.0,0.2594871794871795,1.477142857142857
1.7027301359994453,0.0,0.2594871794871795,1.477142857142857
1.702870378998341,0.0,0.2594871794871795,1.477142857142857
1.7079340549971676,0.0,0.2594871794871795,1.477142857142857
1.7123410599961062,0.9775091575091575,1.224102564102564,0.7542857142857142
1.7137903719994938,0.9775091575091575,1.224102564102564,0.7542857142857142
1.7188138689962216,0.9775091575091575,1.224102564102564,0.7542857142857142
1.7242166709984303,0.9775091575091575,1.224102564102564,0.7542857142857142
1.725961133997771,0.9775091575091575,1.224102564102564,0.7542857142857142
1.7289346819961793,0.9775091575091575,1.224102564102564,0.7542857142857142
1.7312558479970903,0.9775091575091575,1.224102564102564,0.7542857142857142
1.7315821349984617,0.9775091575091575,1.224102564102564,0.7542857142857142
1.7362514609994832,0.7446153846153846,0.28205128205128205,1.9389010989010989
1.7365682539966656,0.7446153846153846,0.28205128205128205,1.9389010989010989
1.7410903700001654,0.7446153846153846,0.28205128205128205,1.9389010989010989
1.7420523420005338,0.7446153846153846,0.28205128205128205,1.9389010989010989
1.7429675509993103,0.7446153846153846,0.28205128205128205,1.9389010989010989
1.7445345099986298,0.7446153846153846,0.28205128205128205,1.9389010989010989
1.7493469729961362,0.7446153846153846,0.28205128205128205,1.9389010989010989
1.7550573740008986,1.2466666666666666,1.411062271062271,1.5956043956043955
1.7552055169944651,1.2466666666666666,1.411062271062271,1.5956043956043955
1.7599857309978688,1.2466666666666666,1.411062271062271,1.5956043956043955
1.7656327079967014,0.05882783882783882,0.2498168498168498,1.1499633699633698
1.7664894059998915,1.5786813186813187,0.7728205128205128,3.2137728937728935
1.7681033479966572,1.5786813186813187,0.7728205128205128,3.2137728937728935
1.7717896929971175,1.5835164835164834,0.697069597069597,2.6657875457875457
1.7720248819969129,1.5835164835164834,0.697069597069597,2.6657875457875457
1.7767162159943837,1.5835164835164834,0.697069597069597,2.6657875457875457
1.7768938269946375,1.5835164835164834,0.697069597069597,2.6657875457875457
1.7821991969976807,1.5835164835164834,0.697069597069597,2.6657875457875457
1.7837704319972545,0.8824175824175824,0.5423443223443223,2.0549450549450547
1.7881489249994047,1.1233699633699634,0.5616849816849817,3.3
1.7890543619942036,1.1233699633699634,0.5616849816849817,3.3
1.7906392399963806,1.1233699633699634,0.5616849816849817,3.3
1.7951614650010015,1.1233699633699634,0.5616849816849817,3.3
1.7954644439960248,1.1233699633699634,0.5616849816849817,3.3
1.8006162909950945,1.1233699633699634,0.5616849816849817,3.3
1.8044455439958256,0.0,0.3344322344322344,1.556117216117216
1.8089513890008675,0.0,0.3344322344322344,1.556117216117216
1.8097737419957411,0.0,0.3344322344322344,1.556117216117216
1.8113241709943395,0.0,0.3344322344322344,1.556117216117216
1.8161760729999514,1.763223443223443,0.6366300366300366,3.3
1.8217516910008271,1.763223443223443,0.6366300366300366,3.3
1.8234396319967345,1.763223443223443,0.6366300366300366,3.3
1.8271434779962874,1.763223443223443,0.6366300366300366,3.3
1.831864196996321,1.763223443223443,0.6366300366300366,3.3
1.8320751789942733,1.1314285714285715,0.3537728937728937,2.424029304029304
1.83684706799977,1.1314285714285715,0.3537728937728937,2.424029304029304
1.8369805529946461,1.1314285714285715,0.3537728937728937,2.424029304029304
1.8418120279966388,1.1314285714285715,0.3537728937728937,2.424029304029304
1.8473865569976624,1.1314285714285715,0.3537728937728937,2.424029304029304
1.847763120997115,1.1314285714285715,0.3537728937728937,2.424029304029304
1.8520883279998088,1.6818315018315015,0.7712087912087912,2.4675457875457876
1.8535545310005546,1.9558241758241757,0.5923076923076923,3.3
1.8584514379981556,0.718021978021978,0.2506227106227106,1.767252747252747
1.8632636469992576,0.718021978021978,0.2506227106227106,1.767252747252747
1.8635039609944215,0.718021978021978,0.2506227106227106,1.767252747252747
1.8683898269955534,0.718021978021978,0.2506227106227106,1.767252747252747
1.8685034009977244,0.718021978021978,0.2506227106227106,1.767252747252747
1.8737586389979697,0.718021978021978,0.2506227106227106,1.767252747252747
1.8759864439998637,0.718021978021978,0.2506227106227106,1.767252747252747
1.8767787709948607,0.09670329670329669,0.42952380952380953,0.45772893772893775
1.8790080409962684,0.09670329670329669,0.42952380952380953,0.45772893772893775
1.8797632209971198,0.09670329670329669,0.42952380952380953,0.45772893772893775
1.8819088119998924,0.09670329670329669,0.42952380952380953,0.45772893772893775
1.8833890729947598,0.09670329670329669,0.42952380952380953,0.45772893772893775
1.888217439998698,0.09670329670329669,0.42952380952380953,0.45772893772893775
1.8929601039999397,0.09670329670329669,0.42952380952380953,0.45772893772893775
1.893172295000113,0.09670329670329669,0.42952380952380953,0.45772893772893775
1.897963636998611,0.09670329670329669,0.42952380952380953,0.45772893772893775
1.8980884740012698,0.3231501831501831,0.2482051282051282,1.0186080586080586
1.902880567999091,0.3231501831501831,0.2482051282051282,1.0186080586080586
1.9031075300008524,0.07736263736263736,0.2772161172161172,1.1056410256410254
1.9080390960007207,0.07736263736263736,0.2772161172161172,1.1056410256410254
1.9132092849977198,0.07736263736263736,0.2772161172161172,1.1056410256410254
1.917243668998708,0.07736263736263736,0.2772161172161172,1.1056410256410254
1.9206581589969574,0.07736263736263736,0.2772161172161172,1.1056410256410254
1.9214671609952347,0.07736263736263736,0.2772161172161172,1.1056410256410254
1.923571549996268,0.07736263736263736,0.2772161172161172,1.1056410256410254
1.9250156240013894,0.07736263736263736,0.2772161172161172,1.1056410256410254
1.9297192140002153,0.07736263736263736,0.2772161172161172,1.1056410256410254
1.9304668179975124,0.07736263736263736,0.2772161172161172,1.1056410256410254
1.9326106259977678,0.07736263736263736,0.2772161172161172,1.1056410256410254
1.9340044669952476,0.07736263736263736,0.2772161172161172,1.1056410256410254
1.938830244995188,0.07736263736263736,0.2772161172161172,1.1056410256410254
1.9389524029975291,0.07736263736263736,0.2772161172161172,1.1056410256410254
1.943734198997845,0.07736263736263736,0.2772161172161172,1.1056410256410254
1.9439384209981654,2.5070329670329667,0.7486446886446886,3.3
1.9487308870011475,2.5070329670329667,0.7486446886446886,3.3
1.9488559079982224,1.8687912087912086,0.73010989010989,2.5682783882783884
1.9536535000006552,1.8687912087912086,0.73010989010989,2.5682783882783884
1.9538572359961108,1.8687912087912086,0.73010989010989,2.5682783882783884
1.9587042849962017,1.8687912087912086,0.73010989010989,2.5682783882783884
1.9636060729972087,1.88007326007326,1.4739194139194138,0.697069597069597
1.9637078109954018,1.88007326007326,1.4739194139194138,0.697069597069597
1.968574771999556,1.88007326007326,1.4739194139194138,0.697069597069597
1.9687775319980574,1.88007326007326,1.4739194139194138,0.697069597069597
1.9735712539986707,1.88007326007326,1.4739194139194138,0.697069597069597
1.973775950995332,1.88007326007326,1.4739194139194138,0.697069597069597
1.9791797139987466,1.88007326007326,1.4739194139194138,0.697069597069597
1.981588828995882,1.88007326007326,1.4739194139194138,0.697069597069597
1.9816930140004843,1.88007326007326,1.4739194139194138,0.697069597069597
1.9861970839992864,1.88007326007326,1.4739194139194138,0.697069597069597
1.9870582449948415,1.88007326007326,1.4739194139194138,0.697069597069597
1.988662846997613,1.88007326007326,1.4739194139194138,0.697069597069597
1.9924210329991183,1.88007326007326,1.4739194139194138,0.697069597069597
1.9978221519995714,1.88007326007326,1.4739194139194138,0.697069597069597
1.999348575998738,1.88007326007326,1.4739194139194138,0.697069597069597
2.0037257579970174,1.88007326007326,1.4739194139194138,0.697069597069597
2.0046361639979295,1.88007326007326,1.4739194139194138,0.697069597069597
2.0062124239993864,1.88007326007326,1.4739194139194138,0.697069597069597
2.0106351180002093,1.88007326007326,1.4739194139194138,0.697069597069597
2.01153463999799,1.88007326007326,1.4739194139194138,0.697069597069597
2.01315001599869,1.88007326007326,1.4739194139194138,0.697069597069597
2.0168837289966177,1.88007326007326,1.4739194139194138,0.697069597069597
2.0221634179979446,1.88007326007326,1.4739194139194138,0.697069597069597
2.0254041829975904,1.88007326007326,1.4739194139194138,0.697069597069597
2.0262500190001447,1.3498168498168497,0.5350915750915751,3.3
2.0272229479960515,1.3498168498168497,0.5350915750915751,3.3
2.028741292997438,1.3498168498168497,0.5350915750915751,3.3
2.0331749969991506,1.3498168498168497,0.5350915750915751,3.3
2.0340301309988718,1.3498168498168497,0.5350915750915751,3.3
2.035740237995924,1.3498168498168497,0.5350915750915751,3.3
2.0388614519979456,1.3498168498168497,0.5350915750915751,3.3
2.041172400000505,1.3498168498168497,0.5350915750915751,3.3
2.0415168999970774,1.3498168498168497,0.5350915750915751,3.3
2.0470520419985405,1.3498168498168497,0.5350915750915751,3.3
2.0478898099972866,1.3498168498168497,0.5350915750915751,3.3
2.0495026579956175,1.3498168498168497,0.5350915750915751,3.3
2.053783833995112,1.3498168498168497,0.5350915750915751,3.3
2.055281606997596,1.5553113553113551,0.47142857142857136,3.0808058608058606
2.0594684739990043,1.5553113553113551,0.47142857142857136,3.0808058608058606
2.0622982060012873,1.5553113553113551,0.47142857142857136,3.0808058608058606
2.0651755629951367,1.5553113553113551,0.47142857142857136,3.0808058608058606
2.068729368998902,1.5553113553113551,0.47142857142857136,3.0808058608058606
2.0689356309958384,1.5553113553113551,0.47142857142857136,3.0808058608058606
2.07375088599656,1.5553113553113551,0.47142857142857136,3.0808058608058606
2.073863238998456,1.8897435897435895,0.5326739926739926,3.3
2.07943889300077,0.5375091575091575,0.2594871794871795,1.4449084249084247
2.0802553780013113,0.5375091575091575,0.2594871794871795,1.4449084249084247
2.081733267994423,0.5375091575091575,0.2594871794871795,1.4449084249084247
2.08590636599547,1.8454212454212453,0.8453479853479853,3.3
2.0893467479982064,1.8454212454212453,0.8453479853479853,3.3
2.0901110709964996,1.8454212454212453,0.8453479853479853,3.3
2.0916908199942554,1.8454212454212453,0.8453479853479853,3.3
2.0958448449964635,1.8454212454212453,0.8453479853479853,3.3
2.0980013469961705,1.8454212454212453,0.8453479853479853,3.3
2.0994914709954173,1.8454212454212453,0.8453479853479853,3.3
2.1036998959971243,1.8454212454212453,0.8453479853479853,3.3
2.1059017079969635,2.4119413919413915,0.842124542124542,2.548937728937729
2.106195018001017,0.21597069597069596,0.46014652014652013,1.4416849816849817
2.111094517997117,0.21597069597069596,0.46014652014652013,1.4416849816849817
2.1159857800012105,0.21597069597069596,0.46014652014652013,1.4416849816849817
2.1161382049976964,0.21597069597069596,0.46014652014652013,1.4416849816849817
2.120966516995395,0.21597069597069596,0.46014652014652013,1.4416849816849817
2.126094182000088,0.21597069597069596,0.46014652014652013,1.4416849816849817
2.1297806129950914,0.21597069597069596,0.46014652014652013,1.4416849816849817
2.129900396001176,0.21597069597069596,0.46014652014652013,1.4416849816849817
2.1348238629943808,0.21597069597069596,0.46014652014652013,1.4416849816849817
2.139678323001135,0.21597069597069596,0.46014652014652013,1.4416849816849817
2.1438412879942916,0.21597069597069596,0.46014652014652013,1.4416849816849817
2.1466892729949905,0.21597069597069596,0.46014652014652013,1.4416849816849817
2.1508632309996756,0.21597069597069596,0.46014652014652013,1.4416849816849817
2.1540397469943855,1.6890842490842488,0.6535531135531135,3.3
2.154967474998557,1.6890842490842488,0.6535531135531135,3.3
2.156805793994863,1.6890842490842488,0.6535531135531135,3.3
2.1595196979978937,1.6890842490842488,0.6535531135531135,3.3
2.1638545649984735,1.6890842490842488,0.6535531135531135,3.3
2.1647589610001887,1.6890842490842488,0.6535531135531135,3.3
2.166533913994499,1.6890842490842488,0.6535531135531135,3.3
2.1698285729944473,1.6890842490842488,0.6535531135531135,3.3
2.1700951189995976,1.7132600732600733,0.5842490842490843,3.3
2.175914435996674,1.7132600732600733,0.5842490842490843,3.3
2.176124148994859,1.7132600732600733,0.5842490842490843,3.3
2.1816147599965916,1.7132600732600733,0.5842490842490843,3.3
2.182573808997404,1.7132600732600733,0.5842490842490843,3.3
2.183467479000683,1.7132600732600733,0.5842490842490843,3.3
2.184419473996968,2.0742857142857143,0.755091575091575,2.552967032967033
2.186037800995109,2.0742857142857143,0.755091575091575,2.552967032967033
2.1904131490009604,2.0742857142857143,0.755091575091575,2.552967032967033
2.191985699995712,2.0742857142857143,0.755091575091575,2.552967032967033
2.1957722890001605,2.0742857142857143,0.755091575091575,2.552967032967033
2.2010075979997055,2.0742857142857143,0.755091575091575,2.552967032967033
2.2041498059988953,2.0742857142857143,0.755091575091575,2.552967032967033
2.2058633619963075,1.232967032967033,0.5834432234432234,3.096117216117216
2.2088597389956703,1.232967032967033,0.5834432234432234,3.096117216117216
2.211151326999243,1.6334798534798534,0.502051282051282,3.3
2.2113874389979173,1.6334798534798534,0.502051282051282,3.3
2.2167793909975444,1.6334798534798534,0.502051282051282,3.3
2.2184782209951663,1.6334798534798534,0.502051282051282,3.3
2.2217720209955587,0.0,0.40695970695970696,2.0565567765567763
2.223275593998551,0.0,0.40695970695970696,2.0565567765567763
2.2270340179966297,0.0,0.40695970695970696,2.0565567765567763
2.22712572599994,0.0,0.40695970695970696,2.0565567765567763
2.2324790519996895,0.0,0.40695970695970696,2.0565567765567763
2.234982228001172,1.4134798534798534,0.5149450549450549,3.3
2.2403115939960117,1.4134798534798534,0.5149450549450549,3.3
2.2434876869956497,0.0,0.3658608058608058,1.0645421245421245
2.2450395909982035,0.0,0.3658608058608058,1.0645421245421245
2.2487933410011465,0.0,0.3658608058608058,1.0645421245421245
2.2489184759979253,1.539194139194139,0.7986080586080586,2.888205128205128
2.2540850789955584,1.539194139194139,0.7986080586080586,2.888205128205128
2.257051169995975,1.539194139194139,0.7986080586080586,2.888205128205128
2.2601506909995805,1.539194139194139,0.7986080586080586,2.888205128205128
2.2624063909970573,1.539194139194139,0.7986080586080586,2.888205128205128
2.262664985995798,1.539194139194139,0.7986080586080586,2.888205128205128
2.2678495090003707,1.539194139194139,0.7986080586080586,2.888205128205128
2.270869023996056,1.539194139194139,0.7986080586080586,2.888205128205128
2.2731597419988248,1.539194139194139,0.7986080586080586,2.888205128205128
2.273464056997909,1.539194139194139,0.7986080586080586,2.888205128205128
2.2786169429964502,1.539194139194139,0.7986080586080586,2.888205128205128
2.281613571998605,0.7397802197802198,1.0065201465201465,0.4964102564102564
2.28456095099682,0.7397802197802198,1.0065201465201465,0.4964102564102564
2.28756776299997,1.7648351648351648,0.805054945054945,2.5441025641025643
2.29054948999692,1.7648351648351648,0.805054945054945,2.5441025641025643
2.2928691689958214,1.3917216117216116,0.4762637362637362,3.3
2.2930661999998847,1.3917216117216116,0.4762637362637362,3.3
2.2982239589982782,1.3917216117216116,0.4762637362637362,3.3
2.3012411550007528,1.3917216117216116,0.4762637362637362,3.3
2.3036449259961955,1.3917216117216116,0.4762637362637362,3.3
2.303865424997639,2.079120879120879,0.792967032967033,2.5602197802197804
2.309383248000813,2.079120879120879,0.792967032967033,2.5602197802197804
2.310240421000344,2.079120879120879,0.792967032967033,2.5602197802197804
2.3119103709977935,2.079120879120879,0.792967032967033,2.5602197802197804
2.315706812994904,2.079120879120879,0.792967032967033,2.5602197802197804
2.320956571995339,2.079120879120879,0.792967032967033,2.5602197802197804
2.3232698629944935,2.079120879120879,0.792967032967033,2.5602197802197804
2.3235747709986754,2.079120879120879,0.792967032967033,2.5602197802197804
2.3288695989976986,2.079120879120879,0.792967032967033,2.5602197802197804
2.331157070999325,2.079120879120879,0.792967032967033,2.5602197802197804
2.3313181409976096,2.079120879120879,0.792967032967033,2.5602197802197804
2.3368169989989838,2.079120879120879,0.792967032967033,2.5602197802197804
2.337812526995549,0.5246153846153846,0.2562637362637363,1.8824908424908422
2.3387149939953815,0.5246153846153846,0.2562637362637363,1.8824908424908422
2.3404008869983954,0.5246153846153846,0.2562637362637363,1.8824908424908422
2.3441845779962023,0.5246153846153846,0.2562637362637363,1.8824908424908422
2.3481663540005684,0.0701098901098901,0.2071062271062271,1.3127472527472526
2.351385912996193,0.0701098901098901,0.2071062271062271,1.3127472527472526
2.353002559997549,1.3756043956043955,0.502051282051282,3.3
2.356816298000922,1.3756043956043955,0.502051282051282,3.3
2.361432728001091,0.6438827838827839,0.23369963369963367,2.5916483516483515
2.361761445994489,0.6438827838827839,0.23369963369963367,2.5916483516483515
2.367208354997274,0.6438827838827839,0.23369963369963367,2.5916483516483515
2.368923050999001,1.494871794871795,1.5730402930402931,1.1644688644688646
2.3719713399987086,1.5464468864468863,0.6164835164835165,3.3
2.3742499360014335,1.5464468864468863,0.6164835164835165,3.3
2.3745161719998578,1.5464468864468863,0.6164835164835165,3.3
2.379336212994531,1.5464468864468863,0.6164835164835165,3.3
2.379508899997745,1.5464468864468863,0.6164835164835165,3.3
2.384275548000005,1.5464468864468863,0.6164835164835165,3.3
2.3845114059949992,1.5464468864468863,0.6164835164835165,3.3
2.3893831960012903,1.5464468864468863,0.6164835164835165,3.3
2.3942706379966694,1.5464468864468863,0.6164835164835165,3.3
2.3990505740002845,0.5181684981684981,0.2772161172161172,1.7954578754578752
2.399236139994173,0.5181684981684981,0.2772161172161172,1.7954578754578752
2.404024290997768,0.5181684981684981,0.2772161172161172,1.7954578754578752
2.404188754997449,0.5181684981684981,0.2772161172161172,1.7954578754578752
2.408966557995882,0.5181684981684981,0.2772161172161172,1.7954578754578752
2.414213183998072,0.5181684981684981,0.2772161172161172,1.7954578754578752
2.417946782996296,0.5181684981684981,0.2772161172161172,1.7954578754578752
2.422252161995857,0.5181684981684981,0.2772161172161172,1.7954578754578752
2.424450787999376,0.5181684981684981,0.2772161172161172,1.7954578754578752
2.4259355359972687,0.5181684981684981,0.2772161172161172,1.7954578754578752
2.430182224998134,0.5181684981684981,0.2772161172161172,1.7954578754578752
2.4324405649967957,0.5181684981684981,0.2772161172161172,1.7954578754578752
2.43328546200064,0.5181684981684981,0.2772161172161172,1.7954578754578752
2.434848760996829,0.5181684981684981,0.2772161172161172,1.7954578754578752
2.4391053340004873,0.5181684981684981,0.2772161172161172,1.7954578754578752
2.441268782997213,0.5181684981684981,0.2772161172161172,1.7954578754578752
2.442162876999646,0.5181684981684981,0.2772161172161172,1.7954578754578752
2.443641842000943,0.5181684981684981,0.2772161172161172,1.7954578754578752
2.447818239998014,0.5181684981684981,0.2772161172161172,1.7954578754578752
2.4507532739953604,0.5181684981684981,0.2772161172161172,1.7954578754578752
2.454372786996828,0.5181684981684981,0.2772161172161172,1.7954578754578752
2.4545035749979434,0.7276923076923076,0.28527472527472525,2.4264468864468864
2.459388206996664,0.7276923076923076,0.28527472527472525,2.4264468864468864
2.4595043329973123,0.7276923076923076,0.28527472527472525,2.4264468864468864
2.4644475809982396,0.7276923076923076,0.28527472527472525,2.4264468864468864
2.469502027000999,0.7276923076923076,0.28527472527472525,2.4264468864468864
2.4742386739962967,0.7276923076923076,0.28527472527472525,2.4264468864468864
2.4798340479974286,0.7276923076923076,0.28527472527472525,2.4264468864468864
2.4807016699996893,1.6125274725274723,1.5287179487179487,0.8985347985347985
2.4823619769958896,1.6125274725274723,1.5287179487179487,0.8985347985347985
2.486161880995496,1.6125274725274723,1.5287179487179487,0.8985347985347985
2.490638826995564,1.8446153846153845,0.6882051282051282,2.5602197802197804
2.491488929001207,1.8446153846153845,0.6882051282051282,2.5602197802197804
2.4930550979988766,1.8446153846153845,0.6882051282051282,2.5602197802197804
2.4967998909996822,1.8446153846153845,0.6882051282051282,2.5602197802197804
2.5020187990012346,1.8446153846153845,0.6882051282051282,2.5602197802197804
2.5043702389957616,1.8446153846153845,0.6882051282051282,2.5602197802197804
2.5046312880003825,1.8446153846153845,0.6882051282051282,2.5602197802197804
2.50973345899547,1.8446153846153845,0.6882051282051282,2.5602197802197804
2.512732359995425,1.5158241758241757,1.7736996336996336,1.0645421245421245
2.514898914996593,1.5158241758241757,1.7736996336996336,1.0645421245421245
2.5157665869992343,1.5158241758241757,1.7736996336996336,1.0645421245421245
2.5179166739981156,1.5158241758241757,1.7736996336996336,1.0645421245421245
2.5187394229942583,1.5158241758241757,1.7736996336996336,1.0645421245421245
2.520240957994247,1.5158241758241757,1.7736996336996336,1.0645421245421245
2.524465088994475,1.5158241758241757,1.7736996336996336,1.0645421245421245
2.5272993569960818,1.5158241758241757,1.7736996336996336,1.0645421245421245
2.530280140999821,1.6399267399267399,1.851062271062271,1.3377289377289376
2.5325761759959278,1.6399267399267399,1.851062271062271,1.3377289377289376
2.5328880800007028,1.2998534798534798,0.4383882783882784,3.3
2.5377374599993345,0.1813186813186813,0.25545787545787546,0.7293040293040293
2.5378975519997766,0.1813186813186813,0.25545787545787546,0.7293040293040293
2.5428215819993056,0.1813186813186813,0.25545787545787546,0.7293040293040293
2.547684892997495,0.1813186813186813,0.25545787545787546,0.7293040293040293
2.547897992997605,0.1813186813186813,0.25545787545787546,0.7293040293040293
2.5528192290003062,0.1813186813186813,0.25545787545787546,0.7293040293040293
2.557739985997614,0.1813186813186813,0.25545787545787546,0.7293040293040293
2.5578576949992566,0.386007326007326,0.2506227106227106,1.5673992673992672
2.5628241899976274,0.386007326007326,0.2506227106227106,1.5673992673992672
2.567025279000518,0.386007326007326,0.2506227106227106,1.5673992673992672
2.5692817109957105,2.0356043956043957,0.7728205128205128,2.5561904761904763
2.569624420000764,2.0356043956043957,0.7728205128205128,2.5561904761904763
2.5745062849964597,2.0356043956043957,0.7728205128205128,2.5561904761904763
2.580118590994971,2.0356043956043957,0.7728205128205128,2.5561904761904763
2.5803555169986794,2.0356043956043957,0.7728205128205128,2.5561904761904763
2.5860074879965396,2.0356043956043957,0.7728205128205128,2.5561904761904763
2.586175409000134,2.0356043956043957,0.7728205128205128,2.5561904761904763
2.5914122429967392,2.0356043956043957,0.7728205128205128,2.5561904761904763
2.593883736000862,2.0356043956043957,0.7728205128205128,2.5561904761904763
2.599422989995219,0.7961904761904761,0.29333333333333333,2.285421245421245
2.601835753994237,0.46498168498168496,0.2909157509157509,1.5843223443223442
2.602001756997197,0.46498168498168496,0.2909157509157509,1.5843223443223442
2.6066895779949846,0.8654945054945055,0.5004395604395604,2.2024175824175822
2.606916018994525,0.8654945054945055,0.5004395604395604,2.2024175824175822
2.611522608996893,0.8654945054945055,0.5004395604395604,2.2024175824175822
2.611807786997815,0.8654945054945055,0.5004395604395604,2.2024175824175822
2.6172105410005315,0.8654945054945055,0.5004395604395604,2.2024175824175822
2.6189167150005233,0.8654945054945055,0.5004395604395604,2.2024175824175822
2.623447625999688,0.8654945054945055,0.5004395604395604,2.2024175824175822
2.623739222995937,0.8654945054945055,0.5004395604395604,2.2024175824175822
2.6290505149954697,2.107326007326007,0.8252014652014652,2.5473260073260073
2.6315340669971192,1.6737728937728935,0.7035164835164834,2.681904761904762
2.6316963779972866,1.6737728937728935,0.7035164835164834,2.681904761904762
2.636491486999148,1.166080586080586,0.3344322344322344,2.64
2.6420482239991543,1.166080586080586,0.3344322344322344,2.64
2.6430487949983217,0.0,0.3843956043956044,1.1008058608058606
2.643946042000607,0.0,0.3843956043956044,1.1008058608058606
2.6457507429950056,0.0,0.3843956043956044,1.1008058608058606
2.6487620979969506,0.0,0.3843956043956044,1.1008058608058606
2.651748870994197,0.0,0.3843956043956044,1.1008058608058606
2.6541563279970433,0.0,0.3843956043956044,1.1008058608058606
2.654336690000491,0.0,0.3843956043956044,1.1008058608058606
2.6599936349957716,0.0,0.3843956043956044,1.1008058608058606
2.6608349419984734,0.5133333333333333,0.7712087912087912,0.3594139194139194
2.6624531019988353,0.5133333333333333,0.7712087912087912,0.3594139194139194
2.66695677399548,0.5133333333333333,0.7712087912087912,0.3594139194139194
2.6678033270000014,0.5133333333333333,0.7712087912087912,0.3594139194139194
2.6693992899963632,0.5133333333333333,0.7712087912087912,0.3594139194139194
2.6746905990003143,0.5133333333333333,0.7712087912087912,0.3594139194139194
2.6777484609992825,0.5133333333333333,0.7712087912087912,0.3594139194139194
2.6800664399997913,2.154065934065934,1.7495238095238095,1.0065201465201465
2.6802240850011003,2.154065934065934,1.7495238095238095,1.0065201465201465
2.6848595779956668,2.154065934065934,1.7495238095238095,1.0065201465201465
2.6850747040007263,2.154065934065934,1.7495238095238095,1.0065201465201465
2.689662201999454,2.154065934065934,1.7495238095238095,1.0065201465201465
2.6899482579974574,1.4610256410256408,1.4449084249084247,1.4827838827838828
2.694449609000003,1.4610256410256408,1.4449084249084247,1.4827838827838828
2.69534603899956,0.12893772893772892,0.23531135531135527,0.3021978021978022
2.6969783710010233,0.12893772893772892,0.23531135531135527,0.3021978021978022
2.700815990996489,0.30622710622710625,0.622124542124542,0.29978021978021974
2.7053100080011063,0.30622710622710625,0.622124542124542,0.29978021978021974
2.706284460997267,0.30622710622710625,0.622124542124542,0.29978021978021974
2.7072372229959,0.30622710622710625,0.622124542124542,0.29978021978021974
2.7088169349954114,0.30622710622710625,0.622124542124542,0.29978021978021974
2.713264004996745,0.30622710622710625,0.622124542124542,0.29978021978021974
2.713539664000564,0.30622710622710625,0.622124542124542,0.29978021978021974
2.7189389429986477,0.30622710622710625,0.622124542124542,0.29978021978021974
2.7213756589990226,0.30622710622710625,0.622124542124542,0.29978021978021974
2.727681643998949,0.30622710622710625,0.622124542124542,0.29978021978021974
2.7316726869976264,0.30622710622710625,0.622124542124542,0.29978021978021974
2.7355189669979154,1.9703296703296702,0.6801465201465201,3.0808058608058606
2.7393183690001024,1.9703296703296702,0.6801465201465201,3.0808058608058606
2.744026224994741,1.9703296703296702,0.6801465201465201,3.0808058608058606
2.7496350049987086,1.9703296703296702,0.6801465201465201,3.0808058608058606
2.750460055998701,1.9703296703296702,0.6801465201465201,3.0808058608058606
2.7521153979978408,2.107326007326007,0.61003663003663,3.3
2.755287911000778,1.0822710622710623,0.30542124542124544,2.038021978021978
2.7576095709955553,1.0822710622710623,0.30542124542124544,2.038021978021978
2.7579174209968187,1.0822710622710623,0.30542124542124544,2.038021978021978
2.7625490959981107,1.0822710622710623,0.30542124542124544,2.038021978021978
2.762853959997301,2.1991941391941388,0.913040293040293,3.3
2.767643485996814,2.1991941391941388,0.913040293040293,3.3
2.7678424529949552,1.3175824175824176,0.5447619047619047,3.3
2.772727285999281,1.3175824175824176,0.5447619047619047,3.3
2.783336253000016,1.3175824175824176,0.5447619047619047,3.3
2.7917873929982306,1.3175824175824176,0.5447619047619047,3.3
2.798922196998319,1.3175824175824176,0.5447619047619047,3.3
2.803858623999986,1.3175824175824176,0.5447619047619047,3.3
2.8078119499987224,2.4586813186813186,0.9259340659340659,3.3
2.8117563169944333,2.4586813186813186,0.9259340659340659,3.3
2.8149625119986013,2.4586813186813186,0.9259340659340659,3.3
2.8159097929965355,2.4586813186813186,0.9259340659340659,3.3
2.817492760994355,2.4586813186813186,0.9259340659340659,3.3
2.8213269929983653,2.4586813186813186,0.9259340659340659,3.3
2.8258078829967417,2.4586813186813186,0.9259340659340659,3.3
2.826756837996072,2.0597802197802197,0.7808791208791208,3.3
2.828466433995345,2.0597802197802197,0.7808791208791208,3.3
2.8315652289966238,2.0597802197802197,0.7808791208791208,3.3
2.834828030994686,2.0597802197802197,0.7808791208791208,3.3
2.8350733869956457,2.0597802197802197,0.7808791208791208,3.3
2.8429618749942165,2.0597802197802197,0.7808791208791208,3.3
2.850689564998902,0.10315018315018315,0.24498168498168496,1.0298901098901099
2.8589366089945543,1.357069597069597,1.4835897435897436,0.9573626373626374
2.8623417709968635,1.357069597069597,1.4835897435897436,0.9573626373626374
2.862648481997894,1.357069597069597,1.4835897435897436,0.9573626373626374
2.8674996689951513,1.357069597069597,1.4835897435897436,0.9573626373626374
2.876014073997794,1.5126007326007325,0.8179487179487179,1.7052014652014653
2.883528326994565,1.5126007326007325,0.8179487179487179,1.7052014652014653
2.8906692279997515,1.5126007326007325,0.8179487179487179,1.7052014652014653
2.894539075998182,1.5126007326007325,0.8179487179487179,1.7052014652014653
2.8984596070004045,1.5126007326007325,0.8179487179487179,1.7052014652014653
2.902433111994469,1.5126007326007325,0.8179487179487179,1.7052014652014653
2.9086638869994204,1.5126007326007325,0.8179487179487179,1.7052014652014653
2.9119943650002824,2.1717948717948716,0.8856410256410255,3.3
2.9122832319990266,1.145128205128205,0.39487179487179486,2.234652014652015
2.9169954789977055,1.145128205128205,0.39487179487179486,2.234652014652015
2.9173379549974925,1.145128205128205,0.39487179487179486,2.234652014652015
2.926051237998763,1.145128205128205,0.39487179487179486,2.234652014652015
2.9309791310006403,1.145128205128205,0.39487179487179486,2.234652014652015
2.9358018839993747,1.145128205128205,0.39487179487179486,2.234652014652015
2.9439898819982773,0.4021245421245421,0.8308424908424907,0.5641025641025641
2.948044887998549,0.07494505494505493,0.2506227106227106,1.0798534798534798
2.950397503998829,0.07494505494505493,0.2506227106227106,1.0798534798534798
2.9505987079974147,0.07494505494505493,0.2506227106227106,1.0798534798534798
2.956654540001182,0.07494505494505493,0.2506227106227106,1.0798534798534798
2.9623814239967032,0.07494505494505493,0.2506227106227106,1.0798534798534798
2.9626021239964757,0.07494505494505493,0.2506227106227106,1.0798534798534798
2.9680384390012478,1.6133333333333333,0.7357509157509158,2.9824908424908423
2.969693617997109,1.6133333333333333,0.7357509157509158,2.9824908424908423
2.976829920997261,1.6133333333333333,0.7357509157509158,2.9824908424908423
2.9818683579942444,1.6133333333333333,0.7357509157509158,2.9824908424908423
2.9868378009996377,1.6133333333333333,0.7357509157509158,2.9824908424908423
2.991021584995906,0.4222710622710622,0.9621978021978022,0.6116483516483516
2.992327802996442,0.4222710622710622,0.9621978021978022,0.6116483516483516
2.9925213159949635,0.4222710622710622,0.9621978021978022,0.6116483516483516
2.997478550998494,0.4222710622710622,0.9621978021978022,0.6116483516483516
3.0025815759945544,0.4222710622710622,0.9621978021978022,0.6116483516483516
3.0102706939942436,0.4222710622710622,0.9621978021978022,0.6116483516483516
3.014940214998205,0.4222710622710622,0.9621978021978022,0.6116483516483516
3.015075598996191,0.4222710622710622,0.9621978021978022,0.6116483516483516
3.0237130539971986,0.4222710622710622,0.9621978021978022,0.6116483516483516
3.0286795849970076,0.4222710622710622,0.9621978021978022,0.6116483516483516
3.0318167329969583,0.4222710622710622,0.9621978021978022,0.6116483516483516
3.0343917059944943,0.4222710622710622,0.9621978021978022,0.6116483516483516
3.0431435639984556,0.4222710622710622,0.9621978021978022,0.6116483516483516
3.0477003080013674,0.4222710622710622,0.9621978021978022,0.6116483516483516
3.049277615995379,0.4222710622710622,0.9621978021978022,0.6116483516483516
3.0534001189953415,0.4222710622710622,0.9621978021978022,0.6116483516483516
3.057686897998792,0.4222710622710622,0.9621978021978022,0.6116483516483516
3.0595919429979404,0.4222710622710622,0.9621978021978022,0.6116483516483516
3.0613046969956486,0.4222710622710622,0.9621978021978022,0.6116483516483516
3.0653372640008456,0.4222710622710622,0.9621978021978022,0.6116483516483516
3.0684950860013487,0.30058608058608055,0.29333333333333333,1.307106227106227
3.0714471979954396,0.30058608058608055,0.29333333333333333,1.307106227106227
3.074789147998672,0.30058608058608055,0.29333333333333333,1.307106227106227
3.0750031439965824,0.30058608058608055,0.29333333333333333,1.307106227106227
3.083537525999418,0.30058608058608055,0.29333333333333333,1.307106227106227
3.0900944550012355,0.03062271062271062,0.28608058608058606,1.0258608058608059
3.0937684519958566,0.03062271062271062,0.28608058608058606,1.0258608058608059
3.093904585999553,0.03062271062271062,0.28608058608058606,1.0258608058608059
3.0986320649972185,0.684981684981685,0.28446886446886444,1.8816849816849814
3.0988229389986373,0.7704029304029304,0.9573626373626374,0.5455677655677655
3.1039885930003948,0.7704029304029304,0.9573626373626374,0.5455677655677655
3.109973694998189,1.1596336996336996,0.684981684981685,2.5384615384615383
3.1137700709950877,1.1596336996336996,0.684981684981685,2.5384615384615383
3.1177609769947594,1.1596336996336996,0.684981684981685,2.5384615384615383
3.1221894869959215,1.975164835164835,1.9445421245421244,1.1604395604395605
3.122657784995681,0.5632967032967032,0.36666666666666664,1.635091575091575
3.129575251994538,0.5632967032967032,0.36666666666666664,1.635091575091575
3.133640326996101,0.5632967032967032,0.36666666666666664,1.635091575091575
3.1384471349956584,0.5632967032967032,0.36666666666666664,1.635091575091575
3.144733657994948,0.5632967032967032,0.36666666666666664,1.635091575091575
3.148656076999032,1.6399267399267399,0.7623443223443224,3.3
3.1535548949977965,1.7648351648351648,1.6745787545787545,0.9557509157509158
3.1606418139999732,1.7648351648351648,1.6745787545787545,0.9557509157509158
3.165253920997202,1.7648351648351648,1.6745787545787545,0.9557509157509158
3.165622076994623,0.04271062271062271,0.2643223443223443,0.9565567765567766
3.1709239419942605,0.04271062271062271,0.2643223443223443,0.9565567765567766
3.1748344149964396,1.6383150183150184,0.7623443223443224,2.5271794871794873
3.177324331998534,0.664029304029304,0.2756043956043956,1.6568498168498167
3.1775137379954685,0.664029304029304,0.2756043956043956,1.6568498168498167
3.1829127890014206,0.664029304029304,0.2756043956043956,1.6568498168498167
3.185282777994871,0.664029304029304,0.2756043956043956,1.6568498168498167
3.1855133139979444,0.664029304029304,0.2756043956043956,1.6568498168498167
3.1942677729966817,0.664029304029304,0.2756043956043956,1.6568498168498167
3.2008273399987957,0.664029304029304,0.2756043956043956,1.6568498168498167
3.204072428001382,0.664029304029304,0.2756043956043956,1.6568498168498167
3.205482478995691,0.664029304029304,0.2756043956043956,1.6568498168498167
3.211440227998537,0.664029304029304,0.2756043956043956,1.6568498168498167
3.2211897460001637,0.664029304029304,0.2756043956043956,1.6568498168498167
3.2281351199999335,0.016117216117216115,0.3739194139194139,1.1547985347985346
3.2324002599998494,0.016117216117216115,0.3739194139194139,1.1547985347985346
3.2349537069967482,0.016117216117216115,0.3739194139194139,1.1547985347985346
3.242475753999315,0.016117216117216115,0.3739194139194139,1.1547985347985346
3.24714946399763,0.0,0.41340659340659336,1.544029304029304
3.2473674159991788,0.0,0.41340659340659336,1.544029304029304
3.2532265499976347,0.0,0.41340659340659336,1.544029304029304
3.2604989539977396,0.0,0.41340659340659336,1.544029304029304
3.2644178819973604,0.0,0.41340659340659336,1.544029304029304
3.2682790139951976,0.0,0.41340659340659336,1.544029304029304
3.274375028995564,0.0,0.41340659340659336,1.544029304029304
3.2791140919944155,0.0,0.41340659340659336,1.544029304029304
3.2839284669971676,1.9679120879120877,1.7817582417582416,0.8332600732600732
3.2914576469993335,1.9679120879120877,1.7817582417582416,0.8332600732600732
3.295467247000488,1.9679120879120877,1.7817582417582416,0.8332600732600732
3.2985912149961223,1.2563369963369961,0.4005128205128205,3.3
3.300932250000187,0.0,0.4174358974358974,2.037216117216117
3.301095898001222,0.0,0.4174358974358974,2.037216117216117
3.306877088994952,0.0,0.4174358974358974,2.037216117216117
3.3069802210011403,0.0,0.4174358974358974,2.037216117216117
3.3125104029968497,0.0,0.4174358974358974,2.037216117216117
3.3148016720006126,0.5624908424908425,0.23369963369963367,1.8607326007326006
3.3149317829957,0.5624908424908425,0.23369963369963367,1.8607326007326006
3.3210976229966036,0.5624908424908425,0.23369963369963367,1.8607326007326006
3.3266375949970097,0.0,0.28608058608058606,1.5770695970695972
3.3268714789955993,1.1072527472527471,0.5890842490842491,3.3
3.3316780669993022,1.1072527472527471,0.5890842490842491,3.3
3.331796316000691,1.1072527472527471,0.5890842490842491,3.3
3.3367880869991495,1.1072527472527471,0.5890842490842491,3.3
3.3441023159975884,0.38681318681318677,0.7244688644688644,0.3852014652014652
3.348683281998092,2.0347985347985347,0.7994139194139194,2.556996336996337
3.3496301240011235,2.0347985347985347,0.7994139194139194,2.556996336996337
3.3505399429996032,2.0347985347985347,0.7994139194139194,2.556996336996337
3.351447562999965,2.0347985347985347,0.7994139194139194,2.556996336996337
3.353100351996545,2.0347985347985347,0.7994139194139194,2.556996336996337
3.3584325589981745,2.0347985347985347,0.7994139194139194,2.556996336996337
3.359509279995109,2.0347985347985347,0.7994139194139194,2.556996336996337
3.359765636996599,2.0347985347985347,0.7994139194139194,2.556996336996337
3.3645861959957983,2.0347985347985347,0.7994139194139194,2.556996336996337
3.3700480179977603,2.0347985347985347,0.7994139194139194,2.556996336996337
3.3743899749970296,2.0347985347985347,0.7994139194139194,2.556996336996337
3.3796264240008895,2.0347985347985347,0.7994139194139194,2.556996336996337
3.381978119999985,2.0347985347985347,0.7994139194139194,2.556996336996337
3.382134996994864,2.0347985347985347,0.7994139194139194,2.556996336996337
3.3892393029964296,2.0347985347985347,0.7994139194139194,2.556996336996337
3.394088950997684,1.5665934065934064,1.7688644688644688,1.1967032967032967
3.3981597050005803,0.5141391941391941,0.2909157509157509,1.826080586080586
3.4014539179988788,0.5141391941391941,0.2909157509157509,1.826080586080586
3.4030965349957114,0.5141391941391941,0.2909157509157509,1.826080586080586
3.4084584079973865,0.5141391941391941,0.2909157509157509,1.826080586080586
3.4088157759979367,0.5141391941391941,0.2909157509157509,1.826080586080586
3.41392730899679,0.5141391941391941,0.2909157509157509,1.826080586080586
3.4169745219987817,0.5141391941391941,0.2909157509157509,1.826080586080586
3.4193562289947295,0.3545787545787546,0.2756043956043956,1.523882783882784
3.4198078799963696,0.3545787545787546,0.2756043956043956,1.523882783882784
3.4267744319949998,0.3545787545787546,0.2756043956043956,1.523882783882784
3.431019367999397,0.3545787545787546,0.2756043956043956,1.523882783882784
3.4327867510000942,0.3545787545787546,0.2756043956043956,1.523882783882784
3.4352989539984264,0.3545787545787546,0.2756043956043956,1.523882783882784
3.4429630559970974,0.3545787545787546,0.2756043956043956,1.523882783882784
3.447550124998088,2.099267399267399,0.8646886446886447,2.548937728937729
3.448414194994257,1.5754578754578754,1.763223443223443,1.0597069597069597
3.4507235459968797,1.5754578754578754,1.763223443223443,1.0597069597069597
3.450876940994931,1.5754578754578754,1.763223443223443,1.0597069597069597
3.456629691994749,1.7873992673992671,0.5133333333333333,2.5513553113553114
3.4567792599991662,1.7873992673992671,0.5133333333333333,2.5513553113553114
3.4614997819953714,1.7873992673992671,0.5133333333333333,2.5513553113553114
3.4617667779966723,0.0,0.3231501831501831,0.8082783882783882
3.467524562998733,0.0,0.3231501831501831,0.8082783882783882
3.4749668129952624,0.0,0.3231501831501831,0.8082783882783882
3.4782046929976786,0.0,0.3231501831501831,0.8082783882783882
3.47905036299926,0.0,0.3231501831501831,0.8082783882783882
3.4813982529958594,0.0,0.3231501831501831,0.8082783882783882
3.481595302000642,0.0,0.3231501831501831,0.8082783882783882
3.488663080999686,0.0,0.3231501831501831,0.8082783882783882
3.4935945909965085,0.0,0.3231501831501831,0.8082783882783882
3.498183687996061,0.0,0.3231501831501831,0.8082783882783882
3.4983883739987505,0.0,0.3231501831501831,0.8082783882783882
3.5050872930005426,0.0,0.3231501831501831,0.8082783882783882
3.5094914689980214,0.0,0.3231501831501831,0.8082783882783882
3.5098200559950783,1.6818315018315015,0.7921611721611721,2.9526739926739927
3.5145534119947115,1.6818315018315015,0.7921611721611721,2.9526739926739927
3.5147428039999795,1.6818315018315015,0.7921611721611721,2.9526739926739927
3.5196572929999093,1.6818315018315015,0.7921611721611721,2.9526739926739927
3.5261473979990114,1.6818315018315015,0.7921611721611721,2.9526739926739927
3.5300292799947783,1.6818315018315015,0.7921611721611721,2.9526739926739927
3.534553221994429,1.6818315018315015,0.7921611721611721,2.9526739926739927
3.535405841001193,1.83010989010989,0.6068131868131869,3.3
3.5375946999993175,1.83010989010989,0.6068131868131869,3.3
3.5379146869963733,0.15875457875457877,0.5302564102564102,0.755091575091575
3.5442827149963705,0.9194871794871795,1.3014652014652013,1.303076923076923
3.548396717997093,0.9194871794871795,1.3014652014652013,1.303076923076923
3.5514721360013937,0.9194871794871795,1.3014652014652013,1.303076923076923
3.5532242839981336,0.9194871794871795,1.3014652014652013,1.303076923076923
3.5573749690011027,0.9194871794871795,1.3014652014652013,1.303076923076923
3.5602754799983813,0.9194871794871795,1.3014652014652013,1.303076923076923
3.56367002800107,0.0,0.4383882783882784,2.0388278388278387
3.563923771995178,1.0435897435897434,0.5479853479853479,2.3547252747252747
3.568756761000259,1.0435897435897434,0.5479853479853479,2.3547252747252747
3.5785370230005356,1.0435897435897434,0.5479853479853479,2.3547252747252747
3.5832777510004235,0.0,0.42630036630036633,1.9243956043956043
3.592239703000814,0.0,0.42630036630036633,1.9243956043956043
3.5988401459981105,0.0,0.42630036630036633,1.9243956043956043
3.6046373909994145,0.0,0.42630036630036633,1.9243956043956043
3.6113447669995367,0.0,0.42630036630036633,1.9243956043956043
3.6152551419945667,0.0,0.42630036630036633,1.9243956043956043
3.6191449069956434,0.6785347985347985,0.27882783882783885,1.7116483516483516
3.627487088997441,0.6785347985347985,0.27882783882783885,1.7116483516483516
3.6350883790000807,0.6785347985347985,0.27882783882783885,1.7116483516483516
3.6410120779983117,1.5657875457875456,0.8098901098901098,2.257216117216117
3.6468545739990077,1.5657875457875456,0.8098901098901098,2.257216117216117
3.6540510279955924,1.5657875457875456,0.8098901098901098,2.257216117216117
3.658590147999348,1.5657875457875456,0.8098901098901098,2.257216117216117
3.6657001489948016,1.5657875457875456,0.8098901098901098,2.257216117216117
3.670170249999501,1.5657875457875456,0.8098901098901098,2.257216117216117
3.6709010519989533,1.5657875457875456,0.8098901098901098,2.257216117216117
3.6747997169950395,1.5657875457875456,0.8098901098901098,2.257216117216117
3.678279770996596,2.1476190476190475,0.6454945054945055,3.3
3.6786055580014363,2.1476190476190475,0.6454945054945055,3.3
3.6824578960004146,2.1476190476190475,0.6454945054945055,3.3
3.6879002819987363,2.1476190476190475,0.6454945054945055,3.3
3.6901744719943963,2.1476190476190475,0.6454945054945055,3.3
3.696350068996253,2.1476190476190475,0.6454945054945055,3.3
3.7005588289976004,2.1476190476190475,0.6454945054945055,3.3
3.7023889779957244,2.1476190476190475,0.6454945054945055,3.3
3.706593687995337,2.1476190476190475,0.6454945054945055,3.3
3.708189005999884,2.1476190476190475,0.6454945054945055,3.3
3.7129741109965835,0.713992673992674,0.9815384615384615,0.5367032967032966
3.7185129079953185,0.713992673992674,0.9815384615384615,0.5367032967032966
3.7211968099945807,2.075897435897436,1.7035897435897436,1.3538461538461537
3.7252676639982383,2.075897435897436,1.7035897435897436,1.3538461538461537
3.7280065119994106,2.075897435897436,1.7035897435897436,1.3538461538461537
3.731100102995697,2.075897435897436,1.7035897435897436,1.3538461538461537
3.733601355997962,2.075897435897436,1.7035897435897436,1.3538461538461537
3.742223622997699,2.075897435897436,1.7035897435897436,1.3538461538461537
3.7494645529950503,2.075897435897436,1.7035897435897436,1.3538461538461537
3.7541977699947893,0.40937728937728934,0.8582417582417583,0.6317948717948718
3.762285382996197,0.40937728937728934,0.8582417582417583,0.6317948717948718
3.7700272489964846,0.40937728937728934,0.8582417582417583,0.6317948717948718
3.7768882819946157,0.40937728937728934,0.8582417582417583,0.6317948717948718
3.7807441909972113,0.40937728937728934,0.8582417582417583,0.6317948717948718
3.7891187759960303,0.40937728937728934,0.8582417582417583,0.6317948717948718
3.795898042997578,2.4941391941391937,0.9404395604395603,2.544908424908425
3.8016301549942,2.4941391941391937,0.9404395604395603,2.544908424908425
3.809149032997084,2.4941391941391937,0.9404395604395603,2.544908424908425
3.8153950449996046,2.4941391941391937,0.9404395604395603,2.544908424908425
3.8188784809972276,2.4941391941391937,0.9404395604395603,2.544908424908425
3.8190692309945007,2.4941391941391937,0.9404395604395603,2.544908424908425
3.8264774049966945,2.4941391941391937,0.9404395604395603,2.544908424908425
3.8303439910014276,2.4941391941391937,0.9404395604395603,2.544908424908425
3.834901935995731,2.4941391941391937,0.9404395604395603,2.544908424908425
3.835102632998314,0.963003663003663,0.3191208791208791,2.0662271062271063
3.8434972889954224,0.963003663003663,0.3191208791208791,2.0662271062271063
3.8497154739961843,0.0136996336996337,0.3158974358974359,0.9734798534798534
3.8530898229946615,0.5729670329670329,1.046007326007326,0.6269597069597069
3.853696278994903,0.5729670329670329,1.046007326007326,0.6269597069597069
3.858855702994333,0.5729670329670329,1.046007326007326,0.6269597069597069
3.861251665999589,0.5729670329670329,1.046007326007326,0.6269597069597069
3.8615233239979716,0.5729670329670329,1.046007326007326,0.6269597069597069
3.8661653449962614,0.5729670329670329,1.046007326007326,0.6269597069597069
3.8662824019993423,1.688278388278388,0.5915018315018314,3.3
3.8720351989977644,1.688278388278388,0.5915018315018314,3.3
3.8722045199974673,1.688278388278388,0.5915018315018314,3.3
3.8788042279993533,1.5577289377289376,0.43355311355311354,2.8156776556776553
3.88283214099647,1.5577289377289376,0.43355311355311354,2.8156776556776553
3.8878483480002615,1.5577289377289376,0.43355311355311354,2.8156776556776553
3.892822392997914,2.457875457875458,0.9509157509157508,3.3
3.894497926994518,2.457875457875458,0.9509157509157508,3.3
3.8983763079959317,2.457875457875458,0.9509157509157508,3.3
3.9033349989986164,2.457875457875458,0.9509157509157508,3.3
3.910270064996439,2.457875457875458,0.9509157509157508,3.3
3.915993697999511,2.457875457875458,0.9509157509157508,3.3
3.926390841996181,2.457875457875458,0.9509157509157508,3.3
3.931897021997429,2.457875457875458,0.9509157509157508,3.3
3.9335006619949127,1.8752380952380951,0.8026373626373626,2.2483516483516484
3.9380234079944785,0.16278388278388278,0.3078388278388278,0.36666666666666664
3.938176449999446,0.16278388278388278,0.3078388278388278,0.36666666666666664
3.9469859449964133,0.16278388278388278,0.3078388278388278,0.36666666666666664
3.953302296999027,0.16278388278388278,0.3078388278388278,0.36666666666666664
3.9591060239981744,1.8953846153846152,0.8252014652014652,2.1758241758241756
3.96455348499876,1.8953846153846152,0.8252014652014652,2.1758241758241756
3.9662524980012677,2.6778754578754578,0.9073992673992675,3.3
3.9695601610001177,2.6778754578754578,0.9073992673992675,3.3
3.971407046999957,2.6778754578754578,0.9073992673992675,3.3
3.9739992299946607,2.6778754578754578,0.9073992673992675,3.3
3.978204345999984,1.1813919413919414,0.3763369963369963,2.046080586080586
3.9798959079998895,1.1813919413919414,0.3763369963369963,2.046080586080586
3.9837688599945977,0.014505494505494505,0.3183150183150183,1.539194139194139
3.9892918119949172,0.014505494505494505,0.3183150183150183,1.539194139194139
3.9896429479995277,0.014505494505494505,0.3183150183150183,1.539194139194139
3.9943601459963247,0.014505494505494505,0.3183150183150183,1.539194139194139
3.9945743839998613,0.3852014652014652,0.2715750915750916,0.6720879120879121
3.999979401996825,0.3852014652014652,0.2715750915750916,0.6720879120879121
4.001614556997083,0.3852014652014652,0.2715750915750916,0.6720879120879121
4.008638473998872,0.3852014652014652,0.2715750915750916,0.6720879120879121
4.013092118999339,0.3852014652014652,0.2715750915750916,0.6720879120879121
4.013296336001076,0.3852014652014652,0.2715750915750916,0.6720879120879121
4.01878269000008,0.3852014652014652,0.2715750915750916,0.6720879120879121
4.022757632999856,0.3852014652014652,0.2715750915750916,0.6720879120879121
4.026822784995602,0.3852014652014652,0.2715750915750916,0.6720879120879121
4.029203952995886,0.7172161172161172,0.9227106227106227,0.5141391941391941
4.039943998999661,0.7172161172161172,0.9227106227106227,0.5141391941391941
4.048559343995294,0.7816849816849816,0.29978021978021974,1.7027838827838828
4.058183870998619,0.7816849816849816,0.29978021978021974,1.7027838827838828
4.063735158000782,0.7704029304029304,0.3191208791208791,1.7092307692307693
4.063969972994528,0.7704029304029304,0.3191208791208791,1.7092307692307693
4.069691626995336,0.7704029304029304,0.3191208791208791,1.7092307692307693
4.070006948997616,2.274139194139194,1.9856410256410255,1.1153113553113554
4.0788939199992456,2.274139194139194,1.9856410256410255,1.1153113553113554
4.084113044998958,2.274139194139194,1.9856410256410255,1.1153113553113554
4.089267522998853,2.5360439560439563,0.8115018315018314,2.5505494505494504
4.092544890998397,2.5360439560439563,0.8115018315018314,2.5505494505494504
4.092715566999686,2.5360439560439563,0.8115018315018314,2.5505494505494504
4.097793910994369,2.5360439560439563,0.8115018315018314,2.5505494505494504
4.100882638995245,2.5360439560439563,0.8115018315018314,2.5505494505494504
4.103336326996214,0.026593406593406595,0.4561172161172161,1.6931135531135528
4.103693567994924,0.026593406593406595,0.4561172161172161,1.6931135531135528
4.109827913998743,0.026593406593406595,0.4561172161172161,1.6931135531135528
4.113693892999436,0.026593406593406595,0.4561172161172161,1.6931135531135528
4.119104596000398,0.026593406593406595,0.4561172161172161,1.6931135531135528
4.120025790994987,2.165347985347985,1.739047619047619,1.0194139194139193
4.12235011899611,2.165347985347985,1.739047619047619,1.0194139194139193
4.122523131998605,2.165347985347985,1.739047619047619,1.0194139194139193
4.127286069000547,2.165347985347985,1.739047619047619,1.0194139194139193
4.132100222996087,2.5199267399267398,0.9452747252747251,2.552967032967033
4.132294953997189,2.5199267399267398,0.9452747252747251,2.552967032967033
4.13700728299591,2.5199267399267398,0.9452747252747251,2.552967032967033
4.13716381300037,2.5199267399267398,0.9452747252747251,2.552967032967033
4.142556692997459,2.5199267399267398,0.9452747252747251,2.552967032967033
4.144167660997482,2.5199267399267398,0.9452747252747251,2.552967032967033
4.147341169998981,2.5199267399267398,0.9452747252747251,2.552967032967033
4.14983393199509,2.4473992673992675,0.8695238095238095,2.552967032967033
4.156044672999997,1.8704029304029302,0.7002930402930403,3.3
4.160909508995246,1.8704029304029302,0.7002930402930403,3.3
4.164731853001285,1.8704029304029302,0.7002930402930403,3.3
4.169274868996581,1.8704029304029302,0.7002930402930403,3.3
4.169580023997696,1.8704029304029302,0.7002930402930403,3.3
4.175313287996687,1.8704029304029302,0.7002930402930403,3.3
4.175523881996924,1.8704029304029302,0.7002930402930403,3.3
4.180888115995913,1.8704029304029302,0.7002930402930403,3.3
4.183358543996292,1.8704029304029302,0.7002930402930403,3.3
4.189968280996254,0.1087912087912088,0.2506227106227106,1.0863003663003663
4.193662284997117,0.1087912087912088,0.2506227106227106,1.0863003663003663
4.198217385994212,0.1087912087912088,0.2506227106227106,1.0863003663003663
4.1990955930014024,0.1087912087912088,0.2506227106227106,1.0863003663003663
4.200660558999516,0.1087912087912088,0.2506227106227106,1.0863003663003663
4.208587561995955,0.1087912087912088,0.2506227106227106,1.0863003663003663
4.214829252996424,0.1087912087912088,0.2506227106227106,1.0863003663003663
4.221463030997256,0.1087912087912088,0.2506227106227106,1.0863003663003663
4.226247879996663,0.1087912087912088,0.2506227106227106,1.0863003663003663
4.233353338000597,0.1087912087912088,0.2506227106227106,1.0863003663003663
4.240324947997578,1.843003663003663,0.5939194139194138,3.3
4.244317655997293,1.843003663003663,0.5939194139194138,3.3
4.24746933899587,1.843003663003663,0.5939194139194138,3.3
4.249801906997163,1.843003663003663,0.5939194139194138,3.3
4.249923324001429,1.843003663003663,0.5939194139194138,3.3
4.256847664997622,1.843003663003663,0.5939194139194138,3.3
4.260182752994297,1.843003663003663,0.5939194139194138,3.3
4.260520569994696,1.843003663003663,0.5939194139194138,3.3
4.265504876995692,1.843003663003663,0.5939194139194138,3.3
4.271572628997092,1.843003663003663,0.5939194139194138,3.3
4.276553828000033,1.843003663003663,0.5939194139194138,3.3
4.280510920994857,1.843003663003663,0.5939194139194138,3.3
4.282831639997312,1.843003663003663,0.5939194139194138,3.3
4.283203513994522,1.843003663003663,0.5939194139194138,3.3
4.2906771909983945,1.843003663003663,0.5939194139194138,3.3
4.2964366849992075,1.843003663003663,0.5939194139194138,3.3
4.301147548998415,1.843003663003663,0.5939194139194138,3.3
4.308207527996274,1.843003663003663,0.5939194139194138,3.3
4.31156148899754,0.1418315018315018,0.2651282051282051,1.2531135531135529
4.312415479995252,0.1418315018315018,0.2651282051282051,1.2531135531135529
4.314003645995399,0.1418315018315018,0.2651282051282051,1.2531135531135529
4.318087937994278,0.1418315018315018,0.2651282051282051,1.2531135531135529
4.325603806995787,0.1418315018315018,0.2651282051282051,1.2531135531135529
4.3311447339947335,0.1418315018315018,0.2651282051282051,1.2531135531135529
4.3315449570000055,0.1418315018315018,0.2651282051282051,1.2531135531135529
4.341181343996141,0.1418315018315018,0.2651282051282051,1.2531135531135529
4.348120966998977,0.1418315018315018,0.2651282051282051,1.2531135531135529
4.354689004998363,0.1418315018315018,0.2651282051282051,1.2531135531135529
4.3592825300002005,1.473113553113553,0.8517948717948718,2.5271794871794873
4.364405296000768,1.473113553113553,0.8517948717948718,2.5271794871794873
4.372443579995888,1.473113553113553,0.8517948717948718,2.5271794871794873
4.378636916997493,1.473113553113553,0.8517948717948718,2.5271794871794873
4.3830346209942945,0.4802930402930403,0.303003663003663,1.6673260073260072
4.383304623996082,0.4802930402930403,0.303003663003663,1.6673260073260072
4.391953726997599,0.4802930402930403,0.303003663003663,1.6673260073260072
4.397341046998918,0.4802930402930403,0.303003663003663,1.6673260073260072
4.399007826999878,0.4802930402930403,0.303003663003663,1.6673260073260072
4.402925135997066,1.8027106227106224,1.5947985347985347,1.3264468864468864
4.408961907000048,1.8027106227106224,1.5947985347985347,1.3264468864468864
4.412178952996328,1.8027106227106224,1.5947985347985347,1.3264468864468864
4.413833008999063,1.8027106227106224,1.5947985347985347,1.3264468864468864
4.417837137996685,1.8027106227106224,1.5947985347985347,1.3264468864468864
4.422535895995679,0.3449084249084249,0.2482051282051282,1.1394871794871795
4.428718826995464,0.3449084249084249,0.2482051282051282,1.1394871794871795
4.43206751300022,0.3449084249084249,0.2482051282051282,1.1394871794871795
4.4330419979960425,0.3449084249084249,0.2482051282051282,1.1394871794871795
4.434068506998301,0.3449084249084249,0.2482051282051282,1.1394871794871795
4.434977858996717,0.3449084249084249,0.2482051282051282,1.1394871794871795
4.437456182997266,0.3449084249084249,0.2482051282051282,1.1394871794871795
4.44400819799921,0.3449084249084249,0.2482051282051282,1.1394871794871795
4.447972333000507,0.3449084249084249,0.2482051282051282,1.1394871794871795
4.45271053599572,0.3449084249084249,0.2482051282051282,1.1394871794871795
4.452881703997264,0.3449084249084249,0.2482051282051282,1.1394871794871795
4.462355648000084,0.3449084249084249,0.2482051282051282,1.1394871794871795
4.46694516199932,0.3449084249084249,0.2482051282051282,1.1394871794871795
4.467253565999272,0.3449084249084249,0.2482051282051282,1.1394871794871795
4.47490268600086,0.32717948717948714,0.7494505494505495,0.5221978021978021
4.479147613994428,1.5947985347985347,0.8034432234432234,2.6746520146520147
4.481464673001028,0.5616849816849817,0.26109890109890105,1.858315018315018
4.481735688998015,0.5616849816849817,0.26109890109890105,1.858315018315018
4.489438147997134,0.5616849816849817,0.26109890109890105,1.858315018315018
4.493927069001074,0.6567765567765567,1.0016849816849815,0.4005128205128205
4.4992927399944165,1.7132600732600733,0.5866666666666667,3.3
4.502073881994875,1.7132600732600733,0.5866666666666667,3.3
4.5085844599962,0.0,0.3304029304029304,1.6044688644688643
4.5116850579943275,0.0,0.3304029304029304,1.6044688644688643
4.514111521995801,1.7761172161172158,0.7115750915750916,3.3
4.51886445099808,1.7761172161172158,0.7115750915750916,3.3
4.519097535994661,1.7761172161172158,0.7115750915750916,3.3
4.52611906400125,1.7761172161172158,0.7115750915750916,3.3
4.53007128599711,1.7761172161172158,0.7115750915750916,3.3
4.533965226000873,1.7761172161172158,0.7115750915750916,3.3
4.540205145996879,1.606080586080586,0.5729670329670329,3.3
4.543995863998134,1.606080586080586,0.5729670329670329,3.3
4.549296459998004,0.0,0.3344322344322344,0.9823443223443222
4.550999746999878,0.8832234432234431,0.5536263736263736,3.032454212454212
4.556692114994803,0.8832234432234431,0.5536263736263736,3.032454212454212
4.562080680996587,2.0444688644688642,0.606007326007326,2.5465201465201464
4.5636770489945775,2.0444688644688642,0.606007326007326,2.5465201465201464
4.568307946996356,2.0444688644688642,0.606007326007326,2.5465201465201464
4.5685002760001225,2.0444688644688642,0.606007326007326,2.5465201465201464
4.576004378999642,2.0444688644688642,0.606007326007326,2.5465201465201464
4.581240879000688,2.0444688644688642,0.606007326007326,2.5465201465201464
4.582809524996264,1.8027106227106224,1.9332600732600733,1.0282783882783881
4.588388070995279,1.8027106227106224,1.9332600732600733,1.0282783882783881
4.588576105998072,0.7752380952380952,1.1483516483516483,0.4722344322344322
4.59371562099841,0.7752380952380952,1.1483516483516483,0.4722344322344322
4.596725493996928,1.295018315018315,0.4222710622710622,2.9115750915750915
4.599181486999441,1.295018315018315,0.4222710622710622,2.9115750915750915
4.606930800000555,1.295018315018315,0.4222710622710622,2.9115750915750915
4.612384984000528,2.234652014652015,0.7736263736263735,2.552967032967033
4.612686173997645,0.801025641025641,1.1362637362637362,0.4657875457875458
4.6226724660009495,0.801025641025641,1.1362637362637362,0.4657875457875458
4.629530591999355,0.801025641025641,1.1362637362637362,0.4657875457875458
4.633437651995337,1.7382417582417582,0.8356776556776556,2.5682783882783884
4.6387766059997375,1.7382417582417582,0.8356776556776556,2.5682783882783884
4.640644521998183,1.7382417582417582,0.8356776556776556,2.5682783882783884
4.643743668995739,1.7382417582417582,0.8356776556776556,2.5682783882783884
4.644162730000971,1.7382417582417582,0.8356776556776556,2.5682783882783884
4.6492040989978705,1.7382417582417582,0.8356776556776556,2.5682783882783884
4.65541948399914,0.95010989010989,0.585054945054945,2.997802197802198
4.660286108999571,0.95010989010989,0.585054945054945,2.997802197802198
4.6640728499987745,1.9284249084249083,2.002564102564102,1.1201465201465202
4.669216422997124,1.9284249084249083,2.002564102564102,1.1201465201465202
4.675486166997871,1.1725274725274726,1.0057142857142858,1.7535531135531135
4.678742110998428,1.1725274725274726,1.0057142857142858,1.7535531135531135
4.679687484996975,1.1725274725274726,1.0057142857142858,1.7535531135531135
4.68128559699835,1.1725274725274726,1.0057142857142858,1.7535531135531135
4.685447475996625,1.1725274725274726,1.0057142857142858,1.7535531135531135
4.688895674000378,1.1725274725274726,1.0057142857142858,1.7535531135531135
4.695946109000943,0.7430036630036629,1.0838827838827838,0.4867399267399267
4.700590634995024,1.971135531135531,0.5786080586080585,3.3
4.700876119997702,1.971135531135531,0.5786080586080585,3.3
4.707233884000743,1.971135531135531,0.5786080586080585,3.3
4.710814136000408,1.971135531135531,0.5786080586080585,3.3
4.7109682410009555,1.971135531135531,0.5786080586080585,3.3
4.71658357099659,1.971135531135531,0.5786080586080585,3.3
4.717431744000351,0.5681318681318681,0.2756043956043956,1.4215384615384616
4.718342050000501,0.5681318681318681,0.2756043956043956,1.4215384615384616
4.720759822994296,0.5681318681318681,0.2756043956043956,1.4215384615384616
4.729077876996598,0.5681318681318681,0.2756043956043956,1.4215384615384616
4.737546502001351,0.5681318681318681,0.2756043956043956,1.4215384615384616
4.743983878994186,0.5681318681318681,0.2756043956043956,1.4215384615384616
4.748164453994832,0.5681318681318681,0.2756043956043956,1.4215384615384616
4.750538313994184,0.5681318681318681,0.2756043956043956,1.4215384615384616
4.7508117990000756,0.5681318681318681,0.2756043956043956,1.4215384615384616
4.75970726399828,0.5681318681318681,0.2756043956043956,1.4215384615384616
4.76437323600112,0.5681318681318681,0.2756043956043956,1.4215384615384616
4.771173617999011,0.0,0.332014652014652,1.0403663003663002
4.776401373994304,0.0,0.332014652014652,1.0403663003663002
4.778769521995855,0.0,0.332014652014652,1.0403663003663002
4.77901701600058,0.0,0.332014652014652,1.0403663003663002
4.783600744995056,0.0,0.332014652014652,1.0403663003663002
4.783906074997503,0.0,0.332014652014652,1.0403663003663002
4.7928735929963295,2.6166300366300366,0.9573626373626374,3.3
4.797692483996798,2.6166300366300366,0.9573626373626374,3.3
4.804082577000372,0.7784615384615384,0.32395604395604394,1.569010989010989
4.809184393998294,0.03223443223443223,0.3199267399267399,0.7438095238095238
4.812330553999345,0.03223443223443223,0.3199267399267399,0.7438095238095238
4.8132793299955665,1.8115750915750917,0.7671794871794871,2.241098901098901
4.81424487199547,1.8115750915750917,0.7671794871794871,2.241098901098901
4.815886997996131,1.8115750915750917,0.7671794871794871,2.241098901098901
4.8209272749954835,1.8115750915750917,0.7671794871794871,2.241098901098901
4.826271787998849,1.8115750915750917,0.7671794871794871,2.241098901098901
4.826611872995272,2.569084249084249,0.85018315018315,3.3
4.835233779995178,2.569084249084249,0.85018315018315,3.3
4.843936088996998,2.569084249084249,0.85018315018315,3.3
4.851402642998437,2.569084249084249,0.85018315018315,3.3
4.859094995998021,2.569084249084249,0.85018315018315,3.3
4.863004898994404,0.23853479853479853,0.6052014652014651,0.5149450549450549
4.867515268997522,0.23853479853479853,0.6052014652014651,0.5149450549450549
4.86839377299475,0.23853479853479853,0.6052014652014651,0.5149450549450549
4.871668733998376,0.23853479853479853,0.6052014652014651,0.5149450549450549
4.871857172998716,0.23853479853479853,0.6052014652014651,0.5149450549450549
4.877783678995911,0.23853479853479853,0.6052014652014651,0.5149450549450549
4.883542231997126,0.23853479853479853,0.6052014652014651,0.5149450549450549
4.883809967999696,0.23853479853479853,0.6052014652014651,0.5149450549450549
4.891222250000283,0.23853479853479853,0.6052014652014651,0.5149450549450549
4.895176269994408,0.23853479853479853,0.6052014652014651,0.5149450549450549
4.899729232995014,0.5689377289377289,0.28930402930402926,1.212014652014652
4.900606871997297,0.5689377289377289,0.28930402930402926,1.212014652014652
4.902451942994958,0.5689377289377289,0.28930402930402926,1.212014652014652
4.908025477998308,0.01531135531135531,0.29333333333333333,0.6132600732600733
4.913538272994629,0.01531135531135531,0.29333333333333333,0.6132600732600733
4.915167079998355,0.01531135531135531,0.29333333333333333,0.6132600732600733
4.919353010998748,0.01531135531135531,0.29333333333333333,0.6132600732600733
4.923961797998345,0.01531135531135531,0.29333333333333333,0.6132600732600733
4.928754533997562,0.15472527472527473,0.303003663003663,0.9895970695970695
4.934155502000067,1.9123076923076923,1.8236630036630037,1.4666666666666666
4.9375400569988415,1.9123076923076923,1.8236630036630037,1.4666666666666666
4.938040979999641,1.9123076923076923,1.8236630036630037,1.4666666666666666
4.94240031499794,1.9123076923076923,1.8236630036630037,1.4666666666666666
4.942671395998332,1.9123076923076923,1.8236630036630037,1.4666666666666666
4.947186953999335,1.9123076923076923,1.8236630036630037,1.4666666666666666
4.947526042997197,1.9123076923076923,1.8236630036630037,1.4666666666666666
4.9520430819975445,1.9123076923076923,1.8236630036630037,1.4666666666666666
4.953086073001032,1.9123076923076923,1.8236630036630037,1.4666666666666666
4.953615184000228,1.9123076923076923,1.8236630036630037,1.4666666666666666
4.958936288996483,1.9123076923076923,1.8236630036630037,1.4666666666666666
4.959809850995953,1.9123076923076923,1.8236630036630037,1.4666666666666666
4.961444447995746,1.9123076923076923,1.8236630036630037,1.4666666666666666
4.966036026999063,1.9123076923076923,1.8236630036630037,1.4666666666666666
4.96620460399572,1.5158241758241757,0.6358241758241758,3.3
4.972268495999742,1.5158241758241757,0.6358241758241758,3.3
4.977146555997024,1.9235897435897436,0.8074725274725274,2.287032967032967
4.981964883998444,1.9235897435897436,0.8074725274725274,2.287032967032967
4.988362026997493,1.9235897435897436,0.8074725274725274,2.287032967032967
4.993890451994957,2.537655677655678,0.792967032967033,2.5465201465201464
4.9940016949985875,2.537655677655678,0.792967032967033,2.5465201465201464
4.998523967995425,2.537655677655678,0.792967032967033,2.5465201465201464
4.9993894069993985,1.2692307692307692,1.2756776556776557,0.846153846153846
5.000989252999716,2.0444688644688642,1.7253479853479854,1.2764835164835164
5.006325165995804,0.0,0.3997069597069597,1.652014652014652
5.007960360999277,0.0,0.3997069597069597,1.652014652014652
5.011562122999749,0.0,0.3997069597069597,1.652014652014652
5.011810976000561,1.3578754578754577,1.365128205128205,1.4715018315018316
5.016210282999964,1.3578754578754577,1.365128205128205,1.4715018315018316
5.017130057996837,0.9855677655677655,0.3497435897435897,1.8776556776556774
5.018717380997259,0.9855677655677655,0.3497435897435897,1.8776556776556774
5.02271174499765,0.9855677655677655,0.3497435897435897,1.8776556776556774
5.025684355001431,0.9855677655677655,0.3497435897435897,1.8776556776556774
5.02856104500097,2.465128205128205,0.8389010989010988,3.3
5.031452973998967,2.465128205128205,0.8389010989010988,3.3
5.035037769994233,2.465128205128205,0.8389010989010988,3.3
5.035225797000749,2.465128205128205,0.8389010989010988,3.3
5.040211734994955,2.465128205128205,0.8389010989010988,3.3
5.044392124997103,2.465128205128205,0.8389010989010988,3.3
5.047289372996602,2.465128205128205,0.8389010989010988,3.3
5.050172704999568,0.6382417582417582,0.5205860805860806,2.028351648351648
5.053730048995931,0.6382417582417582,0.5205860805860806,2.028351648351648
5.054041891999077,1.1016117216117214,0.38681318681318677,2.1323076923076925
5.058981211994251,1.1016117216117214,0.38681318681318677,2.1323076923076925
5.06314895900141,1.1016117216117214,0.38681318681318677,2.1323076923076925
5.0660111120014335,1.1016117216117214,0.38681318681318677,2.1323076923076925
5.069676809995144,1.1016117216117214,0.38681318681318677,2.1323076923076925
5.069845179001277,1.6850549450549448,0.8872527472527472,1.9308424908424908
5.074674213996332,1.6850549450549448,0.8872527472527472,1.9308424908424908
5.079942614000174,1.6850549450549448,0.8872527472527472,1.9308424908424908
5.082110160998127,1.6850549450549448,0.8872527472527472,1.9308424908424908
5.082909529999597,1.6850549450549448,0.8872527472527472,1.9308424908424908
5.085517856001388,1.6850549450549448,0.8872527472527472,1.9308424908424908
5.093209307997313,1.6850549450549448,0.8872527472527472,1.9308424908424908
5.107287328995881,1.2885714285714285,0.3763369963369963,2.577948717948718
5.117428079000092,1.2885714285714285,0.3763369963369963,2.577948717948718
5.129020547996333,1.2885714285714285,0.3763369963369963,2.577948717948718
5.141471745999297,0.0,0.32476190476190475,1.1983150183150182
5.141677286999766,0.0,0.32476190476190475,1.1983150183150182
5.1483156440008315,0.06366300366300366,0.26754578754578756,1.0621245421245422
5.153075236994482,0.06366300366300366,0.26754578754578756,1.0621245421245422
5.163730902997486,0.06366300366300366,0.26754578754578756,1.0621245421245422
5.169080141997256,1.788205128205128,0.8074725274725274,3.2298901098901096
5.170906941995781,1.788205128205128,0.8074725274725274,3.2298901098901096
5.1735626449954,1.788205128205128,0.8074725274725274,3.2298901098901096
5.178691060995334,1.788205128205128,0.8074725274725274,3.2298901098901096
5.181932763000077,1.788205128205128,0.8074725274725274,3.2298901098901096
5.1822375129995635,0.0,0.3489377289377289,0.8767765567765567
5.187677085996256,0.0,0.3489377289377289,0.8767765567765567
5.190695393997885,2.22981684981685,0.8767765567765567,3.3
5.192957594998006,1.7745054945054943,0.7236630036630036,3.1259340659340658
5.193279344995972,1.7745054945054943,0.7236630036630036,3.1259340659340658
5.198003117999178,1.7745054945054943,0.7236630036630036,3.1259340659340658
5.1982047659985255,1.7745054945054943,0.7236630036630036,3.1259340659340658
5.202920138995978,1.7745054945054943,0.7236630036630036,3.1259340659340658
5.203264505995321,1.7745054945054943,0.7236630036630036,3.1259340659340658
5.207796696995501,1.7745054945054943,0.7236630036630036,3.1259340659340658
5.208103475997632,1.8075457875457877,0.6954578754578754,3.3
5.21263815099519,1.8075457875457877,0.6954578754578754,3.3
5.213549842999782,1.8075457875457877,0.6954578754578754,3.3
5.215130853001028,1.8075457875457877,0.6954578754578754,3.3
5.218939225997019,0.7841025641025641,0.31267399267399265,1.8873260073260072
5.223432685997977,0.7841025641025641,0.31267399267399265,1.8873260073260072
5.224319070999627,0.7841025641025641,0.31267399267399265,1.8873260073260072
5.22589291499753,0.7841025641025641,0.31267399267399265,1.8873260073260072
5.229677408999123,0.7841025641025641,0.31267399267399265,1.8873260073260072
5.235012489996734,0.7841025641025641,0.31267399267399265,1.8873260073260072
5.236630004001199,0.7841025641025641,0.31267399267399265,1.8873260073260072
5.240803533997678,0.9275457875457875,0.29816849816849816,2.5207326007326003
5.243070920994796,0.9275457875457875,0.29816849816849816,2.5207326007326003
5.243307605996961,0.9275457875457875,0.29816849816849816,2.5207326007326003
5.2486298059957335,0.9275457875457875,0.29816849816849816,2.5207326007326003
5.250955192997935,0.9275457875457875,0.29816849816849816,2.5207326007326003
5.251131643999543,0.9275457875457875,0.29816849816849816,2.5207326007326003
5.256330282994895,0.9275457875457875,0.29816849816849816,2.5207326007326003
5.260128235000593,0.9275457875457875,0.29816849816849816,2.5207326007326003
5.264707235000969,0.9275457875457875,0.29816849816849816,2.5207326007326003
5.265551062999293,0.9275457875457875,0.29816849816849816,2.5207326007326003
5.2671950820003985,2.22981684981685,0.8252014652014652,2.552967032967033
5.270945120995748,2.22981684981685,0.8252014652014652,2.552967032967033
5.27541396900051,1.8123809523809524,0.6801465201465201,3.3
5.276988031000656,1.8123809523809524,0.6801465201465201,3.3
5.280802642999333,0.39487179487179486,0.2836630036630036,1.4005860805860806
5.285524494996935,0.0,0.32476190476190475,1.2498901098901098
5.285680718996446,0.0,0.32476190476190475,1.2498901098901098
5.293528663998586,0.0,0.32476190476190475,1.2498901098901098
5.298959257997922,0.0,0.32476190476190475,1.2498901098901098
5.300624855997739,0.0,0.32476190476190475,1.2498901098901098
5.304479035999975,0.0,0.32476190476190475,1.2498901098901098
5.308994971994252,0.0,0.32476190476190475,1.2498901098901098
5.309847295997315,0.0,0.32476190476190475,1.2498901098901098
5.311452978996385,0.0,0.32476190476190475,1.2498901098901098
5.315973633994872,0.0,0.32476190476190475,1.2498901098901098
5.3162293969944585,0.0,0.32476190476190475,1.2498901098901098
5.321488204994239,0.0,0.32476190476190475,1.2498901098901098
5.3245561639996595,0.0,0.32476190476190475,1.2498901098901098
5.3269263449983555,0.0,0.32476190476190475,1.2498901098901098
5.327183827997942,2.3426373626373627,0.809084249084249,2.556996336996337
5.331859149999218,2.3426373626373627,0.809084249084249,2.556996336996337
5.33206001099461,1.5851282051282052,1.6165567765567763,1.4295970695970697
5.3372726870002225,1.5851282051282052,1.6165567765567763,1.4295970695970697
5.343021893000696,0.31186813186813184,0.22886446886446887,0.9895970695970695
5.349223867000546,0.31186813186813184,0.22886446886446887,0.9895970695970695
5.353226711995376,0.31186813186813184,0.22886446886446887,0.9895970695970695
5.36081799800013,0.31186813186813184,0.22886446886446887,0.9895970695970695
5.3663474519999,0.17084249084249084,0.22886446886446887,0.6027838827838827
5.377884921996156,0.17084249084249084,0.22886446886446887,0.6027838827838827
5.386910210996575,0.43597069597069593,0.4859340659340659,2.153260073260073
5.39316247899842,0.43597069597069593,0.4859340659340659,2.153260073260073
5.396838007000042,0.43597069597069593,0.4859340659340659,2.153260073260073
5.396989950997522,0.6084249084249085,0.311062271062271,1.735018315018315
5.404910214994743,0.30058608058608055,0.27802197802197803,1.3619047619047617
5.410148783994373,0.30058608058608055,0.27802197802197803,1.3619047619047617
5.412162955995882,1.6238095238095236,0.8034432234432234,2.585201465201465
5.414138248001109,1.6238095238095236,0.8034432234432234,2.585201465201465
5.415766215999611,1.6238095238095236,0.8034432234432234,2.585201465201465
5.419998514000326,1.6238095238095236,0.8034432234432234,2.585201465201465
5.422081912998692,1.6238095238095236,0.8034432234432234,2.585201465201465
5.423542801996518,1.6238095238095236,0.8034432234432234,2.585201465201465
5.427402442997845,1.6238095238095236,0.8034432234432234,2.585201465201465
5.432186416997865,1.6238095238095236,0.8034432234432234,2.585201465201465
5.4413354309945134,1.7382417582417582,0.796996336996337,2.9147985347985346
5.445363644997997,1.7382417582417582,0.796996336996337,2.9147985347985346
5.449100482001086,1.7382417582417582,0.796996336996337,2.9147985347985346
5.454506607995427,1.7382417582417582,0.796996336996337,2.9147985347985346
5.456970737999654,1.535970695970696,0.5068864468864469,3.3
5.462331860995619,1.535970695970696,0.5068864468864469,3.3
5.46428938399913,1.535970695970696,0.5068864468864469,3.3
5.4659768720011925,1.535970695970696,0.5068864468864469,3.3
5.469427717995131,1.535970695970696,0.5068864468864469,3.3
5.4702254259973415,0.30945054945054945,0.4448351648351648,1.7761172161172158
5.473904328995559,0.30945054945054945,0.4448351648351648,1.7761172161172158
5.477383442994324,0.30945054945054945,0.4448351648351648,1.7761172161172158
5.477517343999352,0.30945054945054945,0.4448351648351648,1.7761172161172158
5.48298519400123,0.30945054945054945,0.4448351648351648,1.7761172161172158
5.484574977999728,0.30945054945054945,0.4448351648351648,1.7761172161172158
5.490232084994204,0.30945054945054945,0.4448351648351648,1.7761172161172158
5.490404017997207,0.30945054945054945,0.4448351648351648,1.7761172161172158
5.496157317997131,0.30945054945054945,0.4448351648351648,1.7761172161172158
5.496270504998392,0.3457142857142857,0.19904761904761903,0.954945054945055
5.5040192079977714,0.3457142857142857,0.19904761904761903,0.954945054945055
5.5095332369965035,0.3457142857142857,0.19904761904761903,0.954945054945055
5.509816683996178,1.7398534798534797,1.7035897435897436,1.1402930402930402
5.514420442996197,1.7398534798534797,1.7035897435897436,1.1402930402930402
5.5146967449982185,1.7398534798534797,1.7035897435897436,1.1402930402930402
5.520084789997782,1.7398534798534797,1.7035897435897436,1.1402930402930402
5.52312066200102,1.7398534798534797,1.7035897435897436,1.1402930402930402
5.5234756380014005,1.7398534798534797,1.7035897435897436,1.1402930402930402
5.528268984999158,1.7398534798534797,1.7035897435897436,1.1402930402930402
5.5285478419973515,1.7398534798534797,1.7035897435897436,1.1402930402930402
5.532385827995313,1.7398534798534797,1.7035897435897436,1.1402930402930402
5.5380440969966,1.7398534798534797,1.7035897435897436,1.1402930402930402
5.5445446929952595,1.7398534798534797,1.7035897435897436,1.1402930402930402
5.548392689997854,1.7398534798534797,1.7035897435897436,1.1402930402930402
5.553766435994476,1.6689377289377287,1.9010256410256408,1.248278388278388
5.556654027001059,1.6689377289377287,1.9010256410256408,1.248278388278388
5.559330052994483,1.6689377289377287,1.9010256410256408,1.248278388278388
5.563526765996357,1.6689377289377287,1.9010256410256408,1.248278388278388
5.565417917998275,1.6689377289377287,1.9010256410256408,1.248278388278388
5.567774606999592,1.6689377289377287,1.9010256410256408,1.248278388278388
5.568107250997855,1.6689377289377287,1.9010256410256408,1.248278388278388
5.575346958001319,1.6689377289377287,1.9010256410256408,1.248278388278388
5.5793453980004415,1.6689377289377287,1.9010256410256408,1.248278388278388
5.58242840100138,1.6689377289377287,1.9010256410256408,1.248278388278388
5.584809726999083,1.6689377289377287,1.9010256410256408,1.248278388278388
5.584968306997325,1.6689377289377287,1.9010256410256408,1.248278388278388
5.594487674999982,1.6689377289377287,1.9010256410256408,1.248278388278388
5.599548207996122,1.6689377289377287,1.9010256410256408,1.248278388278388
5.6046464549945085,1.6689377289377287,1.9010256410256408,1.248278388278388
5.60897928099439,1.6689377289377287,1.9010256410256408,1.248278388278388
5.609208330999536,1.6689377289377287,1.9010256410256408,1.248278388278388
5.613803840999026,1.6689377289377287,1.9010256410256408,1.248278388278388
5.614120018995891,1.6689377289377287,1.9010256410256408,1.248278388278388
5.624517197000387,1.6689377289377287,1.9010256410256408,1.248278388278388
5.630775008998171,1.6689377289377287,1.9010256410256408,1.248278388278388
5.636613444999966,1.6689377289377287,1.9010256410256408,1.248278388278388
5.644966508996731,1.6689377289377287,1.9010256410256408,1.248278388278388
5.6501654149979,1.6689377289377287,1.9010256410256408,1.248278388278388
5.6524560129983,1.6689377289377287,1.9010256410256408,1.248278388278388
5.653033308000886,1.6689377289377287,1.9010256410256408,1.248278388278388
5.657554630000959,1.6689377289377287,1.9010256410256408,1.248278388278388
5.663126747000206,1.6689377289377287,1.9010256410256408,1.248278388278388
5.663384267994843,1.6689377289377287,1.9010256410256408,1.248278388278388
5.671461361998809,1.6689377289377287,1.9010256410256408,1.248278388278388
5.6802051880004,1.838168498168498,1.8027106227106224,1.2652014652014651
5.68869806699513,1.838168498168498,1.8027106227106224,1.2652014652014651
5.693151043000398,0.12329670329670328,0.26190476190476186,0.8727472527472527
5.693367651998415,1.999340659340659,0.6253479853479853,3.3
5.698304681995069,1.999340659340659,0.6253479853479853,3.3
5.704255780001404,0.7615384615384615,0.9259340659340659,0.4512820512820513
5.7112818639943725,0.04673992673992674,0.25142857142857145,1.083076923076923
5.7153732029983075,0.04673992673992674,0.25142857142857145,1.083076923076923
5.720342919994437,0.04673992673992674,0.25142857142857145,1.083076923076923
5.727112633998331,0.04673992673992674,0.25142857142857145,1.083076923076923
5.731030397997529,0.04673992673992674,0.25142857142857145,1.083076923076923
5.735817574997782,1.859120879120879,1.8156043956043957,1.3296703296703296
5.744734553998569,1.859120879120879,1.8156043956043957,1.3296703296703296
5.753539771998476,1.859120879120879,1.8156043956043957,1.3296703296703296
5.760204754995357,0.9315750915750916,1.1273992673992674,0.4819047619047619
5.764098150997597,0.9315750915750916,1.1273992673992674,0.4819047619047619
5.767922897997778,0.9315750915750916,1.1273992673992674,0.4819047619047619
5.7737380339967785,0.9315750915750916,1.1273992673992674,0.4819047619047619
5.780598968995037,0.9315750915750916,1.1273992673992674,0.4819047619047619
5.784577510996314,1.1588278388278386,1.2474725274725273,1.2095970695970695
5.789077723995433,1.1588278388278386,1.2474725274725273,1.2095970695970695
5.7895582470009685,1.1588278388278386,1.2474725274725273,1.2095970695970695
5.793946140998742,1.1588278388278386,1.2474725274725273,1.2095970695970695
5.794197299997904,1.1588278388278386,1.2474725274725273,1.2095970695970695
5.79891161499836,1.1588278388278386,1.2474725274725273,1.2095970695970695
5.79902588299592,1.1588278388278386,1.2474725274725273,1.2095970695970695
5.805243147995498,1.1588278388278386,1.2474725274725273,1.2095970695970695
5.809902635999606,0.006446886446886447,0.39003663003663,1.2386080586080586
5.815376576996641,0.006446886446886447,0.39003663003663,1.2386080586080586
5.817027283999778,1.1338461538461537,0.3046153846153846,2.1347252747252745
5.823233484996308,1.1338461538461537,0.3046153846153846,2.1347252747252745
5.826583674999711,1.1338461538461537,0.3046153846153846,2.1347252747252745
5.827766073998646,1.1338461538461537,0.3046153846153846,2.1347252747252745
5.828083802996844,0.8026373626373626,0.5842490842490843,2.348278388278388
5.835128467995673,0.8026373626373626,0.5842490842490843,2.348278388278388
5.840758252001251,0.8026373626373626,0.5842490842490843,2.348278388278388
5.846178314001008,0.8179487179487179,0.27238095238095233,1.8615384615384614
5.848472311998194,0.7212454212454212,0.42630036630036633,1.7745054945054943
5.848809204995632,0.9033699633699634,1.0387545787545787,0.5641025641025641
5.853663688998495,0.9033699633699634,1.0387545787545787,0.5641025641025641
5.8603246139973635,1.1225641025641024,0.3231501831501831,2.1516483516483516
5.864386130000639,0.896117216117216,1.0758241758241758,0.5890842490842491
5.868755897994561,0.896117216117216,1.0758241758241758,0.5890842490842491
5.869771510995633,0.896117216117216,1.0758241758241758,0.5890842490842491
5.870215926996025,0.896117216117216,1.0758241758241758,0.5890842490842491
5.874775944997964,0.896117216117216,1.0758241758241758,0.5890842490842491
5.875703233999957,1.9622710622710622,0.6994871794871794,2.788278388278388
5.877313774995855,1.9622710622710622,0.6994871794871794,2.788278388278388
5.881231627994566,1.9622710622710622,0.6994871794871794,2.788278388278388
5.885080735999509,1.9622710622710622,0.6994871794871794,2.788278388278388
5.8852109699946595,0.048351648351648346,0.32556776556776557,1.1749450549450549
5.890722101998108,0.048351648351648346,0.32556776556776557,1.1749450549450549
5.891577137997956,0.048351648351648346,0.32556776556776557,1.1749450549450549
5.893447075999575,0.048351648351648346,0.32556776556776557,1.1749450549450549
5.895838798998739,1.5464468864468863,0.44080586080586076,2.7858608058608056
5.896025825000834,1.5464468864468863,0.44080586080586076,2.7858608058608056
5.90087089699955,1.5464468864468863,0.44080586080586076,2.7858608058608056
5.908226302999537,2.0702564102564103,1.9961172161172158,1.2337728937728938
5.912085691001266,2.0702564102564103,1.9961172161172158,1.2337728937728938
5.917221329000313,1.9252014652014653,0.6116483516483516,3.1501098901098903
5.923597698994854,1.9252014652014653,0.6116483516483516,3.1501098901098903
5.927974931997596,0.09428571428571428,0.28285714285714286,1.153186813186813
5.928415099995618,0.9694505494505494,0.6043956043956044,2.5215384615384613
5.937298373995873,0.9694505494505494,0.6043956043956044,2.5215384615384613
5.944903524999972,0.1668131868131868,0.26996336996336995,0.21999999999999997
5.952430238001398,2.581978021978022,0.9307692307692307,2.5505494505494504
5.960470083999098,2.581978021978022,0.9307692307692307,2.5505494505494504
5.965957898995839,2.581978021978022,0.9307692307692307,2.5505494505494504
5.966249019998941,2.581978021978022,0.9307692307692307,2.5505494505494504
5.975377192000451,2.581978021978022,0.9307692307692307,2.5505494505494504
5.983044007996796,2.581978021978022,0.9307692307692307,2.5505494505494504
5.990499989995442,2.581978021978022,0.9307692307692307,2.5505494505494504
5.996457752000424,2.581978021978022,0.9307692307692307,2.5505494505494504
6.00206780499866,0.83003663003663,0.3158974358974359,1.8849084249084247
6.010707561996242,0.83003663003663,0.3158974358974359,1.8849084249084247
6.016844066994963,0.83003663003663,0.3158974358974359,1.8849084249084247
6.024145789000613,0.9533333333333331,0.31509157509157504,1.9936996336996335
6.028359915995679,0.8872527472527472,0.9920146520146519,0.5302564102564102
6.031192069996905,0.8872527472527472,0.9920146520146519,0.5302564102564102
6.033874465996632,0.8872527472527472,0.9920146520146519,0.5302564102564102
6.042377152996778,0.8872527472527472,0.9920146520146519,0.5302564102564102
6.047478321001108,0.8872527472527472,0.9920146520146519,0.5302564102564102
6.05066381800134,0.4214652014652014,0.49399267399267394,1.6536263736263734
6.051609488000395,0.4214652014652014,0.49399267399267394,1.6536263736263734
6.053055657001096,0.4214652014652014,0.49399267399267394,1.6536263736263734
6.061117348996049,0.4214652014652014,0.49399267399267394,1.6536263736263734
6.0665916059952,0.4214652014652014,0.49399267399267394,1.6536263736263734
6.068539425999916,0.4214652014652014,0.49399267399267394,1.6536263736263734
6.072255093000422,0.4214652014652014,0.49399267399267394,1.6536263736263734
6.077225041997735,0.4214652014652014,0.49399267399267394,1.6536263736263734
6.081240318999335,0.4214652014652014,0.49399267399267394,1.6536263736263734
6.084343591996003,0.4214652014652014,0.49399267399267394,1.6536263736263734
6.088309326994931,0.4214652014652014,0.49399267399267394,1.6536263736263734
6.091539525994449,0.47142857142857136,0.8638827838827838,0.6342124542124542
6.093183894001413,1.826886446886447,0.7534798534798535,2.6045421245421245
6.097066397000162,1.826886446886447,0.7534798534798535,2.6045421245421245
6.102682740995078,0.24659340659340656,0.27641025641025635,0.41018315018315016
6.103377065999666,0.24659340659340656,0.27641025641025635,0.41018315018315016
6.1081454519953695,0.24659340659340656,0.27641025641025635,0.41018315018315016
6.111895697998989,0.24659340659340656,0.27641025641025635,0.41018315018315016
6.116578582994407,0.24659340659340656,0.27641025641025635,0.41018315018315016
6.116739653996774,0.24659340659340656,0.27641025641025635,0.41018315018315016
6.123646946994995,0.7647619047619048,0.2804395604395604,1.8695970695970694
6.127318696999282,0.0,0.4472527472527472,1.2345787545787545
6.133557748995372,0.0,0.4472527472527472,1.2345787545787545
6.140053871000418,2.0146520146520146,0.6487179487179486,3.3
6.1434299949978595,2.0146520146520146,0.6487179487179486,3.3
6.1437516219957615,2.0146520146520146,0.6487179487179486,3.3
6.1486510839968105,2.0146520146520146,0.6487179487179486,3.3
6.155825342000753,0.8630769230769231,1.2257142857142858,0.5995604395604395
6.159860000996559,0.8630769230769231,1.2257142857142858,0.5995604395604395
6.162789021000208,0.8630769230769231,1.2257142857142858,0.5995604395604395
6.16570048200083,0.8630769230769231,1.2257142857142858,0.5995604395604395
6.16926999399584,0.8630769230769231,1.2257142857142858,0.5995604395604395
6.1693723629941815,0.8630769230769231,1.2257142857142858,0.5995604395604395
6.175466467997467,0.8630769230769231,1.2257142857142858,0.5995604395604395
6.179412120996858,0.8630769230769231,1.2257142857142858,0.5995604395604395
6.184351781994337,0.8630769230769231,1.2257142857142858,0.5995604395604395
6.189018222998129,0.8630769230769231,1.2257142857142858,0.5995604395604395
6.189244967994455,0.8630769230769231,1.2257142857142858,0.5995604395604395
