time,emg1,emg2,emg3
0.03156203799881041,2.6569230769230767,0.3876190476190476,1.1386813186813185
0.04538659899844788,2.6569230769230767,0.3876190476190476,1.1386813186813185
0.045683316988288425,2.6569230769230767,0.3876190476190476,1.1386813186813185
0.051507242998923175,2.6569230769230767,0.3876190476190476,1.1386813186813185
0.05849913400015794,2.6569230769230767,0.3876190476190476,1.1386813186813185
0.06298940999840852,2.4828571428571427,0.6430769230769231,0.4222710622710622
0.06323814899951685,2.4828571428571427,0.6430769230769231,0.4222710622710622
0.06954039999982342,3.3,3.2645421245421247,0.9186813186813186
0.07384935699519701,0.9960439560439559,2.5021978021978017,0.4013186813186813
0.07560948299942538,0.9960439560439559,2.5021978021978017,0.4013186813186813
0.0790402099955827,0.9960439560439559,2.5021978021978017,0.4013186813186813
0.07932453299872577,2.6488644688644687,2.5441025641025643,1.4352380952380952
0.08523146298830397,2.6488644688644687,2.5441025641025643,1.4352380952380952
0.09115287198801525,2.6488644688644687,2.5441025641025643,1.4352380952380952
0.09129117398697417,2.6488644688644687,2.5441025641025643,1.4352380952380952
0.09770796498924028,2.6488644688644687,2.5441025641025643,1.4352380952380952
0.101048226992134,2.958315018315018,1.7213186813186814,1.1467399267399265
0.10140530299395323,2.958315018315018,1.7213186813186814,1.1467399267399265
0.10613828599161934,2.958315018315018,1.7213186813186814,1.1467399267399265
0.11164582199126016,3.3,0.4456410256410256,1.1467399267399265
0.11252058899844997,3.3,0.4456410256410256,1.1467399267399265
0.11418911599321291,3.3,0.4456410256410256,1.1467399267399265
0.11798898999404628,3.3,1.0967765567765566,0.8082783882783882
0.12232581900025252,3.3,1.0967765567765566,0.8082783882783882
0.12459692099946551,3.3,1.0967765567765566,0.8082783882783882
0.12487242798670195,3.3,1.0967765567765566,0.8082783882783882
0.12925913199433126,3.3,1.0967765567765566,0.8082783882783882
0.13085382599092554,3.3,1.0967765567765566,0.8082783882783882
0.13456632899760734,0.8405128205128204,2.5086446886446883,0.3747252747252747
0.13983505799842533,0.8405128205128204,2.5086446886446883,0.3747252747252747
0.1428340939892223,0.8405128205128204,2.5086446886446883,0.3747252747252747
0.14581307298794854,1.7237362637362637,0.3473260073260073,0.6366300366300366
0.1488748829870019,1.7237362637362637,0.3473260073260073,0.6366300366300366
0.15175156798795797,1.7237362637362637,0.3473260073260073,0.6366300366300366
0.15762074899976142,1.7237362637362637,0.3473260073260073,0.6366300366300366
0.162504675987293,1.7237362637362637,0.3473260073260073,0.6366300366300366
0.16979982999328058,3.3,1.046007326007326,0.9194871794871795
0.17485540299094282,3.3,1.046007326007326,0.9194871794871795
0.17717928999627475,3.3,1.046007326007326,0.9194871794871795
0.17744944799051154,3.3,1.046007326007326,0.9194871794871795
0.18229624199739192,3.3,1.046007326007326,0.9194871794871795
0.187696581997443,3.3,0.8864468864468864,0.9799267399267398
0.19024315099522937,2.6649816849816848,3.103369963369963,1.85025641025641
0.19465318499715067,2.6536996336996337,2.545714285714286,1.51018315018315
0.19690024699957576,2.6536996336996337,2.545714285714286,1.51018315018315
0.19711253899731673,2.6536996336996337,2.545714285714286,1.51018315018315
0.20168202399509028,2.6536996336996337,2.545714285714286,1.51018315018315
0.20250632899114862,2.6536996336996337,2.545714285714286,1.51018315018315
0.20412128999305423,2.6536996336996337,2.545714285714286,1.51018315018315
0.20950609099236317,2.6536996336996337,2.545714285714286,1.51018315018315
0.210409968989552,2.6794871794871793,1.6866666666666665,1.8671794871794871
0.21199424199585337,2.6794871794871793,1.6866666666666665,1.8671794871794871
0.21579138599918224,2.6794871794871793,1.6866666666666665,1.8671794871794871
0.22091462199750822,2.6794871794871793,1.6866666666666665,1.8671794871794871
0.22393394299433567,2.6794871794871793,1.6866666666666665,1.8671794871794871
0.22633037599734962,2.6794871794871793,1.6866666666666665,1.8671794871794871
0.2267129279935034,2.6794871794871793,1.6866666666666665,1.8671794871794871
0.2336457369965501,2.6794871794871793,1.6866666666666665,1.8671794871794871
0.23673752599279396,1.9123076923076923,2.5787545787545785,0.2232234432234432
0.238161842993577,1.9123076923076923,2.5787545787545785,0.2232234432234432
0.249121816988918,1.9123076923076923,2.5787545787545785,0.2232234432234432
0.2583228799921926,1.4634432234432233,0.2868864468864469,0.5560439560439561
0.26565713599848095,3.3,1.913919413919414,1.1604395604395605
0.26963079698907677,3.3,1.913919413919414,1.1604395604395605
0.27339831298741046,3.3,1.913919413919414,1.1604395604395605
0.2800804669968784,3.3,1.913919413919414,1.1604395604395605
0.28324405298917554,3.3,1.913919413919414,1.1604395604395605
0.28484021699114237,3.3,1.913919413919414,1.1604395604395605
0.2886140369955683,3.3,1.913919413919414,1.1604395604395605
0.2946280670003034,3.3,1.913919413919414,1.1604395604395605
0.3026225159992464,3.3,1.913919413919414,1.1604395604395605
0.30964101798599586,3.3,1.913919413919414,1.1604395604395605
0.3150983099912992,3.3,1.913919413919414,1.1604395604395605
0.31537624399061315,3.3,1.9501831501831501,1.008937728937729
0.32197316699603107,3.3,1.9501831501831501,1.008937728937729
0.32616036898980383,3.3,1.9501831501831501,1.008937728937729
0.3283448439906351,3.3,1.9501831501831501,1.008937728937729
0.32871731799968984,3.3,0.5334798534798535,1.0186080586080586
0.3341422999947099,3.3,0.5334798534798535,1.0186080586080586
0.3344568119937321,3.3,2.1049084249084244,1.037948717948718
0.3392214709892869,2.215311355311355,0.5802197802197803,0.4045421245421245
0.3487390979862539,2.215311355311355,0.5802197802197803,0.4045421245421245
0.35343989898683503,2.6577289377289377,3.3,1.5254945054945055
0.3536521599889966,2.6577289377289377,3.3,1.5254945054945055
0.3586209079949185,2.6577289377289377,3.3,1.5254945054945055
0.36753037199378014,2.6577289377289377,3.3,1.5254945054945055
0.37462263098859694,2.6577289377289377,3.3,1.5254945054945055
0.3811562709888676,3.3,1.5093772893772892,1.0653479853479852
0.385263671996654,3.3,1.5093772893772892,1.0653479853479852
0.38847739399352577,3.3,1.5093772893772892,1.0653479853479852
0.3900676079938421,3.3,1.5093772893772892,1.0653479853479852
0.3948722749919398,3.3,1.5093772893772892,1.0653479853479852
0.3999196469958406,3.3,1.5093772893772892,1.0653479853479852
0.40305963798891753,3.3,1.5093772893772892,1.0653479853479852
0.4046984889864689,1.804322344322344,0.5036630036630036,0.6753113553113552
0.411226344993338,1.804322344322344,0.5036630036630036,0.6753113553113552
0.4152389079972636,1.804322344322344,0.5036630036630036,0.6753113553113552
0.41934873900027014,1.804322344322344,0.5036630036630036,0.6753113553113552
0.4225342029967578,1.804322344322344,0.5036630036630036,0.6753113553113552
0.4235027839895338,1.804322344322344,0.5036630036630036,0.6753113553113552
0.42444425699068233,1.804322344322344,0.5036630036630036,0.6753113553113552
0.42724907099909615,1.804322344322344,0.5036630036630036,0.6753113553113552
0.43127216398715973,1.804322344322344,0.5036630036630036,0.6753113553113552
0.4330012889986392,1.804322344322344,0.5036630036630036,0.6753113553113552
0.4378579169861041,3.3,1.518241758241758,1.0895238095238093
0.44504466699436307,3.133992673992674,0.7196336996336996,0.7276923076923076
0.45151055298629217,1.4876190476190476,0.3295970695970696,0.5608791208791208
0.4569692439981736,2.9744322344322343,2.4780219780219777,0.9138461538461539
0.4571587139944313,2.9744322344322343,2.4780219780219777,0.9138461538461539
0.46477278099337127,3.3,1.8728205128205127,0.6986813186813187
0.46909129999403376,2.6617582417582417,3.3,1.7213186813186814
0.46998571598669514,2.6585347985347987,1.527106227106227,1.71003663003663
0.47159753399319015,2.6585347985347987,1.527106227106227,1.71003663003663
0.4765679319971241,2.6585347985347987,1.527106227106227,1.71003663003663
0.48156645298877265,2.6585347985347987,1.527106227106227,1.71003663003663
0.4871602159983013,2.6585347985347987,1.527106227106227,1.71003663003663
0.4974090109899407,2.6585347985347987,1.527106227106227,1.71003663003663
0.5055163919896586,2.6585347985347987,1.527106227106227,1.71003663003663
0.5110439290001523,2.6585347985347987,3.3,1.3909157509157508
0.5122214179864386,2.6585347985347987,3.3,1.3909157509157508
0.5124779059988214,2.6585347985347987,3.3,1.3909157509157508
0.5173213659872999,2.6585347985347987,3.3,1.3909157509157508
0.5218413900001906,2.6585347985347987,3.3,1.3909157509157508
0.5220884419977665,2.6585347985347987,3.3,1.3909157509157508
0.5304233729984844,2.6585347985347987,3.3,1.3909157509157508
0.5357027059944812,2.6577289377289377,3.3,1.5528937728937728
0.5374676449864637,2.6577289377289377,3.3,1.5528937728937728
0.5400906159920851,3.3,3.3,1.1386813186813185
0.5459937099949457,2.9341391941391937,0.4142124542124542,0.9106227106227106
0.5507158129912568,1.328058608058608,0.3416849816849817,0.5415384615384615
0.5560684409865644,3.179120879120879,2.2717216117216115,0.8638827838827838
0.5576240639929892,3.179120879120879,2.2717216117216115,0.8638827838827838
0.5654706019995501,3.179120879120879,2.2717216117216115,0.8638827838827838
0.5703748029918643,3.179120879120879,2.2717216117216115,0.8638827838827838
0.5750516199914273,3.179120879120879,2.2717216117216115,0.8638827838827838
0.5753511919901939,3.3,2.3458608058608057,1.0016849816849815
0.5821215949981706,3.3,2.3458608058608057,1.0016849816849815
0.5859632789943134,3.3,2.3458608058608057,1.0016849816849815
0.5906546959886327,3.3,2.3458608058608057,1.0016849816849815
0.5908709399955114,3.3,2.3458608058608057,1.0016849816849815
0.5994043249957031,3.3,2.3458608058608057,1.0016849816849815
0.6062815259938361,3.3,2.3458608058608057,1.0016849816849815
0.6102650969987735,3.3,2.3458608058608057,1.0016849816849815
0.6132409169949824,3.3,2.3458608058608057,1.0016849816849815
0.6157443139964016,2.6649816849816848,1.9106959706959707,1.2861538461538462
0.6207817269896623,2.6649816849816848,1.9106959706959707,1.2861538461538462
0.6248550449963659,2.6649816849816848,1.9106959706959707,1.2861538461538462
0.6291293929971289,1.4432967032967032,0.21677655677655677,0.5358974358974359
0.6301048339955742,1.4432967032967032,0.21677655677655677,0.5358974358974359
0.6310628289938904,1.4432967032967032,0.21677655677655677,0.5358974358974359
0.6320130749954842,1.4432967032967032,0.21677655677655677,0.5358974358974359
0.633036170998821,1.4432967032967032,0.21677655677655677,0.5358974358974359
0.6339156189933419,1.4432967032967032,0.21677655677655677,0.5358974358974359
0.6355325619952055,1.4432967032967032,0.21677655677655677,0.5358974358974359
0.6401558169891359,1.4432967032967032,0.21677655677655677,0.5358974358974359
0.6404519449861255,1.4432967032967032,0.21677655677655677,0.5358974358974359
0.6471919159957906,1.4432967032967032,0.21677655677655677,0.5358974358974359
0.6513935269904323,1.4432967032967032,0.21677655677655677,0.5358974358974359
0.6545168369921157,1.4432967032967032,0.21677655677655677,0.5358974358974359
0.6554373609978938,1.4432967032967032,0.21677655677655677,0.5358974358974359
0.6571559459989658,1.4432967032967032,0.21677655677655677,0.5358974358974359
0.6609327269979985,1.4432967032967032,0.21677655677655677,0.5358974358974359
0.6667740929988213,3.3,0.6922344322344323,1.003296703296703
0.6669280739879468,2.681098901098901,0.5608791208791208,1.2023443223443222
0.6715488379995804,2.681098901098901,0.5608791208791208,1.2023443223443222
0.6723686129989801,2.681098901098901,0.5608791208791208,1.2023443223443222
0.6739505879959324,2.681098901098901,0.5608791208791208,1.2023443223443222
0.679102153997519,2.681098901098901,0.5608791208791208,1.2023443223443222
0.681648559999303,2.681098901098901,0.5608791208791208,1.2023443223443222
0.6874117619881872,2.681098901098901,0.5608791208791208,1.2023443223443222
0.6875329339964082,2.681098901098901,0.5608791208791208,1.2023443223443222
0.692149939990486,2.681098901098901,0.5608791208791208,1.2023443223443222
0.6924579999904381,3.1904029304029304,2.8237362637362633,0.41340659340659336
0.6987460569944233,3.1904029304029304,2.8237362637362633,0.41340659340659336
0.7025766949955141,3.1904029304029304,2.8237362637362633,0.41340659340659336
0.7069553379988065,1.4231501831501832,0.46498168498168496,0.5350915750915751
0.7088131889904616,1.4231501831501832,0.46498168498168496,0.5350915750915751
0.7108628409914672,1.4231501831501832,0.46498168498168496,0.5350915750915751
0.7134889379958622,1.4231501831501832,0.46498168498168496,0.5350915750915751
0.7174123029981274,1.4231501831501832,0.46498168498168496,0.5350915750915751
0.7222043969959486,1.4231501831501832,0.46498168498168496,0.5350915750915751
0.7282555029960349,1.9848351648351645,0.41340659340659336,0.6753113553113552
0.7339895829936722,1.9848351648351645,0.41340659340659336,0.6753113553113552
0.7348412929859478,1.9848351648351645,0.41340659340659336,0.6753113553113552
0.7364484179997817,1.9848351648351645,0.41340659340659336,0.6753113553113552
0.74283236899646,1.9848351648351645,0.41340659340659336,0.6753113553113552
0.7467844769998919,3.3,2.6778754578754578,0.7075457875457875
0.7501188119931612,3.3,2.6778754578754578,0.7075457875457875
0.7503156879974995,3.3,2.6778754578754578,0.7075457875457875
0.7555498579895357,3.3,2.6778754578754578,0.7075457875457875
0.7601811999920756,3.3,2.6778754578754578,0.7075457875457875
0.766311916988343,3.3,2.6778754578754578,0.7075457875457875
0.7716635869874153,3.3,2.6778754578754578,0.7075457875457875
0.7732291229913244,3.3,2.6778754578754578,0.7075457875457875
0.7782046109932708,3.3,2.6778754578754578,0.7075457875457875
0.7824544919858454,2.779413919413919,0.7293040293040293,0.5737728937728938
0.7840903889882611,2.779413919413919,0.7293040293040293,0.5737728937728938
0.7885189219960012,2.779413919413919,0.7293040293040293,0.5737728937728938
0.7900781019998249,2.6682051282051282,3.3,1.7825641025641024
0.7944495669944445,2.6682051282051282,3.3,1.7825641025641024
0.7954069659899687,2.698827838827839,1.502930402930403,1.120952380952381
0.7963583709934028,2.698827838827839,1.502930402930403,1.120952380952381
0.7973145619907882,2.698827838827839,1.502930402930403,1.120952380952381
0.798927088995697,2.698827838827839,1.502930402930403,1.120952380952381
0.802708196992171,2.698827838827839,1.502930402930403,1.120952380952381
0.8081184459879296,2.698827838827839,1.502930402930403,1.120952380952381
0.8100593799899798,3.05018315018315,2.5553846153846154,1.4118681318681316
0.8121093149966327,3.05018315018315,2.5553846153846154,1.4118681318681316
0.8130048709863331,3.05018315018315,2.5553846153846154,1.4118681318681316
0.8146716029878007,3.3,1.743076923076923,1.0597069597069597
0.8178196109947748,3.3,1.743076923076923,1.0597069597069597
0.8202415529958671,3.3,1.743076923076923,1.0597069597069597
0.825774710989208,3.3,1.743076923076923,1.0597069597069597
0.8278916089911945,3.3,1.743076923076923,1.0597069597069597
0.8290945179905975,3.3,1.743076923076923,1.0597069597069597
0.8292598539992468,3.3,1.743076923076923,1.0597069597069597
0.8355164259992307,0.9775091575091575,2.6690109890109888,0.0136996336996337
0.839574563986389,0.9775091575091575,2.6690109890109888,0.0136996336996337
0.8429051119892392,0.9775091575091575,2.6690109890109888,0.0136996336996337
0.843175263988087,0.9775091575091575,2.6690109890109888,0.0136996336996337
0.8487500469927909,0.9775091575091575,2.6690109890109888,0.0136996336996337
0.8490283589926548,0.9775091575091575,2.6690109890109888,0.0136996336996337
0.8542645039997296,0.9775091575091575,2.6690109890109888,0.0136996336996337
0.8575678739871364,0.9775091575091575,2.6690109890109888,0.0136996336996337
0.8585452150000492,0.9775091575091575,2.6690109890109888,0.0136996336996337
0.8606673079921165,0.9775091575091575,2.6690109890109888,0.0136996336996337
0.8609781279956223,0.9775091575091575,2.6690109890109888,0.0136996336996337
0.8659584999986691,0.9775091575091575,2.6690109890109888,0.0136996336996337
0.87162246099615,1.402197802197802,0.24659340659340656,0.5632967032967032
0.8718640679871896,1.402197802197802,0.24659340659340656,0.5632967032967032
0.8774067979975371,1.402197802197802,0.24659340659340656,0.5632967032967032
0.8803690259956056,1.402197802197802,0.24659340659340656,0.5632967032967032
0.8831208359915763,2.352307692307692,0.5036630036630036,0.7583150183150182
0.8854893989919219,1.4795604395604396,0.29413919413919415,0.5673260073260072
0.885764033999294,1.4795604395604396,0.29413919413919415,0.5673260073260072
0.8911995189992012,2.6617582417582417,1.3772161172161173,1.6238095238095236
0.8921295379986987,2.673040293040293,3.3,1.402197802197802
0.8942486659943825,2.673040293040293,3.3,1.402197802197802
0.8946004339959472,2.673040293040293,3.3,1.402197802197802
0.899857090000296,2.673040293040293,3.3,1.402197802197802
0.9015296809957363,2.673040293040293,3.3,1.402197802197802
0.9052116559905699,2.673040293040293,3.3,1.402197802197802
0.912974310995196,1.3852747252747253,0.27318681318681315,0.5165567765567766
0.9183709049975732,1.8607326007326006,2.501391941391941,0.6027838827838827
0.9186299439897994,1.8607326007326006,2.501391941391941,0.6027838827838827
0.9238478889892576,3.3,0.5858608058608058,0.9726739926739927
0.9264695689926157,1.3868864468864468,0.28849816849816845,0.5254212454212454
0.933965193995391,1.3868864468864468,0.28849816849816845,0.5254212454212454
0.9387098199949833,1.502124542124542,2.689157509157509,0.10073260073260072
0.9389066609874135,1.502124542124542,2.689157509157509,0.10073260073260072
0.9448292339948239,3.3,0.6567765567765567,1.012967032967033
0.9505282439931761,3.3,0.6567765567765567,1.012967032967033
0.9507729619945167,3.3,0.6567765567765567,1.012967032967033
0.955561452996335,3.3,0.6567765567765567,1.012967032967033
0.9617047329957131,3.3,0.7123809523809523,0.7421978021978022
0.9659266039961949,3.3,0.7123809523809523,0.7421978021978022
0.9676211749901995,3.3,0.7123809523809523,0.7421978021978022
0.9708105219906429,3.3,0.7123809523809523,0.7421978021978022
0.972434320996399,3.3,0.7123809523809523,0.7421978021978022
0.977804803987965,3.3,0.7123809523809523,0.7421978021978022
0.9815496230003191,3.3,0.7123809523809523,0.7421978021978022
0.9876720049942378,3.3,0.7123809523809523,0.7421978021978022
0.9914578519965289,3.3,0.7123809523809523,0.7421978021978022
0.9985689599998295,0.46498168498168496,2.594065934065934,0.27399267399267396
1.003204607986845,3.3,0.8195604395604396,0.7986080586080586
1.0035055409971392,3.3,0.8195604395604396,0.7986080586080586
1.0082140869926661,3.3,0.8195604395604396,0.7986080586080586
1.0084397269965848,3.3,0.8195604395604396,0.7986080586080586
1.015091453999048,3.3,0.8195604395604396,0.7986080586080586
1.0192366559931543,3.3,0.8195604395604396,0.7986080586080586
1.022256167998421,3.3,0.8195604395604396,0.7986080586080586
1.0245499629963888,3.3,0.8195604395604396,0.7986080586080586
1.0248615029995563,3.3,0.8195604395604396,0.7986080586080586
1.0310830689995782,3.3,0.8195604395604396,0.7986080586080586
1.0349220919888467,1.6367032967032966,2.6069597069597066,0.5882783882783883
1.0402325259929057,1.6367032967032966,2.6069597069597066,0.5882783882783883
1.043331776993,1.6367032967032966,2.6069597069597066,0.5882783882783883
1.0455846759869019,1.6367032967032966,2.6069597069597066,0.5882783882783883
1.0458972729975358,1.6367032967032966,2.6069597069597066,0.5882783882783883
1.0505966439959593,1.6367032967032966,2.6069597069597066,0.5882783882783883
1.0508264449890703,2.718974358974359,2.4199999999999995,0.8252014652014652
1.0553912599862088,2.718974358974359,2.4199999999999995,0.8252014652014652
1.0562528709997423,2.7125274725274724,0.7712087912087912,0.5786080586080585
1.0577756669954397,2.7125274725274724,0.7712087912087912,0.5786080586080585
1.0628388979966985,2.7125274725274724,0.7712087912087912,0.5786080586080585
1.0660980489919893,2.7125274725274724,0.7712087912087912,0.5786080586080585
1.067030526988674,2.6665934065934067,1.614139194139194,1.876043956043956
1.068605721986387,2.6665934065934067,1.614139194139194,1.876043956043956
1.0725387019920163,2.6665934065934067,1.614139194139194,1.876043956043956
1.0772638839989668,2.6665934065934067,1.614139194139194,1.876043956043956
1.0833549620001577,2.6665934065934067,1.614139194139194,1.876043956043956
1.0870478449942311,2.6665934065934067,1.614139194139194,1.876043956043956
1.0931373079947662,2.6665934065934067,1.614139194139194,1.876043956043956
1.098925757993129,2.6665934065934067,1.614139194139194,1.876043956043956
1.1041001319972565,2.6488644688644687,3.3,1.4231501831501832
1.1070890769915422,3.1178754578754577,2.4756043956043956,0.7357509157509158
1.110098006989574,3.1178754578754577,2.4756043956043956,0.7357509157509158
1.1125046009983635,3.1178754578754577,2.4756043956043956,0.7357509157509158
1.1126776369928848,3.1178754578754577,2.4756043956043956,0.7357509157509158
1.1178346999950008,3.1178754578754577,2.4756043956043956,0.7357509157509158
1.1210561139887432,3.1178754578754577,2.4756043956043956,0.7357509157509158
1.1225701689982088,1.5915750915750915,0.36747252747252745,0.6543589743589743
1.1279481849924196,1.5915750915750915,0.36747252747252745,0.6543589743589743
1.1294554849882843,1.5915750915750915,0.36747252747252745,0.6543589743589743
1.1341421989927767,1.5915750915750915,0.36747252747252745,0.6543589743589743
1.134478574997047,1.5915750915750915,0.36747252747252745,0.6543589743589743
1.1398220929986564,1.5915750915750915,0.36747252747252745,0.6543589743589743
1.141439579994767,1.5915750915750915,0.36747252747252745,0.6543589743589743
1.146048050999525,1.5915750915750915,0.36747252747252745,0.6543589743589743
1.1462386839993997,1.5915750915750915,0.36747252747252745,0.6543589743589743
1.151691111997934,1.5915750915750915,0.36747252747252745,0.6543589743589743
1.1539317989954725,3.3,2.2104761904761903,0.9605860805860806
1.1541813249932602,3.3,2.2104761904761903,0.9605860805860806
1.1587340979895089,3.3,2.2104761904761903,0.9605860805860806
1.1595755819871556,3.3,2.2104761904761903,0.9605860805860806
1.1611183259956306,3.3,2.2104761904761903,0.9605860805860806
1.1675822629913455,1.2232967032967033,0.2796336996336996,0.49560439560439556
1.1720066039997619,1.2232967032967033,0.2796336996336996,0.49560439560439556
1.1729147999867564,1.2232967032967033,0.2796336996336996,0.49560439560439556
1.1747001269977773,1.2232967032967033,0.2796336996336996,0.49560439560439556
1.1786672669986729,1.2232967032967033,0.2796336996336996,0.49560439560439556
1.1807594869897002,1.2232967032967033,0.2796336996336996,0.49560439560439556
1.1810714169987477,1.2232967032967033,0.2796336996336996,0.49560439560439556
1.1858067809953354,1.2232967032967033,0.2796336996336996,0.49560439560439556
1.186046989998431,1.2232967032967033,0.2796336996336996,0.49560439560439556
1.192553147993749,1.2232967032967033,0.2796336996336996,0.49560439560439556
1.1963860279938672,2.655311355311355,2.545714285714286,1.4255677655677657
1.2007591509900521,2.655311355311355,2.545714285714286,1.4255677655677657
1.201050158997532,2.655311355311355,2.545714285714286,1.4255677655677657
1.2070313229924068,2.655311355311355,2.545714285714286,1.4255677655677657
1.211280153991538,3.3,0.4964102564102564,1.1813919413919414
1.2138529369985918,3.3,0.4964102564102564,1.1813919413919414
1.2179204779968131,3.3,0.4964102564102564,1.1813919413919414
1.2211548909981502,3.3,0.4964102564102564,1.1813919413919414
1.2222263849980664,3.3,0.4964102564102564,1.1813919413919414
1.2225600899982965,3.3,0.4964102564102564,1.1813919413919414
1.2279999859892996,3.3,0.4964102564102564,1.1813919413919414
1.2295446409989381,3.3,0.4964102564102564,1.1813919413919414
1.2340062679868424,3.3,0.4964102564102564,1.1813919413919414
1.2348601369885728,3.074358974358974,2.4345054945054945,0.8920879120879119
1.2364509659964824,3.074358974358974,2.4345054945054945,0.8920879120879119
1.2411080319870962,3.074358974358974,2.4345054945054945,0.8920879120879119
1.2413936209923122,3.3,0.7567032967032966,1.0113553113553113
1.2464042469946435,3.3,0.7567032967032966,1.0113553113553113
1.250729549996322,3.3,0.7567032967032966,1.0113553113553113
1.2523453679896193,2.7584615384615385,2.4385347985347985,0.809084249084249
1.2567328999866731,2.7584615384615385,2.4385347985347985,0.809084249084249
1.257621354990988,2.7584615384615385,2.4385347985347985,0.809084249084249
1.25919322099071,2.7584615384615385,2.4385347985347985,0.809084249084249
1.2629691929905675,2.7584615384615385,2.4385347985347985,0.809084249084249
1.2630914019973716,2.7584615384615385,2.4385347985347985,0.809084249084249
1.2675099569896702,2.7584615384615385,2.4385347985347985,0.809084249084249
1.2691393649874954,2.7584615384615385,2.4385347985347985,0.809084249084249
1.273040616986691,2.7584615384615385,2.4385347985347985,0.809084249084249
1.2768003379896982,2.7584615384615385,2.4385347985347985,0.809084249084249
1.2811931609903695,3.1646153846153844,0.713992673992674,0.6825641025641025
1.2820841039938387,3.1646153846153844,0.713992673992674,0.6825641025641025
1.2838705009926343,3.1646153846153844,0.713992673992674,0.6825641025641025
1.286947518994566,3.1646153846153844,0.713992673992674,0.6825641025641025
1.2892206709948368,3.1646153846153844,0.713992673992674,0.6825641025641025
1.289528489985969,3.1646153846153844,0.713992673992674,0.6825641025641025
1.2946617059933487,3.1646153846153844,0.713992673992674,0.6825641025641025
1.2984364339936292,3.1646153846153844,0.713992673992674,0.6825641025641025
1.3029049379983917,3.3,0.734139194139194,1.004102564102564
1.303878510996583,3.3,0.734139194139194,1.004102564102564
1.3041749439871637,3.3,0.734139194139194,1.004102564102564
1.3093561219866388,3.3,0.734139194139194,1.004102564102564
1.3123415599984583,3.3,0.734139194139194,1.004102564102564
1.315291280989186,3.3,0.734139194139194,1.004102564102564
1.3182623669999884,3.3,0.734139194139194,1.004102564102564
1.3207033429935109,3.3,0.734139194139194,1.004102564102564
1.325990675992216,3.3,0.734139194139194,1.004102564102564
1.3297101099888096,3.3,0.734139194139194,1.004102564102564
1.3352004999906057,3.3,0.734139194139194,1.004102564102564
1.336255482994602,2.1589010989010986,0.48754578754578753,0.38036630036630037
1.3371212659985758,2.1589010989010986,0.48754578754578753,0.38036630036630037
1.3386572749877814,2.1589010989010986,0.48754578754578753,0.38036630036630037
1.3432095919997664,2.1589010989010986,0.48754578754578753,0.38036630036630037
1.3447542259964393,1.846227106227106,1.3063003663003663,0.5882783882783883
1.348457010986749,2.6536996336996337,3.3,1.44007326007326
1.3535751499875914,3.3,0.9718681318681318,0.8292307692307692
1.3579913689900422,3.3,0.9718681318681318,0.8292307692307692
1.3588584249955602,3.3,0.9718681318681318,0.8292307692307692
1.3604525799892144,3.3,0.9718681318681318,0.8292307692307692
1.36545524399844,3.3,0.9718681318681318,0.8292307692307692
1.3700904789875494,3.3,0.9718681318681318,0.8292307692307692
1.3702381219918607,3.3,0.9718681318681318,0.8292307692307692
1.375645871987217,3.3,0.9718681318681318,0.8292307692307692
1.3771540299931075,3.3,0.9718681318681318,0.8292307692307692
1.381528106998303,2.66014652014652,3.3,1.515018315018315
1.3831095059867948,2.299120879120879,0.38036630036630037,0.7655677655677655
1.3874670129880542,2.299120879120879,0.38036630036630037,0.7655677655677655
1.389961159991799,2.299120879120879,0.38036630036630037,0.7655677655677655
1.3951197479909752,2.299120879120879,0.38036630036630037,0.7655677655677655
1.398855380990426,3.3,1.7205128205128206,1.0145787545787546
1.4041762790002394,3.3,1.7205128205128206,1.0145787545787546
1.4063940059859306,3.3,1.7205128205128206,1.0145787545787546
1.4072045239881845,3.3,1.7205128205128206,1.0145787545787546
1.408726770998328,3.3,1.7205128205128206,1.0145787545787546
1.4131698860001052,3.3,1.7205128205128206,1.0145787545787546
1.4147057949885493,3.3,1.7205128205128206,1.0145787545787546
1.419027494994225,3.3,1.7205128205128206,1.0145787545787546
1.4205490839958657,3.3,1.7205128205128206,1.0145787545787546
1.4250612369942246,3.3,1.7205128205128206,1.0145787545787546
1.4258939259889303,3.3,1.7205128205128206,1.0145787545787546
1.4274863379978342,3.3,1.7205128205128206,1.0145787545787546
1.4319485139858443,3.3,1.7205128205128206,1.0145787545787546
1.4321747340000002,3.3,1.7205128205128206,1.0145787545787546
1.4369686329882825,3.3,1.7205128205128206,1.0145787545787546
1.437235649995273,3.3,1.7205128205128206,1.0145787545787546
1.442084646987496,3.3,1.7205128205128206,1.0145787545787546
1.4468908489943715,3.3,0.9259340659340659,0.9887912087912087
1.4522830319911009,3.3,0.9259340659340659,0.9887912087912087
1.4545300289901206,3.3,0.9259340659340659,0.9887912087912087
1.4547534569865093,2.4006593406593404,0.6052014652014651,0.4802930402930403
1.4600484699913068,2.4006593406593404,0.6052014652014651,0.4802930402930403
1.4632109639933333,2.6198534798534796,0.7019047619047618,0.5068864468864469
1.4648278479871806,2.6198534798534796,0.7019047619047618,0.5068864468864469
1.4684953339892672,2.6198534798534796,0.7019047619047618,0.5068864468864469
1.4686609199998202,2.6198534798534796,0.7019047619047618,0.5068864468864469
1.4738328969979193,2.6198534798534796,0.7019047619047618,0.5068864468864469
1.4783781959995395,2.6198534798534796,0.7019047619047618,0.5068864468864469
1.4785538279975299,3.145274725274725,1.1644688644688646,0.6487179487179486
1.483860205989913,3.145274725274725,1.1644688644688646,0.6487179487179486
1.4860819729947252,3.145274725274725,1.1644688644688646,0.6487179487179486
1.4863100499933353,3.145274725274725,1.1644688644688646,0.6487179487179486
1.4915731589862844,3.145274725274725,1.1644688644688646,0.6487179487179486
1.494622244994389,2.655311355311355,2.548937728937729,1.3909157509157508
1.4962342199869454,2.655311355311355,2.548937728937729,1.3909157509157508
1.500075937990914,2.655311355311355,2.548937728937729,1.3909157509157508
1.5043762999994215,2.655311355311355,2.548937728937729,1.3909157509157508
1.5059420979960123,2.66014652014652,3.3,1.2555311355311354
1.5096559819940012,2.66014652014652,3.3,1.2555311355311354
1.5143802679958753,2.66014652014652,3.3,1.2555311355311354
1.514572670988855,2.537655677655678,0.7502564102564102,0.5149450549450549
1.5192363869864494,2.537655677655678,0.7502564102564102,0.5149450549450549
1.519433035995462,2.537655677655678,0.7502564102564102,0.5149450549450549
1.5243296229891712,2.537655677655678,0.7502564102564102,0.5149450549450549
1.5290367059933487,2.537655677655678,0.7502564102564102,0.5149450549450549
1.5342697389860405,2.5134798534798533,2.597289377289377,0.33926739926739924
1.537721453991253,2.407106227106227,0.6124542124542125,0.469010989010989
1.5380402019945905,2.407106227106227,0.6124542124542125,0.469010989010989
1.543252625997411,2.407106227106227,0.6124542124542125,0.469010989010989
1.5463571319996845,3.3,0.78007326007326,1.02021978021978
1.5487150449916953,2.655311355311355,0.8920879120879119,1.4054212454212454
1.5489237239962677,2.655311355311355,0.8920879120879119,1.4054212454212454
1.5536333449999802,2.655311355311355,0.8920879120879119,1.4054212454212454
1.5538701109908288,2.655311355311355,0.8920879120879119,1.4054212454212454
1.5584933349891799,2.655311355311355,0.8920879120879119,1.4054212454212454
1.558745848989929,2.655311355311355,0.8920879120879119,1.4054212454212454
1.5633119629928842,2.655311355311355,0.8920879120879119,1.4054212454212454
1.5641664889990352,2.655311355311355,0.8920879120879119,1.4054212454212454
1.565689825991285,2.655311355311355,0.8920879120879119,1.4054212454212454
1.5703900919907028,2.6504761904761907,0.7091575091575092,1.3514285714285714
1.5705613600002835,3.3,3.3,0.6366300366300366
1.575653631996829,3.3,3.3,0.6366300366300366
1.5793743269896368,3.3,3.3,0.6366300366300366
1.5842008849867852,3.216190476190476,1.7479120879120877,0.7446153846153846
1.5889692189957714,3.216190476190476,1.7479120879120877,0.7446153846153846
1.5891468549962156,3.216190476190476,1.7479120879120877,0.7446153846153846
1.5938345209870022,3.216190476190476,1.7479120879120877,0.7446153846153846
1.594020800999715,3.216190476190476,1.7479120879120877,0.7446153846153846
1.5986959000001661,2.4941391941391937,0.6108424908424909,0.5052747252747253
1.5994355570001062,2.4941391941391937,0.6108424908424909,0.5052747252747253
1.6015058199991472,2.4941391941391937,0.6108424908424909,0.5052747252747253
1.6029774509952404,2.4941391941391937,0.6108424908424909,0.5052747252747253
1.6077898509975057,2.4941391941391937,0.6108424908424909,0.5052747252747253
1.607990948992665,2.4941391941391937,0.6108424908424909,0.5052747252747253
1.6131720489938743,2.4941391941391937,0.6108424908424909,0.5052747252747253
1.6161114849965088,2.4941391941391937,0.6108424908424909,0.5052747252747253
1.6190121629915666,2.4941391941391937,0.6108424908424909,0.5052747252747253
1.6225997369911056,2.4941391941391937,0.6108424908424909,0.5052747252747253
1.622788757988019,1.162051282051282,0.24578754578754577,0.49882783882783877
1.6278263449930819,1.162051282051282,0.24578754578754577,0.49882783882783877
1.6321536349860253,3.3,3.2419780219780217,0.7430036630036629
1.633696101998794,3.3,1.7624175824175823,0.9654212454212454
1.6381224340002518,3.3,1.7624175824175823,0.9654212454212454
1.638990091989399,3.3,1.7624175824175823,0.9654212454212454
1.6406027479970362,3.3,1.7624175824175823,0.9654212454212454
1.6448535689996788,3.3,1.7624175824175823,0.9654212454212454
1.6464581719919806,0.9904029304029303,0.31750915750915754,0.4005128205128205
1.65046960998734,0.9904029304029303,0.31750915750915754,0.4005128205128205
1.6544450699875597,3.3,2.432893772893773,0.8920879120879119
1.6579301669989945,3.3,1.278901098901099,0.8284249084249083
1.6581974679866107,3.3,1.278901098901099,0.8284249084249083
1.6627916189900134,3.3,1.278901098901099,0.8284249084249083
1.6630554129951634,1.7374358974358974,0.29655677655677654,0.6471062271062271
1.6673928939999314,1.7374358974358974,0.29655677655677654,0.6471062271062271
1.670078871989972,1.7374358974358974,0.29655677655677654,0.6471062271062271
1.674070266992203,1.7374358974358974,0.29655677655677654,0.6471062271062271
1.6774844619940268,2.651282051282051,1.942124542124542,1.2555311355311354
1.678308433998609,3.3,2.294285714285714,0.8743589743589744
1.6797775459999684,3.3,2.294285714285714,0.8743589743589744
1.6843707199877826,3.3,2.294285714285714,0.8743589743589744
1.6846548599860398,3.3,2.294285714285714,0.8743589743589744
1.68927857199742,3.3,2.294285714285714,0.8743589743589744
1.6900846589996945,3.3,2.294285714285714,0.8743589743589744
1.691581489998498,3.3,2.294285714285714,0.8743589743589744
1.696648857992841,3.3,2.294285714285714,0.8743589743589744
1.700282931997208,3.3,2.294285714285714,0.8743589743589744
1.7003998039872386,3.3,2.294285714285714,0.8743589743589744
1.7047476209991146,3.3,2.294285714285714,0.8743589743589744
1.7062950849940535,3.3,2.294285714285714,0.8743589743589744
1.7107370179874124,3.3,2.294285714285714,0.8743589743589744
1.7116101379942847,3.3,2.294285714285714,0.8743589743589744
1.7132083009928465,3.3,2.294285714285714,0.8743589743589744
1.7169337249943055,3.3,2.294285714285714,0.8743589743589744
1.7220224880002206,3.3,2.294285714285714,0.8743589743589744
1.7268043489893898,1.378021978021978,0.23369963369963367,0.5649084249084249
1.7319276919879485,2.6706227106227107,2.3378021978021977,1.9292307692307693
1.734907800986548,2.6706227106227107,2.3378021978021977,1.9292307692307693
1.7385476539930096,3.016336996336996,0.8179487179487179,0.6446886446886446
1.7440562909905566,3.3,3.3,1.3627106227106225
1.7457197719922988,3.3,3.3,1.3627106227106225
1.7487022739951499,3.3,3.3,1.3627106227106225
1.7517006079870043,3.3,3.3,1.3627106227106225
1.7548028429882834,3.3,3.3,1.3627106227106225
1.756328831994324,3.3,3.3,1.3627106227106225
1.7610026359907351,3.3,3.3,1.3627106227106225
1.7662074089894304,3.3,3.3,1.3627106227106225
1.7691729079961078,3.3,3.3,1.3627106227106225
1.7721977409964893,3.3,3.3,1.3627106227106225
1.774529229995096,3.3,3.3,1.3627106227106225
1.7747505009901943,3.3,3.3,1.3627106227106225
1.7791241409868235,3.3,3.3,1.3627106227106225
1.780648616986582,3.3,3.3,1.3627106227106225
1.7849914229882415,3.3,3.3,1.3627106227106225
1.7859100029891124,3.3,3.3,1.3627106227106225
1.7874563739896985,3.3,3.3,1.3627106227106225
1.7918224209861364,3.3,3.3,1.3627106227106225
1.7934691659902455,3.3,3.3,1.3627106227106225
1.7972681439860025,3.3,3.3,1.3627106227106225
1.801745762990322,3.3,3.3,1.3627106227106225
1.80262086399307,1.1684981684981686,0.24498168498168496,0.4738461538461538
1.8042262019880582,1.1684981684981686,0.24498168498168496,0.4738461538461538
1.8086104260000866,1.1684981684981686,0.24498168498168496,0.4738461538461538
1.809506239995244,1.1684981684981686,0.24498168498168496,0.4738461538461538
1.8112688659894047,1.1684981684981686,0.24498168498168496,0.4738461538461538
1.8148582989961142,1.1684981684981686,0.24498168498168496,0.4738461538461538
1.8150256589869969,1.1684981684981686,0.24498168498168496,0.4738461538461538
1.8203490719897673,1.1684981684981686,0.24498168498168496,0.4738461538461538
1.8233894079894526,1.1684981684981686,0.24498168498168496,0.4738461538461538
1.8263309479953023,1.1684981684981686,0.24498168498168496,0.4738461538461538
1.8293342609977117,1.1684981684981686,0.24498168498168496,0.4738461538461538
1.8325416789884912,1.1684981684981686,0.24498168498168496,0.4738461538461538
1.834166139989975,1.1684981684981686,0.24498168498168496,0.4738461538461538
1.837339264995535,1.1684981684981686,0.24498168498168496,0.4738461538461538
1.8389159119979013,3.0066666666666664,0.527032967032967,0.6446886446886446
1.8433408129931195,3.3,0.5971428571428571,0.9976556776556775
1.8447100259945728,3.3,0.5971428571428571,0.9976556776556775
1.849401717990986,3.3,0.5971428571428571,0.9976556776556775
1.8496615709882462,2.993772893772894,1.1644688644688646,0.6841758241758242
1.854250954987947,1.6326739926739926,2.5215384615384613,0.5584615384615385
1.855023854994215,1.6326739926739926,2.5215384615384613,0.5584615384615385
1.8564757549902424,1.6326739926739926,2.5215384615384613,0.5584615384615385
1.8611591269873315,1.6326739926739926,2.5215384615384613,0.5584615384615385
1.8613873049907852,1.6326739926739926,2.5215384615384613,0.5584615384615385
1.8660046159930062,1.6326739926739926,2.5215384615384613,0.5584615384615385
1.866272235987708,1.6326739926739926,2.5215384615384613,0.5584615384615385
1.8709801679942757,1.6326739926739926,2.5215384615384613,0.5584615384615385
1.8712040739919757,2.6488644688644687,3.3,1.4956776556776556
1.875827934985864,2.6488644688644687,3.3,1.4956776556776556
1.8766147759888554,2.6488644688644687,3.3,1.4956776556776556
1.878679977991851,3.3,1.4231501831501832,0.5697435897435897
1.8800876109889941,3.3,1.4231501831501832,0.5697435897435897
1.884822872991208,3.3,1.4231501831501832,0.5697435897435897
1.8850708229874726,3.3,2.7278388278388275,0.6785347985347985
1.8896758729970315,3.3,2.7278388278388275,0.6785347985347985
1.8899164689937606,2.6714285714285713,2.5521611721611723,1.456190476190476
1.8945310619892552,2.6714285714285713,2.5521611721611723,1.456190476190476
1.8953568439901574,2.6714285714285713,2.5521611721611723,1.456190476190476
1.8968807139899582,2.6714285714285713,2.5521611721611723,1.456190476190476
1.9009205299953464,2.6714285714285713,2.5521611721611723,1.456190476190476
1.904333760990994,2.6714285714285713,2.5521611721611723,1.456190476190476
1.9046229969972046,2.6714285714285713,2.5521611721611723,1.456190476190476
1.9094835999858333,2.6714285714285713,2.5521611721611723,1.456190476190476
1.9136009059875505,2.6714285714285713,2.5521611721611723,1.456190476190476
1.916997113992693,2.6714285714285713,2.5521611721611723,1.456190476190476
1.9172210229880875,2.984102564102564,1.4207326007326007,0.5399267399267399
1.9220268079952803,2.984102564102564,1.4207326007326007,0.5399267399267399
1.9222693819901906,2.984102564102564,1.4207326007326007,0.5399267399267399
1.9269993619964225,2.984102564102564,1.4207326007326007,0.5399267399267399
1.9271678309887648,2.984102564102564,1.4207326007326007,0.5399267399267399
1.9318888729903847,2.984102564102564,1.4207326007326007,0.5399267399267399
1.9320974049915094,2.984102564102564,1.4207326007326007,0.5399267399267399
1.9367243239976233,2.984102564102564,1.4207326007326007,0.5399267399267399
1.936993111987249,2.984102564102564,1.4207326007326007,0.5399267399267399
1.9417482059943723,2.984102564102564,1.4207326007326007,0.5399267399267399
1.9418375909881433,1.6495970695970694,0.23047619047619047,0.5963369963369963
1.9464627759880386,1.6495970695970694,0.23047619047619047,0.5963369963369963
1.9466932239884045,2.6577289377289377,1.1467399267399265,1.4706959706959708
1.951838654000312,2.6577289377289377,1.1467399267399265,1.4706959706959708
1.9552033329964615,2.6577289377289377,1.1467399267399265,1.4706959706959708
1.9555291509896051,3.3,1.3925274725274726,0.9605860805860806
1.9601848019956378,3.3,1.3925274725274726,0.9605860805860806
1.9604442169948015,3.3,1.3925274725274726,0.9605860805860806
1.9650560199952452,3.3,1.3925274725274726,0.9605860805860806
1.9653070929925889,3.3,1.3925274725274726,0.9605860805860806
1.9699823559931247,3.3,1.3925274725274726,0.9605860805860806
1.9701731389941415,3.3,1.3925274725274726,0.9605860805860806
1.9747414789890172,3.3,1.3925274725274726,0.9605860805860806
1.9754928449983709,3.3,1.3925274725274726,0.9605860805860806
1.9775521839910652,3.3,1.3925274725274726,0.9605860805860806
1.9789828969951486,3.3,1.3925274725274726,0.9605860805860806
1.983577532999334,3.3,1.3925274725274726,0.9605860805860806
1.9838646659918595,3.3,1.3925274725274726,0.9605860805860806
1.9885095649951836,3.3,1.3925274725274726,0.9605860805860806
1.9888145629956853,3.3,1.3925274725274726,0.9605860805860806
1.993426222994458,3.3,1.3925274725274726,0.9605860805860806
1.9941857369994977,3.3,1.3925274725274726,0.9605860805860806
1.995676132995868,3.3,1.3925274725274726,0.9605860805860806
2.0003827279870166,3.3,1.3925274725274726,0.9605860805860806
2.0005567249900196,3.3,0.9033699633699634,1.0137728937728938
2.005248801986454,3.3,0.9033699633699634,1.0137728937728938
2.0054433059995063,3.3,0.9033699633699634,1.0137728937728938
2.0100918679963797,3.3,0.9033699633699634,1.0137728937728938
2.0102555099874735,3.3,0.9033699633699634,1.0137728937728938
2.0149407429998973,3.3,0.9033699633699634,1.0137728937728938
2.0151038889889605,3.3,0.9033699633699634,1.0137728937728938
2.019757395988563,3.3,0.9033699633699634,1.0137728937728938
2.0199677079945104,2.6738461538461538,3.3,1.6471794871794871
2.024593999987701,2.6738461538461538,3.3,1.6471794871794871
2.0248394349910086,2.6738461538461538,3.3,1.6471794871794871
2.029494408998289,2.6738461538461538,3.3,1.6471794871794871
2.0297157099994365,2.6738461538461538,3.3,1.6471794871794871
2.0344754709949484,2.6738461538461538,3.3,1.6471794871794871
2.034661942991079,2.6738461538461538,3.3,1.6471794871794871
2.0392565989895957,2.6738461538461538,3.3,1.6471794871794871
2.0401013319933554,3.0066666666666664,0.46095238095238095,0.9299633699633699
2.0417592439916916,3.0066666666666664,0.46095238095238095,0.9299633699633699
2.0451622769905953,3.0066666666666664,0.46095238095238095,0.9299633699633699
2.0459529159998056,2.6657875457875457,3.3,1.8196336996336997
2.0480326949909795,2.6657875457875457,3.3,1.8196336996336997
2.0488602969999192,2.6657875457875457,3.3,1.8196336996336997
2.0510580759873847,3.3,3.3,0.763956043956044
2.0518174349999754,3.3,3.3,0.763956043956044
2.05388670899265,3.3,3.3,0.763956043956044
2.055332745992928,3.3,3.3,0.763956043956044
2.0554406529990956,3.3,3.3,0.763956043956044
2.0600894079980208,3.3,3.3,0.763956043956044
2.06022355199093,3.3,3.3,0.763956043956044
2.065047138996306,1.7285714285714286,0.3698901098901099,0.6011721611721611
2.065202434998355,1.7285714285714286,0.3698901098901099,0.6011721611721611
2.0707003539864672,1.7285714285714286,0.3698901098901099,0.6011721611721611
2.072408813997754,3.3,3.3,1.1475457875457875
2.0754386909975437,2.9647619047619047,2.4046886446886444,1.3812454212454213
2.077864172999398,2.9647619047619047,2.4046886446886444,1.3812454212454213
2.0779807649960276,2.9647619047619047,2.4046886446886444,1.3812454212454213
2.0823874399939086,2.9647619047619047,2.4046886446886444,1.3812454212454213
2.084742854000069,1.4690842490842488,0.5479853479853479,0.5173626373626373
2.0848393399937777,1.4690842490842488,0.5479853479853479,0.5173626373626373
2.089862518987502,1.4690842490842488,0.5479853479853479,0.5173626373626373
2.0944660379900597,1.0661538461538462,2.514285714285714,0.42388278388278383
2.09552765499393,1.0661538461538462,2.514285714285714,0.42388278388278383
2.0963738419959554,1.0661538461538462,2.514285714285714,0.42388278388278383
2.0980618619942106,3.248424908424908,0.7478388278388278,0.7349450549450549
2.102321137994295,2.6738461538461538,2.5505494505494504,1.468278388278388
2.104344299994409,2.6738461538461538,2.5505494505494504,1.468278388278388
2.105882208998082,2.6738461538461538,2.5505494505494504,1.468278388278388
2.110257403997821,2.6738461538461538,2.5505494505494504,1.468278388278388
2.1111484759894665,2.6738461538461538,2.5505494505494504,1.468278388278388
2.1126824259990826,2.6738461538461538,2.5505494505494504,1.468278388278388
2.1174682559940265,2.6738461538461538,2.5505494505494504,1.468278388278388
2.1226738049881533,2.6738461538461538,2.5505494505494504,1.468278388278388
2.125761399991461,2.41032967032967,0.25706959706959703,0.8638827838827838
2.128051214996958,2.41032967032967,0.25706959706959703,0.8638827838827838
2.128399630993954,2.41032967032967,0.25706959706959703,0.8638827838827838
2.1336199959914666,2.41032967032967,0.25706959706959703,0.8638827838827838
2.1358486939861905,3.3,0.0,1.025054945054945
2.1368226569902617,3.3,0.0,1.025054945054945
2.1376613639877178,3.3,0.0,1.025054945054945
2.139234292990295,3.3,0.0,1.025054945054945
2.1438262189913075,2.8358241758241753,0.0,0.9686446886446887
2.14411261198984,2.8358241758241753,0.0,0.9686446886446887
2.148767599996063,2.8358241758241753,0.0,0.9686446886446887
2.149538292986108,2.8358241758241753,0.0,0.9686446886446887
2.1516256169998087,2.8358241758241753,0.0,0.9686446886446887
2.153674745990429,2.8358241758241753,0.0,0.9686446886446887
2.1550650439894525,2.8358241758241753,0.0,0.9686446886446887
2.1597676269884687,2.8358241758241753,0.0,0.9686446886446887
2.1605321529932553,2.8358241758241753,0.0,0.9686446886446887
2.162611717998516,2.8358241758241753,0.0,0.9686446886446887
2.1640726199984783,2.8358241758241753,0.0,0.9686446886446887
2.1688329269964015,2.8358241758241753,0.0,0.9686446886446887
2.1691374459915096,2.8358241758241753,0.0,0.9686446886446887
2.1738021949859103,2.8358241758241753,0.0,0.9686446886446887
2.1745368269912433,2.8358241758241753,0.0,0.9686446886446887
2.1766251559893135,2.8358241758241753,0.0,0.9686446886446887
2.1787073579907883,2.8358241758241753,0.0,0.9686446886446887
2.179563095996855,2.8358241758241753,0.0,0.9686446886446887
2.1816123309981776,2.8358241758241753,0.0,0.9686446886446887
2.183082485993509,2.8358241758241753,0.0,0.9686446886446887
2.1877381469967077,2.8358241758241753,0.0,0.9686446886446887
2.188531765990774,2.8358241758241753,0.0,0.9686446886446887
2.190647382987663,2.8358241758241753,0.0,0.9686446886446887
2.192071859986754,2.8358241758241753,0.0,0.9686446886446887
2.1967979759938316,2.8358241758241753,0.0,0.9686446886446887
2.197537686995929,2.8358241758241753,0.0,0.9686446886446887
2.1996568189933896,2.8358241758241753,0.0,0.9686446886446887
2.2011648889892967,2.8358241758241753,0.0,0.9686446886446887
2.2057810929982224,1.1773626373626374,0.0,0.4722344322344322
2.206546465997235,2.5956776556776555,0.0,1.6665201465201465
2.208614293995197,2.5956776556776555,0.0,1.6665201465201465
2.2100985999859404,2.5956776556776555,0.0,1.6665201465201465
2.2147443479916546,2.5956776556776555,0.0,1.6665201465201465
2.2155343069898663,2.5956776556776555,0.0,1.6665201465201465
2.2176182429975597,2.5956776556776555,0.0,1.6665201465201465
2.2191117129987106,2.5956776556776555,0.0,1.6665201465201465
2.2237699599936604,2.5956776556776555,0.0,1.6665201465201465
2.2245286489924183,1.0097435897435898,0.0,0.41018315018315016
2.2265683009900386,1.0097435897435898,0.0,0.41018315018315016
2.227969118990586,1.0097435897435898,0.0,0.41018315018315016
2.2326406109932577,2.6085714285714285,0.0,1.8792673992673992
2.2333938109950395,2.6085714285714285,0.0,1.8792673992673992
2.235462151991669,2.6085714285714285,0.0,1.8792673992673992
2.236920453986386,2.6085714285714285,0.0,1.8792673992673992
2.2416744789952645,2.6085714285714285,0.0,1.8792673992673992
2.2419831409933977,2.6085714285714285,0.0,1.8792673992673992
2.2466868779883953,2.6085714285714285,0.0,1.8792673992673992
2.24695865099784,2.6085714285714285,0.0,1.8792673992673992
2.251594348999788,2.6085714285714285,0.0,1.8792673992673992
2.252379800993367,2.6085714285714285,0.0,1.8792673992673992
2.254482233998715,2.6085714285714285,0.0,1.8792673992673992
2.2558704939874588,2.6085714285714285,0.0,1.8792673992673992
2.2604841299908003,2.6085714285714285,0.0,1.8792673992673992
2.261275411990937,2.6085714285714285,0.0,1.8792673992673992
2.263367779989494,2.6085714285714285,0.0,1.8792673992673992
2.2648431559937308,2.6085714285714285,0.0,1.8792673992673992
2.269583266999689,2.6085714285714285,0.0,1.8792673992673992
2.269830083998386,0.8187545787545787,0.5681318681318681,0.052380952380952375
2.2744336149917217,0.8187545787545787,0.5681318681318681,0.052380952380952375
2.2752003759960644,0.8187545787545787,0.5681318681318681,0.052380952380952375
2.2766756959899794,0.8187545787545787,0.5681318681318681,0.052380952380952375
2.2813380419975147,0.8187545787545787,0.5681318681318681,0.052380952380952375
2.2816218429943547,0.8187545787545787,0.5681318681318681,0.052380952380952375
2.2862626769929193,0.8187545787545787,0.5681318681318681,0.052380952380952375
2.287027489990578,0.8187545787545787,0.5681318681318681,0.052380952380952375
2.28905202698661,0.8187545787545787,0.5681318681318681,0.052380952380952375
2.2904971019888762,0.8187545787545787,0.5681318681318681,0.052380952380952375
2.2905992069863714,0.8187545787545787,0.5681318681318681,0.052380952380952375
2.2951979559875326,0.8187545787545787,0.5681318681318681,0.052380952380952375
2.296032241996727,0.8187545787545787,0.5681318681318681,0.052380952380952375
2.2980615609994857,0.8187545787545787,0.5681318681318681,0.052380952380952375
2.2995296729932306,0.8187545787545787,0.5681318681318681,0.052380952380952375
2.299618995995843,0.8187545787545787,0.5681318681318681,0.052380952380952375
2.304223949991865,0.8187545787545787,0.5681318681318681,0.052380952380952375
2.305024027999025,0.8187545787545787,0.5681318681318681,0.052380952380952375
2.3070866929920157,0.8187545787545787,0.5681318681318681,0.052380952380952375
2.3087924159917748,2.6682051282051282,2.464322344322344,1.212820512820513
2.3118026919983095,2.6682051282051282,2.464322344322344,1.212820512820513
2.3141023219941417,2.6682051282051282,2.464322344322344,1.212820512820513
2.3143996279977728,2.6682051282051282,2.464322344322344,1.212820512820513
2.3188535529916408,2.6682051282051282,2.464322344322344,1.212820512820513
2.3197180930001196,2.6682051282051282,2.464322344322344,1.212820512820513
2.321211113987374,2.6682051282051282,2.464322344322344,1.212820512820513
2.3253716209874256,2.6682051282051282,2.464322344322344,1.212820512820513
2.3286210489895893,2.6682051282051282,2.464322344322344,1.212820512820513
2.3294560319918673,2.6682051282051282,2.464322344322344,1.212820512820513
2.3315493959962623,2.6682051282051282,2.464322344322344,1.212820512820513
2.33297070399567,3.3,3.3,0.9694505494505494
2.3369887539884076,3.3,3.3,0.9694505494505494
2.3405241039872635,3.3,3.3,0.9694505494505494
2.3407216789928498,3.3,3.3,0.9694505494505494
2.34516765299486,3.3,3.3,0.9694505494505494
2.346620507989428,3.3,3.3,0.9694505494505494
2.351377025988768,3.3,3.3,0.9694505494505494
2.356268610994448,3.3,3.3,0.9694505494505494
2.356462877985905,3.3,3.3,0.9694505494505494
2.360541463000118,3.3,3.3,0.9694505494505494
2.363282985999831,3.3,3.3,0.9694505494505494
2.3672917139920173,3.3,3.3,0.9694505494505494
2.3706766629911726,3.3,3.3,0.9694505494505494
2.370917341992026,3.0767765567765566,2.797142857142857,0.8469597069597068
2.3756079679878894,3.2387545787545786,2.6625641025641027,0.9235164835164835
2.3758469299937133,3.2387545787545786,2.6625641025641027,0.9235164835164835
2.3805547849915456,3.2387545787545786,2.6625641025641027,0.9235164835164835
2.3807642109895824,3.3,2.3265201465201466,0.7881318681318681
2.3854391499917256,3.3,2.3265201465201466,0.7881318681318681
2.3857067809876753,3.3,2.3265201465201466,0.7881318681318681
2.390575462995912,3.3,2.3265201465201466,0.7881318681318681
2.3906907009950373,3.3,2.3265201465201466,0.7881318681318681
2.3955153279966908,3.3,2.3265201465201466,0.7881318681318681
2.400238043992431,3.3,2.3265201465201466,0.7881318681318681
2.4004491429950576,3.3,2.3265201465201466,0.7881318681318681
2.405129616992781,3.3,2.3265201465201466,0.7881318681318681
2.405387372986297,3.3,2.3265201465201466,0.7881318681318681
2.4100764179893304,3.3,2.3265201465201466,0.7881318681318681
2.410225064988481,3.3,2.3265201465201466,0.7881318681318681
2.41490314299881,3.3,2.3265201465201466,0.7881318681318681
2.415142764992197,3.3,2.3265201465201466,0.7881318681318681
2.4198444109933916,3.3,2.3265201465201466,0.7881318681318681
2.420052068991936,3.3,2.3265201465201466,0.7881318681318681
2.4248212370002875,3.3,2.3265201465201466,0.7881318681318681
2.4250467649981147,2.6585347985347987,3.232307692307692,1.5617582417582416
2.4297425639961148,2.6673992673992672,1.3127472527472526,1.8019047619047617
2.429974973987555,2.6673992673992672,1.3127472527472526,1.8019047619047617
2.4345952949952334,2.6673992673992672,1.3127472527472526,1.8019047619047617
2.435357321999618,3.3,1.1298168498168497,0.7736263736263735
2.436862686998211,3.3,1.1298168498168497,0.7736263736263735
2.4409436419955455,3.3,1.1298168498168497,0.7736263736263735
2.4444268609950086,2.652087912087912,3.3,1.5722344322344322
2.4447109999891836,2.6585347985347987,3.3,1.5117948717948717
2.449376003991347,2.6649816849816848,3.3,1.7664468864468863
2.4496586539899,2.6649816849816848,3.3,1.7664468864468863
2.453724383987719,2.6649816849816848,3.3,1.7664468864468863
2.457081485990784,2.6649816849816848,3.3,1.7664468864468863
2.457457122989581,2.6649816849816848,3.3,1.7664468864468863
2.461518641997827,2.6649816849816848,3.3,1.7664468864468863
2.464868002993171,2.6649816849816848,3.3,1.7664468864468863
2.465646263997769,2.6649816849816848,3.3,1.7664468864468863
2.4677404609974474,2.6649816849816848,3.3,1.7664468864468863
2.469182461994933,2.6649816849816848,3.3,1.7664468864468863
2.4738353319989983,2.6649816849816848,3.3,1.7664468864468863
2.474152011986007,2.6649816849816848,3.3,1.7664468864468863
2.478733583993744,2.6649816849816848,3.3,1.7664468864468863
2.4794990889931796,2.6649816849816848,3.3,1.7664468864468863
2.481574022996938,2.6649816849816848,3.3,1.7664468864468863
2.4829843399929814,2.6649816849816848,3.3,1.7664468864468863
2.4875896319863386,2.6649816849816848,3.3,1.7664468864468863
2.487871006000205,2.6649816849816848,3.3,1.7664468864468863
2.4924848819937324,2.6649816849816848,3.3,1.7664468864468863
2.492741854992346,2.6649816849816848,3.3,1.7664468864468863
2.4973660289979307,2.6649816849816848,3.3,1.7664468864468863
2.497615351996501,2.6649816849816848,3.3,1.7664468864468863
2.5021894139936194,2.6649816849816848,3.3,1.7664468864468863
2.5029266089986777,1.6238095238095236,0.2643223443223443,0.6261538461538461
2.505018036987167,1.6238095238095236,0.2643223443223443,0.6261538461538461
2.505819548998261,1.6238095238095236,0.2643223443223443,0.6261538461538461
2.507874034999986,1.6238095238095236,0.2643223443223443,0.6261538461538461
2.509333385998616,1.6238095238095236,0.2643223443223443,0.6261538461538461
2.5094328389968723,1.6238095238095236,0.2643223443223443,0.6261538461538461
2.514025057986146,1.6238095238095236,0.2643223443223443,0.6261538461538461
2.514787667998462,2.0895970695970694,0.6011721611721611,0.3747252747252747
2.5168138459994225,3.3,0.9621978021978022,0.8429304029304028
2.518243276994326,3.3,0.9621978021978022,0.8429304029304028
2.5228897989873076,3.3,0.9621978021978022,0.8429304029304028
2.5231284399924334,3.3,0.9621978021978022,0.8429304029304028
2.527725678999559,3.3,0.9621978021978022,0.8429304029304028
2.5279736629890976,3.3,0.9621978021978022,0.8429304029304028
2.5325996459869202,3.3,0.9621978021978022,0.8429304029304028
2.5333427369914716,1.9848351648351645,2.5424908424908423,0.630989010989011
2.5353569369908655,1.9848351648351645,2.5424908424908423,0.630989010989011
2.5367698359914357,1.9848351648351645,2.5424908424908423,0.630989010989011
2.5414614569890546,1.9848351648351645,2.5424908424908423,0.630989010989011
2.5418199469859246,1.9848351648351645,2.5424908424908423,0.630989010989011
2.546369864998269,1.9848351648351645,2.5424908424908423,0.630989010989011
2.5466940399928717,1.9848351648351645,2.5424908424908423,0.630989010989011
2.551060020996374,1.9848351648351645,2.5424908424908423,0.630989010989011
2.5532802089874167,1.9848351648351645,2.5424908424908423,0.630989010989011
2.55423550598789,1.9848351648351645,2.5424908424908423,0.630989010989011
2.5550821099895984,2.6923809523809523,0.7196336996336996,0.5181684981684981
2.5566150799859315,2.6923809523809523,0.7196336996336996,0.5181684981684981
2.5609175239951583,2.6923809523809523,0.7196336996336996,0.5181684981684981
2.562449076998746,2.6923809523809523,0.7196336996336996,0.5181684981684981
2.5669197869865457,2.6923809523809523,0.7196336996336996,0.5181684981684981
2.5678121379896766,2.6682051282051282,1.9896703296703295,1.9203663003663003
2.5693558549974114,2.6682051282051282,1.9896703296703295,1.9203663003663003
2.574072008996154,2.6682051282051282,1.9896703296703295,1.9203663003663003
2.5795318669988774,2.6682051282051282,1.9896703296703295,1.9203663003663003
2.5812117049936205,2.9760439560439558,0.6229304029304029,0.6317948717948718
2.5848654079891276,2.9760439560439558,0.6229304029304029,0.6317948717948718
2.5850240779982414,2.9760439560439558,0.6229304029304029,0.6317948717948718
2.5901642579992767,2.9760439560439558,0.6229304029304029,0.6317948717948718
2.59456371399574,2.9760439560439558,0.6229304029304029,0.6317948717948718
2.596113017993048,3.0808058608058606,1.9848351648351645,1.1983150183150182
2.5998729419952724,3.0808058608058606,1.9848351648351645,1.1983150183150182
2.605211428992334,3.0808058608058606,1.9848351648351645,1.1983150183150182
2.6072389559994917,3.3,3.0735531135531136,0.8888644688644688
2.608773477986688,3.3,3.0735531135531136,0.8888644688644688
2.6130509579961654,2.526373626373626,2.6794871794871793,0.31186813186813184
2.6152970059920335,1.0879120879120878,2.594065934065934,0.46739926739926735
2.6161445649922825,2.3378021978021977,0.6914285714285714,0.4464468864468864
2.6178323039930547,2.3378021978021977,0.6914285714285714,0.4464468864468864
2.6215860539959976,2.3378021978021977,0.6914285714285714,0.4464468864468864
2.626957318992936,1.477142857142857,0.26754578754578756,0.5181684981684981
2.628473237986327,3.038095238095238,1.2893772893772892,0.6253479853479853
2.6329240929917432,0.5181684981684981,2.6665934065934067,0.05721611721611722
2.633757600997342,3.3,2.2604395604395604,1.0701831501831502
2.635352254990721,3.3,2.2604395604395604,1.0701831501831502
2.6399916099908296,3.3,0.9662271062271062,0.8622710622710623
2.6401558539946564,3.3,0.5874725274725274,0.9960439560439559
2.645795112999622,3.3,0.5874725274725274,0.9960439560439559
2.6460488159937086,3.3,0.5874725274725274,0.9960439560439559
2.6511305479943985,3.3,0.5874725274725274,0.9960439560439559
2.6538841699948534,2.237069597069597,2.6625641025641027,0.26754578754578756
2.6579147419979563,2.237069597069597,2.6625641025641027,0.26754578754578756
2.661923999999999,2.237069597069597,2.6625641025641027,0.26754578754578756
2.665306906987098,2.237069597069597,2.6625641025641027,0.26754578754578756
2.6667207019927446,2.237069597069597,2.6625641025641027,0.26754578754578756
2.671321103000082,3.154945054945055,1.8027106227106224,0.4351648351648352
2.672134553999058,3.154945054945055,1.8027106227106224,0.4351648351648352
2.673674007994123,3.154945054945055,1.8027106227106224,0.4351648351648352
2.6783806629973697,3.154945054945055,1.8027106227106224,0.4351648351648352
2.678633107992937,3.2726007326007327,0.6422710622710622,0.6882051282051282
2.6832577379973372,3.2726007326007327,0.6422710622710622,0.6882051282051282
2.683547644992359,3.2726007326007327,0.6422710622710622,0.6882051282051282
2.689070392996655,3.2726007326007327,0.6422710622710622,0.6882051282051282
2.690561859999434,3.2726007326007327,0.6422710622710622,0.6882051282051282
2.694994475998101,2.5207326007326003,2.540879120879121,0.83003663003663
2.6958774239901686,2.5207326007326003,2.540879120879121,0.83003663003663
2.6974863819923485,2.5207326007326003,2.540879120879121,0.83003663003663
2.701833571991301,2.5207326007326003,2.540879120879121,0.83003663003663
2.702680693997536,1.2837362637362637,0.30622710622710625,0.5342857142857143
2.7042525109864073,1.2837362637362637,0.30622710622710625,0.5342857142857143
2.7079320559860207,1.2837362637362637,0.30622710622710625,0.5342857142857143
2.7080481889861403,1.2837362637362637,0.30622710622710625,0.5342857142857143
2.7131004619877785,1.2837362637362637,0.30622710622710625,0.5342857142857143
2.717385166994063,1.2837362637362637,0.30622710622710625,0.5342857142857143
2.720277272994281,1.2837362637362637,0.30622710622710625,0.5342857142857143
2.723993399995379,1.2837362637362637,0.30622710622710625,0.5342857142857143
2.7291003049904248,1.2837362637362637,0.30622710622710625,0.5342857142857143
2.733592755990685,1.2837362637362637,0.30622710622710625,0.5342857142857143
2.7352196689898847,1.2837362637362637,0.30622710622710625,0.5342857142857143
2.7396933039999567,1.2837362637362637,0.30622710622710625,0.5342857142857143
2.7406181519909296,1.2837362637362637,0.30622710622710625,0.5342857142857143
2.742233610988478,1.2837362637362637,0.30622710622710625,0.5342857142857143
2.74608524699579,1.2837362637362637,0.30622710622710625,0.5342857142857143
2.7508002260001376,2.6504761904761907,0.8348717948717947,1.4054212454212454
2.750996900998871,2.6504761904761907,0.8348717948717947,1.4054212454212454
2.7553809179953532,2.6504761904761907,0.8348717948717947,1.4054212454212454
2.757675727989408,2.6504761904761907,0.8348717948717947,1.4054212454212454
2.7579724329989403,2.6504761904761907,0.8348717948717947,1.4054212454212454
2.7625210559926927,2.6504761904761907,0.8348717948717947,1.4054212454212454
2.764158324993332,1.3586813186813185,0.2796336996336996,0.5721611721611721
2.7674027109896997,3.3,3.0856410256410256,0.9436630036630036
2.7689956479880493,3.3,3.0856410256410256,0.9436630036630036
2.7736144889931893,3.3,3.0856410256410256,0.9436630036630036
2.773792957988917,3.3,2.3724542124542123,1.0363369963369962
2.7783118629886303,3.3,2.3724542124542123,1.0363369963369962
2.779139629987185,3.3,2.3724542124542123,1.0363369963369962
2.780674931986141,3.3,2.3724542124542123,1.0363369963369962
2.784989312000107,3.3,2.3724542124542123,1.0363369963369962
2.786537743988447,3.3,2.3724542124542123,1.0363369963369962
2.7912545669969404,3.3,0.5358974358974359,1.0959706959706959
2.7913965819898294,3.3,0.5358974358974359,1.0959706959706959
2.8014857589878375,3.3,0.5358974358974359,1.0959706959706959
2.806626805991982,3.3,0.5358974358974359,1.0959706959706959
2.810266809989116,3.3,0.5358974358974359,1.0959706959706959
2.8103946479968727,3.3,0.5358974358974359,1.0959706959706959
2.8154879519861424,3.3,0.5358974358974359,1.0959706959706959
2.818437500987784,3.3,0.5358974358974359,1.0959706959706959
2.82134346399107,3.3,0.5358974358974359,1.0959706959706959
2.824232080994989,3.3,0.5358974358974359,1.0959706959706959
2.826542206996237,3.3,0.5358974358974359,1.0959706959706959
2.8268532619986217,3.3,0.5358974358974359,1.0959706959706959
2.831244799992419,3.3,0.5358974358974359,1.0959706959706959
2.8335533829958877,3.3,0.5358974358974359,1.0959706959706959
2.833822007989511,3.3,0.5358974358974359,1.0959706959706959
2.8388674929883564,2.1137728937728935,0.5197802197802197,0.3626373626373626
2.842568960986682,3.3,0.7494505494505495,0.9638095238095238
2.8427740059996722,3.3,0.7494505494505495,0.9638095238095238
2.8489729079883546,3.3,0.7494505494505495,0.9638095238095238
2.8521486609970452,2.6569230769230767,3.3,1.7301831501831502
2.853822812990984,2.6569230769230767,3.3,1.7301831501831502
2.8600305849977303,2.6569230769230767,3.3,1.7301831501831502
2.86363926899503,2.6569230769230767,3.3,1.7301831501831502
2.8637440049933502,1.6383150183150184,0.40615384615384614,0.664029304029304
2.8699885819951305,1.6383150183150184,0.40615384615384614,0.664029304029304
2.8769671299960464,1.6383150183150184,0.40615384615384614,0.664029304029304
2.8841174819972366,3.2677655677655677,0.713992673992674,0.7446153846153846
2.8899895689974073,3.2677655677655677,0.713992673992674,0.7446153846153846
2.898257611988811,2.6746520146520147,3.3,0.9621978021978022
2.9028508389892522,3.3,1.0315018315018314,0.7615384615384615
2.903127080993727,3.3,1.0315018315018314,0.7615384615384615
2.9096699289948447,3.3,1.0315018315018314,0.7615384615384615
2.9135835859924555,3.3,1.0315018315018314,0.7615384615384615
2.917459203992621,3.3,1.0315018315018314,0.7615384615384615
2.9219706999865593,3.3,1.0315018315018314,0.7615384615384615
2.9222557059983956,3.3,1.0315018315018314,0.7615384615384615
2.9307506189943524,3.3,1.0315018315018314,0.7615384615384615
2.9360033919947455,3.3,1.0315018315018314,0.7615384615384615
2.9385647339950083,3.3,1.0315018315018314,0.7615384615384615
2.9387180609919596,3.3,1.0315018315018314,0.7615384615384615
2.9467279620002955,3.3,1.0315018315018314,0.7615384615384615
2.9502093519986374,2.0517216117216117,1.4964835164835164,0.6728937728937728
2.9505280449957354,2.0517216117216117,1.4964835164835164,0.6728937728937728
2.9571241449884837,2.0517216117216117,1.4964835164835164,0.6728937728937728
2.963663934991928,2.0517216117216117,1.4964835164835164,0.6728937728937728
2.969214476994239,3.3,3.274212454212454,0.9162637362637363
2.9801964969956316,3.3,3.274212454212454,0.9162637362637363
2.9878233409981476,3.3,0.9065934065934066,0.78007326007326
2.9932457489921944,3.3,0.9065934065934066,0.78007326007326
2.9935549389920197,3.3,0.9065934065934066,0.78007326007326
3.00185492199671,3.3,0.9065934065934066,0.78007326007326
3.0090314369881526,2.6875457875457873,3.3,1.1402930402930402
3.0155766689858865,2.6875457875457873,3.3,1.1402930402930402
3.0202582189958775,2.1186080586080585,0.5109157509157509,0.3424908424908425
3.030233788987971,2.1186080586080585,0.5109157509157509,0.3424908424908425
3.034917744997074,2.1186080586080585,0.5109157509157509,0.3424908424908425
3.035055130996625,3.3,2.12989010989011,1.0516483516483515
3.0396528849960305,3.3,2.12989010989011,1.0516483516483515
3.0406485149869695,2.2846153846153845,0.4126007326007326,0.7832967032967032
3.042397704994073,2.2846153846153845,0.4126007326007326,0.7832967032967032
3.0465576429996872,2.2846153846153845,0.4126007326007326,0.7832967032967032
3.048088944997289,2.6545054945054947,3.3,1.66007326007326
3.0518075509899063,2.6545054945054947,3.3,1.66007326007326
3.0519184570002835,2.6545054945054947,3.3,1.66007326007326
3.0569018769892864,2.6545054945054947,3.3,1.66007326007326
3.0640705059922766,2.5602197802197804,0.6857875457875457,0.5495970695970696
3.068594657990616,2.955091575091575,0.8775824175824175,0.9146520146520146
3.0694064359995537,2.955091575091575,0.8775824175824175,0.9146520146520146
3.071234081988223,0.1926007326007326,2.6279120879120876,0.16117216117216115
3.073627914985991,0.1926007326007326,2.6279120879120876,0.16117216117216115
3.0737674399861135,0.1926007326007326,2.6279120879120876,0.16117216117216115
3.082248112987145,0.1926007326007326,2.6279120879120876,0.16117216117216115
3.0879502309981035,3.3,0.8856410256410255,0.83003663003663
3.093126874999143,3.3,0.8856410256410255,0.83003663003663
3.097396351993666,3.3,0.8856410256410255,0.83003663003663
3.0989537139976164,3.3,0.8856410256410255,0.83003663003663
3.1026556709985016,2.652087912087912,2.5432967032967033,1.3667399267399267
3.109155947997351,2.652087912087912,2.5432967032967033,1.3667399267399267
3.1133184359932784,2.652087912087912,2.5432967032967033,1.3667399267399267
3.1149488969967933,2.652087912087912,2.5432967032967033,1.3667399267399267
3.1189117989997612,2.652087912087912,2.5432967032967033,1.3667399267399267
3.122621630987851,2.884175824175824,0.5133333333333333,0.6366300366300366
3.1296111999981804,2.884175824175824,0.5133333333333333,0.6366300366300366
3.1338897369860206,3.3,3.3,0.8429304029304028
3.13543680399016,3.3,3.3,0.8429304029304028
3.140352868998889,3.3,0.8098901098901098,0.7671794871794871
3.1501596049929503,3.3,0.8098901098901098,0.7671794871794871
3.155071389992372,3.3,0.8098901098901098,0.7671794871794871
3.165275944993482,3.3,0.8098901098901098,0.7671794871794871
3.1721321149962023,3.3,0.8098901098901098,0.7671794871794871
3.178351157999714,3.3,0.8098901098901098,0.7671794871794871
3.181886730992119,3.3,0.8098901098901098,0.7671794871794871
3.1874208039953373,3.3,0.8098901098901098,0.7671794871794871
3.1889915189967724,3.3,2.7205860805860804,0.5729670329670329
3.1961203339888016,3.3,3.3,0.9444688644688644
3.2000279289932223,3.3,3.3,0.9444688644688644
3.2045696859859163,3.3,3.3,0.9444688644688644
3.2048387739923783,3.3,3.3,0.9444688644688644
3.2117615889874287,3.3,3.3,0.9444688644688644
3.2155184999865014,3.3,3.3,0.9444688644688644
3.220267716998933,3.3,3.3,0.9444688644688644
3.220400777994655,3.3,3.3,0.9444688644688644
3.2292316509992816,3.3,3.3,0.9444688644688644
3.2341900339961285,3.3,3.3,0.9444688644688644
3.237441991994274,3.3,3.3,0.9444688644688644
3.2383620789914858,2.8019780219780217,0.49721611721611714,0.5995604395604395
3.239954039992881,2.8019780219780217,0.49721611721611714,0.5995604395604395
3.2468989409971982,2.8019780219780217,0.49721611721611714,0.5995604395604395
3.250775171996793,2.8019780219780217,0.49721611721611714,0.5995604395604395
3.255962382987491,2.8019780219780217,0.49721611721611714,0.5995604395604395
3.259406258992385,2.652087912087912,1.9880586080586078,1.2998534798534798
3.2596519779908704,2.652087912087912,1.9880586080586078,1.2998534798534798
3.2671826559962938,2.652087912087912,1.9880586080586078,1.2998534798534798
3.2735073449875927,2.705274725274725,0.5213919413919413,1.207179487179487
3.2805906209978275,2.705274725274725,0.5213919413919413,1.207179487179487
3.28512378699088,2.705274725274725,0.5213919413919413,1.207179487179487
3.2854789449920645,2.705274725274725,0.5213919413919413,1.207179487179487
3.2956035799870733,2.705274725274725,0.5213919413919413,1.207179487179487
3.302149956987705,2.705274725274725,0.5213919413919413,1.207179487179487
3.305863124987809,2.705274725274725,0.5213919413919413,1.207179487179487
3.3161680279881693,3.3,3.3,0.9444688644688644
3.3211011629900895,3.3,3.3,0.9444688644688644
3.328511883999454,3.3,3.3,0.9444688644688644
3.3336059669964015,3.3,3.3,0.9444688644688644
3.3351728379930137,3.3,3.3,0.9444688644688644
3.3395692269987194,3.216190476190476,0.5592673992673992,0.6946520146520146
3.342487606991199,2.652087912087912,3.3,1.5714285714285712
3.345984404993942,2.652087912087912,3.3,1.5714285714285712
3.350651465996634,2.6617582417582417,1.548058608058608,1.818021978021978
3.350927812993177,2.6617582417582417,1.548058608058608,1.818021978021978
3.3555801539914683,2.6617582417582417,1.548058608058608,1.818021978021978
3.35580325499177,2.6617582417582417,1.548058608058608,1.818021978021978
3.3620250149979256,2.6617582417582417,1.548058608058608,1.818021978021978
3.3651440589892445,2.8277655677655673,0.5463736263736263,0.8767765567765567
3.366810651990818,2.8277655677655673,0.5463736263736263,0.8767765567765567
3.370568126993021,2.8277655677655673,0.5463736263736263,0.8767765567765567
3.3790322989952983,2.8277655677655673,0.5463736263736263,0.8767765567765567
3.3847727679967647,3.3,1.90989010989011,1.1733333333333333
3.390606486995239,2.6673992673992672,1.7027838827838828,1.9106959706959707
3.390972368986695,2.6673992673992672,1.7027838827838828,1.9106959706959707
3.3976206659863237,2.6673992673992672,1.7027838827838828,1.9106959706959707
3.401421972987009,2.6673992673992672,1.7027838827838828,1.9106959706959707
3.405898659999366,2.6673992673992672,1.7027838827838828,1.9106959706959707
3.4068276199977845,2.6673992673992672,1.7027838827838828,1.9106959706959707
3.408482272992842,2.6673992673992672,1.7027838827838828,1.9106959706959707
3.412821318997885,2.6673992673992672,1.7027838827838828,1.9106959706959707
3.4137214289949043,2.6673992673992672,1.7027838827838828,1.9106959706959707
3.4154022589937085,2.6673992673992672,1.7027838827838828,1.9106959706959707
3.4199143499863567,2.6673992673992672,1.7027838827838828,1.9106959706959707
3.420174261991633,2.6673992673992672,1.7027838827838828,1.9106959706959707
3.4306487449939596,2.6673992673992672,1.7027838827838828,1.9106959706959707
3.4374737429898232,2.6673992673992672,1.7027838827838828,1.9106959706959707
3.4423989599890774,3.3,0.6833699633699634,0.7309157509157509
3.4489182149991393,2.776190476190476,0.5157509157509157,0.9057875457875458
3.454014841991011,2.776190476190476,0.5157509157509157,0.9057875457875458
3.457635289989412,3.3,1.4908424908424909,1.0605128205128205
3.4667538339999737,3.3,1.4908424908424909,1.0605128205128205
3.47203229299339,3.3,1.4908424908424909,1.0605128205128205
3.4729210959922057,3.3,1.4908424908424909,1.0605128205128205
3.474668920986005,3.3,1.4908424908424909,1.0605128205128205
3.478438283986179,3.3,1.4908424908424909,1.0605128205128205
3.4822301759995753,3.3,1.4908424908424909,1.0605128205128205
3.48663557699183,3.3,1.4908424908424909,1.0605128205128205
3.4874696059996495,3.3,1.4908424908424909,1.0605128205128205
3.4890943959908327,3.3,1.4908424908424909,1.0605128205128205
3.493486880994169,3.3,1.4908424908424909,1.0605128205128205
3.495703043998219,3.3,1.4908424908424909,1.0605128205128205
3.4959141879953677,3.3,1.4908424908424909,1.0605128205128205
3.5005013279878767,3.3,1.4908424908424909,1.0605128205128205
3.500752742998884,3.3,1.4908424908424909,1.0605128205128205
3.5052932079997845,3.3,1.4908424908424909,1.0605128205128205
3.5061045969923725,3.3,1.4908424908424909,1.0605128205128205
3.5092089859972475,3.3,1.4908424908424909,1.0605128205128205
3.510541142997681,3.3,1.4908424908424909,1.0605128205128205
3.516901738999877,3.3,1.4908424908424909,1.0605128205128205
3.520785436994629,3.3,1.4908424908424909,1.0605128205128205
3.5271886359987548,1.2821245421245422,0.28930402930402926,0.5157509157509157
3.5328788939950755,1.2450549450549449,0.19824175824175824,0.49157509157509155
3.5379976969998097,1.2450549450549449,0.19824175824175824,0.49157509157509155
3.5436820139875636,1.2450549450549449,0.19824175824175824,0.49157509157509155
3.544047036994016,1.2450549450549449,0.19824175824175824,0.49157509157509155
3.5508139909943566,1.2450549450549449,0.19824175824175824,0.49157509157509155
3.554625981996651,1.2450549450549449,0.19824175824175824,0.49157509157509155
3.562929240986705,3.3,1.656043956043956,1.0315018315018314
3.5681053919979604,3.3,1.656043956043956,1.0315018315018314
3.5696645979915047,2.664175824175824,1.9227838827838828,1.8728205128205127
3.5753011529886862,2.664175824175824,1.9227838827838828,1.8728205128205127
3.575558076991001,2.3652014652014652,0.5213919413919413,0.43999999999999995
3.583524873989518,2.3652014652014652,0.5213919413919413,0.43999999999999995
3.5878168399940478,2.3652014652014652,0.5213919413919413,0.43999999999999995
3.5893489879963454,2.3652014652014652,0.5213919413919413,0.43999999999999995
3.598966413992457,2.3652014652014652,0.5213919413919413,0.43999999999999995
3.603997021986288,2.3652014652014652,0.5213919413919413,0.43999999999999995
3.6096756779879797,2.3652014652014652,0.5213919413919413,0.43999999999999995
3.6100154089945136,2.3652014652014652,0.5213919413919413,0.43999999999999995
3.6167701019876404,2.3652014652014652,0.5213919413919413,0.43999999999999995
3.6208206649898784,3.3,1.544029304029304,1.0919413919413918
3.6231605099892477,3.3,1.544029304029304,1.0919413919413918
3.6234642709896434,3.3,1.544029304029304,1.0919413919413918
3.631876730985823,3.3,1.544029304029304,1.0919413919413918
3.6380462759989314,3.3,1.544029304029304,1.0919413919413918
3.643755005992716,2.1846886446886447,0.4585347985347985,0.3545787545787546
3.651814384997124,2.6649816849816848,3.3,1.423956043956044
3.6588109379954403,3.3,1.3852747252747253,1.0371428571428571
3.6633712199982256,3.3,0.834065934065934,0.70996336996337
3.6635077179962536,3.3,0.834065934065934,0.70996336996337
3.669035245999112,3.3,0.834065934065934,0.70996336996337
3.6693991189968074,3.3,0.834065934065934,0.70996336996337
3.6760595319938147,3.3,0.834065934065934,0.70996336996337
3.681371777987806,3.3,0.834065934065934,0.70996336996337
3.6828857679938665,3.3,0.834065934065934,0.70996336996337
3.6873581179970643,3.3,0.834065934065934,0.70996336996337
3.6881884559988976,3.3,0.834065934065934,0.70996336996337
3.689938429990434,3.3,0.834065934065934,0.70996336996337
3.6940589829901,3.3,0.834065934065934,0.70996336996337
3.697430912987329,3.3,0.834065934065934,0.70996336996337
3.6975381719967118,3.3,0.834065934065934,0.70996336996337
3.702585441991687,3.3,0.834065934065934,0.70996336996337
3.707680055988021,1.7253479853479854,0.24095238095238095,0.6285714285714284
3.7132878429983975,1.7253479853479854,0.24095238095238095,0.6285714285714284
3.720235712986323,2.958315018315018,2.514285714285714,0.8799999999999999
3.727274001998012,3.215384615384615,0.7156043956043956,1.004102564102564
3.7315030859899707,3.215384615384615,0.7156043956043956,1.004102564102564
3.732354106992716,3.215384615384615,0.7156043956043956,1.004102564102564
3.7339683569880435,3.215384615384615,0.7156043956043956,1.004102564102564
3.7384627149876906,3.215384615384615,0.7156043956043956,1.004102564102564
3.7404308569966815,2.655311355311355,2.545714285714286,1.4997069597069597
3.7444275099987863,2.655311355311355,2.545714285714286,1.4997069597069597
3.7463226249965373,2.655311355311355,2.545714285714286,1.4997069597069597
3.7485112239955924,2.655311355311355,2.545714285714286,1.4997069597069597
3.748799141991185,2.655311355311355,2.545714285714286,1.4997069597069597
3.758511310996255,2.655311355311355,2.545714285714286,1.4997069597069597
3.768096109997714,2.655311355311355,2.545714285714286,1.4997069597069597
3.7767453879932873,2.655311355311355,2.545714285714286,1.4997069597069597
3.7829597370000556,2.655311355311355,2.545714285714286,1.4997069597069597
3.785920094989706,2.655311355311355,2.545714285714286,1.4997069597069597
3.7888385169935646,2.655311355311355,2.545714285714286,1.4997069597069597
3.793534053998883,2.655311355311355,2.545714285714286,1.4997069597069597
3.801296495992574,2.3200732600732596,0.5447619047619047,0.448058608058608
3.8065655729878927,2.3200732600732596,0.5447619047619047,0.448058608058608
3.812085716999718,2.3200732600732596,0.5447619047619047,0.448058608058608
3.8122913319966756,2.3200732600732596,0.5447619047619047,0.448058608058608
3.8169735049887095,2.3200732600732596,0.5447619047619047,0.448058608058608
3.8225482499983627,2.3200732600732596,0.5447619047619047,0.448058608058608
3.825906705998932,0.971062271062271,0.26754578754578756,0.42630036630036633
3.8260573819861747,0.971062271062271,0.26754578754578756,0.42630036630036633
3.8347556719963904,0.971062271062271,0.26754578754578756,0.42630036630036633
3.8399160629924154,0.971062271062271,0.26754578754578756,0.42630036630036633
3.8468402329890523,0.971062271062271,0.26754578754578756,0.42630036630036633
3.8507420969981467,0.971062271062271,0.26754578754578756,0.42630036630036633
3.8553675719886087,0.971062271062271,0.26754578754578756,0.42630036630036633
3.8562291859998368,0.971062271062271,0.26754578754578756,0.42630036630036633
3.8580693819967564,0.971062271062271,0.26754578754578756,0.42630036630036633
3.8606564489891753,0.971062271062271,0.26754578754578756,0.42630036630036633
3.865921412987518,0.971062271062271,0.26754578754578756,0.42630036630036633
3.86818971298635,0.971062271062271,0.26754578754578756,0.42630036630036633
3.868442243998288,0.971062271062271,0.26754578754578756,0.42630036630036633
3.8740901829878567,0.971062271062271,0.26754578754578756,0.42630036630036633
3.87539071199717,0.971062271062271,0.26754578754578756,0.42630036630036633
3.8811081539897714,0.971062271062271,0.26754578754578756,0.42630036630036633
3.8863056389964186,0.971062271062271,0.26754578754578756,0.42630036630036633
3.8902408619906055,3.3,0.9452747252747251,0.7921611721611721
3.8975892849994125,3.3,0.9452747252747251,0.7921611721611721
3.9013916879921453,3.3,0.9452747252747251,0.7921611721611721
3.9067635029932717,3.3,0.9452747252747251,0.7921611721611721
3.9112800339935347,3.3,0.9452747252747251,0.7921611721611721
3.9115415329870302,3.3,0.9452747252747251,0.7921611721611721
3.9158228719898034,3.3,0.9452747252747251,0.7921611721611721
3.917391595998197,3.3,0.9452747252747251,0.7921611721611721
3.9224213729903568,3.3,0.9452747252747251,0.7921611721611721
3.9277750959881814,3.3,0.9452747252747251,0.7921611721611721
3.9291194529942004,2.6649816849816848,2.540879120879121,1.3933333333333333
3.9336184349958785,2.6649816849816848,2.540879120879121,1.3933333333333333
3.93450936798763,2.6649816849816848,2.540879120879121,1.3933333333333333
3.9360960069898283,2.6649816849816848,2.540879120879121,1.3933333333333333
3.9414305729878834,2.6649816849816848,2.540879120879121,1.3933333333333333
3.9442465729953256,2.6649816849816848,2.540879120879121,1.3933333333333333
3.9477592059993185,2.6649816849816848,2.540879120879121,1.3933333333333333
3.947878454986494,2.655311355311355,0.6809523809523809,1.340952380952381
3.9531371329940157,3.2846886446886447,2.834212454212454,0.4085714285714286
3.9560380409966456,3.2846886446886447,2.834212454212454,0.4085714285714286
3.9618806619982934,3.2846886446886447,2.834212454212454,0.4085714285714286
3.9654824049939634,1.2821245421245422,0.23531135531135527,0.523003663003663
3.9656149719958194,1.2821245421245422,0.23531135531135527,0.523003663003663
3.970840361987939,1.2821245421245422,0.23531135531135527,0.523003663003663
3.973173564998433,1.2821245421245422,0.23531135531135527,0.523003663003663
3.9734428429947,1.2821245421245422,0.23531135531135527,0.523003663003663
3.9798307399905752,1.2821245421245422,0.23531135531135527,0.523003663003663
3.9836307559889974,1.2821245421245422,0.23531135531135527,0.523003663003663
3.9888383829966187,1.2821245421245422,0.23531135531135527,0.523003663003663
3.9938908129988704,1.2821245421245422,0.23531135531135527,0.523003663003663
3.9963482699968154,1.2821245421245422,0.23531135531135527,0.523003663003663
3.9965945959993405,2.9905494505494503,0.5834432234432234,0.6753113553113552
4.001235917996382,2.9905494505494503,0.5834432234432234,0.6753113553113552
4.001465886991355,2.9905494505494503,0.5834432234432234,0.6753113553113552
4.006675941986032,2.9905494505494503,0.5834432234432234,0.6753113553113552
4.011128554993775,3.3,3.203296703296703,0.6704761904761904
4.011473639999167,3.3,3.203296703296703,0.6704761904761904
4.016229676999501,3.3,3.203296703296703,0.6704761904761904
4.0164891649910714,3.3,3.203296703296703,0.6704761904761904
4.020957684988389,3.3,3.203296703296703,0.6704761904761904
4.021807387995068,2.6536996336996337,3.3,1.5593406593406591
4.02348296699347,2.6536996336996337,3.3,1.5593406593406591
4.0295941309886985,2.6536996336996337,3.3,1.5593406593406591
4.033361863999744,2.6536996336996337,3.3,1.5593406593406591
4.038032904994907,2.6536996336996337,3.3,1.5593406593406591
4.038189555998542,2.6536996336996337,3.3,1.5593406593406591
4.045727962991805,2.6536996336996337,3.3,1.5593406593406591
4.0506954889860936,2.565054945054945,0.3553846153846154,0.855018315018315
4.053713591987616,2.565054945054945,0.3553846153846154,0.855018315018315
4.056129417993361,2.565054945054945,0.3553846153846154,0.855018315018315
4.056265822990099,2.565054945054945,0.3553846153846154,0.855018315018315
4.063155099996948,2.565054945054945,0.3553846153846154,0.855018315018315
4.066864427994005,2.565054945054945,0.3553846153846154,0.855018315018315
4.067021608992945,2.565054945054945,0.3553846153846154,0.855018315018315
4.072538290987723,2.565054945054945,0.3553846153846154,0.855018315018315
4.073751556992647,2.565054945054945,0.3553846153846154,0.855018315018315
4.07420672698936,2.565054945054945,0.3553846153846154,0.855018315018315
4.078785421996145,2.565054945054945,0.3553846153846154,0.855018315018315
4.078958267986309,2.565054945054945,0.3553846153846154,0.855018315018315
4.083727650999208,2.565054945054945,0.3553846153846154,0.855018315018315
4.083874927993747,2.565054945054945,0.3553846153846154,0.855018315018315
4.089461186988046,2.565054945054945,0.3553846153846154,0.855018315018315
4.092062174997409,2.565054945054945,0.3553846153846154,0.855018315018315
4.098187101990334,2.565054945054945,0.3553846153846154,0.855018315018315
4.10217507899506,2.565054945054945,0.3553846153846154,0.855018315018315
4.106009535986232,2.565054945054945,0.3553846153846154,0.855018315018315
4.114713550996385,2.565054945054945,0.3553846153846154,0.855018315018315
4.121414829991409,2.449010989010989,2.4667399267399266,0.7865201465201466
4.125836372986669,2.5835897435897435,0.6382417582417582,0.4786813186813187
4.126193415999296,2.5835897435897435,0.6382417582417582,0.4786813186813187
4.134761383000296,2.5835897435897435,0.6382417582417582,0.4786813186813187
4.142347898989101,2.5835897435897435,0.6382417582417582,0.4786813186813187
4.148003500988125,2.5835897435897435,0.6382417582417582,0.4786813186813187
4.154217282994068,2.5835897435897435,0.6382417582417582,0.4786813186813187
4.1592955889937,2.5835897435897435,0.6382417582417582,0.4786813186813187
4.167689816997154,2.5835897435897435,0.6382417582417582,0.4786813186813187
4.172993249987485,1.3433699633699634,0.419047619047619,0.49802197802197795
4.180108575994382,1.3433699633699634,0.419047619047619,0.49802197802197795
4.183926641999278,3.3,1.872014652014652,0.6728937728937728
4.188601066998672,3.3,1.872014652014652,0.6728937728937728
4.189398973991047,3.3,1.872014652014652,0.6728937728937728
4.191744017996825,3.3,1.872014652014652,0.6728937728937728
4.191928016996826,3.3,1.872014652014652,0.6728937728937728
4.1985622009960935,3.3,1.872014652014652,0.6728937728937728
4.202329369989457,2.8543589743589743,0.42952380952380953,0.8904761904761904
4.208868876987253,2.8543589743589743,0.42952380952380953,0.8904761904761904
4.212602142986725,2.8543589743589743,0.42952380952380953,0.8904761904761904
4.217279841992422,3.3,2.181465201465201,0.9436630036630036
4.217517793993466,3.3,2.181465201465201,0.9436630036630036
4.221922486991389,2.6528937728937727,3.3,1.3876923076923076
4.222831006991328,2.6528937728937727,3.3,1.3876923076923076
4.225522325999918,2.6528937728937727,3.3,1.3876923076923076
4.229939356999239,2.6528937728937727,3.3,1.3876923076923076
4.230223661987111,2.6528937728937727,3.3,1.3876923076923076
4.235057872996549,2.6528937728937727,3.3,1.3876923076923076
4.2416197339916835,2.6528937728937727,3.3,1.3876923076923076
4.245857530986541,3.3,0.5834432234432234,0.954945054945055
4.24742093399982,3.3,0.5834432234432234,0.954945054945055
4.252095069998177,3.3,0.5834432234432234,0.954945054945055
4.25231216699467,3.3,0.5834432234432234,0.954945054945055
4.259743331000209,3.3,0.5834432234432234,0.954945054945055
4.264798538992181,2.6665934065934067,3.3,1.4263736263736264
4.268518052995205,1.3369230769230769,0.26673992673992675,0.506080586080586
4.273642456988455,1.3369230769230769,0.26673992673992675,0.506080586080586
4.2805008979921695,1.3369230769230769,0.26673992673992675,0.506080586080586
4.285265008991701,1.3369230769230769,0.26673992673992675,0.506080586080586
4.2930686049949145,0.8743589743589744,0.2747985347985348,0.40615384615384614
4.297557054000208,3.3,0.49802197802197795,1.083076923076923
4.297763685986865,3.3,0.49802197802197795,1.083076923076923
4.302213039991329,3.3,0.49802197802197795,1.083076923076923
4.303152649998083,2.561025641025641,0.3191208791208791,0.801025641025641
4.304697624989785,2.561025641025641,0.3191208791208791,0.801025641025641
4.311345272988547,2.6577289377289377,3.1726739926739924,1.676190476190476
4.317210482986411,2.6577289377289377,3.1726739926739924,1.676190476190476
4.320926505999523,2.6577289377289377,3.1726739926739924,1.676190476190476
4.326987688997178,2.6577289377289377,3.1726739926739924,1.676190476190476
4.331388515987783,2.6577289377289377,3.1726739926739924,1.676190476190476
4.332248803999391,2.6577289377289377,3.1726739926739924,1.676190476190476
4.33384780898632,2.6577289377289377,3.1726739926739924,1.676190476190476
4.337943580991123,2.6577289377289377,3.1726739926739924,1.676190476190476
4.34038040098676,2.6577289377289377,3.1726739926739924,1.676190476190476
4.340688276992296,2.6577289377289377,3.1726739926739924,1.676190476190476
4.346238853991963,2.6577289377289377,3.1726739926739924,1.676190476190476
4.3464140629948815,2.6577289377289377,3.1726739926739924,1.676190476190476
4.3509991399914725,2.6577289377289377,3.1726739926739924,1.676190476190476
4.351947267990909,0.1418315018315018,2.5594139194139194,0.21355311355311357
4.353567131998716,0.1418315018315018,2.5594139194139194,0.21355311355311357
4.357924783995259,0.1418315018315018,2.5594139194139194,0.21355311355311357
4.361113191989716,2.8793406593406594,0.49721611721611714,0.5665201465201465
4.3615563699859194,3.3,1.7463003663003662,0.8590476190476191
4.368484017992159,3.3,1.7463003663003662,0.8590476190476191
4.372985124995466,3.3,1.7463003663003662,0.8590476190476191
4.373282926986576,3.3,1.7463003663003662,0.8590476190476191
4.381388369991328,3.3,1.7463003663003662,0.8590476190476191
4.386375356989447,3.3,1.7463003663003662,0.8590476190476191
4.391875866000191,3.3,1.7463003663003662,0.8590476190476191
4.392272852986935,3.3,2.021904761904762,1.0097435897435898
4.401362501987023,2.7004395604395603,1.5174358974358972,1.0782417582417583
4.407605148997391,2.6617582417582417,3.3,1.4287912087912087
4.413358211997547,2.6617582417582417,3.3,1.4287912087912087
4.413482313990244,2.6617582417582417,3.3,1.4287912087912087
4.417943282998749,2.6617582417582417,3.3,1.4287912087912087
4.418752109995694,2.6617582417582417,3.3,1.4287912087912087
4.421339755994268,2.6617582417582417,3.3,1.4287912087912087
4.4311525609955424,2.6617582417582417,3.3,1.4287912087912087
4.436613949990715,2.6617582417582417,3.3,1.4287912087912087
4.438639324987889,3.3,0.7446153846153846,0.759120879120879
4.442778200987959,3.3,3.3,0.792967032967033
4.443122113996651,3.3,3.3,0.792967032967033
4.448750493989792,3.3,3.3,0.792967032967033
4.4489565569965634,3.3,3.3,0.792967032967033
4.4545738179876935,3.3,3.3,0.792967032967033
4.454753684985917,3.3,1.5762637362637362,1.0758241758241758
4.461098700994626,3.3,1.5762637362637362,1.0758241758241758
4.464334061995032,0.9339926739926739,0.303003663003663,0.39809523809523806
4.465900267998222,0.9339926739926739,0.303003663003663,0.39809523809523806
4.469665038996027,0.9339926739926739,0.303003663003663,0.39809523809523806
4.474990477989195,1.0097435897435898,2.5320146520146523,0.4351648351648352
4.478984976987704,1.0097435897435898,2.5320146520146523,0.4351648351648352
4.481509196994011,1.0097435897435898,2.5320146520146523,0.4351648351648352
4.486621499992907,1.5641758241758241,0.2063003663003663,0.5729670329670329
4.491200087999459,1.5641758241758241,0.2063003663003663,0.5729670329670329
4.491513878994738,1.5641758241758241,0.2063003663003663,0.5729670329670329
4.496767271994031,1.5641758241758241,0.2063003663003663,0.5729670329670329
4.499685798989958,1.5641758241758241,0.2063003663003663,0.5729670329670329
4.502075128999422,1.5641758241758241,0.2063003663003663,0.5729670329670329
4.502352832991164,1.5641758241758241,0.2063003663003663,0.5729670329670329
4.507796771998983,1.5641758241758241,0.2063003663003663,0.5729670329670329
4.509327862993814,2.655311355311355,3.3,1.5085714285714285
4.513187888995162,2.655311355311355,3.3,1.5085714285714285
4.516885883989744,2.655311355311355,3.3,1.5085714285714285
4.52145911999105,2.6029304029304026,0.5721611721611721,0.4585347985347985
4.522339100993122,1.7180952380952381,0.4657875457875458,0.5971428571428571
4.524711617996218,1.7180952380952381,0.4657875457875458,0.5971428571428571
4.524857532000169,1.7180952380952381,0.4657875457875458,0.5971428571428571
4.530886306994944,1.7180952380952381,0.4657875457875458,0.5971428571428571
4.535575349000283,1.7180952380952381,0.4657875457875458,0.5971428571428571
4.535753506992478,1.7180952380952381,0.4657875457875458,0.5971428571428571
4.542412758994033,1.7180952380952381,0.4657875457875458,0.5971428571428571
4.54795457299042,1.7180952380952381,0.4657875457875458,0.5971428571428571
4.553445108991582,1.7180952380952381,0.4657875457875458,0.5971428571428571
4.554344921998563,1.7180952380952381,0.4657875457875458,0.5971428571428571
4.555940735997865,1.7180952380952381,0.4657875457875458,0.5971428571428571
4.563157723998302,3.3,0.7978021978021977,0.759120879120879
4.567124553999747,1.5158241758241757,0.253040293040293,0.5713553113553113
4.570894672986469,1.5158241758241757,0.253040293040293,0.5713553113553113
4.577773724988219,0.18615384615384614,2.532820512820513,0.23208791208791207
4.581522756998311,0.18615384615384614,2.532820512820513,0.23208791208791207
4.586841873999219,0.18615384615384614,2.532820512820513,0.23208791208791207
4.589108570988174,0.18615384615384614,2.532820512820513,0.23208791208791207
4.589442855998641,0.18615384615384614,2.532820512820513,0.23208791208791207
4.597867538992432,0.18615384615384614,2.532820512820513,0.23208791208791207
4.603292738000164,0.18615384615384614,2.532820512820513,0.23208791208791207
4.604834765996202,0.18615384615384614,2.532820512820513,0.23208791208791207
4.6111958809924545,2.66014652014652,1.4739194139194138,1.771282051282051
4.614622898996458,3.3,3.2226373626373626,0.6648351648351648
4.615499501989689,3.3,3.2226373626373626,0.6648351648351648
4.617074289999437,3.3,3.2226373626373626,0.6648351648351648
4.620946224997169,3.3,3.2226373626373626,0.6648351648351648
4.627668708999408,0.8832234432234431,0.28769230769230764,0.4037362637362637
4.630756150989328,0.8832234432234431,0.28769230769230764,0.4037362637362637
4.6332041029963875,1.9372893772893773,2.418388278388278,0.7430036630036629
4.633380736995605,1.9372893772893773,2.418388278388278,0.7430036630036629
4.637824726989493,1.9372893772893773,2.418388278388278,0.7430036630036629
4.638704830998904,3.1581684981684983,0.9404395604395603,0.747032967032967
4.641205855994485,3.1581684981684983,0.9404395604395603,0.747032967032967
4.647463358996902,3.1581684981684983,0.9404395604395603,0.747032967032967
4.65129950499977,2.652087912087912,3.3,1.4046153846153846
4.655791005992796,2.652087912087912,3.3,1.4046153846153846
4.656687086986494,2.1395604395604395,0.5294505494505495,0.4214652014652014
4.659704574994976,2.1395604395604395,0.5294505494505495,0.4214652014652014
4.661346189997857,2.1395604395604395,0.5294505494505495,0.4214652014652014
4.665221218994702,2.1395604395604395,0.5294505494505495,0.4214652014652014
4.668351858999813,2.1395604395604395,0.5294505494505495,0.4214652014652014
4.670610866989591,2.1395604395604395,0.5294505494505495,0.4214652014652014
4.670946081998409,2.1395604395604395,0.5294505494505495,0.4214652014652014
4.6770296419999795,2.1395604395604395,0.5294505494505495,0.4214652014652014
4.680959355988307,2.1395604395604395,0.5294505494505495,0.4214652014652014
4.68473546099267,2.1395604395604395,0.5294505494505495,0.4214652014652014
4.684879734995775,2.1395604395604395,0.5294505494505495,0.4214652014652014
4.689318302000174,2.1395604395604395,0.5294505494505495,0.4214652014652014
4.691244444999029,2.655311355311355,2.548937728937729,1.3772161172161173
4.693390417000046,2.713333333333333,2.1387545787545785,0.9444688644688644
4.6945443189906655,2.713333333333333,2.1387545787545785,0.9444688644688644
4.694745571992826,2.713333333333333,2.1387545787545785,0.9444688644688644
4.699385659987456,2.713333333333333,2.1387545787545785,0.9444688644688644
4.699610204988858,2.713333333333333,2.1387545787545785,0.9444688644688644
4.704028337990167,2.713333333333333,2.1387545787545785,0.9444688644688644
4.7048961669934215,2.713333333333333,2.1387545787545785,0.9444688644688644
4.706771028999356,2.713333333333333,2.1387545787545785,0.9444688644688644
4.711650665994966,2.713333333333333,2.1387545787545785,0.9444688644688644
4.715204123989679,2.2805860805860805,2.3587545787545787,0.8703296703296703
4.720504360986524,2.2805860805860805,2.3587545787545787,0.8703296703296703
4.725158781991922,2.178241758241758,0.6124542124542125,0.4738461538461538
4.731838419000269,2.6536996336996337,3.3,1.5577289377289376
4.735564428992802,2.6536996336996337,3.3,1.5577289377289376
4.735707509986241,2.6536996336996337,3.3,1.5577289377289376
4.74175426599686,2.6536996336996337,3.3,1.5577289377289376
4.746052373986458,2.6536996336996337,3.3,1.5577289377289376
4.746440271992469,3.3,3.03003663003663,0.8977289377289376
4.750966347986832,3.3,3.03003663003663,0.8977289377289376
4.751261209996301,2.6835164835164833,2.602124542124542,0.30058608058608055
4.756496383997728,2.6835164835164833,2.602124542124542,0.30058608058608055
4.7621710099920165,2.6835164835164833,2.602124542124542,0.30058608058608055
4.76843334599107,2.6835164835164833,2.602124542124542,0.30058608058608055
4.771546029995079,2.655311355311355,1.527912087912088,1.7422710622710622
4.774993859988172,2.655311355311355,1.527912087912088,1.7422710622710622
4.781384250993142,2.655311355311355,1.527912087912088,1.7422710622710622
4.785159631996066,3.00989010989011,0.5213919413919413,0.9331868131868131
4.790453428999172,2.66014652014652,2.423223443223443,1.8865201465201462
4.797645121987443,2.66014652014652,2.423223443223443,1.8865201465201462
4.801904388994444,2.66014652014652,2.423223443223443,1.8865201465201462
4.802724050998222,2.66014652014652,2.423223443223443,1.8865201465201462
4.804325690987753,2.66014652014652,2.423223443223443,1.8865201465201462
4.811893727994175,2.66014652014652,2.423223443223443,1.8865201465201462
4.816807619994506,2.66014652014652,2.423223443223443,1.8865201465201462
4.824058350990526,2.66014652014652,2.423223443223443,1.8865201465201462
4.8319499579956755,2.66014652014652,2.423223443223443,1.8865201465201462
4.837451532992418,2.66014652014652,2.423223443223443,1.8865201465201462
4.83767162199365,2.6585347985347987,3.3,1.527912087912088
4.846523836997221,2.6585347985347987,3.3,1.527912087912088
4.852603151986841,2.6585347985347987,3.3,1.527912087912088
4.856864867993863,0.20388278388278389,2.4586813186813186,0.38681318681318677
4.859997795996605,0.20388278388278389,2.4586813186813186,0.38681318681318677
4.860461010990548,2.4586813186813186,0.356996336996337,0.8590476190476191
4.8656696419930086,2.4586813186813186,0.356996336996337,0.8590476190476191
4.867366103993845,2.4586813186813186,0.356996336996337,0.8590476190476191
4.8710439579881495,3.3,0.4464468864468864,0.9831501831501831
4.878395108986297,3.3,0.4464468864468864,0.9831501831501831
4.883438681994448,3.3,0.4464468864468864,0.9831501831501831
4.886002060986357,3.3,0.4464468864468864,0.9831501831501831
4.894536011997843,3.3,0.4464468864468864,0.9831501831501831
4.900795080990065,3.3,0.4464468864468864,0.9831501831501831
4.904643963993294,3.3,0.4464468864468864,0.9831501831501831
4.911212211998645,3.3,0.4464468864468864,0.9831501831501831
4.915199301991379,3.3,0.4464468864468864,0.9831501831501831
4.918853503986611,3.3,0.4464468864468864,0.9831501831501831
4.924222097994061,2.237875457875458,0.4126007326007326,0.5125274725274725
4.929912405990763,2.237875457875458,0.4126007326007326,0.5125274725274725
4.93427988399344,2.237875457875458,0.4126007326007326,0.5125274725274725
4.93579133899766,2.174212454212454,0.5842490842490843,0.5254212454212454
4.93953414898715,2.174212454212454,0.5842490842490843,0.5254212454212454
4.947283652989427,3.3,3.3,1.1177289377289377
4.951018331994419,3.3,3.3,1.1177289377289377
4.956126588993357,3.3,3.3,1.1177289377289377
4.95968519798771,3.3,3.3,1.1177289377289377
4.9598647259990685,3.3,3.3,1.1177289377289377
4.966660700985813,3.3,3.3,1.1177289377289377
4.970889323987649,3.3,3.3,1.0943589743589743
4.97239554898988,3.3,3.3,1.0943589743589743
4.97821057899273,3.3,3.3,1.0943589743589743
4.978367320989491,3.3,3.3,1.0943589743589743
4.982947262993548,3.3,3.3,1.0943589743589743
4.983196054992732,3.3,3.3,1.0943589743589743
4.987703035993036,3.3,3.3,1.0943589743589743
4.988505451998208,3.3,3.3,1.0943589743589743
4.991721652986598,3.3,3.3,1.0943589743589743
4.992056779999984,3.3,3.3,1.0943589743589743
4.997450517999823,3.3,3.3,1.0943589743589743
4.998983208992286,2.3039560439560436,0.46659340659340653,0.5778021978021978
5.0033818619995145,3.3,0.9912087912087911,0.967032967032967
5.00492241999018,1.0597069597069597,0.2715750915750916,0.5141391941391941
5.0121876369958045,2.6722344322344322,1.2466666666666666,1.5504761904761903
5.016122740998981,3.1904029304029304,1.0145787545787546,0.9235164835164835
5.019959555997048,3.1904029304029304,1.0145787545787546,0.9235164835164835
5.024825342989061,3.1904029304029304,1.0145787545787546,0.9235164835164835
5.0331054869893705,3.1904029304029304,1.0145787545787546,0.9235164835164835
5.037629374986864,3.1904029304029304,1.0145787545787546,0.9235164835164835
5.038507766992552,3.1904029304029304,1.0145787545787546,0.9235164835164835
5.0402076419995865,3.1904029304029304,1.0145787545787546,0.9235164835164835
5.0462798189983005,3.1904029304029304,1.0145787545787546,0.9235164835164835
5.049446436998551,2.651282051282051,1.4876190476190476,1.5988278388278387
5.051028699992457,2.651282051282051,1.4876190476190476,1.5988278388278387
5.055341384999338,2.594065934065934,2.382930402930403,0.9815384615384615
5.056957265987876,3.1581684981684983,0.9162637362637363,0.838095238095238
5.0610172969900304,3.1581684981684983,0.9162637362637363,0.838095238095238
5.063944999987143,1.4868131868131869,0.28930402930402926,0.6076190476190476
5.067561110990937,1.4868131868131869,0.28930402930402926,0.6076190476190476
5.067740372993285,1.4868131868131869,0.28930402930402926,0.6076190476190476
5.072822060988983,1.4868131868131869,0.28930402930402926,0.6076190476190476
5.076512904997799,2.9341391941391937,1.1016117216117214,0.8163369963369963
5.081594855990261,2.9341391941391937,1.1016117216117214,0.8163369963369963
5.085881951992633,2.9341391941391937,1.1016117216117214,0.8163369963369963
5.087409738000133,2.9341391941391937,1.1016117216117214,0.8163369963369963
5.091730429994641,2.9341391941391937,1.1016117216117214,0.8163369963369963
5.09330658998806,2.9341391941391937,1.1016117216117214,0.8163369963369963
5.097631362994434,2.9341391941391937,1.1016117216117214,0.8163369963369963
5.099185165992822,2.9341391941391937,1.1016117216117214,0.8163369963369963
5.102900023994152,2.9341391941391937,1.1016117216117214,0.8163369963369963
5.103050154997618,2.9341391941391937,1.1016117216117214,0.8163369963369963
5.107616838999093,2.9341391941391937,1.1016117216117214,0.8163369963369963
5.107881751988316,2.9341391941391937,1.1016117216117214,0.8163369963369963
5.113134922998142,2.9341391941391937,1.1016117216117214,0.8163369963369963
5.116513113986002,2.9341391941391937,1.1016117216117214,0.8163369963369963
5.1169506999867735,2.789084249084249,0.8808058608058608,0.7365567765567765
5.124904323994997,2.789084249084249,0.8808058608058608,0.7365567765567765
5.1308054579858435,2.789084249084249,0.8808058608058608,0.7365567765567765
5.133774218993494,2.789084249084249,0.8808058608058608,0.7365567765567765
5.1360157929884735,2.789084249084249,0.8808058608058608,0.7365567765567765
5.13640399799624,2.789084249084249,0.8808058608058608,0.7365567765567765
5.143602693991852,2.789084249084249,0.8808058608058608,0.7365567765567765
5.1478366179944715,0.9654212454212454,0.3167032967032967,0.4319413919413919
5.149504055996658,0.9654212454212454,0.3167032967032967,0.4319413919413919
5.15324692199647,0.9654212454212454,0.3167032967032967,0.4319413919413919
5.158402500994271,2.714945054945055,0.9638095238095238,0.7462271062271062
5.161946662992705,2.714945054945055,0.9638095238095238,0.7462271062271062
5.162201531988103,2.714945054945055,0.9638095238095238,0.7462271062271062
5.167253154999344,2.714945054945055,0.9638095238095238,0.7462271062271062
5.171037888998399,2.714945054945055,0.9638095238095238,0.7462271062271062
5.177534446993377,2.714945054945055,0.9638095238095238,0.7462271062271062
5.180696201990941,2.714945054945055,0.9638095238095238,0.7462271062271062
5.182251193997217,2.714945054945055,0.9638095238095238,0.7462271062271062
5.186918263992993,2.714945054945055,0.9638095238095238,0.7462271062271062
5.1921643329988,2.714945054945055,0.9638095238095238,0.7462271062271062
5.196198266989086,2.714945054945055,0.9638095238095238,0.7462271062271062
5.1999400749919005,2.9035164835164835,0.7051282051282051,0.7526739926739926
5.205009647994302,2.9035164835164835,0.7051282051282051,0.7526739926739926
5.209271318992251,2.651282051282051,1.444102564102564,1.6157509157509156
5.213245176986675,2.681098901098901,3.3,1.3522344322344322
5.2167103739921,2.681098901098901,3.3,1.3522344322344322
5.226099673993303,2.681098901098901,3.3,1.3522344322344322
5.23448005199316,0.9557509157509158,0.2498168498168498,0.4827106227106227
5.241308984986972,2.2636630036630034,2.323296703296703,0.8832234432234431
5.246577641999465,2.2636630036630034,2.323296703296703,0.8832234432234431
5.248184418000164,2.6536996336996337,1.506153846153846,1.767252747252747
5.253370810998604,0.6632234432234432,2.540879120879121,0.1402197802197802
5.254931509000016,0.28849816849816845,2.5312087912087913,0.46014652014652013
5.259308552995208,0.28849816849816845,2.5312087912087913,0.46014652014652013
5.261029039000277,2.9712087912087912,1.3482051282051282,0.7534798534798535
5.26485464599682,2.9712087912087912,1.3482051282051282,0.7534798534798535
5.271329540992156,2.655311355311355,3.3,1.6463736263736264
5.277620146996924,3.3,1.701978021978022,1.1636630036630036
5.283327844997984,3.3,1.701978021978022,1.1636630036630036
5.292646382993553,3.3,1.701978021978022,1.1636630036630036
5.301530251992517,2.6682051282051282,3.3,1.1145054945054944
5.308283733989811,2.6682051282051282,3.3,1.1145054945054944
5.31415644599474,2.6682051282051282,3.3,1.1145054945054944
5.321223135993932,2.6682051282051282,3.3,1.1145054945054944
5.324942494989955,2.6682051282051282,3.3,1.1145054945054944
5.330873922997853,2.6682051282051282,3.3,1.1145054945054944
5.340513963994454,0.19743589743589743,2.415164835164835,0.2747985347985348
5.346200318992487,0.19743589743589743,2.415164835164835,0.2747985347985348
5.346446729992749,0.19743589743589743,2.415164835164835,0.2747985347985348
5.351621914000134,0.19743589743589743,2.415164835164835,0.2747985347985348
5.355317750989343,0.19743589743589743,2.415164835164835,0.2747985347985348
5.360575952989166,0.19743589743589743,2.415164835164835,0.2747985347985348
5.36494189799123,0.19743589743589743,2.415164835164835,0.2747985347985348
5.365160357992863,0.19743589743589743,2.415164835164835,0.2747985347985348
5.3742602999991504,0.19743589743589743,2.415164835164835,0.2747985347985348
5.382854741998017,0.19743589743589743,2.415164835164835,0.2747985347985348
5.387419544000295,2.071062271062271,0.3779487179487179,0.4867399267399267
5.387655565995374,3.3,0.48835164835164835,1.0717948717948718
5.396932736999588,3.3,0.48835164835164835,1.0717948717948718
5.404690571987885,3.3,0.48835164835164835,1.0717948717948718
5.411417163995793,3.3,0.48835164835164835,1.0717948717948718
5.415223658987088,3.3,0.48835164835164835,1.0717948717948718
5.420046952000121,3.3,0.48835164835164835,1.0717948717948718
5.425755260992446,1.5206593406593405,0.2804395604395604,0.6084249084249085
5.427052293991437,1.5206593406593405,0.2804395604395604,0.6084249084249085
5.4322280879860045,1.5206593406593405,0.2804395604395604,0.6084249084249085
5.435188872987055,3.3,2.4167765567765565,1.3264468864468864
5.438160818986944,3.3,2.4167765567765565,1.3264468864468864
5.4416575389914215,3.3,2.4167765567765565,1.3264468864468864
5.450398652988952,3.3,2.4167765567765565,1.3264468864468864
5.462082890997408,3.3,2.4167765567765565,1.3264468864468864
5.470288699987577,3.3,2.4167765567765565,1.3264468864468864
5.479676197996014,3.3,2.4167765567765565,1.3264468864468864
5.4851998669910245,3.3,2.4167765567765565,1.3264468864468864
5.4855316409957595,1.684249084249084,1.39010989010989,0.6745054945054945
5.493952840988641,1.684249084249084,1.39010989010989,0.6745054945054945
5.498598121994291,1.684249084249084,1.39010989010989,0.6745054945054945
5.498896516990499,2.216117216117216,0.9194871794871795,0.4254945054945055
5.503324652992887,2.216117216117216,0.9194871794871795,0.4254945054945055
5.505631819993141,2.216117216117216,0.9194871794871795,0.4254945054945055
5.505923960998189,2.216117216117216,0.9194871794871795,0.4254945054945055
5.512256654998055,2.216117216117216,0.9194871794871795,0.4254945054945055
5.516041854993091,2.216117216117216,0.9194871794871795,0.4254945054945055
5.521185440986301,2.216117216117216,0.9194871794871795,0.4254945054945055
5.525653121992946,1.3135531135531133,0.2191941391941392,0.606007326007326
5.526604139988194,1.3135531135531133,0.2191941391941392,0.606007326007326
5.528189195989398,1.3135531135531133,0.2191941391941392,0.606007326007326
5.532106238999404,1.3135531135531133,0.2191941391941392,0.606007326007326
5.536465633995249,1.3135531135531133,0.2191941391941392,0.606007326007326
5.538699301992892,1.3135531135531133,0.2191941391941392,0.606007326007326
5.538962838996667,2.6649816849816848,3.3,1.2764835164835164
5.546362107997993,1.7197069597069596,0.28285714285714286,0.7228571428571429
5.551339530997211,2.673040293040293,2.9720146520146518,1.8438095238095238
5.556836294999812,2.673040293040293,2.9720146520146518,1.8438095238095238
5.557040025989409,2.673040293040293,2.9720146520146518,1.8438095238095238
5.563158898992697,2.673040293040293,2.9720146520146518,1.8438095238095238
5.566226083989022,1.070989010989011,0.195018315018315,0.523003663003663
5.568650823988719,1.070989010989011,0.195018315018315,0.523003663003663
5.568921655998565,1.070989010989011,0.195018315018315,0.523003663003663
5.575288843989256,1.070989010989011,0.195018315018315,0.523003663003663
5.579327691986691,2.6150183150183146,0.8131135531135532,0.6591941391941392
5.581645095997374,2.6150183150183146,0.8131135531135532,0.6591941391941392
5.581877854987397,2.6150183150183146,0.8131135531135532,0.6591941391941392
5.586912783997832,2.6150183150183146,0.8131135531135532,0.6591941391941392
5.592946758988546,2.6150183150183146,0.8131135531135532,0.6591941391941392
5.598709240992321,2.8358241758241753,2.0557509157509157,1.0758241758241758
5.6074815439933445,2.8358241758241753,2.0557509157509157,1.0758241758241758
5.613885778991971,2.8358241758241753,2.0557509157509157,1.0758241758241758
5.619598063989542,2.8664468864468864,1.1104761904761904,0.8751648351648351
5.628448121991823,2.8664468864468864,1.1104761904761904,0.8751648351648351
5.633165724997525,2.8664468864468864,1.1104761904761904,0.8751648351648351
5.633404779990087,2.8664468864468864,1.1104761904761904,0.8751648351648351
5.63814871199429,2.8664468864468864,1.1104761904761904,0.8751648351648351
5.645724096990307,2.8664468864468864,1.1104761904761904,0.8751648351648351
5.650333179990412,2.8664468864468864,1.1104761904761904,0.8751648351648351
5.650594900987926,0.8219780219780219,2.4909157509157507,0.6293772893772893
5.655805732996669,0.8219780219780219,2.4909157509157507,0.6293772893772893
5.662623188996804,0.8219780219780219,2.4909157509157507,0.6293772893772893
5.666020327000297,0.8219780219780219,2.4909157509157507,0.6293772893772893
5.666269677996752,2.655311355311355,1.3715750915750915,1.7108424908424908
5.672790686992812,3.3,2.3652014652014652,0.5012454212454212
5.679271572997095,3.3,2.3652014652014652,0.5012454212454212
5.683033163993969,3.3,2.3652014652014652,0.5012454212454212
5.687444221999613,3.3,2.3652014652014652,0.5012454212454212
5.689191973986453,3.3,2.3652014652014652,0.5012454212454212
5.692495601993869,3.3,2.3652014652014652,0.5012454212454212
5.693573055992601,3.3,2.3652014652014652,0.5012454212454212
5.6937997059867484,3.3,2.3652014652014652,0.5012454212454212
5.698249770997791,3.3,2.3652014652014652,0.5012454212454212
5.699640336999437,2.6585347985347987,2.5400732600732603,1.4005860805860806
5.704747646988835,2.6585347985347987,2.5400732600732603,1.4005860805860806
5.7083786689909175,2.6585347985347987,2.5400732600732603,1.4005860805860806
5.713933121995069,0.2063003663003663,2.5207326007326003,0.4021245421245421
5.7147367559955455,0.2063003663003663,2.5207326007326003,0.4021245421245421
5.716354271993623,0.2063003663003663,2.5207326007326003,0.4021245421245421
5.720079283986706,2.4006593406593404,0.49802197802197795,0.622124542124542
5.726638500986155,2.4006593406593404,0.49802197802197795,0.622124542124542
5.731315735989483,2.4006593406593404,0.49802197802197795,0.622124542124542
5.73953382599575,3.0775824175824176,2.0186813186813186,1.1282051282051282
5.747448395995889,3.0775824175824176,2.0186813186813186,1.1282051282051282
5.751945449999766,3.0775824175824176,2.0186813186813186,1.1282051282051282
5.752193869993789,3.0775824175824176,2.0186813186813186,1.1282051282051282
5.760058674990432,3.0775824175824176,2.0186813186813186,1.1282051282051282
5.766145983987371,3.0775824175824176,2.0186813186813186,1.1282051282051282
5.771911433999776,2.6545054945054947,2.7665201465201466,1.8897435897435895
5.778041377998306,3.3,1.5867399267399267,1.1314285714285715
5.781143524000072,2.9357509157509156,0.8405128205128204,0.8235897435897436
5.783559110990609,2.9357509157509156,0.8405128205128204,0.8235897435897436
5.783763454994187,2.9357509157509156,0.8405128205128204,0.8235897435897436
5.788446998994914,2.9357509157509156,0.8405128205128204,0.8235897435897436
5.7886274219927145,2.652087912087912,2.541684981684982,1.4747252747252748
5.7962318639911246,2.652087912087912,2.541684981684982,1.4747252747252748
5.80083846198977,2.652087912087912,2.541684981684982,1.4747252747252748
5.801182514987886,2.652087912087912,2.541684981684982,1.4747252747252748
5.80572324199602,2.652087912087912,2.541684981684982,1.4747252747252748
5.807288138996228,2.652087912087912,2.541684981684982,1.4747252747252748
5.812556427990785,2.652087912087912,2.541684981684982,1.4747252747252748
5.813731416987139,2.4353113553113555,2.246739926739927,0.963003663003663
5.8140482119924854,2.4353113553113555,2.246739926739927,0.963003663003663
5.818573638985981,2.4353113553113555,2.246739926739927,0.963003663003663
5.818874774995493,2.4353113553113555,2.246739926739927,0.963003663003663
5.824773116997676,2.4353113553113555,2.246739926739927,0.963003663003663
5.831163748996914,2.4353113553113555,2.246739926739927,0.963003663003663
5.835064717990463,2.664175824175824,2.5424908424908423,1.4167032967032966
5.840140560991131,3.3,1.2547252747252746,0.9694505494505494
5.846076434987481,3.3,1.2547252747252746,0.9694505494505494
5.849759936987539,3.3,1.2547252747252746,0.9694505494505494
5.854985509999096,2.3893772893772893,2.4264468864468864,0.9646153846153847
5.858666541986167,2.3893772893772893,2.4264468864468864,0.9646153846153847
5.864290880999761,2.6528937728937727,3.3,1.4062271062271061
5.86445550499775,2.6528937728937727,3.3,1.4062271062271061
5.8688084469904425,2.6528937728937727,3.3,1.4062271062271061
5.870941931993002,2.6528937728937727,3.3,1.4062271062271061
5.871930056993733,2.6528937728937727,3.3,1.4062271062271061
5.87353561699274,2.6528937728937727,3.3,1.4062271062271061
5.879682391998358,2.6528937728937727,3.3,1.4062271062271061
5.883629582996946,2.6528937728937727,3.3,1.4062271062271061
5.8879796659894055,2.6528937728937727,3.3,1.4062271062271061
5.889631259997259,2.6528937728937727,3.3,1.4062271062271061
5.897497683996335,2.6528937728937727,3.3,1.4062271062271061
5.90468417199736,2.8696703296703294,0.8453479853479853,0.7695970695970695
5.912341783987358,2.8696703296703294,0.8453479853479853,0.7695970695970695
5.916769704999751,2.8696703296703294,0.8453479853479853,0.7695970695970695
5.916972576989792,2.8696703296703294,0.8453479853479853,0.7695970695970695
5.922017639997648,2.8696703296703294,0.8453479853479853,0.7695970695970695
5.93023365199042,2.1266666666666665,0.4722344322344322,0.7663736263736264
5.935401228998671,2.652087912087912,1.494871794871795,1.6302564102564103
5.939002717990661,2.165347985347985,0.3690842490842491,0.473040293040293
5.93913964300009,2.165347985347985,0.3690842490842491,0.473040293040293
5.9458432819956215,2.165347985347985,0.3690842490842491,0.473040293040293
5.949583736990462,2.165347985347985,0.3690842490842491,0.473040293040293
5.9497987590002595,2.165347985347985,0.3690842490842491,0.473040293040293
5.95343677100027,2.165347985347985,0.3690842490842491,0.473040293040293
5.960232522993465,2.9019047619047615,1.05003663003663,0.8106959706959707
5.96432432999427,2.9019047619047615,1.05003663003663,0.8106959706959707
5.968732403998729,2.9019047619047615,1.05003663003663,0.8106959706959707
5.969025708996924,2.9019047619047615,1.05003663003663,0.8106959706959707
5.977597587989294,2.9019047619047615,1.05003663003663,0.8106959706959707
5.98141984299582,1.822051282051282,0.4319413919413919,0.32717948717948714
5.986500741986674,1.822051282051282,0.4319413919413919,0.32717948717948714
5.992873489987687,1.822051282051282,0.4319413919413919,0.32717948717948714
5.996191870988696,1.822051282051282,0.4319413919413919,0.32717948717948714
5.996445581986336,1.822051282051282,0.4319413919413919,0.32717948717948714
6.001672080994467,1.822051282051282,0.4319413919413919,0.32717948717948714
6.008842854993418,1.822051282051282,0.4319413919413919,0.32717948717948714
6.012821496988181,1.822051282051282,0.4319413919413919,0.32717948717948714
6.016759924998041,3.3,2.324908424908425,1.378021978021978
6.019018164995941,3.3,2.324908424908425,1.378021978021978
6.019331350995344,3.3,2.324908424908425,1.378021978021978
6.0306653919979,3.3,2.324908424908425,1.378021978021978
6.043737501997384,3.3,2.324908424908425,1.378021978021978
6.058376862987643,3.3,2.324908424908425,1.378021978021978
6.074402726997505,1.2063736263736262,2.552967032967033,0.04271062271062271
6.074738342998899,1.2063736263736262,2.552967032967033,0.04271062271062271
6.083767887990689,1.2063736263736262,2.552967032967033,0.04271062271062271
6.094767258997308,1.2063736263736262,2.552967032967033,0.04271062271062271
6.104242156987311,1.2063736263736262,2.552967032967033,0.04271062271062271
6.111163146997569,1.2063736263736262,2.552967032967033,0.04271062271062271
6.115973109990591,1.2063736263736262,2.552967032967033,0.04271062271062271
6.121674760986934,1.2063736263736262,2.552967032967033,0.04271062271062271
6.122024492986384,0.9557509157509158,0.26996336996336995,0.5552380952380952
6.128183819993865,0.9557509157509158,0.26996336996336995,0.5552380952380952
6.131704344996251,0.9557509157509158,0.26996336996336995,0.5552380952380952
6.131862173991976,0.9557509157509158,0.26996336996336995,0.5552380952380952
6.1371141509880545,0.9557509157509158,0.26996336996336995,0.5552380952380952
6.140226414994686,0.9557509157509158,0.26996336996336995,0.5552380952380952
6.14255405998847,0.9557509157509158,0.26996336996336995,0.5552380952380952
6.142862135995529,0.9557509157509158,0.26996336996336995,0.5552380952380952
6.150865473988233,0.9557509157509158,0.26996336996336995,0.5552380952380952
6.15752634499222,0.9557509157509158,0.26996336996336995,0.5552380952380952
6.1625329539965605,2.2846153846153845,0.48754578754578753,0.5632967032967032
6.168021601988585,2.2846153846153845,0.48754578754578753,0.5632967032967032
6.176908840992837,2.2846153846153845,0.48754578754578753,0.5632967032967032
