time,emg1,emg2,emg3
0.03252286900533363,1.2668131868131869,2.5360439560439563,0.15472527472527473
0.045448365999618545,1.2668131868131869,2.5360439560439563,0.15472527472527473
0.05378755800484214,1.1547985347985346,0.31267399267399265,0.5278388278388277
0.05984581100346986,1.1547985347985346,0.31267399267399265,0.5278388278388277
0.06528328200511169,1.1547985347985346,0.31267399267399265,0.5278388278388277
0.06718182501208503,3.261318681318681,0.4585347985347985,0.9009523809523808
0.06912490600370802,1.4167032967032966,0.2747985347985348,0.5697435897435897
0.07107335900946055,2.6665934065934067,2.545714285714286,1.921978021978022
0.07300912099890411,2.6665934065934067,2.545714285714286,1.921978021978022
0.07497846901242156,3.3,2.83985347985348,1.0782417582417583
0.07684916800644714,3.3,2.83985347985348,1.0782417582417583
0.07955255301203579,3.3,2.83985347985348,1.0782417582417583
0.08391805400606245,3.3,2.83985347985348,1.0782417582417583
0.0843322970031295,3.3,2.83985347985348,1.0782417582417583
0.08953580500383396,3.3,2.83985347985348,1.0782417582417583
0.09225248100119643,3.3,2.83985347985348,1.0782417582417583
0.09697503100323956,3.3,2.83985347985348,1.0782417582417583
0.10223164501076099,2.6964102564102563,2.6005128205128205,1.5496703296703296
0.10477212000114378,3.3,3.3,0.6873992673992674
0.11058336299902294,3.3,3.3,0.6873992673992674
0.11074493000342045,2.9647619047619047,3.3,1.2474725274725273
0.11535174500022549,2.9647619047619047,3.3,1.2474725274725273
0.11564482800895348,2.9647619047619047,3.3,1.2474725274725273
0.12023166099970695,2.9647619047619047,3.3,1.2474725274725273
0.12051777000306174,2.9647619047619047,3.3,1.2474725274725273
0.12507483600347769,2.9647619047619047,3.3,1.2474725274725273
0.1254433090070961,2.9647619047619047,3.3,1.2474725274725273
0.13003330401261337,2.9647619047619047,3.3,1.2474725274725273
0.13035884501005057,2.9647619047619047,3.3,1.2474725274725273
0.13496504101203755,2.9647619047619047,3.3,1.2474725274725273
0.13519495401124004,1.788205128205128,2.8293772893772893,0.8848351648351648
0.13995947100920603,1.788205128205128,2.8293772893772893,0.8848351648351648
0.14008596500207204,1.788205128205128,2.8293772893772893,0.8848351648351648
0.14548885500698816,1.788205128205128,2.8293772893772893,0.8848351648351648
0.14745412400225177,2.9220512820512816,0.3892307692307692,0.8606593406593407
0.15119365201098844,2.9220512820512816,0.3892307692307692,0.8606593406593407
0.15558868501102552,2.9220512820512816,0.3892307692307692,0.8606593406593407
0.15649906800535973,2.9220512820512816,0.3892307692307692,0.8606593406593407
0.15810054101166315,2.9220512820512816,0.3892307692307692,0.8606593406593407
0.16252998101117555,2.9220512820512816,0.3892307692307692,0.8606593406593407
0.1634394850116223,2.9220512820512816,0.3892307692307692,0.8606593406593407
0.16504735199850984,2.9220512820512816,0.3892307692307692,0.8606593406593407
0.16880263701023068,2.9220512820512816,0.3892307692307692,0.8606593406593407
0.17341000400483608,2.9220512820512816,0.3892307692307692,0.8606593406593407
0.17368118801095989,3.3,2.736703296703297,1.0572893772893772
0.17826289100048598,3.3,2.736703296703297,1.0572893772893772
0.17912175500532612,3.1581684981684983,1.0967765567765566,0.6801465201465201
0.1801376630028244,3.1581684981684983,1.0967765567765566,0.6801465201465201
0.18106500701105688,3.1581684981684983,1.0967765567765566,0.6801465201465201
0.18201547001081053,3.1581684981684983,1.0967765567765566,0.6801465201465201
0.18357425300928298,3.3,3.3,0.5665201465201465
0.18741218400828075,3.3,3.3,0.5665201465201465
0.19195811700774357,3.3,3.3,0.5665201465201465
0.1923024150019046,3.3,3.3,0.5665201465201465
0.19861420600500423,3.3,3.3,0.5665201465201465
0.20383959299942944,2.702857142857143,2.701245421245421,1.5134065934065932
0.20469416400010232,2.702857142857143,2.701245421245421,1.5134065934065932
0.20638957600749563,2.702857142857143,2.701245421245421,1.5134065934065932
0.21318319100828376,2.702857142857143,2.701245421245421,1.5134065934065932
0.21860689000459388,2.473186813186813,1.2079853479853477,0.3876190476190476
0.21893923000607174,2.473186813186813,1.2079853479853477,0.3876190476190476
0.22931883500132244,3.3,0.967032967032967,0.7397802197802198
0.23508415700052865,3.3,0.967032967032967,0.7397802197802198
0.24114716000622138,3.3,3.3,0.29816849816849816
0.24669861100846902,3.3,3.3,0.29816849816849816
0.2468895909987623,3.3,2.6408058608058607,0.8654945054945055
0.2517030180024449,3.3,2.6408058608058607,0.8654945054945055
0.25749857000482734,2.6682051282051282,3.3,1.863150183150183
0.25762096801190637,2.6682051282051282,3.3,1.863150183150183
0.2649460079992423,2.6682051282051282,3.3,1.863150183150183
0.26904353000281844,2.6682051282051282,3.3,1.863150183150183
0.272238390010898,2.6682051282051282,3.3,1.863150183150183
0.2740488320123404,2.917216117216117,1.6262271062271063,0.3416849816849817
0.27767055500589777,2.917216117216117,1.6262271062271063,0.3416849816849817
0.292468761006603,2.917216117216117,1.6262271062271063,0.3416849816849817
0.30567645700648427,3.0356776556776555,0.7357509157509158,0.6156776556776556
0.32305793100385927,0.8582417582417583,0.3183150183150183,0.42710622710622714
0.32632162400113884,0.8582417582417583,0.3183150183150183,0.42710622710622714
0.34057502800715156,1.4263736263736264,0.30058608058608055,0.5947252747252747
0.3571644559997367,1.4263736263736264,0.30058608058608055,0.5947252747252747
0.3574974040093366,3.3,3.3,0.8808058608058608
0.3678035600023577,3.3,3.3,0.8808058608058608
0.3801674550049938,3.3,3.3,0.8808058608058608
0.39265052900009323,3.3,3.3,0.8808058608058608
0.402664672001265,3.183956043956044,0.4013186813186813,0.9452747252747251
0.4105958280124469,3.183956043956044,0.4013186813186813,0.9452747252747251
0.41674257900740486,1.0258608058608059,0.27641025641025635,0.4464468864468864
0.4203995620046044,1.0258608058608059,0.27641025641025635,0.4464468864468864
0.4294332240096992,2.42967032967033,0.4287179487179487,0.3642490842490842
0.4337398450006731,1.166080586080586,0.2772161172161172,0.4456410256410256
0.4365209590032464,2.6504761904761907,2.545714285714286,1.083076923076923
0.44324424500518944,2.6504761904761907,2.545714285714286,1.083076923076923
0.4477178030065261,2.6504761904761907,2.545714285714286,1.083076923076923
0.44787528199958615,2.6504761904761907,2.545714285714286,1.083076923076923
0.45306031400104985,2.6504761904761907,2.545714285714286,1.083076923076923
0.456243432010524,2.6504761904761907,2.545714285714286,1.083076923076923
0.45842292900488246,2.6504761904761907,2.545714285714286,1.083076923076923
0.4587643960112473,3.3,1.1233699633699634,0.8123076923076923
0.4651406410121126,3.3,1.1233699633699634,0.8123076923076923
0.4694188610010315,3.3,1.1233699633699634,0.8123076923076923
0.4713683810114162,3.3,1.1233699633699634,0.8123076923076923
0.4730939139990369,3.3,1.1233699633699634,0.8123076923076923
0.4778009730071062,3.3,1.1233699633699634,0.8123076923076923
0.48374337900895625,3.3,1.1233699633699634,0.8123076923076923
0.4895442830020329,3.3,1.1233699633699634,0.8123076923076923
0.49725056100578513,2.905128205128205,2.5424908424908423,0.7824908424908424
0.5013965399994049,0.24659340659340656,2.8229304029304028,0.5874725274725274
0.503794561009272,3.3,0.8630769230769231,0.718021978021978
0.503938793000998,3.3,0.8630769230769231,0.718021978021978
0.510048577998532,3.3,0.8630769230769231,0.718021978021978
0.515415985006257,3.3,0.8630769230769231,0.718021978021978
0.5164037040085532,2.655311355311355,2.545714285714286,1.149157509157509
0.5173892169987084,2.655311355311355,2.545714285714286,1.149157509157509
0.5183074870001292,2.655311355311355,2.545714285714286,1.149157509157509
0.5199786420125747,2.655311355311355,2.545714285714286,1.149157509157509
0.5230840080039343,3.3,1.0403663003663002,0.7953846153846154
0.5254132359987125,2.3813186813186813,0.5890842490842491,0.33604395604395604
0.5256814630120061,2.3813186813186813,0.5890842490842491,0.33604395604395604
0.5316926000086823,2.3813186813186813,0.5890842490842491,0.33604395604395604
0.535888430007617,2.655311355311355,3.3,1.5649816849816849
0.5376075950043742,2.655311355311355,3.3,1.5649816849816849
0.5410120770102367,2.655311355311355,3.3,1.5649816849816849
0.5415235450054752,2.655311355311355,3.3,1.5649816849816849
0.5480004630080657,2.655311355311355,3.3,1.5649816849816849
0.5522611780033913,2.655311355311355,3.3,1.5649816849816849
0.5547668360086391,2.897069597069597,1.108058608058608,0.5350915750915751
0.5625367250031559,2.897069597069597,1.108058608058608,0.5350915750915751
0.5666052140004467,2.897069597069597,1.108058608058608,0.5350915750915751
0.569240262004314,2.897069597069597,1.108058608058608,0.5350915750915751
0.575923349999357,2.897069597069597,1.108058608058608,0.5350915750915751
0.5805227630044101,2.897069597069597,1.108058608058608,0.5350915750915751
0.5806531859998358,2.897069597069597,1.108058608058608,0.5350915750915751
0.5858682870020857,2.897069597069597,1.108058608058608,0.5350915750915751
0.5883464940125123,2.897069597069597,1.108058608058608,0.5350915750915751
0.5969726240000455,2.897069597069597,1.108058608058608,0.5350915750915751
0.6018822040059604,2.897069597069597,1.108058608058608,0.5350915750915751
0.6074226190103218,2.897069597069597,1.108058608058608,0.5350915750915751
0.6079834580013994,1.411062271062271,0.3046153846153846,0.5471794871794872
0.6128124340029899,2.6649816849816848,3.3,1.3546520146520145
0.6168041730124969,3.3,3.3,0.5697435897435897
0.620771654008422,3.3,1.5947985347985347,1.0443956043956042
0.6239559350069612,3.3,1.5947985347985347,1.0443956043956042
0.6257562509999843,3.3,1.5947985347985347,1.0443956043956042
0.6297672830114607,3.3,1.5947985347985347,1.0443956043956042
0.6323830610053847,3.3,1.5947985347985347,1.0443956043956042
0.6371753190032905,3.3,1.5947985347985347,1.0443956043956042
0.6373055720032426,3.3,1.5947985347985347,1.0443956043956042
0.642929344001459,3.3,1.5947985347985347,1.0443956043956042
0.6432961090031313,3.034065934065934,0.7309157509157509,0.6132600732600733
0.6489664560067467,3.034065934065934,0.7309157509157509,0.6132600732600733
0.6491066800081171,3.034065934065934,0.7309157509157509,0.6132600732600733
0.6538582150096772,3.034065934065934,0.7309157509157509,0.6132600732600733
0.6540759380004602,2.6585347985347987,1.4690842490842488,1.4545787545787545
0.6595555910025723,2.6585347985347987,1.4690842490842488,1.4545787545787545
0.662736231010058,2.6585347985347987,1.4690842490842488,1.4545787545787545
0.6636947770020925,2.6585347985347987,1.4690842490842488,1.4545787545787545
0.6646215960063273,2.6585347985347987,1.4690842490842488,1.4545787545787545
0.6656016360066133,2.6585347985347987,1.4690842490842488,1.4545787545787545
0.667316450009821,2.6585347985347987,1.4690842490842488,1.4545787545787545
0.6705098450038349,2.6585347985347987,1.4690842490842488,1.4545787545787545
0.6721452670026338,2.6585347985347987,1.4690842490842488,1.4545787545787545
0.6767893920041388,2.6585347985347987,1.4690842490842488,1.4545787545787545
0.6831726689997595,2.6585347985347987,1.4690842490842488,1.4545787545787545
0.6870959230000153,2.66014652014652,0.5157509157509157,0.4794871794871795
0.6921901760069886,2.66014652014652,0.5157509157509157,0.4794871794871795
0.6983729979983764,2.66014652014652,0.5157509157509157,0.4794871794871795
0.7016937139997026,3.3,2.262857142857143,1.224102564102564
0.702595029011718,2.477216117216117,0.9331868131868131,0.26996336996336995
0.7042893140023807,2.477216117216117,0.9331868131868131,0.26996336996336995
0.7079005830019014,2.477216117216117,0.9331868131868131,0.26996336996336995
0.7158620020054514,2.477216117216117,0.9331868131868131,0.26996336996336995
0.7213860510091763,2.6802930402930403,2.0315750915750916,1.8655677655677654
0.7230542140023317,2.6802930402930403,2.0315750915750916,1.8655677655677654
0.7288946970074903,3.3,3.3,0.5697435897435897
0.733725679005147,3.3,3.3,0.5697435897435897
0.7392584730114322,2.864835164835165,0.6648351648351648,1.0315018315018314
0.7410863020049874,2.6665934065934067,1.7624175824175823,1.2047619047619047
0.7435533990064869,2.6665934065934067,1.7624175824175823,1.2047619047619047
0.752902175008785,2.6665934065934067,1.7624175824175823,1.2047619047619047
0.7599954200122738,1.8752380952380951,0.386007326007326,0.5584615384615385
0.7639053440070711,2.8382417582417583,0.5528205128205127,0.5278388278388277
0.7679869520070497,2.8382417582417583,0.5528205128205127,0.5278388278388277
0.7710611910006264,1.498095238095238,0.25545787545787546,0.5487912087912087
0.7726812010077992,2.6633699633699632,1.7043956043956046,1.7052014652014653
0.7796387429989409,2.291062271062271,3.042124542124542,0.17809523809523808
0.7829332680121297,2.291062271062271,3.042124542124542,0.17809523809523808
0.7838644120056415,2.652087912087912,3.3,0.527032967032967
0.7855344230047194,2.652087912087912,3.3,0.527032967032967
0.7887352649995591,2.652087912087912,3.3,0.527032967032967
0.7905072840076173,2.652087912087912,3.3,0.527032967032967
0.7947538860025816,2.652087912087912,3.3,0.527032967032967
0.7950617380120093,2.652087912087912,3.3,0.527032967032967
0.8005472220102092,2.652087912087912,3.3,0.527032967032967
0.8021537980093854,3.098534798534798,0.6712820512820512,0.5923076923076923
0.8060476120008389,3.098534798534798,0.6712820512820512,0.5923076923076923
0.8123114379995968,2.8551648351648353,0.3586080586080586,0.846153846153846
0.8155769820004934,2.8551648351648353,0.3586080586080586,0.846153846153846
0.8172126819990808,2.8551648351648353,0.3586080586080586,0.846153846153846
0.8203387829998974,2.8551648351648353,0.3586080586080586,0.846153846153846
0.8233900760096731,2.8551648351648353,0.3586080586080586,0.846153846153846
0.8263915360003011,2.8551648351648353,0.3586080586080586,0.846153846153846
0.8301509310113033,2.8551648351648353,0.3586080586080586,0.846153846153846
0.8334353280079085,2.8551648351648353,0.3586080586080586,0.846153846153846
0.8344068440055707,3.3,3.3,1.0726007326007325
0.8353277850110317,3.3,3.3,1.0726007326007325
0.8369287259993143,3.3,3.3,1.0726007326007325
0.8404425800108584,3.3,3.3,1.0726007326007325
0.8406225750077283,3.227472527472527,0.8211721611721612,0.6656410256410257
0.8476001770031871,3.227472527472527,0.8211721611721612,0.6656410256410257
0.8517253460013308,3.227472527472527,0.8211721611721612,0.6656410256410257
0.8540971540060127,3.227472527472527,0.8211721611721612,0.6656410256410257
0.8542969950067345,3.227472527472527,0.8211721611721612,0.6656410256410257
0.8608660960017005,3.227472527472527,0.8211721611721612,0.6656410256410257
0.8644887990085408,3.227472527472527,0.8211721611721612,0.6656410256410257
0.864605417009443,3.227472527472527,0.8211721611721612,0.6656410256410257
0.8693903920066077,3.227472527472527,0.8211721611721612,0.6656410256410257
0.8759924530022545,1.6495970695970694,1.286959706959707,0.6761172161172161
0.8804138370032888,1.6495970695970694,1.286959706959707,0.6761172161172161
0.8813424830004806,3.1356043956043953,0.8002197802197801,0.6527472527472526
0.8822549290052848,3.1356043956043953,0.8002197802197801,0.6527472527472526
0.8838690710108494,3.1356043956043953,0.8002197802197801,0.6527472527472526
0.887733292998746,2.6504761904761907,3.3,0.5375091575091575
0.8944438730104594,2.6504761904761907,3.3,0.5375091575091575
0.8981127720035147,2.6504761904761907,3.3,0.5375091575091575
0.9029986520035891,2.6504761904761907,3.3,0.5375091575091575
0.9101611049991334,2.6504761904761907,3.3,0.5375091575091575
0.9155881660117302,2.6504761904761907,3.3,0.5375091575091575
0.9158130720024928,2.449010989010989,2.718168498168498,1.025054945054945
0.9206414660002338,2.449010989010989,2.718168498168498,1.025054945054945
0.9281891830032691,3.042124542124542,0.7212454212454212,0.6197069597069597
0.931687652002438,1.9961172161172158,0.29655677655677654,0.6898168498168498
0.9319305040116888,1.9961172161172158,0.29655677655677654,0.6898168498168498
0.9365442100097425,1.9961172161172158,0.29655677655677654,0.6898168498168498
0.9368270240083802,1.9961172161172158,0.29655677655677654,0.6898168498168498
0.9426447600126266,1.9961172161172158,0.29655677655677654,0.6898168498168498
0.9497518980060704,2.880952380952381,0.6704761904761904,0.4827106227106227
0.9543757470091805,2.880952380952381,0.6704761904761904,0.4827106227106227
0.9546385800058488,2.880952380952381,0.6704761904761904,0.4827106227106227
0.960787332005566,2.880952380952381,0.6704761904761904,0.4827106227106227
0.9649722140020458,2.880952380952381,0.6704761904761904,0.4827106227106227
0.9673682389984606,2.880952380952381,0.6704761904761904,0.4827106227106227
0.9676152970059775,2.880952380952381,0.6704761904761904,0.4827106227106227
0.9732159500126727,2.880952380952381,0.6704761904761904,0.4827106227106227
0.9771801140013849,3.3,3.3,0.9517216117216116
0.9790216370020062,2.655311355311355,2.4828571428571427,1.4368498168498167
0.9807935650023865,3.3,1.1894505494505494,0.8791941391941391
0.9832199990050867,3.3,1.1894505494505494,0.8791941391941391
0.9834615150030004,3.3,1.1894505494505494,0.8791941391941391
0.9880713330057915,3.3,1.1894505494505494,0.8791941391941391
0.9882199840067187,3.3,1.1894505494505494,0.8791941391941391
0.9955327610077802,3.3,1.1894505494505494,0.8791941391941391
1.0022755610116292,3.3,1.1894505494505494,0.8791941391941391
1.0068641170073533,3.3,1.1894505494505494,0.8791941391941391
1.017520635999972,3.3,1.1894505494505494,0.8791941391941391
1.027024253999116,3.3,3.3,1.1435164835164835
1.0320116720104124,3.3,3.3,0.9855677655677655
1.0366565030126367,3.3,3.3,0.9855677655677655
1.0368537370086415,3.1775091575091574,2.6665934065934067,1.1588278388278386
1.0419239410111913,3.1775091575091574,2.6665934065934067,1.1588278388278386
1.0471613420086214,3.3,3.3,0.8703296703296703
1.0504158140101936,1.4884249084249084,0.39487179487179486,0.5528205128205127
1.0513603760045953,2.6617582417582417,3.3,1.8905494505494502
1.0522632780048298,2.6617582417582417,3.3,1.8905494505494502
1.053889747010544,2.6617582417582417,3.3,1.8905494505494502
1.0576181780052138,2.6617582417582417,3.3,1.8905494505494502
1.06608089900692,2.6617582417582417,3.3,1.8905494505494502
1.0735405570012517,2.6617582417582417,3.3,1.8905494505494502
1.0821319579990814,2.6617582417582417,3.3,1.8905494505494502
1.089257213010569,3.3,3.3,0.8622710622710623
1.092946420001681,3.3,3.3,0.8622710622710623
1.0973368820123142,3.3,3.3,0.8622710622710623
1.0987862780020805,3.3,3.3,0.8622710622710623
1.1030331250076415,2.457069597069597,0.6116483516483516,0.4037362637362637
1.1052159469982143,3.3,3.094505494505494,0.4416117216117216
1.1067068800039124,2.002564102564102,0.4085714285714286,0.6793406593406592
1.1108787220000522,2.002564102564102,0.4085714285714286,0.6793406593406592
1.1130789050075691,2.002564102564102,0.4085714285714286,0.6793406593406592
1.114552860002732,2.002564102564102,0.4085714285714286,0.6793406593406592
1.119512568009668,2.002564102564102,0.4085714285714286,0.6793406593406592
1.124420760999783,2.002564102564102,0.4085714285714286,0.6793406593406592
1.1290530120022595,2.002564102564102,0.4085714285714286,0.6793406593406592
1.1292050890042447,2.002564102564102,0.4085714285714286,0.6793406593406592
1.136419793998357,2.002564102564102,0.4085714285714286,0.6793406593406592
1.1419675890065264,2.002564102564102,0.4085714285714286,0.6793406593406592
1.1472362089989474,2.002564102564102,0.4085714285714286,0.6793406593406592
1.1501309930026764,2.002564102564102,0.4085714285714286,0.6793406593406592
1.1535482430044794,2.6649816849816848,3.3,1.8478388278388278
1.153940763004357,2.6649816849816848,3.3,1.8478388278388278
1.161129982006969,0.4005128205128205,2.8358241758241753,0.5221978021978021
1.1676284890127135,0.4005128205128205,2.8358241758241753,0.5221978021978021
1.1716160729993135,0.4005128205128205,2.8358241758241753,0.5221978021978021
1.1775158480013488,0.4005128205128205,2.8358241758241753,0.5221978021978021
1.1844597780000186,0.4005128205128205,2.8358241758241753,0.5221978021978021
1.1894697280076798,0.4005128205128205,2.8358241758241753,0.5221978021978021
1.1964042770123342,1.1757509157509156,0.28446886446886444,0.46820512820512816
1.2003281710058218,1.1757509157509156,0.28446886446886444,0.46820512820512816
1.2050134610035457,1.1757509157509156,0.28446886446886444,0.46820512820512816
1.2051578860118752,1.1757509157509156,0.28446886446886444,0.46820512820512816
1.2107314970053267,1.1757509157509156,0.28446886446886444,0.46820512820512816
1.2115826470108004,1.1757509157509156,0.28446886446886444,0.46820512820512816
1.213169465001556,1.1757509157509156,0.28446886446886444,0.46820512820512816
1.2170207330054836,1.1757509157509156,0.28446886446886444,0.46820512820512816
1.2209371130011277,0.5649084249084249,2.7657142857142856,0.6994871794871794
1.225066102007986,0.5649084249084249,2.7657142857142856,0.6994871794871794
1.2283755140088033,1.9026373626373623,0.38358974358974357,0.6253479853479853
1.229939224998816,0.9904029304029303,0.3191208791208791,0.419047619047619
1.2344883670011768,0.9904029304029303,0.3191208791208791,0.419047619047619
1.2353738290112233,0.9904029304029303,0.3191208791208791,0.419047619047619
1.2371690160071012,0.9904029304029303,0.3191208791208791,0.419047619047619
1.2403623780119233,0.9904029304029303,0.3191208791208791,0.419047619047619
1.2413725980004529,0.9904029304029303,0.3191208791208791,0.419047619047619
1.2422576899989508,0.9904029304029303,0.3191208791208791,0.419047619047619
1.2440344110073056,0.9904029304029303,0.3191208791208791,0.419047619047619
1.247199018005631,2.6504761904761907,3.3,0.6769230769230768
1.2496133860113332,2.6504761904761907,3.3,0.6769230769230768
1.2498502820089925,2.6754578754578753,3.3,1.382051282051282
1.2547765120107215,2.6754578754578753,3.3,1.382051282051282
1.2586963740031933,2.6754578754578753,3.3,1.382051282051282
1.2624924609990558,2.6754578754578753,3.3,1.382051282051282
1.267144276003819,3.3,0.9984615384615383,0.7865201465201466
1.2673401070060208,1.456190476190476,0.2482051282051282,0.5334798534798535
1.272680455003865,1.456190476190476,0.2482051282051282,0.5334798534798535
1.2750060630060034,1.456190476190476,0.2482051282051282,0.5334798534798535
1.2753401250083698,1.456190476190476,0.2482051282051282,0.5334798534798535
1.2805408510030247,1.456190476190476,0.2482051282051282,0.5334798534798535
1.2835736090055434,1.456190476190476,0.2482051282051282,0.5334798534798535
1.2858508200006327,1.456190476190476,0.2482051282051282,0.5334798534798535
1.2860717040020972,1.1483516483516483,0.2756043956043956,0.46739926739926735
1.2913369279995095,1.1483516483516483,0.2756043956043956,0.46739926739926735
1.2951190560124815,2.6617582417582417,1.5335531135531135,1.5931868131868132
1.3007037520001177,2.6617582417582417,1.5335531135531135,1.5931868131868132
1.3023140260047512,2.6617582417582417,1.5335531135531135,1.5931868131868132
1.3061628060095245,2.6617582417582417,1.5335531135531135,1.5931868131868132
1.3106161940086167,1.1684981684981686,0.26190476190476186,0.5133333333333333
1.3115124680043664,1.1684981684981686,0.26190476190476186,0.5133333333333333
1.3132427930104313,1.1684981684981686,0.26190476190476186,0.5133333333333333
1.3164400490059052,1.1684981684981686,0.26190476190476186,0.5133333333333333
1.3181952779996209,1.1684981684981686,0.26190476190476186,0.5133333333333333
1.3215819890028797,1.1684981684981686,0.26190476190476186,0.5133333333333333
1.3217897700087633,3.266153846153846,0.805054945054945,0.6761172161172161
1.327311308006756,3.266153846153846,0.805054945054945,0.6761172161172161
1.328831260005245,3.266153846153846,0.805054945054945,0.6761172161172161
1.3335833060118603,3.266153846153846,0.805054945054945,0.6761172161172161
1.3403070950007532,3.266153846153846,0.805054945054945,0.6761172161172161
1.3444282609998481,3.3,1.8994139194139192,1.1967032967032967
1.3468857789994217,3.3,1.8994139194139192,1.1967032967032967
1.3524630360043375,3.3,1.8994139194139192,1.1967032967032967
1.3541873450012645,3.3,1.8994139194139192,1.1967032967032967
1.3573920300113969,3.3,1.8994139194139192,1.1967032967032967
1.3582824900076957,3.3,1.8994139194139192,1.1967032967032967
1.3600729669997236,3.3,1.8994139194139192,1.1967032967032967
1.3624608509999234,3.3,1.8994139194139192,1.1967032967032967
1.362681660000817,3.3,1.8994139194139192,1.1967032967032967
1.367552447001799,3.3,1.8994139194139192,1.1967032967032967
1.372938188011176,3.3,1.8994139194139192,1.1967032967032967
1.374498963006772,3.3,1.8994139194139192,1.1967032967032967
1.3784641270030988,0.9839560439560439,2.791501831501831,0.7671794871794871
1.3822531559999334,0.9839560439560439,2.791501831501831,0.7671794871794871
1.38704465101182,0.9839560439560439,2.791501831501831,0.7671794871794871
1.392606845998671,0.9839560439560439,2.791501831501831,0.7671794871794871
1.394205716002034,0.9839560439560439,2.791501831501831,0.7671794871794871
1.398770694999257,1.7720879120879118,2.8873992673992674,0.24256410256410255
1.3990028929983964,1.7720879120879118,2.8873992673992674,0.24256410256410255
1.4040414150076685,1.7720879120879118,2.8873992673992674,0.24256410256410255
1.408002533004037,2.955091575091575,3.3,0.8799999999999999
1.4117387480073376,2.955091575091575,3.3,0.8799999999999999
1.4173062910122098,2.955091575091575,3.3,0.8799999999999999
1.418153261009138,2.955091575091575,3.3,0.8799999999999999
1.4198055770102656,2.955091575091575,3.3,0.8799999999999999
1.4229342860053293,2.955091575091575,3.3,0.8799999999999999
1.4253287760075182,2.955091575091575,3.3,0.8799999999999999
1.4255483390006702,2.955091575091575,3.3,0.8799999999999999
1.4301900840073358,2.955091575091575,3.3,0.8799999999999999
1.4304153300035978,2.955091575091575,3.3,0.8799999999999999
1.4350325150007848,2.955091575091575,3.3,0.8799999999999999
1.435305432009045,2.955091575091575,3.3,0.8799999999999999
1.4399756220082054,2.955091575091575,3.3,0.8799999999999999
1.4401828200061573,1.9316483516483516,0.36827838827838827,0.24578754578754577
1.4458393860113574,1.9316483516483516,0.36827838827838827,0.24578754578754577
1.4461235100025078,1.9316483516483516,0.36827838827838827,0.24578754578754577
1.4517823690111982,1.9316483516483516,0.36827838827838827,0.24578754578754577
1.452784660999896,3.3,3.0074725274725274,0.9476923076923076
1.453084419001243,3.3,3.0074725274725274,0.9476923076923076
1.4577427430049283,3.3,3.0074725274725274,0.9476923076923076
1.4580338730011135,3.3,3.0074725274725274,0.9476923076923076
1.4626925199991092,3.3,3.0074725274725274,0.9476923076923076
1.4630118810018757,3.3,3.0074725274725274,0.9476923076923076
1.4678472140076337,3.3,3.0074725274725274,0.9476923076923076
1.4728285410092212,3.3,3.0074725274725274,0.9476923076923076
1.4777127200068207,2.6633699633699632,1.5528937728937728,1.6584615384615384
1.4821391380100977,2.6633699633699632,1.5528937728937728,1.6584615384615384
1.4837382289988454,2.6875457875457873,0.5552380952380952,0.5221978021978021
1.4875251280027442,2.6875457875457873,0.5552380952380952,0.5221978021978021
1.4928057010110933,2.6875457875457873,0.5552380952380952,0.5221978021978021
1.4958022570062894,2.6875457875457873,0.5552380952380952,0.5221978021978021
1.4981392400077311,2.6875457875457873,0.5552380952380952,0.5221978021978021
1.4984503320010845,2.6875457875457873,0.5552380952380952,0.5221978021978021
1.5036978550051572,2.6875457875457873,0.5552380952380952,0.5221978021978021
1.5069839200004935,2.713333333333333,2.544908424908425,0.904981684981685
1.5073488970083417,2.7584615384615385,0.3078388278388278,0.83003663003663
1.511901689998922,2.7584615384615385,0.3078388278388278,0.83003663003663
1.5121655350085348,2.7584615384615385,0.3078388278388278,0.83003663003663
1.5176445380056975,2.7584615384615385,0.3078388278388278,0.83003663003663
1.5186723090009764,0.5213919413919413,2.8873992673992674,0.4851282051282051
1.5196034960099496,0.5213919413919413,2.8873992673992674,0.4851282051282051
1.5213271350075956,0.5213919413919413,2.8873992673992674,0.4851282051282051
1.5252199360111263,0.5213919413919413,2.8873992673992674,0.4851282051282051
1.5291831200011075,0.5213919413919413,2.8873992673992674,0.4851282051282051
1.5337747070007026,2.6577289377289377,3.3,1.8438095238095238
1.5340477120043943,2.6577289377289377,3.3,1.8438095238095238
1.5381212220090674,2.6577289377289377,3.3,1.8438095238095238
1.5407159550086362,2.6577289377289377,3.3,1.8438095238095238
1.5456000890117139,2.1879120879120877,0.37875457875457874,0.3578021978021978
1.5512346100003924,3.3,2.8745054945054944,0.4512820512820513
1.5522907039994607,2.655311355311355,3.3,1.66007326007326
1.5525830920087174,2.655311355311355,3.3,1.66007326007326
1.5575610990053974,2.655311355311355,3.3,1.66007326007326
1.5615031650086166,2.655311355311355,3.3,1.66007326007326
1.5653437200089684,2.655311355311355,3.3,1.66007326007326
1.5699078790057683,1.5851282051282052,0.2836630036630036,0.5955311355311355
1.5701928250055062,1.5851282051282052,0.2836630036630036,0.5955311355311355
1.5751485680084443,1.5851282051282052,0.2836630036630036,0.5955311355311355
1.5802014810033143,1.5851282051282052,0.2836630036630036,0.5955311355311355
1.5846116850007093,3.2129670329670326,1.0935531135531134,0.7518681318681318
1.585425342011149,3.2129670329670326,1.0935531135531134,0.7518681318681318
1.5875820010114694,3.2129670329670326,1.0935531135531134,0.7518681318681318
1.5884186740004225,3.2129670329670326,1.0935531135531134,0.7518681318681318
1.590567222010577,3.2129670329670326,1.0935531135531134,0.7518681318681318
1.5913748310122173,3.2129670329670326,1.0935531135531134,0.7518681318681318
1.5935219610109925,3.2129670329670326,1.0935531135531134,0.7518681318681318
1.5943591960094636,3.2129670329670326,1.0935531135531134,0.7518681318681318
1.5958960510033648,3.2129670329670326,1.0935531135531134,0.7518681318681318
1.6001260560005903,3.3,2.406300366300366,1.3884981684981685
1.6023948220099555,3.3,2.406300366300366,1.3884981684981685
1.6032365840073908,3.3,2.406300366300366,1.3884981684981685
1.6048021590104327,3.3,2.406300366300366,1.3884981684981685
1.6083763300121063,1.6979487179487176,0.2747985347985348,0.6084249084249085
1.6086340850015404,1.6979487179487176,0.2747985347985348,0.6084249084249085
1.6134490010008449,1.6979487179487176,0.2747985347985348,0.6084249084249085
1.6135643610032275,3.1823443223443224,2.3676190476190473,0.12893772893772892
1.6185234970034799,3.1823443223443224,2.3676190476190473,0.12893772893772892
1.6228447140019853,3.1823443223443224,2.3676190476190473,0.12893772893772892
1.624420710009872,3.1823443223443224,2.3676190476190473,0.12893772893772892
1.62870675099839,3.1823443223443224,2.3676190476190473,0.12893772893772892
1.630271703004837,3.1823443223443224,2.3676190476190473,0.12893772893772892
1.6352297530102078,3.1823443223443224,2.3676190476190473,0.12893772893772892
1.6395296679984313,3.3,3.3,0.4456410256410256
1.6412715980113717,3.3,3.3,0.4456410256410256
1.6448342040093848,3.3,3.3,0.4456410256410256
1.6449471410014667,3.3,3.3,0.4456410256410256
1.6499244029982947,3.3,3.3,0.4456410256410256
1.654878519999329,3.3,3.3,0.4456410256410256
1.659214127008454,3.3,3.3,0.4456410256410256
1.6614736340125091,3.3,1.2353846153846153,0.8252014652014652
1.6617477190011414,3.3,1.2353846153846153,0.8252014652014652
1.6667508660029853,3.3,1.2353846153846153,0.8252014652014652
1.6707414640113711,3.3,1.2353846153846153,0.8252014652014652
1.6740135209984146,3.3,3.2049084249084245,0.9428571428571427
1.6748972620116547,3.3,3.2049084249084245,0.9428571428571427
1.6765656400093576,3.3,3.2049084249084245,0.9428571428571427
1.6803617310069967,3.3,3.2049084249084245,0.9428571428571427
1.6851150310103549,3.3,3.2049084249084245,0.9428571428571427
1.68523903300229,3.3,3.2049084249084245,0.9428571428571427
1.6910557450028136,3.3,3.2049084249084245,0.9428571428571427
1.696519183999044,2.664175824175824,2.0638095238095238,1.8333333333333333
1.6982716390048154,2.664175824175824,2.0638095238095238,1.8333333333333333
1.7014689760108013,2.664175824175824,2.0638095238095238,1.8333333333333333
1.7031298350048019,2.664175824175824,2.0638095238095238,1.8333333333333333
1.7063848180114292,2.664175824175824,2.0638095238095238,1.8333333333333333
1.7080529990053037,2.664175824175824,2.0638095238095238,1.8333333333333333
1.7127914360025898,2.664175824175824,2.0638095238095238,1.8333333333333333
1.7209416850091657,2.984102564102564,2.302344322344322,0.13377289377289378
1.725540005005314,2.984102564102564,2.302344322344322,0.13377289377289378
1.726426553010242,2.984102564102564,2.302344322344322,0.13377289377289378
1.7280245700094383,2.984102564102564,2.302344322344322,0.13377289377289378
1.7323560250079026,2.6504761904761907,3.3,1.5786813186813187
1.7333752020058455,2.6504761904761907,3.3,1.5786813186813187
1.7342837550095282,2.6504761904761907,3.3,1.5786813186813187
1.7352058030082844,2.6504761904761907,3.3,1.5786813186813187
1.7369651190092554,2.6504761904761907,3.3,1.5786813186813187
1.7395941830036463,2.6504761904761907,3.3,1.5786813186813187
1.7443133980123093,2.6504761904761907,3.3,1.5786813186813187
1.74447025101108,3.3,2.103296703296703,0.3690842490842491
1.7490549680078402,3.3,2.103296703296703,0.3690842490842491
1.7493544620083412,3.3,2.103296703296703,0.3690842490842491
1.7546280170063255,3.3,2.103296703296703,0.3690842490842491
1.757497898011934,3.3,2.103296703296703,0.3690842490842491
1.761081713004387,3.3,2.103296703296703,0.3690842490842491
1.7662182620115345,3.3,2.103296703296703,0.3690842490842491
1.7704825760010863,3.3,3.3,0.4996336996336996
1.7721622780081816,3.3,3.3,0.4996336996336996
1.7769666090025567,3.3,3.3,0.4045421245421245
1.782651599001838,3.3,3.3,0.4045421245421245
1.7829322010074975,3.3,3.3,0.4045421245421245
1.7875220580026507,3.3,3.3,0.4045421245421245
1.7884051450091647,3.3,3.3,0.4045421245421245
1.7893468719994416,3.3,3.3,0.4045421245421245
1.790982480000821,3.3,3.3,0.4045421245421245
1.794109891008702,3.3,3.3,0.4045421245421245
1.7971483319997787,2.8551648351648353,2.1846886446886447,0.15472527472527473
1.7994919720076723,2.8551648351648353,2.1846886446886447,0.15472527472527473
1.7997211090114433,2.8551648351648353,2.1846886446886447,0.15472527472527473
1.804292571003316,2.8551648351648353,2.1846886446886447,0.15472527472527473
1.8058614910114557,2.8551648351648353,2.1846886446886447,0.15472527472527473
1.810200698004337,1.6447619047619046,0.28608058608058606,0.6043956043956044
1.811224654011312,1.813992673992674,1.5158241758241757,0.6906227106227106
1.81217205899884,1.813992673992674,1.5158241758241757,0.6906227106227106
1.8131787849997636,1.813992673992674,1.5158241758241757,0.6906227106227106
1.8149645080120536,3.3,2.743956043956044,1.0919413919413918
1.8175389600073686,3.3,2.743956043956044,1.0919413919413918
1.822907217007014,3.3,2.743956043956044,1.0919413919413918
1.8244951080123428,3.3,2.743956043956044,1.0919413919413918
1.8283162810112117,3.3,2.743956043956044,1.0919413919413918
1.832944107009098,3.3,2.743956043956044,1.0919413919413918
1.8331132470048033,3.3,2.743956043956044,1.0919413919413918
1.837963710000622,3.3,2.743956043956044,1.0919413919413918
1.8434739460062701,3.3,2.743956043956044,1.0919413919413918
1.8443400540127186,3.3,2.743956043956044,1.0919413919413918
1.8459086200018646,3.3,2.743956043956044,1.0919413919413918
1.8497518670046702,3.3,2.743956043956044,1.0919413919413918
1.8536102880025283,3.3,3.3,1.199120879120879
1.8582908030075487,2.685128205128205,1.1644688644688646,1.1862271062271061
1.858414766000351,2.685128205128205,1.1644688644688646,1.1862271062271061
1.8630591990076937,2.685128205128205,1.1644688644688646,1.1862271062271061
1.8632998780085472,3.3,1.0145787545787546,0.7986080586080586
1.867938673007302,3.3,1.0145787545787546,0.7986080586080586
1.8681626090110512,3.3,1.0145787545787546,0.7986080586080586
1.87353296999936,3.3,1.0145787545787546,0.7986080586080586
1.875859384002979,2.655311355311355,3.3,1.858315018315018
1.8760360440064687,2.655311355311355,3.3,1.858315018315018
1.8806319410068681,2.655311355311355,3.3,1.858315018315018
1.8815420140017522,3.287106227106227,1.153186813186813,0.7913553113553113
1.883182563004084,3.287106227106227,1.153186813186813,0.7913553113553113
1.88704517800943,3.3,0.7784615384615384,0.9323809523809523
1.891548560000956,3.3,0.7784615384615384,0.9323809523809523
1.8923853720043553,3.3,0.7784615384615384,0.9323809523809523
1.8940223579993472,3.3,0.7784615384615384,0.9323809523809523
1.8977892210095888,2.8229304029304028,2.992161172161172,0.14666666666666667
1.9031446750013856,2.8229304029304028,2.992161172161172,0.14666666666666667
1.9062013890070375,2.8229304029304028,2.992161172161172,0.14666666666666667
1.909103928002878,2.8229304029304028,2.992161172161172,0.14666666666666667
1.9113714670093032,2.6617582417582417,3.3,1.506959706959707
1.9121779000124661,2.6706227106227107,1.6076923076923075,1.5303296703296703
1.9137264450109797,2.6706227106227107,1.6076923076923075,1.5303296703296703
1.9179521550104255,2.6706227106227107,1.6076923076923075,1.5303296703296703
1.9195252370118396,2.6706227106227107,1.6076923076923075,1.5303296703296703
1.923758054006612,2.6706227106227107,1.6076923076923075,1.5303296703296703
1.925960552005563,2.6706227106227107,1.6076923076923075,1.5303296703296703
1.9267511260113679,2.6706227106227107,1.6076923076923075,1.5303296703296703
1.9282663150079316,2.6706227106227107,1.6076923076923075,1.5303296703296703
1.9325139139982639,2.6706227106227107,1.6076923076923075,1.5303296703296703
1.9347085720073665,3.227472527472527,2.5803663003663004,1.0621245421245422
1.935048943007132,3.227472527472527,2.5803663003663004,1.0621245421245422
1.940008781006327,3.227472527472527,2.5803663003663004,1.0621245421245422
1.944949674012605,3.227472527472527,2.5803663003663004,1.0621245421245422
1.9489897550083697,3.227472527472527,2.5803663003663004,1.0621245421245422
1.9520417720050318,2.1879120879120877,1.9799999999999998,0.7534798534798535
1.9545487389987102,2.1879120879120877,1.9799999999999998,0.7534798534798535
1.9599633400066523,0.4762637362637362,2.7504029304029305,0.7019047619047618
1.9616370709991315,0.4762637362637362,2.7504029304029305,0.7019047619047618
1.965672316000564,0.4762637362637362,2.7504029304029305,0.7019047619047618
1.968870089011034,1.4392673992673992,0.3263736263736263,0.5415384615384615
1.9706213510071393,1.4392673992673992,0.3263736263736263,0.5415384615384615
1.9743807460035896,2.6649816849816848,3.3,1.8969963369963367
1.9789126870018663,2.6649816849816848,3.3,1.8969963369963367
1.9791953220119467,2.6649816849816848,3.3,1.8969963369963367
1.984806362001109,2.6649816849816848,3.3,1.8969963369963367
1.9857280340074794,2.6649816849816848,3.3,1.8969963369963367
1.9866682490101084,2.6649816849816848,3.3,1.8969963369963367
1.988296519004507,2.6649816849816848,3.3,1.8969963369963367
1.992154516003211,2.6649816849816848,3.3,1.8969963369963367
1.9959936310042394,2.6649816849816848,3.3,1.8969963369963367
2.000494741005241,2.884175824175824,2.5626373626373624,1.1709157509157508
2.002090300011332,2.884175824175824,2.5626373626373624,1.1709157509157508
2.005914751003729,2.884175824175824,2.5626373626373624,1.1709157509157508
2.010327612006222,2.884175824175824,2.5626373626373624,1.1709157509157508
2.011189301003469,2.884175824175824,2.5626373626373624,1.1709157509157508
2.0133808930113446,2.884175824175824,2.5626373626373624,1.1709157509157508
2.0136448580014985,2.884175824175824,2.5626373626373624,1.1709157509157508
2.018558516007033,2.884175824175824,2.5626373626373624,1.1709157509157508
2.024025946011534,3.3,2.4747985347985346,1.3006593406593405
2.024445718008792,2.6746520146520147,2.548937728937729,0.8606593406593407
2.0310338600102114,2.6746520146520147,2.548937728937729,0.8606593406593407
2.03496675399947,3.3,0.6648351648351648,0.9992673992673992
2.0390612370101735,3.3,0.6648351648351648,0.9992673992673992
2.0421994860080304,3.3,0.6648351648351648,0.9992673992673992
2.0438011299993377,3.3,0.6648351648351648,0.9992673992673992
2.048107405003975,3.3,0.6648351648351648,0.9992673992673992
2.0490836360113462,3.3,0.6648351648351648,0.9992673992673992
2.0500444200006314,3.3,0.6648351648351648,0.9992673992673992
2.051032297007623,3.3,0.6648351648351648,0.9992673992673992
2.051954470007331,2.6536996336996337,1.3675457875457875,1.328058608058608
2.0537090450088726,2.6536996336996337,1.3675457875457875,1.328058608058608
2.05690312400111,2.6536996336996337,1.3675457875457875,1.328058608058608
2.0579199110070476,2.6536996336996337,1.3675457875457875,1.328058608058608
2.058799901002203,2.6536996336996337,1.3675457875457875,1.328058608058608
2.060544417006895,2.6536996336996337,1.3675457875457875,1.328058608058608
2.063802035001572,2.6536996336996337,1.3675457875457875,1.328058608058608
2.0648434460017597,3.3,3.3,0.8687179487179487
2.065839077011333,3.3,3.3,0.8687179487179487
2.066944912003237,3.3,3.3,0.8687179487179487
2.0673032570048235,3.3,3.3,0.8687179487179487
2.0723354880028637,3.3,3.3,0.8687179487179487
2.0771484340075403,3.3,3.3,0.8687179487179487
2.0818675460031955,3.3,3.3,0.8687179487179487
2.087416446011048,3.3,3.3,0.8687179487179487
2.0883755420072703,3.3,1.2684249084249084,0.938021978021978
2.0893057210050756,3.3,1.2684249084249084,0.938021978021978
2.0902343040070264,3.3,1.2684249084249084,0.938021978021978
2.091860047003138,3.3,1.2684249084249084,0.938021978021978
2.0956622100056848,3.3,1.2684249084249084,0.938021978021978
2.1001886349986307,3.3,1.2684249084249084,0.938021978021978
2.101017888999195,1.788205128205128,0.42630036630036633,0.2361172161172161
2.1019366960099433,1.788205128205128,0.42630036630036633,0.2361172161172161
2.103694458011887,1.788205128205128,0.42630036630036633,0.2361172161172161
2.1069368239986943,1.788205128205128,0.42630036630036633,0.2361172161172161
2.1084981210005935,1.6052747252747253,0.25787545787545785,0.6172893772893773
2.112413157999981,1.6052747252747253,0.25787545787545785,0.6172893772893773
2.117165867006406,1.6052747252747253,0.25787545787545785,0.6172893772893773
2.122994880002807,1.6052747252747253,0.25787545787545785,0.6172893772893773
2.1231239090120653,1.6052747252747253,0.25787545787545785,0.6172893772893773
2.1284960030025104,2.6617582417582417,3.3,0.8308424908424907
2.130844697006978,2.6617582417582417,3.3,0.8308424908424907
2.1309883600042667,2.6617582417582417,3.3,0.8308424908424907
2.13590980200388,2.6617582417582417,3.3,0.8308424908424907
2.1414344790100586,2.6617582417582417,3.3,0.8308424908424907
2.142294089004281,2.6617582417582417,3.3,0.8308424908424907
2.1439348670101026,2.6617582417582417,3.3,0.8308424908424907
2.1470551300008083,2.6617582417582417,3.3,0.8308424908424907
2.148757518007187,2.6617582417582417,3.3,0.8308424908424907
2.1527540320093976,2.6617582417582417,3.3,0.8308424908424907
2.156782245001523,2.6617582417582417,2.552967032967033,1.955018315018315
2.160001001000637,2.6617582417582417,2.552967032967033,1.955018315018315
2.160868621998816,2.8277655677655673,0.8429304029304028,0.6084249084249085
2.1624728060123743,2.8277655677655673,0.8429304029304028,0.6084249084249085
2.1664327879989287,2.8277655677655673,0.8429304029304028,0.6084249084249085
2.1702328770043096,3.3,0.6342124542124542,0.9742857142857142
2.1749627310055075,3.3,0.6342124542124542,0.9742857142857142
2.1804907320038183,3.3,0.6342124542124542,0.9742857142857142
2.181523452003603,3.3,0.6342124542124542,0.9742857142857142
2.1823813780065393,3.3,0.6342124542124542,0.9742857142857142
2.183958450012142,3.3,0.6342124542124542,0.9742857142857142
2.1878635290049715,3.3,2.484468864468864,0.7156043956043956
2.1926889950118493,3.1702564102564104,2.8100366300366297,0.9259340659340659
2.192946594004752,3.1702564102564104,2.8100366300366297,0.9259340659340659
2.1977984460099833,3.1702564102564104,2.8100366300366297,0.9259340659340659
2.202472168006352,3.1702564102564104,2.8100366300366297,0.9259340659340659
2.202612738008611,3.2548717948717947,0.9718681318681318,0.7712087912087912
2.2073839500080794,3.2548717948717947,0.9718681318681318,0.7712087912087912
2.2076010220043827,3.2548717948717947,0.9718681318681318,0.7712087912087912
2.21250272000907,3.2548717948717947,0.9718681318681318,0.7712087912087912
2.216432353001437,3.2548717948717947,0.9718681318681318,0.7712087912087912
2.2202584620099515,3.2548717948717947,0.9718681318681318,0.7712087912087912
2.224237879010616,3.2548717948717947,0.9718681318681318,0.7712087912087912
2.2282148570084246,3.2548717948717947,0.9718681318681318,0.7712087912087912
2.2315233840054134,3.2548717948717947,0.9718681318681318,0.7712087912087912
2.2318301269988297,3.2548717948717947,0.9718681318681318,0.7712087912087912
2.2366317800042452,3.2548717948717947,0.9718681318681318,0.7712087912087912
2.236805500011542,3.2548717948717947,0.9718681318681318,0.7712087912087912
2.241719637007918,2.6536996336996337,2.274945054945055,1.4674725274725273
2.2465217240096536,2.6536996336996337,2.274945054945055,1.4674725274725273
2.2518329360027565,2.6536996336996337,2.274945054945055,1.4674725274725273
2.254883569999947,2.6536996336996337,2.274945054945055,1.4674725274725273
2.257185060007032,2.6536996336996337,2.274945054945055,1.4674725274725273
2.2574146280094283,2.6536996336996337,2.274945054945055,1.4674725274725273
2.2620130450086435,2.6536996336996337,2.274945054945055,1.4674725274725273
2.2623553490120685,2.6536996336996337,2.274945054945055,1.4674725274725273
2.2669913650024682,2.6536996336996337,2.274945054945055,1.4674725274725273
2.267189470003359,2.6536996336996337,2.274945054945055,1.4674725274725273
2.272717138999724,2.6536996336996337,2.274945054945055,1.4674725274725273
2.273622710010386,2.655311355311355,3.3,1.7833699633699631
2.2752867250092095,2.655311355311355,3.3,1.7833699633699631
2.279189185006544,2.655311355311355,3.3,1.7833699633699631
2.2830149000074016,3.3,2.2475457875457874,1.3119413919413918
2.2871077800082276,3.3,2.2475457875457874,1.3119413919413918
2.2908175280026626,1.3788278388278388,1.0887179487179486,0.5979487179487178
2.295368329010671,1.3788278388278388,1.0887179487179486,0.5979487179487178
2.2956445240124594,2.9712087912087912,3.3,1.1507692307692305
2.3002357780060265,2.9712087912087912,3.3,1.1507692307692305
2.300521598008345,3.3,1.290989010989011,0.8542124542124543
2.305291353011853,3.3,1.290989010989011,0.8542124542124543
2.3109791910101194,3.3,1.290989010989011,0.8542124542124543
2.3113027729996247,2.6673992673992672,3.3,1.80996336996337
2.3159725010045804,2.6673992673992672,3.3,1.80996336996337
2.316305967004155,2.6673992673992672,3.3,1.80996336996337
2.3211029910016805,2.6673992673992672,3.3,1.80996336996337
2.3266192950104596,2.6673992673992672,3.3,1.80996336996337
2.3274722030037083,2.6673992673992672,3.3,1.80996336996337
2.329076020003413,2.6673992673992672,3.3,1.80996336996337
2.3328531260049203,2.6673992673992672,3.3,1.80996336996337
2.3375596230034716,3.3,3.3,0.7913553113553113
2.3432531190046575,3.3,3.3,0.7913553113553113
2.3440924110036576,3.3,2.7463736263736265,0.9259340659340659
2.345033431003685,3.3,2.7463736263736265,0.9259340659340659
2.3466151430038735,3.3,2.7463736263736265,0.9259340659340659
2.350482052002917,3.3,2.7463736263736265,0.9259340659340659
2.3543551530019613,3.3,2.7463736263736265,0.9259340659340659
2.3582260930124903,3.3,3.3,1.1008058608058606
2.363815884003998,3.3,3.3,1.1008058608058606
2.3640860490122577,3.3,3.3,1.1008058608058606
2.3690875750035048,3.3,3.3,1.1008058608058606
2.374048131998279,3.3,3.3,1.1008058608058606
2.3785862140066456,2.651282051282051,1.577875457875458,1.452161172161172
2.3788880799984327,2.651282051282051,1.577875457875458,1.452161172161172
2.3837235670071095,2.651282051282051,1.577875457875458,1.452161172161172
2.3894027860078495,2.6488644688644687,3.3,0.5221978021978021
2.3897883980098413,3.029230769230769,2.727032967032967,0.9025641025641026
2.3946196420001797,3.029230769230769,2.727032967032967,0.9025641025641026
2.400198289004038,0.8969230769230768,2.8471062271062273,0.792967032967033
2.4010748770087957,3.3,1.0097435897435898,0.763956043956044
2.4026731430058135,3.3,1.0097435897435898,0.763956043956044
2.406513485009782,3.3,1.0097435897435898,0.763956043956044
2.4110276290011825,3.3,1.5013186813186812,0.9065934065934066
2.411354748008307,3.3,1.5013186813186812,0.9065934065934066
2.4159071520116413,3.3,1.5013186813186812,0.9065934065934066
2.4163099420111394,3.3,1.5013186813186812,0.9065934065934066
2.420974902008311,3.3,1.5013186813186812,0.9065934065934066
2.42120661700028,3.3,1.5013186813186812,0.9065934065934066
2.4258889949996956,3.3,1.5013186813186812,0.9065934065934066
2.426047686007223,3.3,1.5013186813186812,0.9065934065934066
2.430904028005898,3.3,1.5013186813186812,0.9065934065934066
2.431040433002636,2.659340659340659,3.3,1.7704761904761903
2.4360853990074247,2.659340659340659,3.3,1.7704761904761903
2.4400421930040466,2.659340659340659,3.3,1.7704761904761903
2.443494436010951,2.659340659340659,3.3,1.7704761904761903
2.4437546750123147,2.659340659340659,3.3,1.7704761904761903
2.448716011000215,2.659340659340659,3.3,1.7704761904761903
2.4533038869994925,2.659340659340659,3.3,1.7704761904761903
2.453536590008298,2.71010989010989,1.39010989010989,0.3811721611721612
2.4581320190045517,2.71010989010989,1.39010989010989,0.3811721611721612
2.4584258850081824,2.8326007326007323,2.726227106227106,1.1733333333333333
2.463116409999202,2.8326007326007323,2.726227106227106,1.1733333333333333
2.4633056730090175,2.8326007326007323,2.726227106227106,1.1733333333333333
2.4679096800100524,2.8326007326007323,2.726227106227106,1.1733333333333333
2.4688064490037505,2.8326007326007323,2.726227106227106,1.1733333333333333
2.470392133007408,2.8326007326007323,2.726227106227106,1.1733333333333333
2.4741375710000284,2.8326007326007323,2.726227106227106,1.1733333333333333
2.4784872150048614,1.4473260073260072,2.813260073260073,0.904981684981685
2.4800512660003733,1.4473260073260072,2.813260073260073,0.904981684981685
2.4841942560015013,1.4473260073260072,2.813260073260073,0.904981684981685
2.4864259989990387,1.4473260073260072,2.813260073260073,0.904981684981685
2.487223713003914,1.4473260073260072,2.813260073260073,0.904981684981685
2.4894109760061838,1.4473260073260072,2.813260073260073,0.904981684981685
2.49026683899865,1.4473260073260072,2.813260073260073,0.904981684981685
2.491752344998531,1.4473260073260072,2.813260073260073,0.904981684981685
2.495993434000411,1.4473260073260072,2.813260073260073,0.904981684981685
2.498178968002321,1.4473260073260072,2.813260073260073,0.904981684981685
2.4990213080018293,1.4473260073260072,2.813260073260073,0.904981684981685
2.5005975690000923,1.4473260073260072,2.813260073260073,0.904981684981685
2.504880888009211,1.4473260073260072,2.813260073260073,0.904981684981685
2.5070403850113507,1.4473260073260072,2.813260073260073,0.904981684981685
2.5078284470073413,1.4473260073260072,2.813260073260073,0.904981684981685
2.509375556008308,1.4473260073260072,2.813260073260073,0.904981684981685
2.5137109990027966,1.4473260073260072,2.813260073260073,0.904981684981685
2.5152208850049647,1.4473260073260072,2.813260073260073,0.904981684981685
2.5202147970121587,1.4473260073260072,2.813260073260073,0.904981684981685
2.523929376999149,1.4473260073260072,2.813260073260073,0.904981684981685
2.528844159998698,2.947032967032967,2.565054945054945,0.8115018315018314
2.5331222870008787,2.947032967032967,2.565054945054945,0.8115018315018314
2.5346932969987392,2.947032967032967,2.565054945054945,0.8115018315018314
2.5389256449998356,2.947032967032967,2.565054945054945,0.8115018315018314
2.5420224880072055,2.947032967032967,2.565054945054945,0.8115018315018314
2.542351875003078,2.947032967032967,2.565054945054945,0.8115018315018314
2.546683822001796,2.947032967032967,2.565054945054945,0.8115018315018314
2.5481976900045993,2.947032967032967,2.565054945054945,0.8115018315018314
2.552390032011317,2.947032967032967,2.565054945054945,0.8115018315018314
2.555246340998565,2.6617582417582417,1.5117948717948717,1.3973626373626373
2.5582449930079747,2.6617582417582417,1.5117948717948717,1.3973626373626373
2.561142363003455,2.6617582417582417,1.5117948717948717,1.3973626373626373
2.564113789005205,2.6617582417582417,1.5117948717948717,1.3973626373626373
2.566435722008464,2.6617582417582417,1.5117948717948717,1.3973626373626373
2.5672193000064,2.6617582417582417,1.5117948717948717,1.3973626373626373
2.5694725350040244,2.6617582417582417,1.5117948717948717,1.3973626373626373
2.5696873370034155,3.3,3.3,1.270842490842491
2.5746393790032016,2.6665934065934067,1.6246153846153846,1.739047619047619
2.5789131830097176,2.6665934065934067,1.6246153846153846,1.739047619047619
2.5804591960040852,3.3,1.577875457875458,1.1056410256410254
2.5848342329991283,3.3,1.577875457875458,1.1056410256410254
2.58572603900393,2.2797802197802195,0.46417582417582415,0.4013186813186813
2.58729859199957,2.2797802197802195,0.46417582417582415,0.4013186813186813
2.5915729660046054,2.2797802197802195,0.46417582417582415,0.4013186813186813
2.593768724007532,2.2797802197802195,0.46417582417582415,0.4013186813186813
2.5946335930057103,2.2797802197802195,0.46417582417582415,0.4013186813186813
2.596804183005588,2.2797802197802195,0.46417582417582415,0.4013186813186813
2.597571151010925,2.2797802197802195,0.46417582417582415,0.4013186813186813
2.599795382004231,2.2797802197802195,0.46417582417582415,0.4013186813186813
2.6006021720095305,2.2797802197802195,0.46417582417582415,0.4013186813186813
2.602795946004335,2.2797802197802195,0.46417582417582415,0.4013186813186813
2.6030598400102463,2.2797802197802195,0.46417582417582415,0.4013186813186813
2.6079355250112712,2.2797802197802195,0.46417582417582415,0.4013186813186813
2.6080908910080325,2.2797802197802195,0.46417582417582415,0.4013186813186813
2.6129361860075733,2.2797802197802195,0.46417582417582415,0.4013186813186813
2.6130612900014967,2.2797802197802195,0.46417582417582415,0.4013186813186813
2.617916688002879,2.2797802197802195,0.46417582417582415,0.4013186813186813
2.622913838000386,2.2797802197802195,0.46417582417582415,0.4013186813186813
2.626481938001234,2.2797802197802195,0.46417582417582415,0.4013186813186813
2.626741647007293,3.3,0.7558974358974359,0.9742857142857142
2.631618162005907,3.3,0.7558974358974359,0.9742857142857142
2.63654103501176,3.3,0.7558974358974359,0.9742857142857142
2.6415355050121434,3.3,0.7558974358974359,0.9742857142857142
2.6468658310041064,3.3,0.7558974358974359,0.9742857142857142
2.649014752008952,3.3,0.7558974358974359,0.9742857142857142
2.6493653360084863,3.3,0.7558974358974359,0.9742857142857142
2.653631419001613,3.3,0.7558974358974359,0.9742857142857142
2.656460566999158,3.3,0.7558974358974359,0.9742857142857142
2.6600545830006013,3.3,0.7558974358974359,0.9742857142857142
2.6650429139990592,2.3498901098901097,0.6487179487179486,0.4698168498168498
2.669993436007644,2.5038095238095237,0.27238095238095233,0.8187545787545787
2.6700939490110613,2.5038095238095237,0.27238095238095233,0.8187545787545787
2.6749845720041776,2.5038095238095237,0.27238095238095233,0.8187545787545787
2.6799904940126,2.5038095238095237,0.27238095238095233,0.8187545787545787
2.6844467500050087,2.5038095238095237,0.27238095238095233,0.8187545787545787
2.6852831750002224,2.5038095238095237,0.27238095238095233,0.8187545787545787
2.686910759002785,2.5038095238095237,0.27238095238095233,0.8187545787545787
2.6906870560051175,2.5038095238095237,0.27238095238095233,0.8187545787545787
2.6953031700104475,2.5038095238095237,0.27238095238095233,0.8187545787545787
2.695598748003249,2.5038095238095237,0.27238095238095233,0.8187545787545787
2.7002459290088154,2.5038095238095237,0.27238095238095233,0.8187545787545787
2.700473585005966,3.3,2.1975824175824172,1.2506959706959706
2.7051180440030294,3.3,2.1975824175824172,1.2506959706959706
2.7053586760011967,3.3,2.1975824175824172,1.2506959706959706
2.7100864790118067,3.3,2.1975824175824172,1.2506959706959706
2.7155093340115855,3.3,2.1975824175824172,1.2506959706959706
2.7185959610069403,3.3,2.1975824175824172,1.2506959706959706
2.7209500830067554,3.3,2.1975824175824172,1.2506959706959706
2.721177779007121,3.3,2.1975824175824172,1.2506959706959706
2.7267421210126486,3.3,2.1975824175824172,1.2506959706959706
2.7270179190090857,3.3,2.1975824175824172,1.2506959706959706
2.732359380010166,3.3,2.1975824175824172,1.2506959706959706
2.73409144001198,2.689157509157509,3.3,1.4416849816849817
2.737186792001012,2.689157509157509,3.3,1.4416849816849817
2.739501107003889,2.689157509157509,3.3,1.4416849816849817
2.739656889010803,2.689157509157509,3.3,1.4416849816849817
2.744292129005771,3.3,1.058901098901099,0.8147252747252747
2.7445206590055022,3.3,1.058901098901099,0.8147252747252747
2.7494648050051183,3.3,1.058901098901099,0.8147252747252747
2.7545192710094852,3.3,1.058901098901099,0.8147252747252747
2.7583377859991742,3.3,1.058901098901099,0.8147252747252747
2.762662426001043,3.3,1.5174358974358972,0.909010989010989
2.7641348770121112,3.3,1.5174358974358972,0.909010989010989
2.7688846420060145,3.3,1.5174358974358972,0.909010989010989
2.769020061008632,3.3,1.5174358974358972,0.909010989010989
2.774081986004603,3.3,1.5174358974358972,0.909010989010989
2.7804552870074986,3.3,1.5174358974358972,0.909010989010989
2.7850654430076247,3.3,1.5174358974358972,0.909010989010989
2.790469811006915,1.9284249084249083,0.6076190476190476,0.23853479853479853
2.7937124260060955,1.2676190476190476,0.25787545787545785,0.5254212454212454
2.7946027270081686,1.2676190476190476,0.25787545787545785,0.5254212454212454
2.7962935350078624,1.2676190476190476,0.25787545787545785,0.5254212454212454
2.800236159004271,1.2676190476190476,0.25787545787545785,0.5254212454212454
2.8033931240061065,1.2676190476190476,0.25787545787545785,0.5254212454212454
2.805014491008478,1.2676190476190476,0.25787545787545785,0.5254212454212454
2.808887171006063,2.237875457875458,0.3690842490842491,0.7413919413919414
2.8135247970058117,2.237875457875458,0.3690842490842491,0.7413919413919414
2.8136963959987042,2.237875457875458,0.3690842490842491,0.7413919413919414
2.819042575007188,2.237875457875458,0.3690842490842491,0.7413919413919414
2.821425462010666,2.237875457875458,0.3690842490842491,0.7413919413919414
2.821675135011901,2.7334798534798534,0.6986813186813187,0.5931135531135531
2.826469582010759,2.7334798534798534,0.6986813186813187,0.5931135531135531
2.8266865970072104,2.7334798534798534,0.6986813186813187,0.5931135531135531
2.831534120006836,2.7334798534798534,0.6986813186813187,0.5931135531135531
2.836949122007354,2.7334798534798534,0.6986813186813187,0.5931135531135531
2.839330005008378,2.7334798534798534,0.6986813186813187,0.5931135531135531
2.839507909011445,2.7334798534798534,0.6986813186813187,0.5931135531135531
2.8485621030122275,2.7334798534798534,0.6986813186813187,0.5931135531135531
2.853497909003636,3.2790476190476188,2.9180219780219776,0.9146520146520146
2.8635871190053876,3.2790476190476188,2.9180219780219776,0.9146520146520146
2.8731840530090267,3.2790476190476188,2.9180219780219776,0.9146520146520146
2.882605179998791,3.2790476190476188,2.9180219780219776,0.9146520146520146
2.8889589210011763,3.2790476190476188,2.9180219780219776,0.9146520146520146
2.8958315580093767,3.2790476190476188,2.9180219780219776,0.9146520146520146
2.8998128110106336,3.2790476190476188,2.9180219780219776,0.9146520146520146
2.9031440780090634,3.2790476190476188,2.9180219780219776,0.9146520146520146
2.9040914140059613,3.2790476190476188,2.9180219780219776,0.9146520146520146
2.905270803006715,3.2790476190476188,2.9180219780219776,0.9146520146520146
2.90567710500909,3.2790476190476188,2.9180219780219776,0.9146520146520146
2.9138127010082826,3.2790476190476188,2.9180219780219776,0.9146520146520146
2.9190428540023277,2.6802930402930403,1.4852014652014651,1.3562637362637362
2.9206814490025863,2.6802930402930403,1.4852014652014651,1.3562637362637362
2.9283661680092337,2.6802930402930403,1.4852014652014651,1.3562637362637362
2.934310254000593,2.6802930402930403,1.4852014652014651,1.3562637362637362
2.9401838820049306,2.6802930402930403,1.4852014652014651,1.3562637362637362
2.9459411360003287,1.950989010989011,2.771355311355311,1.0613186813186812
2.9506955510005355,1.950989010989011,2.771355311355311,1.0613186813186812
2.9508384150103666,1.950989010989011,2.771355311355311,1.0613186813186812
2.9554555420036195,1.950989010989011,2.771355311355311,1.0613186813186812
2.955771086009918,1.950989010989011,2.771355311355311,1.0613186813186812
2.9620259830116993,1.950989010989011,2.771355311355311,1.0613186813186812
2.9652128200104926,1.950989010989011,2.771355311355311,1.0613186813186812
2.966998237010557,1.950989010989011,2.771355311355311,1.0613186813186812
2.9702970790094696,1.950989010989011,2.771355311355311,1.0613186813186812
2.971466077011428,1.598021978021978,1.3707692307692307,0.7333333333333333
2.9716249560005963,1.598021978021978,1.3707692307692307,0.7333333333333333
2.9791355850029504,1.598021978021978,1.3707692307692307,0.7333333333333333
2.9835629480076022,1.598021978021978,1.3707692307692307,0.7333333333333333
2.9845043570094276,1.598021978021978,1.3707692307692307,0.7333333333333333
2.9854417739989003,1.598021978021978,1.3707692307692307,0.7333333333333333
2.9870697050064337,1.598021978021978,1.3707692307692307,0.7333333333333333
2.992446807998931,1.598021978021978,1.3707692307692307,0.7333333333333333
2.9952299790020334,1.598021978021978,1.3707692307692307,0.7333333333333333
2.998532244004309,1.598021978021978,1.3707692307692307,0.7333333333333333
2.9994669900042936,1.598021978021978,1.3707692307692307,0.7333333333333333
3.000544506008737,1.598021978021978,1.3707692307692307,0.7333333333333333
3.0008252520055976,1.598021978021978,1.3707692307692307,0.7333333333333333
3.005496668003616,1.598021978021978,1.3707692307692307,0.7333333333333333
3.0058082030009245,1.598021978021978,1.3707692307692307,0.7333333333333333
3.011718848007149,1.598021978021978,1.3707692307692307,0.7333333333333333
3.0164368560072035,1.598021978021978,1.3707692307692307,0.7333333333333333
3.0166085740056587,1.598021978021978,1.3707692307692307,0.7333333333333333
3.0213571580097778,1.598021978021978,1.3707692307692307,0.7333333333333333
3.0214589960087324,2.4828571428571427,0.6350183150183151,0.43597069597069593
3.0297260510124033,2.4828571428571427,0.6350183150183151,0.43597069597069593
3.0345923990098527,2.4828571428571427,0.6350183150183151,0.43597069597069593
3.0401792640041094,2.9953846153846153,0.6043956043956044,0.6616117216117217
3.041641656003776,2.9953846153846153,0.6043956043956044,0.6616117216117217
3.046755147006479,2.9953846153846153,0.6043956043956044,0.6616117216117217
3.049128306010971,2.9953846153846153,0.6043956043956044,0.6616117216117217
3.049358796008164,2.9953846153846153,0.6043956043956044,0.6616117216117217
3.0550819750060327,2.9953846153846153,0.6043956043956044,0.6616117216117217
3.0553024420078145,2.9953846153846153,0.6043956043956044,0.6616117216117217
3.0636043720005546,2.9953846153846153,0.6043956043956044,0.6616117216117217
3.067697179998504,2.9953846153846153,0.6043956043956044,0.6616117216117217
3.0708395010005916,2.9953846153846153,0.6043956043956044,0.6616117216117217
3.0741958069993416,2.9953846153846153,0.6043956043956044,0.6616117216117217
3.074357739998959,2.9953846153846153,0.6043956043956044,0.6616117216117217
3.0805855950020486,2.9953846153846153,0.6043956043956044,0.6616117216117217
3.08440884501033,2.9953846153846153,0.6043956043956044,0.6616117216117217
3.0893532390036853,2.9953846153846153,0.6043956043956044,0.6616117216117217
3.097360733008827,2.9953846153846153,0.6043956043956044,0.6616117216117217
3.1021426740044262,2.7504029304029305,2.916410256410256,0.15875457875457877
3.1103544060024433,2.7504029304029305,2.916410256410256,0.15875457875457877
3.115431691010599,2.7504029304029305,2.916410256410256,0.15875457875457877
3.1188638450112194,2.7504029304029305,2.916410256410256,0.15875457875457877
3.11907353400602,2.7504029304029305,2.916410256410256,0.15875457875457877
3.126213572002598,2.7504029304029305,2.916410256410256,0.15875457875457877
3.1302700680098496,1.7285714285714286,0.2506227106227106,0.6406593406593406
3.132598271011375,1.7285714285714286,0.2506227106227106,0.6406593406593406
3.132949134000228,1.7285714285714286,0.2506227106227106,0.6406593406593406
3.136907609004993,1.7285714285714286,0.2506227106227106,0.6406593406593406
3.141050645004725,1.7285714285714286,0.2506227106227106,0.6406593406593406
3.1437778240069747,1.7285714285714286,0.2506227106227106,0.6406593406593406
3.147685388001264,2.652087912087912,3.3,0.6914285714285714
3.1515253010002198,2.652087912087912,3.3,0.6914285714285714
3.1569603410025593,3.3,0.5649084249084249,0.8558241758241758
3.1598721379996277,3.3,0.5649084249084249,0.8558241758241758
3.1615596680057934,2.958315018315018,0.90014652014652,0.6519413919413919
3.164915983012179,2.8986813186813185,0.6745054945054945,0.6132600732600733
3.165176637005061,2.8986813186813185,0.6745054945054945,0.6132600732600733
3.1704757859988604,2.8986813186813185,0.6745054945054945,0.6132600732600733
3.1737706270068884,2.6633699633699632,1.5117948717948717,1.5093772893772892
3.1742047790030483,2.6633699633699632,1.5117948717948717,1.5093772893772892
3.1810977550048847,2.6633699633699632,1.5117948717948717,1.5093772893772892
3.1858001250075176,3.3,1.6995604395604393,1.2345787545787545
3.185959710011957,3.3,1.6995604395604393,1.2345787545787545
3.1922805229987716,3.3,1.6995604395604393,1.2345787545787545
3.1964736400113907,3.3,1.6995604395604393,1.2345787545787545
3.197370463007246,3.3,1.6995604395604393,1.2345787545787545
3.1982765200082213,3.3,1.6995604395604393,1.2345787545787545
3.199897794998833,3.3,1.6995604395604393,1.2345787545787545
3.203980763006257,3.3,1.6995604395604393,1.2345787545787545
3.207237338006962,3.3,1.6995604395604393,1.2345787545787545
3.2097893610043684,3.3,1.6995604395604393,1.2345787545787545
3.2139428180089453,3.3,1.6995604395604393,1.2345787545787545
3.2170447340031387,3.3,1.6995604395604393,1.2345787545787545
3.2187380280083744,3.3,2.154065934065934,1.3353113553113554
3.2231379020086024,3.1936263736263735,1.2797069597069597,0.772014652014652
3.2235104060091544,3.3,3.3,0.9098168498168498
3.230654687009519,3.3,3.3,0.9098168498168498
3.2346156610001344,3.3,3.3,0.9098168498168498
3.2387081690103514,3.3,3.3,0.9098168498168498
3.2418726950127166,3.3,3.3,0.9098168498168498
3.243490863009356,3.3,3.3,0.9098168498168498
3.248674836009741,3.3,3.3,0.9098168498168498
3.2510079220082844,3.3,3.3,0.9098168498168498
3.2599846290104324,3.3,3.3,0.9098168498168498
3.2667965020082192,3.3,3.3,0.9098168498168498
3.271001879009418,3.3,1.804322344322344,0.29413919413919415
3.2746064600069076,3.3,1.804322344322344,0.29413919413919415
3.2806818230019417,3.3,1.804322344322344,0.29413919413919415
3.284522810005001,2.0742857142857143,0.5084981684981685,0.3142857142857142
3.2894494330103043,3.3,0.7655677655677655,0.9114285714285715
3.296441088008578,3.3,0.7655677655677655,0.9114285714285715
3.3010336690058466,3.3,0.7655677655677655,0.9114285714285715
3.3012486350053223,3.3,0.7655677655677655,0.9114285714285715
3.3062561840051785,3.3,0.7655677655677655,0.9114285714285715
3.3160742620093515,3.3,0.7655677655677655,0.9114285714285715
3.3206974460044876,3.3,0.7655677655677655,0.9114285714285715
3.3209289939986775,3.3,0.7655677655677655,0.9114285714285715
3.3306172320008045,3.3,0.7655677655677655,0.9114285714285715
3.3370101470063673,3.3,0.7655677655677655,0.9114285714285715
3.3432794800028205,3.3,0.7655677655677655,0.9114285714285715
3.3477474140090635,3.3,0.7655677655677655,0.9114285714285715
3.348009738998371,3.3,0.7655677655677655,0.9114285714285715
3.352783950002049,3.3,0.7655677655677655,0.9114285714285715
3.352943158010021,3.3,0.7655677655677655,0.9114285714285715
3.359139061998576,3.3,0.7655677655677655,0.9114285714285715
3.3635554470092757,3.3,1.739047619047619,1.0983882783882783
3.3647063160024118,3.3,1.739047619047619,1.0983882783882783
3.3648950710048666,3.3,1.739047619047619,1.0983882783882783
3.3701701940008206,3.3,1.739047619047619,1.0983882783882783
3.372694710007636,3.3,1.739047619047619,1.0983882783882783
3.380739230007748,3.3,1.739047619047619,1.0983882783882783
3.3855758720019367,3.3,1.739047619047619,1.0983882783882783
3.38576202900731,3.3,1.739047619047619,1.0983882783882783
3.393149158000597,3.3,1.739047619047619,1.0983882783882783
3.3972041520028142,2.6698168498168497,3.3,1.834945054945055
3.3997256150032626,2.6698168498168497,3.3,1.834945054945055
3.405264006010839,3.0147252747252744,0.85018315018315,0.6688644688644688
3.408052687998861,3.0147252747252744,0.85018315018315,0.6688644688644688
3.412720830005128,3.0147252747252744,0.85018315018315,0.6688644688644688
3.4173709110036725,3.0147252747252744,0.85018315018315,0.6688644688644688
3.4175893000065116,3.0147252747252744,0.85018315018315,0.6688644688644688
3.423093282006448,3.0147252747252744,0.85018315018315,0.6688644688644688
3.4246050960064167,2.4901098901098897,0.49560439560439556,0.47142857142857136
3.4315881130023627,2.4901098901098897,0.49560439560439556,0.47142857142857136
3.4370014060114045,2.4901098901098897,0.49560439560439556,0.47142857142857136
3.4380735760059906,2.4901098901098897,0.49560439560439556,0.47142857142857136
3.4383932589989854,2.4901098901098897,0.49560439560439556,0.47142857142857136
3.4467235980118858,2.4901098901098897,0.49560439560439556,0.47142857142857136
3.451439053998911,2.4901098901098897,0.49560439560439556,0.47142857142857136
3.45154328001081,2.4901098901098897,0.49560439560439556,0.47142857142857136
3.458268112008227,2.4901098901098897,0.49560439560439556,0.47142857142857136
3.4647311930020805,3.3,2.399047619047619,1.3844688644688645
3.4709659380023368,3.3,3.3,0.5931135531135531
3.4773250250000274,3.3,3.3,0.5931135531135531
3.4833323290076805,3.248424908424908,3.051794871794872,0.21435897435897436
3.486694710009033,3.248424908424908,3.051794871794872,0.21435897435897436
3.4870343490038067,3.248424908424908,3.051794871794872,0.21435897435897436
3.495470377005404,1.0774358974358973,0.30622710622710625,0.4835164835164835
3.5030228980031097,3.3,3.3,1.2426373626373626
3.5081756740109995,3.3,3.3,1.2426373626373626
3.5127690430090297,1.0403663003663002,0.25465201465201465,0.6092307692307692
3.5200383070041426,3.3,2.739120879120879,1.0049084249084248
3.5278595440031495,3.3,2.739120879120879,1.0049084249084248
3.53127630900417,3.3,2.768131868131868,0.8324542124542124
3.531549293009448,3.3,2.768131868131868,0.8324542124542124
3.5362014320126036,3.3,2.768131868131868,0.8324542124542124
3.5364541550079593,3.3,2.768131868131868,0.8324542124542124
3.5461660520086298,3.3,2.768131868131868,0.8324542124542124
3.5501575090020197,3.3,2.768131868131868,0.8324542124542124
3.55338805601059,3.3,2.768131868131868,0.8324542124542124
3.55500696200761,2.606153846153846,1.133040293040293,0.46659340659340653
3.5625805180025054,2.3668131868131868,2.9317216117216116,0.18776556776556774
3.568334285999299,2.3668131868131868,2.9317216117216116,0.18776556776556774
3.574431970002479,2.3668131868131868,2.9317216117216116,0.18776556776556774
3.5802134750119876,3.3,0.5697435897435897,0.8542124542124543
3.5872597570123617,3.3,0.5697435897435897,0.8542124542124543
3.593977515003644,3.3,0.5697435897435897,0.8542124542124543
3.599061234999681,3.3,0.5697435897435897,0.8542124542124543
3.6013119950075634,1.9526007326007324,2.7415384615384615,1.0572893772893772
3.6015345199994044,1.9526007326007324,2.7415384615384615,1.0572893772893772
3.6106367760075955,1.9526007326007324,2.7415384615384615,1.0572893772893772
3.618037134001497,1.9526007326007324,2.7415384615384615,1.0572893772893772
3.6271126010105945,1.9526007326007324,2.7415384615384615,1.0572893772893772
3.633610464006779,1.9526007326007324,2.7415384615384615,1.0572893772893772
3.6382830210059183,1.9526007326007324,2.7415384615384615,1.0572893772893772
3.6487832670100033,1.2305494505494505,3.005860805860806,0.42468864468864465
3.6538402840087656,2.655311355311355,3.3,1.7865934065934064
3.6619397930044215,2.655311355311355,3.3,1.7865934065934064
3.669440534009482,2.655311355311355,3.3,1.7865934065934064
3.6756781310105,2.655311355311355,3.3,1.8526739926739926
3.679560920005315,2.655311355311355,3.3,1.8526739926739926
3.682704692007974,2.655311355311355,3.3,1.8526739926739926
3.684350882002036,2.655311355311355,3.3,1.8526739926739926
3.691076803006581,2.655311355311355,3.3,1.8526739926739926
3.695335577998776,2.655311355311355,3.3,1.8526739926739926
3.696381786998245,2.655311355311355,3.3,1.8526739926739926
3.697362336999504,2.655311355311355,3.3,1.8526739926739926
3.6982796960073756,2.655311355311355,3.3,1.8526739926739926
3.699864577007247,2.655311355311355,3.3,1.8526739926739926
3.703984557010699,2.655311355311355,3.3,1.8526739926739926
3.70792263399926,2.553772893772894,0.5906959706959707,0.5310622710622711
3.7123328700108686,2.553772893772894,0.5906959706959707,0.5310622710622711
3.7131899840023834,2.553772893772894,0.5906959706959707,0.5310622710622711
3.7147920679999515,2.553772893772894,0.5906959706959707,0.5310622710622711
3.718619695006055,2.553772893772894,0.5906959706959707,0.5310622710622711
3.724375391000649,2.553772893772894,0.5906959706959707,0.5310622710622711
3.7246148790000007,2.553772893772894,0.5906959706959707,0.5310622710622711
3.7301464390038745,2.553772893772894,0.5906959706959707,0.5310622710622711
3.730542222998338,2.553772893772894,0.5906959706959707,0.5310622710622711
3.73618908401113,2.553772893772894,0.5906959706959707,0.5310622710622711
3.736298172007082,3.3,0.6285714285714284,0.942051282051282
3.743279248010367,3.3,0.6285714285714284,0.942051282051282
3.7474061500106473,3.3,0.6285714285714284,0.942051282051282
3.7490519040002255,3.3,0.6285714285714284,0.942051282051282
3.7535975580103695,3.3,0.6285714285714284,0.942051282051282
3.7544871490099467,3.3,0.6285714285714284,0.942051282051282
3.756256515000132,2.5021978021978017,3.0775824175824176,0.2224175824175824
3.7618435220065294,2.5021978021978017,3.0775824175824176,0.2224175824175824
3.7667381080100313,3.3,2.4876923076923076,1.4860073260073259
3.7721287130116252,3.3,2.1395604395604395,0.7841025641025641
3.7731898420024663,2.713333333333333,2.565054945054945,0.904981684981685
3.77507755800616,2.713333333333333,2.565054945054945,0.904981684981685
3.776271089009242,2.713333333333333,2.565054945054945,0.904981684981685
3.7765473170002224,2.713333333333333,2.565054945054945,0.904981684981685
3.7811967370071216,2.713333333333333,2.565054945054945,0.904981684981685
3.781458431010833,1.7092307692307693,0.46417582417582415,0.25545787545787546
3.786722094999277,2.352307692307692,0.5036630036630036,0.4416117216117216
3.7904965540074045,2.352307692307692,0.5036630036630036,0.4416117216117216
3.7957700510014547,2.352307692307692,0.5036630036630036,0.4416117216117216
3.7981096350122243,2.352307692307692,0.5036630036630036,0.4416117216117216
3.7982932300074026,2.352307692307692,0.5036630036630036,0.4416117216117216
3.8036785820004297,2.352307692307692,0.5036630036630036,0.4416117216117216
3.8045792760094628,2.352307692307692,0.5036630036630036,0.4416117216117216
3.8067383830057224,2.352307692307692,0.5036630036630036,0.4416117216117216
3.808273091999581,2.352307692307692,0.5036630036630036,0.4416117216117216
3.8129221800045343,2.352307692307692,0.5036630036630036,0.4416117216117216
3.813043631002074,2.352307692307692,0.5036630036630036,0.4416117216117216
3.8186689889989793,2.352307692307692,0.5036630036630036,0.4416117216117216
3.8196945680101635,2.352307692307692,0.5036630036630036,0.4416117216117216
3.820595820012386,2.352307692307692,0.5036630036630036,0.4416117216117216
3.8221378570015077,2.352307692307692,0.5036630036630036,0.4416117216117216
3.8286025609995704,2.352307692307692,0.5036630036630036,0.4416117216117216
3.8324202190124197,2.6536996336996337,3.3,0.5568498168498168
3.8370320850081043,2.6585347985347987,3.0389010989010985,1.999340659340659
3.837303526001051,2.6585347985347987,3.0389010989010985,1.999340659340659
3.845028714000364,2.6585347985347987,3.0389010989010985,1.999340659340659
3.850127441008226,3.00021978021978,0.8372893772893772,0.6833699633699634
3.852426486002514,3.00021978021978,0.8372893772893772,0.6833699633699634
3.8526862889993936,3.00021978021978,0.8372893772893772,0.6833699633699634
3.8608868450101,3.00021978021978,0.8372893772893772,0.6833699633699634
3.864721467005438,3.3,2.041245421245421,1.1757509157509156
3.869607871005428,3.3,2.785054945054945,0.49157509157509155
3.8748099530057516,3.3,3.3,1.2764835164835164
3.877454437999404,3.3,3.3,1.2764835164835164
3.882186132002971,3.3,3.3,1.2764835164835164
3.882358748000115,3.3,3.3,1.2764835164835164
3.887149854010204,3.3,3.3,1.2764835164835164
3.895165090012597,3.3,3.3,1.2764835164835164
3.8993967610003892,3.3,3.3,1.2764835164835164
3.9010596690059174,2.433699633699634,0.7647619047619048,0.5294505494505495
3.904380885011051,2.433699633699634,0.7647619047619048,0.5294505494505495
3.906608674005838,2.6456410256410257,1.1032234432234431,0.26915750915750913
3.9069559530034894,2.6456410256410257,1.1032234432234431,0.26915750915750913
3.9136955440044403,2.6456410256410257,1.1032234432234431,0.26915750915750913
3.9177924370014807,2.6456410256410257,1.1032234432234431,0.26915750915750913
3.92032905400265,2.6456410256410257,1.1032234432234431,0.26915750915750913
3.9289911939995363,2.6456410256410257,1.1032234432234431,0.26915750915750913
3.933256632008124,2.6456410256410257,1.1032234432234431,0.26915750915750913
3.937552500006859,2.6456410256410257,1.1032234432234431,0.26915750915750913
3.9377315169986105,2.6456410256410257,1.1032234432234431,0.26915750915750913
3.9482194450101815,2.6456410256410257,1.1032234432234431,0.26915750915750913
3.9534403270081384,2.224981684981685,0.46659340659340653,0.41340659340659336
3.9575681440037442,2.224981684981685,0.46659340659340653,0.41340659340659336
3.958722099006991,2.224981684981685,0.46659340659340653,0.41340659340659336
3.9591295999998692,2.224981684981685,0.46659340659340653,0.41340659340659336
3.9632979390007677,2.224981684981685,0.46659340659340653,0.41340659340659336
3.967051406012615,2.6569230769230767,0.7284981684981684,0.5109157509157509
3.9720810780127067,2.6569230769230767,0.7284981684981684,0.5109157509157509
3.979036721008015,2.6569230769230767,0.7284981684981684,0.5109157509157509
3.9829590740118874,2.6569230769230767,0.7284981684981684,0.5109157509157509
3.9875334420066793,2.6569230769230767,0.7284981684981684,0.5109157509157509
3.9877724450052483,0.9936263736263735,0.28205128205128205,0.46820512820512816
3.9977032840106403,0.9936263736263735,0.28205128205128205,0.46820512820512816
4.003428952011745,3.3,1.0854945054945053,1.2079853479853477
4.003594770998461,3.3,1.0854945054945053,1.2079853479853477
4.01134508800169,3.3,1.0854945054945053,1.2079853479853477
4.01551283900335,3.3,1.0854945054945053,1.2079853479853477
4.017663899998297,3.3,1.0854945054945053,1.2079853479853477
4.018056631000945,3.3,1.0854945054945053,1.2079853479853477
4.02690899001027,3.3,1.0854945054945053,1.2079853479853477
4.034215985011542,2.4425641025641025,0.8437362637362636,0.26593406593406593
4.038932755007409,2.6617582417582417,3.3,1.9526007326007324
4.049357613010216,2.6617582417582417,3.3,1.9526007326007324
4.058685633004643,2.6617582417582417,3.3,1.9526007326007324
4.066081773999031,2.6617582417582417,3.3,1.9526007326007324
4.069976718004909,2.6617582417582417,3.3,1.9526007326007324
4.077537706005387,2.6649816849816848,3.3,1.9703296703296702
4.084183309008949,2.6649816849816848,3.3,1.9703296703296702
4.090149826006382,2.4707692307692306,0.6277655677655677,0.4520879120879121
4.096477444007178,2.4707692307692306,0.6277655677655677,0.4520879120879121
4.1021759290015325,2.4707692307692306,0.6277655677655677,0.4520879120879121
4.1092807370005175,2.4707692307692306,0.6277655677655677,0.4520879120879121
4.114991453010589,1.299047619047619,0.25465201465201465,0.5512087912087912
4.118880866008112,1.299047619047619,0.25465201465201465,0.5512087912087912
4.122924237002735,1.299047619047619,0.25465201465201465,0.5512087912087912
4.128275628012489,1.299047619047619,0.25465201465201465,0.5512087912087912
4.128462267006398,1.299047619047619,0.25465201465201465,0.5512087912087912
4.133575243002269,1.299047619047619,0.25465201465201465,0.5512087912087912
4.138308647001395,2.9647619047619047,2.9518681318681317,0.19340659340659339
4.147647327001323,2.9647619047619047,2.9518681318681317,0.19340659340659339
4.153545779001433,2.9647619047619047,2.9518681318681317,0.19340659340659339
4.162519923003856,2.9647619047619047,2.9518681318681317,0.19340659340659339
4.16805279100663,3.3,2.017069597069597,1.228131868131868
4.16891288899933,3.3,2.017069597069597,1.228131868131868
4.170551886010799,3.3,3.3,1.1056410256410254
4.175691322001512,3.3,3.3,1.1056410256410254
4.1778803410124965,3.3,3.3,1.1056410256410254
4.17877210000006,3.3,3.3,1.1056410256410254
4.179737305006711,3.3,3.3,1.1056410256410254
4.181459106999682,3.3,3.3,1.1056410256410254
4.185315745999105,3.3,3.3,1.1056410256410254
4.190004889998818,2.6665934065934067,3.3,0.5399267399267399
4.198561129000154,2.6665934065934067,3.3,0.5399267399267399
4.207154291012557,2.6665934065934067,3.3,0.5399267399267399
4.211701200008974,2.6617582417582417,3.3,0.8687179487179487
4.211957981999149,2.6706227106227107,3.3,1.85025641025641
4.216871895012446,2.6706227106227107,3.3,1.85025641025641
4.222494372006622,3.3,2.407106227106227,1.456190476190476
4.22295909600507,3.3,1.8655677655677654,0.9065934065934066
4.228007076002541,3.3,1.8655677655677654,0.9065934065934066
4.230451016002917,3.3,1.8655677655677654,0.9065934065934066
4.2376552050118335,3.3,1.8655677655677654,0.9065934065934066
4.244885702006286,3.187179487179487,2.9776556776556777,0.1958241758241758
4.249281020005583,3.2709890109890107,0.9871794871794871,0.8252014652014652
4.2495102980028605,0.7494505494505495,0.2836630036630036,0.3843956043956044
4.254961432001437,0.7494505494505495,0.2836630036630036,0.3843956043956044
4.258041135006351,2.655311355311355,2.324908424908425,1.9316483516483516
4.258450043009361,2.655311355311355,2.324908424908425,1.9316483516483516
4.26414715401188,2.655311355311355,2.324908424908425,1.9316483516483516
4.269824317001621,2.6649816849816848,3.3,0.6833699633699634
4.2700294829992345,2.6649816849816848,3.3,0.6833699633699634
4.278178054999444,2.6649816849816848,3.3,0.6833699633699634
4.285323099000379,2.6649816849816848,3.3,0.6833699633699634
4.290721005003434,2.6649816849816848,3.3,0.6833699633699634
4.290973244002089,2.6649816849816848,2.5884249084249085,1.991282051282051
4.2964314520068,2.6649816849816848,2.5884249084249085,1.991282051282051
4.2973157330125105,2.6649816849816848,2.5884249084249085,1.991282051282051
4.29895201700856,2.6649816849816848,2.5884249084249085,1.991282051282051
4.3028396390000125,2.6649816849816848,2.5884249084249085,1.991282051282051
4.306829723005649,2.6649816849816848,2.5884249084249085,1.991282051282051
4.311605948998476,1.4070329670329669,0.3731135531135531,0.5576556776556777
4.31626411700563,1.4070329670329669,0.3731135531135531,0.5576556776556777
4.31660385899886,1.4070329670329669,0.3731135531135531,0.5576556776556777
4.321289655010332,1.4070329670329669,0.3731135531135531,0.5576556776556777
4.321434283003327,2.631941391941392,0.7663736263736264,0.6342124542124542
4.329807374000666,2.631941391941392,0.7663736263736264,0.6342124542124542
4.334017690998735,2.631941391941392,0.7663736263736264,0.6342124542124542
4.336446991001139,2.631941391941392,0.7663736263736264,0.6342124542124542
4.336673106008675,2.631941391941392,0.7663736263736264,0.6342124542124542
4.342083478011773,2.631941391941392,0.7663736263736264,0.6342124542124542
4.345460648008157,2.241904761904762,0.6962637362637363,0.4722344322344322
4.35146388701105,2.241904761904762,0.6962637362637363,0.4722344322344322
4.357150134004769,2.6536996336996337,3.3,1.7406593406593407
4.357513794006081,2.532820512820513,1.4497435897435897,0.40534798534798533
4.362855610001134,2.532820512820513,1.4497435897435897,0.40534798534798533
4.363912569999229,2.532820512820513,1.4497435897435897,0.40534798534798533
4.364762110999436,2.532820512820513,1.4497435897435897,0.40534798534798533
4.365709714998957,2.532820512820513,1.4497435897435897,0.40534798534798533
4.367324985010782,2.532820512820513,1.4497435897435897,0.40534798534798533
4.372180660007871,2.532820512820513,1.4497435897435897,0.40534798534798533
4.3723051130073145,2.532820512820513,1.4497435897435897,0.40534798534798533
4.379645341003197,2.532820512820513,1.4497435897435897,0.40534798534798533
4.384187401010422,2.532820512820513,1.4497435897435897,0.40534798534798533
4.385025720010162,2.532820512820513,1.4497435897435897,0.40534798534798533
4.385941035012365,2.532820512820513,1.4497435897435897,0.40534798534798533
4.38779987100861,2.532820512820513,1.4497435897435897,0.40534798534798533
4.3921147610089974,2.532820512820513,1.4497435897435897,0.40534798534798533
4.392609236005228,2.532820512820513,1.4497435897435897,0.40534798534798533
4.396702196012484,2.532820512820513,1.4497435897435897,0.40534798534798533
4.398288527998375,2.532820512820513,1.4497435897435897,0.40534798534798533
4.403112947999034,3.3,1.9695238095238095,1.3296703296703296
4.4095438810036285,3.3,1.9695238095238095,1.3296703296703296
4.412739819003036,3.3,1.9695238095238095,1.3296703296703296
4.414388504999806,3.3,1.9695238095238095,1.3296703296703296
4.4178751110011945,3.3,1.9695238095238095,1.3296703296703296
4.418120203001308,3.3,1.9695238095238095,1.3296703296703296
4.423336948006181,3.3,1.9695238095238095,1.3296703296703296
4.426864569002646,3.3,1.9695238095238095,1.3296703296703296
4.432723458012333,3.3,1.9695238095238095,1.3296703296703296
4.437190535012633,2.66014652014652,3.3,1.9268131868131868
4.4380415990017354,2.66014652014652,3.3,1.9268131868131868
4.439212678000331,2.66014652014652,3.3,1.9268131868131868
4.439451418002136,2.66014652014652,3.3,1.9268131868131868
4.447750936000375,2.66014652014652,3.3,1.9268131868131868
4.454584371007513,2.66014652014652,3.3,1.9268131868131868
4.462125994003145,2.655311355311355,3.3,1.7463003663003662
4.465512003007461,1.7898168498168496,0.5334798534798535,0.30945054945054945
4.466397557000164,1.7898168498168496,0.5334798534798535,0.30945054945054945
4.4680818780034315,1.7898168498168496,0.5334798534798535,0.30945054945054945
4.471731149009429,1.7898168498168496,0.5334798534798535,0.30945054945054945
4.478206180006964,1.7898168498168496,0.5334798534798535,0.30945054945054945
4.482085960000404,1.7898168498168496,0.5334798534798535,0.30945054945054945
4.486187380010961,1.7898168498168496,0.5334798534798535,0.30945054945054945
4.490559608006151,1.7898168498168496,0.5334798534798535,0.30945054945054945
4.491712848001043,1.7898168498168496,0.5334798534798535,0.30945054945054945
4.491941018000944,1.7898168498168496,0.5334798534798535,0.30945054945054945
4.49895545700565,1.7898168498168496,0.5334798534798535,0.30945054945054945
4.504390611007693,3.3,1.5964102564102562,1.0677655677655677
4.5047220480046235,3.3,1.5964102564102562,1.0677655677655677
4.513370070009842,3.3,1.5964102564102562,1.0677655677655677
4.520665798001573,3.3,1.5964102564102562,1.0677655677655677
4.524420547008049,3.3,1.80029304029304,1.133040293040293
4.5346390930062626,3.3,0.9621978021978022,0.9992673992673992
4.542615019003279,3.3,0.9621978021978022,0.9992673992673992
4.55018220700731,2.921245421245421,2.488498168498168,1.232161172161172
4.554208860005019,2.921245421245421,2.488498168498168,1.232161172161172
4.560336598005961,2.9180219780219776,2.1306959706959705,0.15794871794871795
4.564297476012143,2.9180219780219776,2.1306959706959705,0.15794871794871795
4.568086907005636,2.743956043956044,0.8614652014652014,0.693040293040293
4.572259823005879,2.743956043956044,0.8614652014652014,0.693040293040293
4.574648514011642,2.743956043956044,0.8614652014652014,0.693040293040293
4.581030319008278,2.743956043956044,0.8614652014652014,0.693040293040293
4.584902500006137,2.743956043956044,0.8614652014652014,0.693040293040293
4.588755964010488,3.3,3.261318681318681,0.43113553113553116
4.595843587012496,3.3,3.261318681318681,0.43113553113553116
4.601277617010055,3.3,3.261318681318681,0.43113553113553116
4.602896355005214,2.843882783882784,0.9033699633699634,0.7236630036630036
4.606115319998935,2.843882783882784,0.9033699633699634,0.7236630036630036
4.608122703008121,2.843882783882784,0.9033699633699634,0.7236630036630036
4.609721195010934,2.843882783882784,0.9033699633699634,0.7236630036630036
4.613128356009838,2.843882783882784,0.9033699633699634,0.7236630036630036
4.613451295008417,3.3,0.5681318681318681,0.7752380952380952
4.618095876998268,2.6746520146520147,3.3,1.1016117216117214
4.6183064210054,2.6746520146520147,3.3,1.1016117216117214
4.623778580004,2.6746520146520147,3.3,1.1016117216117214
4.624808378008311,2.6746520146520147,3.3,1.1016117216117214
4.625193299012608,2.6746520146520147,3.3,1.1016117216117214
4.631741347009665,2.6746520146520147,3.3,1.1016117216117214
4.63566921200254,2.6746520146520147,3.3,1.1016117216117214
4.641799591001472,2.6746520146520147,3.3,1.1016117216117214
4.648462368000764,2.6746520146520147,3.3,1.1016117216117214
4.653020110010402,2.6746520146520147,3.3,1.1016117216117214
4.65325180500804,2.6746520146520147,3.3,1.1016117216117214
4.662258499010932,2.6746520146520147,3.3,1.1016117216117214
4.667695060008555,3.3,3.3,0.5375091575091575
4.668602290010313,3.3,3.3,0.5375091575091575
4.669655158999376,3.3,3.3,0.5375091575091575
4.66997896200337,2.647252747252747,3.3,1.6028571428571428
4.678739196009701,2.647252747252747,3.3,1.6028571428571428
4.6857841220044065,3.3,3.183956043956044,0.2369230769230769
4.691575463002664,3.3,3.183956043956044,0.2369230769230769
4.696725025001797,2.655311355311355,3.3,1.9050549450549448
4.699186884012306,2.655311355311355,3.3,1.9050549450549448
4.6993239050061675,2.655311355311355,3.3,1.9050549450549448
4.703999347999343,2.655311355311355,3.3,1.9050549450549448
4.7041442670015385,2.655311355311355,3.3,1.9050549450549448
4.710828483002842,2.655311355311355,3.3,1.9050549450549448
4.71399561400176,2.655311355311355,3.3,1.9050549450549448
4.715627711004345,2.655311355311355,3.3,1.9050549450549448
4.719545016007032,2.655311355311355,3.3,1.9050549450549448
4.7279943419998745,3.3,1.9687179487179485,1.1838095238095236
4.732480204998865,2.9857142857142858,2.5586080586080584,0.8671062271062271
4.732784674008144,2.9857142857142858,2.5586080586080584,0.8671062271062271
4.737386898006662,2.9857142857142858,2.5586080586080584,0.8671062271062271
4.738282121004886,2.9857142857142858,2.5586080586080584,0.8671062271062271
4.739248287005466,2.9857142857142858,2.5586080586080584,0.8671062271062271
4.742698886999278,2.9857142857142858,2.5586080586080584,0.8671062271062271
4.747203138002078,2.9857142857142858,2.5586080586080584,0.8671062271062271
4.747509585009539,1.6769963369963368,0.3537728937728937,0.5391208791208791
4.752952223003376,1.0355311355311354,0.25384615384615383,0.45692307692307693
4.755291175999446,2.1887179487179487,1.9429304029304029,0.7849084249084248
4.755550970003242,2.1887179487179487,1.9429304029304029,0.7849084249084248
4.7621566300076665,2.1887179487179487,1.9429304029304029,0.7849084249084248
4.766125563008245,2.1887179487179487,1.9429304029304029,0.7849084249084248
4.770134550999501,2.1887179487179487,1.9429304029304029,0.7849084249084248
4.776968733000103,2.1887179487179487,1.9429304029304029,0.7849084249084248
4.780201481000404,2.1887179487179487,1.9429304029304029,0.7849084249084248
4.781132462012465,3.3,1.4843956043956044,1.046007326007326
4.782756314001745,3.3,1.4843956043956044,1.046007326007326
4.7874014180124504,3.3,1.4843956043956044,1.046007326007326
4.795223672001157,3.3,1.4843956043956044,1.046007326007326
4.799285159009742,3.3,1.4843956043956044,1.046007326007326
4.80262518300151,3.3,1.4843956043956044,1.046007326007326
4.802882250005496,3.3,1.4843956043956044,1.046007326007326
4.811288106007851,3.3,1.4843956043956044,1.046007326007326
4.816100847005146,3.3,1.4843956043956044,1.046007326007326
4.820741701012594,3.3,1.4843956043956044,1.046007326007326
4.820951057001366,1.8172161172161172,0.43032967032967034,0.26109890109890105
4.82889664900722,1.8172161172161172,0.43032967032967034,0.26109890109890105
4.834520743010216,1.581904761904762,0.3642490842490842,0.5802197802197803
4.8346466820075875,1.581904761904762,0.3642490842490842,0.5802197802197803
4.840370724006789,1.581904761904762,0.3642490842490842,0.5802197802197803
4.840556759008905,1.581904761904762,0.3642490842490842,0.5802197802197803
4.846598352000001,1.581904761904762,0.3642490842490842,0.5802197802197803
4.850498493004125,1.581904761904762,0.3642490842490842,0.5802197802197803
4.85532904601132,2.66014652014652,3.3,2.0904029304029303
4.862827800010564,2.66014652014652,3.3,2.0904029304029303
4.867434432002483,2.66014652014652,3.3,2.0904029304029303
4.867695326000103,1.838974358974359,0.4029304029304029,0.5963369963369963
4.873705685007735,1.4916483516483516,1.2635897435897436,0.6793406593406592
4.879754913999932,3.3,3.3,1.046007326007326
4.883376304002013,3.3,3.3,1.046007326007326
4.883496528011165,3.3,3.3,1.046007326007326
4.8880782640044345,3.3,3.3,1.046007326007326
4.888426283010631,3.3,3.3,1.046007326007326
4.8958308690052945,3.3,3.3,1.046007326007326
4.900402227998711,3.3,3.3,1.046007326007326
4.900657925012638,3.3,3.3,1.046007326007326
4.905462479000562,3.3,3.3,1.046007326007326
4.91430815300555,3.3,3.3,1.046007326007326
4.9208375200105365,3.3,3.3,1.046007326007326
4.928305159002775,3.3,3.3,1.046007326007326
4.933599310999853,2.6665934065934067,3.3,0.7671794871794871
4.9347777549992315,2.6665934065934067,3.3,0.7671794871794871
4.935013010006514,2.6665934065934067,3.3,0.7671794871794871
4.944072213998879,2.6665934065934067,3.3,0.7671794871794871
4.948616818001028,2.6665934065934067,3.3,0.7671794871794871
4.948817843003781,2.6665934065934067,3.3,0.7671794871794871
4.953355960999033,2.6665934065934067,3.3,0.7671794871794871
4.955203781006276,2.6665934065934067,3.3,0.7671794871794871
4.9586725830013165,2.6665934065934067,3.3,0.7671794871794871
4.966424809012096,2.6665934065934067,3.3,0.7671794871794871
4.974377471007756,2.6665934065934067,3.3,0.7671794871794871
4.980768919005641,2.6665934065934067,3.3,0.7671794871794871
4.985357531011687,3.3,0.8469597069597068,0.6809523809523809
4.985652857998502,2.289450549450549,0.42710622710622714,0.3545787545787546
4.994649197004037,2.289450549450549,0.42710622710622714,0.3545787545787546
5.000142596007208,2.6617582417582417,3.3,1.8405860805860805
5.00108858900785,2.6617582417582417,3.3,1.8405860805860805
5.002046813009656,2.6617582417582417,3.3,1.8405860805860805
5.003392573009478,2.6617582417582417,3.3,1.8405860805860805
5.010881870999583,2.6617582417582417,3.3,1.8405860805860805
5.014910947007593,2.6617582417582417,3.3,1.8405860805860805
5.018209943998954,2.6488644688644687,0.7687912087912088,1.0548717948717947
5.019087934007985,3.3,2.5521611721611723,1.2603663003663002
5.02029779201257,3.3,2.5521611721611723,1.2603663003663002
5.020634939006413,3.3,2.5521611721611723,1.2603663003663002
5.030358515010448,3.3,2.5521611721611723,1.2603663003663002
5.03928517800523,3.3,2.5521611721611723,1.2603663003663002
5.045551916002296,3.3,2.5521611721611723,1.2603663003663002
5.051101795004797,3.3,2.5521611721611723,1.2603663003663002
5.0605118940002285,3.3,2.5521611721611723,1.2603663003663002
5.069601549999788,3.3,2.8583882783882784,0.16036630036630037
5.0770050160062965,2.71010989010989,0.41098901098901097,0.7849084249084248
5.082076628008508,2.71010989010989,0.41098901098901097,0.7849084249084248
5.086055673004012,2.71010989010989,0.41098901098901097,0.7849084249084248
5.089893361000577,3.3,1.858315018315018,0.85018315018315
5.094894556008512,3.3,1.858315018315018,0.85018315018315
5.099423464998836,3.3,0.5641025641025641,0.8445421245421244
5.108020680010668,3.3,0.5641025641025641,0.8445421245421244
5.115054349007551,3.3,0.5641025641025641,0.8445421245421244
5.119374982008594,3.3,0.5641025641025641,0.8445421245421244
5.121995157998754,3.3,0.5641025641025641,0.8445421245421244
5.126467047011829,3.3,0.5641025641025641,0.8445421245421244
5.1267934780044015,3.3,0.5641025641025641,0.8445421245421244
5.133450375011307,3.3,0.5641025641025641,0.8445421245421244
5.137665280999499,2.727032967032967,1.7189010989010989,1.7253479853479854
5.139696084006573,3.3,3.3,0.8324542124542124
5.140854164012126,3.3,3.3,0.8324542124542124
5.141112719007651,3.3,3.3,0.8324542124542124
5.148537704008049,3.3,3.3,0.8324542124542124
5.1532701660034945,3.3,3.3,0.8324542124542124
5.161793877006858,3.3,3.3,0.8324542124542124
5.167125947002205,3.3,3.3,0.8324542124542124
5.168258910009172,2.4167765567765565,0.4794871794871795,0.6535531135531135
5.16866778601252,2.4167765567765565,0.4794871794871795,0.6535531135531135
5.177033281011973,2.4167765567765565,0.4794871794871795,0.6535531135531135
5.183213640004396,2.4167765567765565,0.4794871794871795,0.6535531135531135
5.190688995004166,2.4167765567765565,0.4794871794871795,0.6535531135531135
5.197384564002277,2.4167765567765565,0.4794871794871795,0.6535531135531135
5.203374785007327,2.4167765567765565,0.4794871794871795,0.6535531135531135
5.208143921001465,3.3,0.842124542124542,0.6019780219780219
5.214682272009668,3.3,0.842124542124542,0.6019780219780219
5.220187329003238,3.3,0.842124542124542,0.6019780219780219
5.2204335420101415,3.3,0.9146520146520146,0.6664468864468864
5.228957270999672,3.3,0.9146520146520146,0.6664468864468864
5.235855323000578,3.3,0.9146520146520146,0.6664468864468864
5.242151320009725,3.3,0.9146520146520146,0.6664468864468864
5.24833986601152,3.3,0.9146520146520146,0.6664468864468864
5.254181823998806,2.6649816849816848,3.3,0.6156776556776556
5.2626969600096345,3.3,2.740732600732601,1.145128205128205
5.269724010009668,2.9905494505494503,2.785054945054945,1.0024908424908423
5.275322485002107,2.9905494505494503,2.785054945054945,1.0024908424908423
5.275557958011632,2.9905494505494503,2.785054945054945,1.0024908424908423
5.284309801005293,2.9905494505494503,2.785054945054945,1.0024908424908423
5.29393347199948,2.9905494505494503,2.785054945054945,1.0024908424908423
5.303659206998418,2.9905494505494503,2.785054945054945,1.0024908424908423
5.313093590011704,2.9905494505494503,2.785054945054945,1.0024908424908423
5.321494529998745,2.9905494505494503,2.785054945054945,1.0024908424908423
5.3287860810087295,2.9905494505494503,2.785054945054945,1.0024908424908423
5.334742453007493,2.9905494505494503,2.785054945054945,1.0024908424908423
5.341720613010693,3.3,2.736703296703297,1.0734065934065933
5.346812231000513,2.644029304029304,2.693992673992674,0.9775091575091575
5.348553073999938,2.644029304029304,2.693992673992674,0.9775091575091575
5.352564753004117,2.644029304029304,2.693992673992674,0.9775091575091575
5.355126924012438,2.644029304029304,2.693992673992674,0.9775091575091575
5.361708654003451,2.6577289377289377,2.7004395604395603,0.958974358974359
5.365723787006573,2.6577289377289377,2.7004395604395603,0.958974358974359
5.369535808000364,2.6577289377289377,2.7004395604395603,0.958974358974359
5.375741895011743,2.6577289377289377,2.7004395604395603,0.958974358974359
5.3799464870098745,3.3,3.051794871794872,0.27399267399267396
5.381701311998768,3.3,1.248278388278388,0.8622710622710623
5.384966965008061,3.3,1.248278388278388,0.8622710622710623
5.386064371006796,3.3,1.248278388278388,0.8622710622710623
5.38638907999848,3.3,1.248278388278388,0.8622710622710623
5.393756766003207,3.3,1.248278388278388,0.8622710622710623
5.3978895239997655,3.3,1.248278388278388,0.8622710622710623
5.401194147998467,3.3,1.248278388278388,0.8622710622710623
5.402048083007685,3.3,1.248278388278388,0.8622710622710623
5.402951070005656,3.3,1.248278388278388,0.8622710622710623
5.404538380011218,3.3,1.248278388278388,0.8622710622710623
5.410060976006207,3.3,1.248278388278388,0.8622710622710623
5.410367998003494,3.3,1.248278388278388,0.8622710622710623
5.415124863007804,3.3,1.248278388278388,0.8622710622710623
5.420781723005348,3.3,1.248278388278388,0.8622710622710623
5.421056912004133,3.3,1.248278388278388,0.8622710622710623
5.426571135001723,3.3,1.248278388278388,0.8622710622710623
5.428208659010124,3.3,1.248278388278388,0.8622710622710623
5.432133694004733,2.3643956043956043,1.838974358974359,0.7397802197802198
5.435420439011068,2.690769230769231,3.3,1.9445421245421244
5.4363685210119,2.690769230769231,3.3,1.9445421245421244
5.437993414001539,2.690769230769231,3.3,1.9445421245421244
5.442733251009486,2.690769230769231,3.3,1.9445421245421244
5.447527273005107,2.690769230769231,3.3,1.9445421245421244
5.452958706999198,2.189523809523809,0.3747252747252747,0.6946520146520146
5.455496464011958,2.189523809523809,0.3747252747252747,0.6946520146520146
5.463715695004794,2.189523809523809,0.3747252747252747,0.6946520146520146
5.468415911003831,3.219413919413919,0.7857142857142856,0.5504029304029303
5.468648653011769,3.219413919413919,0.7857142857142856,0.5504029304029303
5.4771657310047885,3.219413919413919,0.7857142857142856,0.5504029304029303
5.483515163010452,3.219413919413919,0.7857142857142856,0.5504029304029303
5.486877799005015,3.219413919413919,0.7857142857142856,0.5504029304029303
5.4877557790023275,3.2065201465201465,0.3199267399267399,0.8477655677655677
5.489701457001502,0.9726739926739927,0.28527472527472525,0.39003663003663
5.493221557000652,0.9726739926739927,0.28527472527472525,0.39003663003663
5.498867913003778,0.9726739926739927,0.28527472527472525,0.39003663003663
5.499089652003022,2.652087912087912,1.548058608058608,1.0282783882783881
5.504413928007125,2.652087912087912,1.548058608058608,1.0282783882783881
5.50767217601242,3.3,2.7383150183150184,0.3594139194139194
5.508003807000932,2.3845421245421243,0.3102564102564102,0.6688644688644688
5.513836818005075,2.3845421245421243,0.3102564102564102,0.6688644688644688
5.513987484999234,2.6633699633699632,1.1282051282051282,1.195091575091575
5.518588479011669,2.6633699633699632,1.1282051282051282,1.195091575091575
5.519630950002465,2.6633699633699632,1.1282051282051282,1.195091575091575
5.520510625006864,2.6633699633699632,1.1282051282051282,1.195091575091575
5.522616318005021,2.6633699633699632,1.1282051282051282,1.195091575091575
5.523037908002152,2.6633699633699632,1.1282051282051282,1.195091575091575
5.528513571000076,2.6633699633699632,1.1282051282051282,1.195091575091575
5.528788888012059,2.6633699633699632,1.1282051282051282,1.195091575091575
5.5335742640018,2.6633699633699632,1.1282051282051282,1.195091575091575
5.539217042998644,2.6633699633699632,1.1282051282051282,1.195091575091575
5.540443654012051,2.6633699633699632,1.1282051282051282,1.195091575091575
5.540612436001538,2.6633699633699632,1.1282051282051282,1.195091575091575
5.547332068003016,2.6633699633699632,1.1282051282051282,1.195091575091575
5.551345616011531,2.6633699633699632,1.1282051282051282,1.195091575091575
5.556101662004949,2.6633699633699632,1.1282051282051282,1.195091575091575
5.564711812010501,2.6633699633699632,1.1282051282051282,1.195091575091575
5.570236361003481,2.6794871794871793,2.56989010989011,1.4626373626373625
5.57378532900475,2.6794871794871793,2.56989010989011,1.4626373626373625
5.580897369000013,2.6794871794871793,2.56989010989011,1.4626373626373625
5.584922726004152,2.6617582417582417,1.6818315018315015,1.1612454212454213
5.590311749008833,3.3,0.6197069597069597,0.9484981684981684
5.59177143900888,2.6617582417582417,3.3,1.672161172161172
5.597412561008241,2.6617582417582417,3.3,1.672161172161172
5.5975859130121535,2.6617582417582417,3.3,1.672161172161172
5.602611584006809,2.6617582417582417,3.3,1.672161172161172
5.607115349004744,2.6617582417582417,3.3,1.672161172161172
5.607374596002046,2.6617582417582417,3.3,1.672161172161172
5.61311088000366,2.6617582417582417,3.3,1.672161172161172
5.618402726002387,2.6617582417582417,3.3,1.672161172161172
5.620980486011831,2.6617582417582417,3.3,1.672161172161172
5.627912046009442,2.6617582417582417,3.3,1.672161172161172
5.631800738003221,2.6617582417582417,3.3,1.672161172161172
5.636763754009735,2.6617582417582417,3.3,1.672161172161172
5.6418053550005425,2.6617582417582417,3.3,1.672161172161172
5.6452106820070185,2.6617582417582417,3.3,1.672161172161172
5.645475213008467,2.6617582417582417,3.3,1.672161172161172
5.650137810007436,2.6617582417582417,3.3,1.672161172161172
5.650395668009878,2.6617582417582417,3.3,1.672161172161172
5.655237566010328,2.7197802197802194,2.6005128205128205,1.8913553113553112
5.6639302399999,2.7197802197802194,2.6005128205128205,1.8913553113553112
5.671136634002323,2.7197802197802194,2.6005128205128205,1.8913553113553112
5.6765592170122545,2.7197802197802194,2.6005128205128205,1.8913553113553112
5.67695246799849,2.7197802197802194,2.6005128205128205,1.8913553113553112
5.682207244011806,2.7197802197802194,2.6005128205128205,1.8913553113553112
5.68736638801056,2.7197802197802194,2.6005128205128205,1.8913553113553112
5.68936072201177,2.7197802197802194,2.6005128205128205,1.8913553113553112
5.6911927000037394,2.7197802197802194,2.6005128205128205,1.8913553113553112
5.694227234998834,2.7197802197802194,2.6005128205128205,1.8913553113553112
5.696692558005452,2.7197802197802194,2.6005128205128205,1.8913553113553112
5.707770850000088,3.3,2.6682051282051282,0.971062271062271
5.715087969001615,3.3,2.6682051282051282,0.971062271062271
5.7202655889996095,3.3,2.6682051282051282,0.971062271062271
5.723158485008753,3.3,2.6682051282051282,0.971062271062271
5.725722624003538,3.3,2.6682051282051282,0.971062271062271
5.7296726500062505,2.9728205128205127,3.3,0.9243223443223443
5.7334894119994715,2.9728205128205127,3.3,0.9243223443223443
5.73822093300987,2.9728205128205127,3.3,0.9243223443223443
5.745720880004228,2.6923809523809523,2.6448351648351647,1.0798534798534798
5.749872298998525,2.6923809523809523,2.6448351648351647,1.0798534798534798
5.752201415001764,2.6923809523809523,2.6448351648351647,1.0798534798534798
5.752429234998999,2.697216117216117,2.1605128205128206,1.7736996336996336
5.758057195998845,2.697216117216117,2.1605128205128206,1.7736996336996336
5.758345212001586,2.697216117216117,2.1605128205128206,1.7736996336996336
5.7629890969983535,2.697216117216117,2.1605128205128206,1.7736996336996336
5.763191614008974,2.697216117216117,2.1605128205128206,1.7736996336996336
5.768797796001309,2.697216117216117,2.1605128205128206,1.7736996336996336
5.769090686007985,2.697216117216117,2.1605128205128206,1.7736996336996336
5.775077830010559,2.697216117216117,2.1605128205128206,1.7736996336996336
5.779557350004325,0.42065934065934063,2.9139926739926736,0.3811721611721612
5.779871459002607,2.6698168498168497,0.8832234432234431,0.5649084249084249
5.78489465500752,2.6698168498168497,0.8832234432234431,0.5649084249084249
5.789248626009794,2.6698168498168497,0.8832234432234431,0.5649084249084249
5.791894426001818,3.3,1.9816117216117215,0.755091575091575
5.796407056011958,3.3,1.9816117216117215,0.755091575091575
5.796709729998838,3.3,1.9816117216117215,0.755091575091575
5.801305455999682,3.3,1.9816117216117215,0.755091575091575
5.802183920008247,3.3,1.9816117216117215,0.755091575091575
5.803853016011999,3.3,1.9816117216117215,0.755091575091575
5.808288363012252,3.3,3.3,0.8397069597069596
5.808563761005644,3.3,3.3,0.8397069597069596
5.8154377690079855,3.3,3.3,0.8397069597069596
5.820473148007295,3.3,3.3,0.8397069597069596
5.82568004001223,3.3,3.3,0.8397069597069596
5.826620065010502,3.3,3.3,0.755091575091575
5.8275531500112265,3.3,3.3,0.755091575091575
5.8291567510023015,3.3,3.3,0.755091575091575
5.832923384004971,3.3,3.3,0.755091575091575
5.8375082749989815,3.3,3.3,0.755091575091575
5.837706716003595,3.3,3.3,0.755091575091575
5.8436608480114955,3.3,3.3,0.755091575091575
5.849073483012035,3.0195604395604394,0.6293772893772893,0.3457142857142857
5.850686199002666,2.1911355311355307,0.4351648351648352,0.5495970695970696
5.8548354460072005,2.1911355311355307,0.4351648351648352,0.5495970695970696
5.858724953010096,2.1911355311355307,0.4351648351648352,0.5495970695970696
5.861928840007749,2.647252747252747,1.4352380952380952,0.9525274725274724
5.863595985007123,2.647252747252747,1.4352380952380952,0.9525274725274724
5.866950893003377,2.647252747252747,1.4352380952380952,0.9525274725274724
5.867817131002084,2.647252747252747,1.4352380952380952,0.9525274725274724
5.8687615350063425,2.647252747252747,1.4352380952380952,0.9525274725274724
5.870559770002728,2.647252747252747,1.4352380952380952,0.9525274725274724
5.873198714005412,2.647252747252747,1.4352380952380952,0.9525274725274724
5.878719246000401,3.3,3.3,1.1008058608058606
5.878959813009715,3.3,3.3,1.1008058608058606
5.8837618680117885,3.3,3.3,1.1008058608058606
5.891939313005423,3.3,2.735897435897436,0.7897435897435897
5.897053986001993,3.3,2.735897435897436,0.7897435897435897
5.9019300600048155,0.32153846153846155,2.805201465201465,0.3706959706959707
5.9059051610092865,0.32153846153846155,2.805201465201465,0.3706959706959707
5.912326279998524,0.32153846153846155,2.805201465201465,0.3706959706959707
5.917706268999609,0.32153846153846155,2.805201465201465,0.3706959706959707
5.918010471010348,0.32153846153846155,2.805201465201465,0.3706959706959707
5.926979188006953,0.32153846153846155,2.805201465201465,0.3706959706959707
5.932675297008245,0.32153846153846155,2.805201465201465,0.3706959706959707
5.938311771009467,2.955091575091575,1.4827838827838828,0.23531135531135527
5.940292686005705,2.673040293040293,2.332161172161172,1.4183150183150184
5.942246413003886,2.673040293040293,2.332161172161172,1.4183150183150184
5.943605361011578,2.673040293040293,2.332161172161172,1.4183150183150184
5.949317179998616,2.673040293040293,2.332161172161172,1.4183150183150184
5.9501734180084895,2.673040293040293,2.332161172161172,1.4183150183150184
5.951852482001414,2.673040293040293,2.332161172161172,1.4183150183150184
5.956298399003572,2.673040293040293,2.332161172161172,1.4183150183150184
5.956726610005717,2.673040293040293,2.332161172161172,1.4183150183150184
5.961736097000539,2.673040293040293,2.332161172161172,1.4183150183150184
5.964356360011152,2.673040293040293,2.332161172161172,1.4183150183150184
5.968353067000862,2.673040293040293,2.332161172161172,1.4183150183150184
5.973369750005077,2.673040293040293,2.332161172161172,1.4183150183150184
5.977062386009493,2.673040293040293,2.332161172161172,1.4183150183150184
5.981063609011471,2.673040293040293,2.332161172161172,1.4183150183150184
5.984412249003071,2.673040293040293,2.332161172161172,1.4183150183150184
5.984766203007894,2.673040293040293,2.332161172161172,1.4183150183150184
5.992889068002114,3.3,0.7252747252747253,0.9146520146520146
5.997520527002052,1.2531135531135529,0.26673992673992675,0.33926739926739924
6.00312537800346,3.3,2.735897435897436,1.1265934065934065
6.003401863010367,3.3,2.735897435897436,1.1265934065934065
6.0093799980095355,3.3,2.735897435897436,1.1265934065934065
6.014321492009913,3.3,2.735897435897436,1.1265934065934065
6.019434190005995,2.6657875457875457,3.3,1.7366300366300367
6.028358966010273,3.3,1.4594139194139193,0.9871794871794871
6.035174934004317,3.3,1.4594139194139193,0.9871794871794871
6.0398118540033465,3.3,2.7342857142857144,1.257142857142857
6.046944740010076,3.3,2.7342857142857144,1.257142857142857
6.051265187008539,3.3,2.7342857142857144,1.257142857142857
6.052987593007856,3.3,2.7342857142857144,1.257142857142857
6.057346506000613,2.66014652014652,1.61010989010989,1.3473992673992674
6.05864365400339,2.66014652014652,1.61010989010989,1.3473992673992674
6.066217041006894,2.66014652014652,1.61010989010989,1.3473992673992674
6.071782401006203,2.66014652014652,1.61010989010989,1.3473992673992674
6.0733499880007,1.2958241758241758,0.24014652014652016,0.45369963369963373
6.0782053700095275,1.2958241758241758,0.24014652014652016,0.45369963369963373
6.082504496007459,1.2958241758241758,0.24014652014652016,0.45369963369963373
6.0834387479990255,1.2958241758241758,0.24014652014652016,0.45369963369963373
6.085033784009283,1.2958241758241758,0.24014652014652016,0.45369963369963373
6.08841979400313,1.2958241758241758,0.24014652014652016,0.45369963369963373
6.090402888003155,1.2958241758241758,0.24014652014652016,0.45369963369963373
6.093180770010804,1.2958241758241758,0.24014652014652016,0.45369963369963373
6.096133869999903,1.2958241758241758,0.24014652014652016,0.45369963369963373
6.098758543012082,1.2958241758241758,0.24014652014652016,0.45369963369963373
6.098933544009924,3.3,2.428058608058608,1.0814652014652013
6.103687337003066,3.3,2.428058608058608,1.0814652014652013
6.111642118004966,3.3,2.1685714285714286,0.42630036630036633
6.11710789600329,3.3,2.1685714285714286,0.42630036630036633
6.118152548006037,3.3,2.1685714285714286,0.42630036630036633
6.119129179001902,3.3,2.1685714285714286,0.42630036630036633
6.120205762999831,3.3,2.1685714285714286,0.42630036630036633
6.120518123003421,3.3,2.1685714285714286,0.42630036630036633
6.127972011003294,3.3,2.1685714285714286,0.42630036630036633
6.13282463500218,3.3,2.1685714285714286,0.42630036630036633
6.137355967002804,3.3,2.1685714285714286,0.42630036630036633
6.138325697000255,3.3,2.1685714285714286,0.42630036630036633
6.13924056700489,3.3,2.1685714285714286,0.42630036630036633
6.140842299006181,3.3,2.1685714285714286,0.42630036630036633
6.14443605201086,3.3,2.1685714285714286,0.42630036630036633
6.144598156999564,3.3,2.1685714285714286,0.42630036630036633
6.149915868998505,3.3,2.1685714285714286,0.42630036630036633
6.15098977299931,3.3,2.1685714285714286,0.42630036630036633
6.151359975003288,2.6778754578754578,3.042930402930403,1.801098901098901
6.156008770005428,2.6778754578754578,3.042930402930403,1.801098901098901
6.1561586020106915,2.6778754578754578,3.042930402930403,1.801098901098901
6.161178907001158,2.6778754578754578,3.042930402930403,1.801098901098901
6.164806472006603,2.6778754578754578,3.042930402930403,1.801098901098901
6.164973124003154,2.6956043956043954,0.5318681318681319,0.3908424908424908
6.169972843010328,2.6956043956043954,0.5318681318681319,0.3908424908424908
6.174190989011549,2.6956043956043954,0.5318681318681319,0.3908424908424908
6.17769707700063,2.6714285714285713,2.803589743589743,1.921978021978022
6.178003288005129,3.3,2.2169230769230768,1.0315018315018314
6.182810383004835,3.3,2.2169230769230768,1.0315018315018314
6.188766373001272,3.3,2.2169230769230768,1.0315018315018314
6.193131448002532,3.3,2.2169230769230768,1.0315018315018314
6.194655882005463,3.3,2.2169230769230768,1.0315018315018314
6.19893895801215,3.3,2.2169230769230768,1.0315018315018314
6.200721939007053,3.3,2.2169230769230768,1.0315018315018314
6.203992919006851,3.3,2.2169230769230768,1.0315018315018314
6.204312888003187,3.3,2.2169230769230768,1.0315018315018314
6.209592284008977,3.3,2.2169230769230768,1.0315018315018314
6.214271718010423,3.3,2.2169230769230768,1.0315018315018314
6.218600471998798,3.3,2.2169230769230768,1.0315018315018314
6.219500141000026,3.3,2.2169230769230768,1.0315018315018314
6.221232973999577,3.3,2.2169230769230768,1.0315018315018314
6.227028093999252,3.3,2.2169230769230768,1.0315018315018314
6.231296106008813,3.3,2.2169230769230768,1.0315018315018314
6.232950565012288,3.3,2.2169230769230768,1.0315018315018314
6.23618990900286,3.3,2.2169230769230768,1.0315018315018314
6.238054029003251,2.655311355311355,2.577948717948718,1.6624908424908424
6.240778090999811,2.655311355311355,2.577948717948718,1.6624908424908424
6.244291804003296,2.655311355311355,2.577948717948718,1.6624908424908424
6.244440831011161,2.655311355311355,2.577948717948718,1.6624908424908424
6.249246650011628,2.655311355311355,2.577948717948718,1.6624908424908424
6.254895212012343,2.655311355311355,2.577948717948718,1.6624908424908424
6.255082689007395,2.6778754578754578,3.3,1.6769963369963368
6.259922854005708,2.6778754578754578,3.3,1.6769963369963368
6.264936881008907,2.6778754578754578,3.3,1.6769963369963368
6.268597555012093,2.6778754578754578,3.3,1.6769963369963368
6.273705017010798,3.0936996336996336,2.4216117216117214,0.70996336996337
6.278023878010572,3.0936996336996336,2.4216117216117214,0.70996336996337
6.279490382003132,3.3,2.868058608058608,0.6076190476190476
6.284514284998295,3.3,2.868058608058608,0.6076190476190476
6.288736155009246,2.9567032967032967,0.7019047619047618,0.381978021978022
6.291543628001818,2.9567032967032967,0.7019047619047618,0.381978021978022
6.295065377998981,2.9647619047619047,3.3,1.1467399267399265
6.295214379002573,2.9647619047619047,3.3,1.1467399267399265
6.300256368005648,2.9647619047619047,3.3,1.1467399267399265
6.304522671009181,2.0928205128205124,0.39487179487179486,0.3618315018315018
6.306709229000262,2.0928205128205124,0.39487179487179486,0.3618315018315018
6.307533317012712,2.0928205128205124,0.39487179487179486,0.3618315018315018
6.309718119009631,2.0928205128205124,0.39487179487179486,0.3618315018315018
6.310545965010533,2.0928205128205124,0.39487179487179486,0.3618315018315018
6.312698118999833,2.0928205128205124,0.39487179487179486,0.3618315018315018
6.312973446008982,2.0928205128205124,0.39487179487179486,0.3618315018315018
6.317829131003236,2.0928205128205124,0.39487179487179486,0.3618315018315018
6.322809421006241,2.274945054945055,2.73992673992674,0.46820512820512816
6.3270856810122496,2.274945054945055,2.73992673992674,0.46820512820512816
6.329234361008275,2.274945054945055,2.73992673992674,0.46820512820512816
6.330122603001655,1.6616849816849815,1.1668864468864468,0.5125274725274725
6.331659036004567,1.6616849816849815,1.1668864468864468,0.5125274725274725
6.336015824999777,2.681098901098901,2.5666666666666664,1.6439560439560439
6.337495710002258,2.681098901098901,2.5666666666666664,1.6439560439560439
6.3418363189994125,2.681098901098901,2.5666666666666664,1.6439560439560439
6.34333262500877,2.681098901098901,2.5666666666666664,1.6439560439560439
6.348376663998351,2.681098901098901,2.5666666666666664,1.6439560439560439
6.352068677006173,2.681098901098901,2.5666666666666664,1.6439560439560439
6.356477291003102,2.681098901098901,2.5666666666666664,1.6439560439560439
6.358025883004302,2.681098901098901,2.5666666666666664,1.6439560439560439
6.362312817000202,2.681098901098901,2.5666666666666664,1.6439560439560439
6.36452780100808,2.681098901098901,2.5666666666666664,1.6439560439560439
6.364827868004795,2.681098901098901,2.5666666666666664,1.6439560439560439
6.369861371000297,2.681098901098901,2.5666666666666664,1.6439560439560439
6.373568505005096,2.087985347985348,0.3489377289377289,0.7518681318681318
6.378527765002218,3.3,0.4996336996336996,0.6446886446886446
6.383576467007515,3.3,0.4996336996336996,0.6446886446886446
6.387690729010501,3.3,0.4996336996336996,0.6446886446886446
6.39007782000408,3.3,0.4996336996336996,0.6446886446886446
6.390294955010177,3.3,0.4996336996336996,0.6446886446886446
6.395814531002543,3.3,0.4996336996336996,0.6446886446886446
6.39672087400686,3.3,0.4996336996336996,0.6446886446886446
6.3976808610023,3.3,0.4996336996336996,0.6446886446886446
6.398742696008412,3.3,0.4996336996336996,0.6446886446886446
6.399698168999748,3.3,0.4996336996336996,0.6446886446886446
6.401356086003943,3.3,0.4996336996336996,0.6446886446886446
6.404604114009999,1.9936996336996335,0.7107692307692308,0.20307692307692307
6.4054774310061475,1.9936996336996335,0.7107692307692308,0.20307692307692307
6.407154931002879,1.9936996336996335,0.7107692307692308,0.20307692307692307
6.4112288629985414,1.9936996336996335,0.7107692307692308,0.20307692307692307
6.414438068008167,1.9936996336996335,0.7107692307692308,0.20307692307692307
6.416130359008093,1.9936996336996335,0.7107692307692308,0.20307692307692307
6.420143300012569,1.9936996336996335,0.7107692307692308,0.20307692307692307
6.4241186040017055,3.3,2.0009523809523806,0.8767765567765567
6.428257329011103,3.3,2.0009523809523806,0.8767765567765567
6.430797370005166,3.3,2.0009523809523806,0.8767765567765567
6.436328145005973,3.3,2.0009523809523806,0.8767765567765567
6.43721848000132,3.3,2.0009523809523806,0.8767765567765567
6.438131805000012,3.3,2.0009523809523806,0.8767765567765567
6.439769347998663,3.3,2.0009523809523806,0.8767765567765567
6.443727370002307,3.3,2.0009523809523806,0.8767765567765567
6.446875160007039,3.3,2.0009523809523806,0.8767765567765567
6.44791451600031,3.3,2.0009523809523806,0.8767765567765567
