time,emg1,emg2,emg3
0.043698549998225644,1.4336263736263737,0.0,0.8332600732600732
0.04431463799846824,1.4336263736263737,0.0,0.8332600732600732
0.05101539300812874,1.4336263736263737,0.0,0.8332600732600732
0.0558375060063554,1.4336263736263737,0.0,0.8332600732600732
0.061230776002048515,2.597289377289377,0.0,1.9131135531135532
0.06230443299864419,2.597289377289377,0.0,1.9131135531135532
0.06255129700002726,2.597289377289377,0.0,1.9131135531135532
0.06791761401109397,2.597289377289377,0.0,1.9131135531135532
0.06964065400825348,2.597289377289377,0.0,1.9131135531135532
0.0731023950065719,2.597289377289377,0.0,1.9131135531135532
0.073402640002314,2.597289377289377,0.0,1.9131135531135532
0.079334584006574,2.597289377289377,0.0,1.9131135531135532
0.08429426100337878,2.597289377289377,0.0,1.9131135531135532
0.08830015000421554,2.9953846153846153,0.0,1.261978021978022
0.091611580006429,2.9953846153846153,0.0,1.261978021978022
0.09190391200536396,2.9953846153846153,0.0,1.261978021978022
0.09830824000528082,2.9953846153846153,0.0,1.261978021978022
0.10144617399782874,2.6005128205128205,0.0,1.88007326007326
0.10379388299770653,2.6005128205128205,0.0,1.88007326007326
0.1039561310026329,2.6005128205128205,0.0,1.88007326007326
0.10930002700479236,2.6005128205128205,0.0,1.88007326007326
0.11222809400351252,0.25223443223443226,0.0,0.5649084249084249
0.1169833540043328,0.25223443223443226,0.0,0.5649084249084249
0.12507560099766124,0.25223443223443226,0.0,0.5649084249084249
0.13227781100431457,0.25223443223443226,0.0,0.5649084249084249
0.13737857900559902,0.3731135531135531,0.0,0.6833699633699634
0.13944892400468234,0.3731135531135531,0.0,0.6833699633699634
0.14088451099814847,0.3731135531135531,0.0,0.6833699633699634
0.14964702300494537,0.3731135531135531,0.0,0.6833699633699634
0.15555766900070012,2.012234432234432,0.0,1.3248351648351648
0.1605473100062227,0.7615384615384615,0.0,0.5576556776556777
0.16494556800171267,0.7615384615384615,0.0,0.5576556776556777
0.16588098600914236,0.7615384615384615,0.0,0.5576556776556777
0.1673837900016224,0.7615384615384615,0.0,0.5576556776556777
0.17173127800924703,0.7615384615384615,0.0,0.5576556776556777
0.17339399999764282,0.0,0.0,0.5923076923076923
0.1770025540026836,0.0,0.0,0.5923076923076923
0.1770920870039845,0.0,0.0,0.5923076923076923
0.18222371600859333,0.0,0.0,0.5923076923076923
0.18580796400783584,0.0,0.0,0.5923076923076923
0.1859579029987799,0.0,0.0,0.5923076923076923
0.19126451000920497,0.0,0.0,0.5923076923076923
0.19343613400997128,0.0,0.0,0.5923076923076923
0.19423397500941064,0.0,0.0,0.5923076923076923
0.19582369099953212,0.0,0.0,0.5923076923076923
0.19952531800663564,0.0,0.0,0.5923076923076923
0.20694768099929206,0.0,0.0,0.5923076923076923
0.21127654000883922,0.0,0.0,0.5923076923076923
0.21209383000677917,0.0,0.0,0.5923076923076923
0.2139626930002123,0.0,0.0,0.5923076923076923
0.2185166039998876,0.0,0.0,0.5923076923076923
0.22754022300068755,0.0,0.0,0.5923076923076923
0.235749494007905,2.0267399267399266,0.0,1.0395604395604394
0.24257632400258444,2.0267399267399266,0.0,1.0395604395604394
0.24580736500502098,2.0267399267399266,0.0,1.0395604395604394
0.24805399400065653,2.0267399267399266,0.0,1.0395604395604394
0.24831544799963012,2.597289377289377,0.0,1.888131868131868
0.2535278810100863,2.597289377289377,0.0,1.888131868131868
0.25650740900891833,2.597289377289377,0.0,1.888131868131868
0.26028818800114095,3.3,0.0,0.9807326007326007
0.2686436590010999,3.3,0.0,0.9807326007326007
0.2724232370092068,3.3,0.0,0.9807326007326007
0.2725365250080358,3.3,0.0,0.9807326007326007
0.2790803940006299,3.3,0.0,0.9807326007326007
0.28466270900389645,3.3,0.0,0.9807326007326007
0.29046263999771327,2.639194139194139,0.0,1.1104761904761904
0.29071861700504087,1.6254212454212453,0.0,0.11926739926739927
0.29702952300431207,1.6254212454212453,0.0,0.11926739926739927
0.3007691730017541,1.6254212454212453,0.0,0.11926739926739927
0.30519970900786575,0.32798534798534795,0.0,0.22725274725274724
0.3067749769979855,0.32798534798534795,0.0,0.22725274725274724
0.3121943680016557,0.32798534798534795,0.0,0.22725274725274724
0.3130674060084857,0.32798534798534795,0.0,0.22725274725274724
0.3147105600073701,0.32798534798534795,0.0,0.22725274725274724
0.3184603910049191,0.32798534798534795,0.0,0.22725274725274724
0.32296371400298085,1.0758241758241758,0.0,0.6301831501831501
0.324006189010106,1.0758241758241758,0.0,0.6301831501831501
0.3253172490076395,1.0758241758241758,0.0,0.6301831501831501
0.33211938600288704,3.3,0.0,0.8284249084249083
0.33589927401044406,0.03465201465201465,0.0,0.5673260073260072
0.34146125199913513,0.03465201465201465,0.0,0.5673260073260072
0.34433134700520895,2.797142857142857,0.0,0.7051282051282051
0.3472544190008193,2.797142857142857,0.0,0.7051282051282051
0.34962991600332316,2.797142857142857,0.0,0.7051282051282051
0.34982659699744545,2.797142857142857,0.0,0.7051282051282051
0.3579839529993478,2.797142857142857,0.0,0.7051282051282051
0.36369532700337004,2.797142857142857,0.0,0.7051282051282051
0.3681993310019607,2.714945054945055,0.0,1.0983882783882783
0.36979758500820026,2.116996336996337,0.0,0.2627106227106227
0.3742081450036494,2.116996336996337,0.0,0.2627106227106227
0.3769037760066567,2.116996336996337,0.0,0.2627106227106227
0.3807097450044239,2.5989010989010985,0.0,1.851062271062271
0.3845805220043985,2.5989010989010985,0.0,1.851062271062271
0.3883885640098015,2.5989010989010985,0.0,1.851062271062271
0.3959606300049927,2.5989010989010985,0.0,1.851062271062271
0.3999082689988427,0.5906959706959707,0.0,0.3642490842490842
0.4037724980007624,0.5906959706959707,0.0,0.3642490842490842
0.4094378099980531,0.5906959706959707,0.0,0.3642490842490842
0.4096684410033049,0.5906959706959707,0.0,0.3642490842490842
0.4164020669995807,0.5906959706959707,0.0,0.3642490842490842
0.4194959220039891,0.788937728937729,0.0,0.5584615384615385
0.42177406400151085,0.788937728937729,0.0,0.5584615384615385
0.4219661120005185,0.788937728937729,0.0,0.5584615384615385
0.4296465430088574,0.788937728937729,0.0,0.5584615384615385
0.4343457560025854,3.2790476190476188,0.0,1.1443223443223443
0.4345642420084914,3.2790476190476188,0.0,1.1443223443223443
0.44012378400657326,3.2790476190476188,0.0,1.1443223443223443
0.4420842289982829,0.8920879120879119,0.0,0.5310622710622711
0.4435144340095576,0.8920879120879119,0.0,0.5310622710622711
0.4495571630104678,0.8920879120879119,0.0,0.5310622710622711
0.4542184230085695,0.8920879120879119,0.0,0.5310622710622711
0.4543981739989249,0.8920879120879119,0.0,0.5310622710622711
0.4610670929978369,0.8920879120879119,0.0,0.5310622710622711
0.4642855359998066,0.8920879120879119,0.0,0.5310622710622711
0.46521026200207416,0.8920879120879119,0.0,0.5310622710622711
0.4668494400102645,0.8920879120879119,0.0,0.5310622710622711
0.4705960100109223,0.8920879120879119,0.0,0.5310622710622711
0.47753741800261196,1.519047619047619,0.0,0.07736263736263736
0.48174455600383226,1.519047619047619,0.0,0.07736263736263736
0.48410838200652506,1.519047619047619,0.0,0.07736263736263736
0.4843196730071213,1.519047619047619,0.0,0.07736263736263736
0.48976253101136535,1.519047619047619,0.0,0.07736263736263736
0.4917748570005642,1.519047619047619,0.0,0.07736263736263736
0.4935367410071194,1.519047619047619,0.0,0.07736263736263736
0.4965019100054633,1.519047619047619,0.0,0.07736263736263736
0.4982986440008972,3.3,0.0,0.9839560439560439
0.5015346889995271,3.3,0.0,0.9839560439560439
0.5024977470020531,3.3,0.0,0.9839560439560439
0.5041075370099861,3.3,0.0,0.9839560439560439
0.5084214509988669,3.3,0.0,0.9839560439560439
0.5107529180095298,3.3,0.0,0.9839560439560439
0.5108883750071982,3.3,0.0,0.9839560439560439
0.5168900100106839,3.3,0.0,0.9839560439560439
0.5230606030090712,0.8018315018315018,0.0,0.5858608058608058
0.5292571770114591,0.8018315018315018,0.0,0.5858608058608058
0.5325463580084033,0.28608058608058606,0.0,0.43597069597069593
0.5334353799989913,0.28608058608058606,0.0,0.43597069597069593
0.5350862580089597,0.28608058608058606,0.0,0.43597069597069593
0.5389627940021455,0.28608058608058606,0.0,0.43597069597069593
0.5446267910010647,1.6753846153846153,0.0,0.9186813186813186
0.5447455800021999,2.9454212454212456,0.0,1.141098901098901
0.5494279630074743,2.9454212454212456,0.0,1.141098901098901
0.5496536580030806,2.9454212454212456,0.0,1.141098901098901
0.5542619030020433,2.9454212454212456,0.0,1.141098901098901
0.5544666839996353,2.9454212454212456,0.0,1.141098901098901
0.5615999430010561,2.9454212454212456,0.0,1.141098901098901
0.5656576420005877,3.3,0.0,1.199120879120879
0.5689274449978257,3.3,0.0,1.199120879120879
0.5704828120069578,3.3,0.0,1.199120879120879
0.576620798005024,3.3,0.0,1.199120879120879
0.5809654730110196,0.7712087912087912,0.0,0.5302564102564102
0.5812672040046891,0.7712087912087912,0.0,0.5302564102564102
0.5897831800102722,0.7712087912087912,0.0,0.5302564102564102
0.5974705390108284,0.7712087912087912,0.0,0.5302564102564102
0.6029852299980121,0.7712087912087912,0.0,0.5302564102564102
0.6031712690019049,0.7712087912087912,0.0,0.5302564102564102
0.6110734969988698,0.7712087912087912,0.0,0.5302564102564102
0.615565100000822,0.7712087912087912,0.0,0.5302564102564102
0.6157731709972722,0.7712087912087912,0.0,0.5302564102564102
0.6210932009998942,0.7712087912087912,0.0,0.5302564102564102
0.6234506410110043,0.7712087912087912,0.0,0.5302564102564102
0.6236630530038383,0.7712087912087912,0.0,0.5302564102564102
0.6300665760063566,0.7712087912087912,0.0,0.5302564102564102
0.6339307190064574,0.4504761904761904,0.0,0.3763369963369963
0.6376648620062042,0.4504761904761904,0.0,0.3763369963369963
0.6459394410048844,1.6157509157509156,0.0,0.8977289377289376
0.6532885519991396,1.6157509157509156,0.0,0.8977289377289376
0.65841497600195,1.6157509157509156,0.0,0.8977289377289376
0.6613213759992504,1.6157509157509156,0.0,0.8977289377289376
0.663933703006478,1.6157509157509156,0.0,0.8977289377289376
0.6685033690009732,2.5215384615384613,0.0,0.9992673992673992
0.6693436799978372,2.5215384615384613,0.0,0.9992673992673992
0.6709654169972055,2.5215384615384613,0.0,0.9992673992673992
0.6784219060064061,2.5215384615384613,0.0,0.9992673992673992
0.6828509170009056,2.5215384615384613,0.0,0.9992673992673992
0.6837731590057956,2.5215384615384613,0.0,0.9992673992673992
0.6856814790080534,2.5215384615384613,0.0,0.9992673992673992
0.6880471820040839,2.6005128205128205,0.0,1.7446886446886447
0.6959354450082174,2.6005128205128205,0.0,1.7446886446886447
0.6998915029980708,2.6005128205128205,0.0,1.7446886446886447
0.7044358510029269,2.6005128205128205,0.0,1.7446886446886447
0.7053374360111775,2.6005128205128205,0.0,1.7446886446886447
0.7075709470082074,2.6005128205128205,0.0,1.7446886446886447
0.7080581830086885,2.6005128205128205,0.0,1.7446886446886447
0.7160824739985401,2.6005128205128205,0.0,1.7446886446886447
0.7229845270048827,2.6005128205128205,0.0,1.7446886446886447
0.7299278560094535,2.6005128205128205,0.0,1.7446886446886447
0.7338724500004901,2.6005128205128205,0.0,1.7446886446886447
0.7392852390039479,2.6005128205128205,0.0,1.7446886446886447
0.7421062930079643,2.6005128205128205,0.0,1.7446886446886447
0.745219985008589,2.6005128205128205,0.0,1.7446886446886447
0.747281356001622,2.6005128205128205,0.0,1.7446886446886447
0.7502750210114755,2.6005128205128205,0.0,1.7446886446886447
0.7526119609974558,0.3972893772893773,0.0,0.5560439560439561
0.7527663090004353,0.3972893772893773,0.0,0.5560439560439561
0.7600910460023442,0.3972893772893773,0.0,0.5560439560439561
0.7635449899971718,0.43435897435897436,0.0,0.3545787545787546
0.7637410030001774,0.43435897435897436,0.0,0.3545787545787546
0.7696358410030371,0.43435897435897436,0.0,0.3545787545787546
0.7759169490018394,0.0,0.0,0.6326007326007326
0.7799698110029567,0.0,0.0,0.6326007326007326
0.7816255240031751,0.0,0.0,0.6326007326007326
0.7855029940110398,0.0,0.0,0.6326007326007326
0.7885313440056052,0.0,0.0,0.6326007326007326
0.7922122160089202,0.0,0.0,0.6326007326007326
0.798000155002228,0.0,0.0,0.6326007326007326
0.8037379989982583,0.0,0.0,0.6326007326007326
0.8038499420072185,0.0,0.0,0.6326007326007326
0.8130043220007792,1.9235897435897436,0.0,1.0452014652014652
0.8181950459984364,1.9235897435897436,0.0,1.0452014652014652
0.8197792360006133,1.3997802197802196,0.0,0.8493772893772893
0.8237366550019942,1.3997802197802196,0.0,0.8493772893772893
0.8311839880043408,1.3997802197802196,0.0,0.8493772893772893
0.8377800050075166,1.3997802197802196,0.0,0.8493772893772893
0.844623277997016,1.3997802197802196,0.0,0.8493772893772893
0.8482571610074956,1.3997802197802196,0.0,0.8493772893772893
0.8484043729986297,1.3997802197802196,0.0,0.8493772893772893
0.8530873470008373,1.3997802197802196,0.0,0.8493772893772893
0.8532686340040527,0.7067399267399267,0.0,0.5544322344322344
0.8623838200001046,0.7067399267399267,0.0,0.5544322344322344
0.8690725490014302,0.7067399267399267,0.0,0.5544322344322344
0.8759427220065845,0.7067399267399267,0.0,0.5544322344322344
0.880357501009712,0.7067399267399267,0.0,0.5544322344322344
0.8806260030105477,1.6189743589743588,0.0,0.9468864468864467
0.8852067870029714,1.6189743589743588,0.0,0.9468864468864467
0.8860472689993912,1.6189743589743588,0.0,0.9468864468864467
0.8876482269988628,1.6189743589743588,0.0,0.9468864468864467
0.8935528910078574,3.3,0.0,1.2345787545787545
0.8992049020016566,3.3,0.0,1.2345787545787545
0.899418314002105,3.3,0.0,1.2345787545787545
0.904582945004222,3.3,0.0,1.2345787545787545
0.9099644860107219,2.2233699633699633,0.0,0.6092307692307692
0.9110171540087322,0.7986080586080586,0.0,0.29010989010989013
0.9118951790005667,0.4553113553113553,0.0,0.4722344322344322
0.9127680000092369,0.4553113553113553,0.0,0.4722344322344322
0.9143166980065871,0.4553113553113553,0.0,0.4722344322344322
0.9188309760065749,0.4553113553113553,0.0,0.4722344322344322
0.9191127310041338,0.4553113553113553,0.0,0.4722344322344322
0.9246133100095904,0.4553113553113553,0.0,0.4722344322344322
0.926598065008875,0.4553113553113553,0.0,0.4722344322344322
0.9275542120012688,0.4553113553113553,0.0,0.4722344322344322
0.9284531989978859,0.4553113553113553,0.0,0.4722344322344322
0.9300751580012729,1.5206593406593405,0.0,0.0709157509157509
0.933848801010754,1.5206593406593405,0.0,0.0709157509157509
0.9375836079998408,1.5206593406593405,0.0,0.0709157509157509
0.9443303510051919,0.826007326007326,0.0,0.43677655677655675
0.9481126730097458,0.826007326007326,0.0,0.43677655677655675
0.9539147350005805,0.826007326007326,0.0,0.43677655677655675
0.9606492520106258,0.826007326007326,0.0,0.43677655677655675
0.9639630970050348,0.6761172161172161,0.0,0.49076923076923074
0.9648432899994077,0.6761172161172161,0.0,0.49076923076923074
0.966427150007803,0.6761172161172161,0.0,0.49076923076923074
0.9701346450019628,0.6761172161172161,0.0,0.49076923076923074
0.9786176010093186,0.6761172161172161,0.0,0.49076923076923074
0.9844043650082313,0.6761172161172161,0.0,0.49076923076923074
0.9897981480025919,0.5504029304029303,0.0,0.43113553113553116
0.9919833530002506,0.5504029304029303,0.0,0.43113553113553116
0.9922762810019776,0.5246153846153846,0.0,0.6172893772893773
0.9984835689974716,0.5246153846153846,0.0,0.6172893772893773
1.0023352220014203,0.7986080586080586,0.0,0.4166300366300366
1.0100545720051741,0.7986080586080586,0.0,0.4166300366300366
1.0140559139981633,0.7986080586080586,0.0,0.4166300366300366
1.0165447650069837,0.7986080586080586,0.0,0.4166300366300366
1.0166558729979442,0.7986080586080586,0.0,0.4166300366300366
1.0219424730021274,0.7986080586080586,0.0,0.4166300366300366
1.0267663710110355,0.7986080586080586,0.0,0.4166300366300366
1.0307714299997315,0.7986080586080586,0.0,0.4166300366300366
1.0337639810022665,1.834945054945055,0.0,0.17245421245421244
1.0366273109975737,1.834945054945055,0.0,0.17245421245421244
1.0412166460009757,2.1911355311355307,0.0,0.6688644688644688
1.0414579330099514,2.1911355311355307,0.0,0.6688644688644688
1.050108548006392,2.1911355311355307,0.0,0.6688644688644688
1.0547228930081474,2.449010989010989,0.0,1.357069597069597
1.0549092580040451,0.7824908424908424,0.0,0.5463736263736263
1.061914333011373,0.7824908424908424,0.0,0.5463736263736263
1.0657972710032482,2.594065934065934,0.0,1.838974358974359
1.0701686370011885,2.626300366300366,0.0,1.3272527472527473
1.0717162840010133,2.626300366300366,0.0,1.3272527472527473
1.0792090169998119,2.626300366300366,0.0,1.3272527472527473
1.0839571300020907,0.7035164835164834,0.0,0.5649084249084249
1.0841058200021507,0.7035164835164834,0.0,0.5649084249084249
1.0893758770107524,0.7035164835164834,0.0,0.5649084249084249
1.0927671380050015,0.7035164835164834,0.0,0.5649084249084249
1.092893228007597,0.7035164835164834,0.0,0.5649084249084249
1.1007120180001948,0.7035164835164834,0.0,0.5649084249084249
1.108310800002073,0.7035164835164834,0.0,0.5649084249084249
1.115576381009305,0.8308424908424907,0.0,0.190989010989011
1.1218825390096754,0.8308424908424907,0.0,0.190989010989011
1.1252207530051237,0.8308424908424907,0.0,0.190989010989011
1.1261292660055915,0.8308424908424907,0.0,0.190989010989011
1.1270022930111736,0.8308424908424907,0.0,0.190989010989011
1.129188475999399,0.8308424908424907,0.0,0.190989010989011
1.12999961800233,0.8308424908424907,0.0,0.190989010989011
1.132170741999289,0.8308424908424907,0.0,0.190989010989011
1.1330932900018524,0.8308424908424907,0.0,0.190989010989011
1.1339751640043687,0.8308424908424907,0.0,0.190989010989011
1.1354544740024721,0.8308424908424907,0.0,0.190989010989011
1.1405379350035219,0.8308424908424907,0.0,0.190989010989011
1.1448868900042726,1.7398534798534797,0.0,0.9493040293040291
1.1465820720040938,2.5134798534798533,0.0,0.5858608058608058
1.150166838997393,2.5134798534798533,0.0,0.5858608058608058
1.150319264997961,2.5134798534798533,0.0,0.5858608058608058
1.1552854080073303,2.5134798534798533,0.0,0.5858608058608058
1.1612631540047005,2.5134798534798533,0.0,0.5858608058608058
1.1687116630055243,2.5134798534798533,0.0,0.5858608058608058
1.1737826980097452,2.864835164835165,0.0,1.1362637362637362
1.180979582000873,2.864835164835165,0.0,1.1362637362637362
1.1867701680021128,1.1064468864468864,0.0,0.6817582417582417
1.1945573870034423,1.1064468864468864,0.0,0.6817582417582417
1.2017590980103705,1.1064468864468864,0.0,0.6817582417582417
1.206312556998455,1.1064468864468864,0.0,0.6817582417582417
1.206543795997277,1.1064468864468864,0.0,0.6817582417582417
1.2117778649990214,1.1064468864468864,0.0,0.6817582417582417
1.2139536090107867,1.1064468864468864,0.0,0.6817582417582417
1.2154142700019293,1.1064468864468864,0.0,0.6817582417582417
1.221305087005021,3.3,0.0,1.0701831501831502
1.2214801759982947,3.3,0.0,1.0701831501831502
1.229443985997932,3.3,0.0,1.0701831501831502
1.236001634009881,2.3619780219780218,0.0,1.3715750915750915
1.241945489004138,2.3619780219780218,0.0,1.3715750915750915
1.2474314959981712,1.6254212454212453,0.0,0.9098168498168498
1.2477732620027382,1.6254212454212453,0.0,0.9098168498168498
1.254918289007037,1.6254212454212453,0.0,0.9098168498168498
1.2605099820066243,0.047545787545787546,0.0,0.5794139194139193
1.270110213998123,0.047545787545787546,0.0,0.5794139194139193
1.278893896000227,1.7978754578754577,0.0,0.8276190476190476
1.284012967007584,2.6279120879120876,0.0,1.3328937728937729
1.2880923110060394,2.038021978021978,0.0,1.2418315018315018
1.2903560720005771,2.452234432234432,0.0,0.5624908424908425
1.2911616080091335,0.1249084249084249,0.0,0.5415384615384615
1.293270398004097,0.1249084249084249,0.0,0.5415384615384615
1.2939831310068257,0.1249084249084249,0.0,0.5415384615384615
1.2960920680052368,0.1249084249084249,0.0,0.5415384615384615
1.2974868130113464,0.1249084249084249,0.0,0.5415384615384615
1.3021843150054337,0.1249084249084249,0.0,0.5415384615384615
1.3024125399970217,0.1249084249084249,0.0,0.5415384615384615
1.307009730997379,0.1249084249084249,0.0,0.5415384615384615
1.307735105001484,0.1249084249084249,0.0,0.5415384615384615
1.3098008030065103,0.1249084249084249,0.0,0.5415384615384615
1.3111445140093565,0.1249084249084249,0.0,0.5415384615384615
1.3158256690076087,0.1249084249084249,0.0,0.5415384615384615
1.316005626009428,0.1249084249084249,0.0,0.5415384615384615
1.3207599550078157,0.1249084249084249,0.0,0.5415384615384615
1.3208715910004685,0.1249084249084249,0.0,0.5415384615384615
1.325549236004008,0.1249084249084249,0.0,0.5415384615384615
1.326354511998943,2.8873992673992674,0.0,1.2813186813186812
1.3284024150052574,2.6230769230769226,0.0,1.6818315018315015
1.3298388080002042,2.6230769230769226,0.0,1.6818315018315015
1.3345833790081087,2.6230769230769226,0.0,1.6818315018315015
1.335315806005383,2.6230769230769226,0.0,1.6818315018315015
1.337451115003205,2.6230769230769226,0.0,1.6818315018315015
1.3382636059977813,2.6230769230769226,0.0,1.6818315018315015
1.3403566330089234,2.6230769230769226,0.0,1.6818315018315015
1.3411044200038305,2.6230769230769226,0.0,1.6818315018315015
1.3431962470058352,2.6230769230769226,0.0,1.6818315018315015
1.3440126280038385,2.6230769230769226,0.0,1.6818315018315015
1.3461610020021908,2.6230769230769226,0.0,1.6818315018315015
1.347580186004052,2.6230769230769226,0.0,1.6818315018315015
1.3521773850079626,2.6230769230769226,0.0,1.6818315018315015
1.3529918340063887,2.6230769230769226,0.0,1.6818315018315015
1.3550371210003505,2.6230769230769226,0.0,1.6818315018315015
1.3564964399993187,2.6230769230769226,0.0,1.6818315018315015
1.360553834005259,2.6230769230769226,0.0,1.6818315018315015
1.3645467710011872,2.6230769230769226,0.0,1.6818315018315015
1.368583766001393,1.904249084249084,0.0,0.5753846153846153
1.3719725789997028,0.7228571428571429,0.0,0.25465201465201465
1.3727953610068653,0.7228571428571429,0.0,0.25465201465201465
1.3748122399993008,0.7228571428571429,0.0,0.25465201465201465
1.3762358770036371,0.7228571428571429,0.0,0.25465201465201465
1.3808778370002983,0.7228571428571429,0.0,0.25465201465201465
1.3811468540079659,0.7228571428571429,0.0,0.25465201465201465
1.3857253750029486,0.7228571428571429,0.0,0.25465201465201465
1.385903854999924,0.7228571428571429,0.0,0.25465201465201465
1.3905018820078112,0.7228571428571429,0.0,0.25465201465201465
1.3907745110045653,0.7228571428571429,0.0,0.25465201465201465
1.3953812109975843,0.7228571428571429,0.0,0.25465201465201465
1.396176927999477,0.7228571428571429,0.0,0.25465201465201465
1.398219242997584,0.7228571428571429,0.0,0.25465201465201465
1.399022680008784,0.7228571428571429,0.0,0.25465201465201465
1.4010113719996298,0.7228571428571429,0.0,0.25465201465201465
1.403040866003721,0.7228571428571429,0.0,0.25465201465201465
1.4044204620004166,0.7228571428571429,0.0,0.25465201465201465
1.408994668003288,0.7228571428571429,0.0,0.25465201465201465
1.4097805120109115,0.7228571428571429,0.0,0.25465201465201465
1.4117994679982075,0.3505494505494505,0.0,0.7607326007326007
1.413195581000764,0.3505494505494505,0.0,0.7607326007326007
1.4132926370075438,0.3505494505494505,0.0,0.7607326007326007
1.4178489970072405,0.3505494505494505,0.0,0.7607326007326007
1.4181027510057902,0.3505494505494505,0.0,0.7607326007326007
1.4227426450088387,0.3505494505494505,0.0,0.7607326007326007
1.4230087220057612,0.3505494505494505,0.0,0.7607326007326007
1.4275792980042752,0.3505494505494505,0.0,0.7607326007326007
1.4283007790072588,3.3,0.0,1.4328205128205127
1.4304442029970232,1.656043956043956,0.0,0.09186813186813186
1.4312488580035279,1.656043956043956,0.0,0.09186813186813186
1.4333721840084763,1.656043956043956,0.0,0.09186813186813186
1.434830320009496,1.656043956043956,0.0,0.09186813186813186
1.4396058120037196,1.656043956043956,0.0,0.09186813186813186
1.4397676840017084,1.656043956043956,0.0,0.09186813186813186
1.4482199010089971,0.5955311355311355,0.0,0.4512820512820513
1.4543813180061989,0.5955311355311355,0.0,0.4512820512820513
1.459363850997761,0.5955311355311355,0.0,0.4512820512820513
1.4631817290064646,0.5955311355311355,0.0,0.4512820512820513
1.4696872100030305,0.5955311355311355,0.0,0.4512820512820513
1.4749287690065103,0.5955311355311355,0.0,0.4512820512820513
1.4769076619995758,0.5955311355311355,0.0,0.4512820512820513
1.4800398310035234,0.5955311355311355,0.0,0.4512820512820513
1.4803005590074463,0.5955311355311355,0.0,0.4512820512820513
1.4879952629999025,0.5955311355311355,0.0,0.4512820512820513
1.4942801450088155,0.5955311355311355,0.0,0.4512820512820513
1.4992235130048357,0.5955311355311355,0.0,0.4512820512820513
1.505481125001097,0.5955311355311355,0.0,0.4512820512820513
1.5097348780109314,0.5955311355311355,0.0,0.4512820512820513
1.5110860340064391,0.5955311355311355,0.0,0.4512820512820513
1.5157414410059573,0.5955311355311355,0.0,0.4512820512820513
1.5164586610044353,0.5955311355311355,0.0,0.4512820512820513
1.5186231980042066,0.5955311355311355,0.0,0.4512820512820513
1.5194824610080104,0.5955311355311355,0.0,0.4512820512820513
1.5210557450045599,0.5955311355311355,0.0,0.4512820512820513
1.5254072530078702,0.5955311355311355,0.0,0.4512820512820513
1.5269252540019806,1.9880586080586078,0.0,1.1805860805860806
1.530566555011319,1.9880586080586078,0.0,1.1805860805860806
1.5307210300088627,1.9880586080586078,0.0,1.1805860805860806
1.5356647680018796,0.7276923076923076,0.0,0.6003663003663003
1.5403099170071073,0.7276923076923076,0.0,0.6003663003663003
1.5405252820055466,0.7276923076923076,0.0,0.6003663003663003
1.5451971209986368,0.7276923076923076,0.0,0.6003663003663003
1.5454481070046313,0.7276923076923076,0.0,0.6003663003663003
1.5501540670084069,0.7276923076923076,0.0,0.6003663003663003
1.5504002860106993,2.31040293040293,0.0,0.38681318681318677
1.5549777840060415,0.66,0.0,0.7832967032967032
1.5552627200086135,0.66,0.0,0.7832967032967032
1.5599786820093868,0.66,0.0,0.7832967032967032
1.5646642589999828,0.66,0.0,0.7832967032967032
1.5654152250062907,0.66,0.0,0.7832967032967032
1.5674508420052007,0.66,0.0,0.7832967032967032
1.5689205280068563,0.66,0.0,0.7832967032967032
1.5730769140063785,0.08139194139194139,0.0,0.4722344322344322
1.576839914006996,0.08139194139194139,0.0,0.4722344322344322
1.5802928190096281,2.5956776556776555,0.0,1.8567032967032966
1.5810970349994022,1.211208791208791,0.0,0.6954578754578754
1.583105854006135,1.211208791208791,0.0,0.6954578754578754
1.5851510310021695,1.211208791208791,0.0,0.6954578754578754
1.5865790789976018,1.211208791208791,0.0,0.6954578754578754
1.5911870030104183,1.211208791208791,0.0,0.6954578754578754
1.5919475859991508,1.751135531135531,0.0,0.18776556776556774
1.5940618110034848,1.751135531135531,0.0,0.18776556776556774
1.5954849870031467,1.751135531135531,0.0,0.18776556776556774
1.6001668270037044,1.751135531135531,0.0,0.18776556776556774
1.600922432000516,0.6841758241758242,0.0,0.4464468864468864
1.6024697929969989,0.6841758241758242,0.0,0.4464468864468864
1.606544713009498,0.6841758241758242,0.0,0.4464468864468864
1.6098877339973114,0.6841758241758242,0.0,0.4464468864468864
1.6106546899973182,0.6841758241758242,0.0,0.4464468864468864
1.6127364600106375,0.6841758241758242,0.0,0.4464468864468864
1.6135365390073275,0.6841758241758242,0.0,0.4464468864468864
1.6155950170068536,0.8292307692307692,0.0,0.5479853479853479
1.6169992060022196,0.8292307692307692,0.0,0.5479853479853479
1.6171017260057852,0.8292307692307692,0.0,0.5479853479853479
1.622015556000406,0.8292307692307692,0.0,0.5479853479853479
1.6269034750002902,0.8292307692307692,0.0,0.5479853479853479
1.631541887007188,0.8292307692307692,0.0,0.5479853479853479
1.6323113730031764,0.8292307692307692,0.0,0.5479853479853479
1.6343288019998,0.8292307692307692,0.0,0.5479853479853479
1.6363113300030818,0.8292307692307692,0.0,0.5479853479853479
1.6377055540069705,0.8292307692307692,0.0,0.5479853479853479
1.6378371239989065,0.8292307692307692,0.0,0.5479853479853479
1.6422941530036042,0.8292307692307692,0.0,0.5479853479853479
1.64308205099951,0.8292307692307692,0.0,0.5479853479853479
1.6451837190106744,0.8292307692307692,0.0,0.5479853479853479
1.6466262270114385,0.8292307692307692,0.0,0.5479853479853479
1.6512448230059817,0.8292307692307692,0.0,0.5479853479853479
1.651981679009623,0.8292307692307692,0.0,0.5479853479853479
1.654124316002708,0.8292307692307692,0.0,0.5479853479853479
1.6554783169995062,0.8292307692307692,0.0,0.5479853479853479
1.6600717890105443,0.8292307692307692,0.0,0.5479853479853479
1.6608508010103833,0.8292307692307692,0.0,0.5479853479853479
1.6622660720022395,0.8292307692307692,0.0,0.5479853479853479
1.6624513490096433,0.8292307692307692,0.0,0.5479853479853479
1.6671723920007935,0.8292307692307692,0.0,0.5479853479853479
1.6673082930064993,0.8292307692307692,0.0,0.5479853479853479
1.6764266780082835,0.8292307692307692,0.0,0.5479853479853479
1.6832297040091362,0.8292307692307692,0.0,0.5479853479853479
1.688238322007237,0.8292307692307692,0.0,0.5479853479853479
1.6905811990000075,0.8292307692307692,0.0,0.5479853479853479
1.6907810190023156,0.8292307692307692,0.0,0.5479853479853479
1.6953940480016172,0.8292307692307692,0.0,0.5479853479853479
1.6961597159970552,0.8292307692307692,0.0,0.5479853479853479
1.6982198110054014,0.8292307692307692,0.0,0.5479853479853479
1.6996839440107578,1.4852014652014651,0.0,0.8324542124542124
1.7038349000067683,1.4852014652014651,0.0,0.8324542124542124
1.7086266960104695,1.4852014652014651,0.0,0.8324542124542124
1.717000511009246,1.4852014652014651,0.0,0.8324542124542124
1.7238577250100207,1.4852014652014651,0.0,0.8324542124542124
1.7293830410053488,2.01062271062271,0.0,1.108058608058608
1.7295694100030232,1.1918681318681317,0.0,0.03545787545787545
1.736939202004578,1.1918681318681317,0.0,0.03545787545787545
1.7434888790012337,1.1918681318681317,0.0,0.03545787545787545
1.7490972430096008,1.1918681318681317,0.0,0.03545787545787545
1.7492392780113732,1.1918681318681317,0.0,0.03545787545787545
1.7568227459996706,1.1918681318681317,0.0,0.03545787545787545
1.761517115010065,1.1918681318681317,0.0,0.03545787545787545
1.7616650350100826,0.9646153846153847,0.0,0.622124542124542
1.7670492269971874,0.9646153846153847,0.0,0.622124542124542
1.769275483005913,0.9646153846153847,0.0,0.622124542124542
1.7700614290079102,0.9646153846153847,0.0,0.622124542124542
1.7722455300099682,0.9646153846153847,0.0,0.622124542124542
1.7725365509977564,0.9646153846153847,0.0,0.622124542124542
1.777534672000911,0.5326739926739926,0.0,0.30542124542124544
1.7818001359992195,0.5326739926739926,0.0,0.30542124542124544
1.7839384420076385,0.5326739926739926,0.0,0.30542124542124544
1.785401348999585,0.5326739926739926,0.0,0.30542124542124544
1.7904773250047583,0.5326739926739926,0.0,0.30542124542124544
1.7939974890032317,0.6390476190476191,0.0,0.838095238095238
1.7941774720093235,0.6390476190476191,0.0,0.838095238095238
1.798876929009566,0.6390476190476191,0.0,0.838095238095238
1.7990530030074297,0.6390476190476191,0.0,0.838095238095238
1.8037715050013503,0.6390476190476191,0.0,0.838095238095238
1.803993478009943,2.8793406593406594,0.0,1.2974358974358973
1.8086096080078278,2.8793406593406594,0.0,1.2974358974358973
1.808886970000458,2.8793406593406594,0.0,1.2974358974358973
1.8134460330038564,2.8793406593406594,0.0,1.2974358974358973
1.8148937549995026,2.8793406593406594,0.0,1.2974358974358973
1.8190143390092999,2.8793406593406594,0.0,1.2974358974358973
1.8249648570053978,2.8793406593406594,0.0,1.2974358974358973
1.8296094370016363,2.8793406593406594,0.0,1.2974358974358973
1.8297088060062379,2.8793406593406594,0.0,1.2974358974358973
1.8349013840052066,2.8793406593406594,0.0,1.2974358974358973
1.837266982998699,0.7438095238095238,0.0,0.581025641025641
1.8375031410105294,0.7438095238095238,0.0,0.581025641025641
1.842427764000604,0.7438095238095238,0.0,0.581025641025641
1.8472383720072685,0.7438095238095238,0.0,0.581025641025641
1.8519922780105844,3.1968498168498165,0.0,0.6414652014652015
1.852177667999058,3.1968498168498165,0.0,0.6414652014652015
1.8569365970033687,3.1968498168498165,0.0,0.6414652014652015
1.85710107300838,3.1968498168498165,0.0,0.6414652014652015
1.861772923002718,3.1968498168498165,0.0,0.6414652014652015
1.8619140800001333,3.1968498168498165,0.0,0.6414652014652015
1.8664993499987759,3.1968498168498165,0.0,0.6414652014652015
1.8673313690087525,2.9905494505494503,0.0,1.2378021978021978
1.8694096590043046,2.9905494505494503,0.0,1.2378021978021978
1.870839374998468,2.9905494505494503,0.0,1.2378021978021978
1.875477662004414,2.9905494505494503,0.0,1.2378021978021978
1.8762068070063833,2.9905494505494503,0.0,1.2378021978021978
1.8782725010096328,2.9905494505494503,0.0,1.2378021978021978
1.8797034349991009,2.9905494505494503,0.0,1.2378021978021978
1.8844045490113785,1.0145787545787546,0.0,0.6503296703296703
1.8847047820017906,1.0145787545787546,0.0,0.6503296703296703
1.8893746020039544,1.9961172161172158,0.0,0.4827106227106227
1.8896526640019147,0.8179487179487179,0.0,0.2079120879120879
1.894241920002969,0.8179487179487179,0.0,0.2079120879120879
1.894529916011379,0.8179487179487179,0.0,0.2079120879120879
1.899584364000475,0.8179487179487179,0.0,0.2079120879120879
1.9041823760053376,1.714065934065934,0.0,0.9323809523809523
1.9049431090097642,1.714065934065934,0.0,0.9323809523809523
1.9070332010014681,1.714065934065934,0.0,0.9323809523809523
1.9084793619986158,1.714065934065934,0.0,0.9323809523809523
1.9132459590036888,1.714065934065934,0.0,0.9323809523809523
1.9134806590009248,1.714065934065934,0.0,0.9323809523809523
1.9183006490056869,1.714065934065934,0.0,0.9323809523809523
1.9185093999985838,1.714065934065934,0.0,0.9323809523809523
1.9231856890110066,1.714065934065934,0.0,0.9323809523809523
1.9234552650013939,2.537655677655678,0.0,1.046007326007326
1.9280406949983444,2.537655677655678,0.0,1.046007326007326
1.9288337140023941,2.537655677655678,0.0,1.046007326007326
1.9308487810048973,2.537655677655678,0.0,1.046007326007326
1.932939605001593,2.537655677655678,0.0,1.046007326007326
1.934373110998422,2.537655677655678,0.0,1.046007326007326
1.9389609939971706,2.537655677655678,0.0,1.046007326007326
1.9397426710056607,2.537655677655678,0.0,1.046007326007326
1.94174631399801,2.537655677655678,0.0,1.046007326007326
1.9437786010093987,2.537655677655678,0.0,1.046007326007326
1.9451468030019896,2.537655677655678,0.0,1.046007326007326
1.9498087609972572,2.537655677655678,0.0,1.046007326007326
1.9501056900044205,2.537655677655678,0.0,1.046007326007326
1.9548212400113698,2.537655677655678,0.0,1.046007326007326
1.9549439800030086,2.537655677655678,0.0,1.046007326007326
1.95967019800446,2.537655677655678,0.0,1.046007326007326
1.9598911339999177,1.1902564102564102,0.0,0.726080586080586
1.9645435280108359,1.1902564102564102,0.0,0.726080586080586
1.9648629459989024,2.2636630036630034,0.0,0.6317948717948718
1.9694707220041892,1.8623443223443221,0.0,1.004102564102564
1.970274232007796,1.8623443223443221,0.0,1.004102564102564
1.973293918010313,1.8623443223443221,0.0,1.004102564102564
1.9759734090039274,1.8623443223443221,0.0,1.004102564102564
1.9826680210098857,1.8623443223443221,0.0,1.004102564102564
1.9868592790007824,2.3120146520146516,0.0,0.6334065934065934
1.990658948008786,2.3120146520146516,0.0,0.6334065934065934
1.9954657640046207,2.3120146520146516,0.0,0.6334065934065934
2.001599873008672,0.5584615384615385,0.0,0.43999999999999995
2.007207192000351,1.5335531135531135,0.0,0.8767765567765567
2.016850301006343,1.5335531135531135,0.0,0.8767765567765567
2.023815127002308,1.5335531135531135,0.0,0.8767765567765567
2.031247571008862,1.5335531135531135,0.0,0.8767765567765567
2.035917323999456,1.5335531135531135,0.0,0.8767765567765567
2.04638882400468,1.5335531135531135,0.0,0.8767765567765567
2.0554933820094448,1.5335531135531135,0.0,0.8767765567765567
2.062382875010371,1.5335531135531135,0.0,0.8767765567765567
2.0667579080036376,1.5335531135531135,0.0,0.8767765567765567
2.067078867010423,1.5335531135531135,0.0,0.8767765567765567
2.0766930590034463,1.5335531135531135,0.0,0.8767765567765567
2.0839354839990847,0.8824175824175824,0.0,0.415018315018315
2.0890149820043007,0.8824175824175824,0.0,0.415018315018315
2.0941434940032195,3.3,0.0,0.9202930402930403
2.097312646001228,0.7115750915750916,0.0,0.5391208791208791
2.0994568879978033,0.7373626373626374,0.0,0.4198534798534798
2.1002434020047076,0.7373626373626374,0.0,0.4198534798534798
2.1024661600094987,0.7373626373626374,0.0,0.4198534798534798
2.1033918559987796,0.7373626373626374,0.0,0.4198534798534798
2.1042567160038743,0.7373626373626374,0.0,0.4198534798534798
2.1058016160095576,0.7373626373626374,0.0,0.4198534798534798
2.110116164010833,0.7373626373626374,0.0,0.4198534798534798
2.1122424220084213,0.7373626373626374,0.0,0.4198534798534798
2.1125868829985848,0.7373626373626374,0.0,0.4198534798534798
2.1171057270112215,0.5294505494505495,0.0,0.3529670329670329
2.1179319720104104,0.5294505494505495,0.0,0.3529670329670329
2.1195188740093727,0.5294505494505495,0.0,0.3529670329670329
2.1289747429982526,0.5294505494505495,0.0,0.3529670329670329
2.135677744008717,0.5294505494505495,0.0,0.3529670329670329
2.140924585997709,0.61003663003663,0.0,0.8115018315018314
2.1431779010017635,0.8211721611721612,0.0,0.5673260073260072
2.1434643090033205,0.8211721611721612,0.0,0.5673260073260072
2.1507200180058135,0.8211721611721612,0.0,0.5673260073260072
2.1573051910090726,0.8211721611721612,0.0,0.5673260073260072
2.1626280229975237,0.8211721611721612,0.0,0.5673260073260072
2.163969683999312,0.6132600732600733,0.0,0.4819047619047619
2.17228953599988,2.1105494505494504,0.0,1.1902564102564102
2.178741309006,2.1105494505494504,0.0,1.1902564102564102
2.1839594269986264,2.1105494505494504,0.0,1.1902564102564102
2.1862341399973957,2.1105494505494504,0.0,1.1902564102564102
2.1864139070094097,2.1105494505494504,0.0,1.1902564102564102
2.1954327280109283,2.1105494505494504,0.0,1.1902564102564102
2.203120439007762,2.1105494505494504,0.0,1.1902564102564102
2.209851792998961,2.1105494505494504,0.0,1.1902564102564102
2.2142408630024875,2.5989010989010985,0.0,1.792234432234432
2.2156350090081105,2.5989010989010985,0.0,1.792234432234432
2.22322938599973,2.5989010989010985,0.0,1.792234432234432
2.2279075190017466,2.5989010989010985,0.0,1.792234432234432
2.2280899440083886,2.5989010989010985,0.0,1.792234432234432
2.236394845007453,2.5989010989010985,0.0,1.792234432234432
2.2436760970012983,2.5989010989010985,0.0,1.792234432234432
2.2500784669973655,2.5989010989010985,0.0,1.792234432234432
2.256197256006999,2.5989010989010985,0.0,1.792234432234432
2.2603641570021864,0.7744322344322344,0.0,0.78007326007326
2.261842660009279,0.7744322344322344,0.0,0.78007326007326
2.2670954350032844,0.7744322344322344,0.0,0.78007326007326
2.2704945279983804,0.7744322344322344,0.0,0.78007326007326
2.279974064003909,0.7744322344322344,0.0,0.78007326007326
2.2870850510080345,1.129010989010989,0.0,0.448058608058608
2.292457004004973,1.129010989010989,0.0,0.448058608058608
2.2926237560022855,0.004029304029304029,0.0,0.48432234432234433
2.2979088020074414,0.004029304029304029,0.0,0.48432234432234433
2.2995208330103196,0.004029304029304029,0.0,0.48432234432234433
2.303883558997768,0.004029304029304029,0.0,0.48432234432234433
2.304686716001015,3.167838827838828,0.0,1.307106227106227
2.3062365259975195,3.167838827838828,0.0,1.307106227106227
2.3111617359973025,3.167838827838828,0.0,1.307106227106227
2.3112855840008706,3.167838827838828,0.0,1.307106227106227
2.316314563009655,3.167838827838828,0.0,1.307106227106227
2.3203964679996716,3.167838827838828,0.0,1.307106227106227
2.3254237360088155,3.167838827838828,0.0,1.307106227106227
2.328864284005249,2.173406593406593,0.0,1.0846886446886446
2.329060247997404,2.5956776556776555,0.0,1.85025641025641
2.336715113997343,2.5956776556776555,0.0,1.85025641025641
2.3437784889974864,2.5956776556776555,0.0,1.85025641025641
2.3488226720073726,2.5956776556776555,0.0,1.85025641025641
2.3538711840083124,2.5956776556776555,0.0,1.85025641025641
2.357631480001146,2.5956776556776555,0.0,1.85025641025641
2.3639270090061473,2.5956776556776555,0.0,1.85025641025641
2.369048480002675,2.5956776556776555,0.0,1.85025641025641
2.371724937998806,2.5956776556776555,0.0,1.85025641025641
2.3757234840013552,2.5956776556776555,0.0,1.85025641025641
2.3796628520067316,2.5956776556776555,0.0,1.85025641025641
2.3836293760105036,2.5956776556776555,0.0,1.85025641025641
2.3876632070023334,2.5956776556776555,0.0,1.85025641025641
2.391084132003016,2.5956776556776555,0.0,1.85025641025641
2.391898686008062,0.7744322344322344,0.0,0.6809523809523809
2.393363381997915,0.7744322344322344,0.0,0.6809523809523809
2.3934461750031915,0.7744322344322344,0.0,0.6809523809523809
2.3981188670004485,0.834065934065934,0.0,0.5455677655677655
2.3984073669998907,3.3,0.0,1.6391208791208791
2.4030638660042314,3.3,0.0,1.6391208791208791
2.4038301190012135,3.3,0.0,1.6391208791208791
2.4052771420101635,3.3,0.0,1.6391208791208791
2.405380619005882,3.3,0.0,1.6391208791208791
2.409964778009453,3.3,0.0,1.6391208791208791
2.410794723997242,3.3,0.0,1.6391208791208791
2.412865514997975,3.3,0.0,1.6391208791208791
2.4143748080095975,3.3,0.0,1.6391208791208791
2.4189588529989123,0.8775824175824175,0.0,0.5221978021978021
2.41973816799873,0.8775824175824175,0.0,0.5221978021978021
2.4228680960077327,0.8824175824175824,0.0,0.5310622710622711
2.4236554890085245,0.630989010989011,0.0,0.4126007326007326
2.425685064998106,0.630989010989011,0.0,0.4126007326007326
2.427068495002459,0.630989010989011,0.0,0.4126007326007326
2.4334054159990046,0.630989010989011,0.0,0.4126007326007326
2.4369659920048434,0.630989010989011,0.0,0.4126007326007326
2.4372126620000927,0.630989010989011,0.0,0.4126007326007326
2.441836006997619,2.0734798534798533,0.0,0.9283516483516483
2.4421031410020078,2.289450549450549,0.0,0.5375091575091575
2.4467166810063645,2.289450549450549,0.0,0.5375091575091575
2.447450480001862,2.289450549450549,0.0,0.5375091575091575
2.44948366600147,2.289450549450549,0.0,0.5375091575091575
2.4514630990015576,2.289450549450549,0.0,0.5375091575091575
2.4534576580044813,2.289450549450549,0.0,0.5375091575091575
2.454951214007451,0.5906959706959707,0.0,0.307032967032967
2.4596562259976054,0.5906959706959707,0.0,0.307032967032967
2.459864425007254,1.801098901098901,0.0,0.9178754578754579
2.46452878099808,1.801098901098901,0.0,0.9178754578754579
2.464774253006908,1.801098901098901,0.0,0.9178754578754579
2.469317212002352,1.801098901098901,0.0,0.9178754578754579
2.469588621010189,1.801098901098901,0.0,0.9178754578754579
2.4741765150101855,0.005641025641025641,0.0,0.5294505494505495
2.4749351710051997,0.7115750915750916,0.0,0.38681318681318677
2.477023477011244,0.7115750915750916,0.0,0.38681318681318677
2.4784181930008344,0.7115750915750916,0.0,0.38681318681318677
2.4829579270008253,0.7115750915750916,0.0,0.38681318681318677
2.4843495770037407,0.7115750915750916,0.0,0.38681318681318677
2.4889357530046254,0.7115750915750916,0.0,0.38681318681318677
2.489207796010305,0.7115750915750916,0.0,0.38681318681318677
2.4937552510091336,0.7115750915750916,0.0,0.38681318681318677
2.494096438997076,0.4424175824175824,0.0,0.7204395604395604
2.4986675410036696,0.4424175824175824,0.0,0.7204395604395604
2.4989669950009556,3.1887912087912085,0.0,0.8767765567765567
2.503557310003089,3.1887912087912085,0.0,0.8767765567765567
2.504395950003527,3.1887912087912085,0.0,0.8767765567765567
2.5064393950015074,3.1887912087912085,0.0,0.8767765567765567
2.5078787540114718,3.1887912087912085,0.0,0.8767765567765567
2.512636614002986,3.1887912087912085,0.0,0.8767765567765567
2.512913650003611,3.1887912087912085,0.0,0.8767765567765567
2.5175381430017296,3.1887912087912085,0.0,0.8767765567765567
2.5183536840049783,3.1887912087912085,0.0,0.8767765567765567
2.519764145006775,3.1887912087912085,0.0,0.8767765567765567
2.5238702750066295,0.9323809523809523,0.0,0.5641025641025641
2.5272226030065212,2.5392673992673993,0.0,0.7462271062271062
2.5285677360079717,2.5392673992673993,0.0,0.7462271062271062
2.528673634005827,2.5392673992673993,0.0,0.7462271062271062
2.533288298000116,2.5392673992673993,0.0,0.7462271062271062
2.533530515007442,2.5392673992673993,0.0,0.7462271062271062
2.538108969005407,2.5392673992673993,0.0,0.7462271062271062
2.5395329500024673,2.5392673992673993,0.0,0.7462271062271062
2.5435372270003427,0.7937728937728937,0.0,0.5173626373626373
2.5475654330075486,2.9824908424908423,0.0,1.037948717948718
2.55097853600455,2.9824908424908423,0.0,1.037948717948718
2.5524336640082765,2.9824908424908423,0.0,1.037948717948718
2.5571171150077134,2.9824908424908423,0.0,1.037948717948718
2.5578603769972688,2.9824908424908423,0.0,1.037948717948718
2.5598789299983764,2.9824908424908423,0.0,1.037948717948718
2.5614297590072965,2.9824908424908423,0.0,1.037948717948718
2.5660353950079298,2.9824908424908423,0.0,1.037948717948718
2.5668524610082386,2.9824908424908423,0.0,1.037948717948718
2.568880947001162,2.9824908424908423,0.0,1.037948717948718
2.570885694003664,2.9824908424908423,0.0,1.037948717948718
2.572914882999612,2.9824908424908423,0.0,1.037948717948718
2.574384748004377,2.9824908424908423,0.0,1.037948717948718
2.5789912330074003,2.9824908424908423,0.0,1.037948717948718
2.5797485960065387,2.9824908424908423,0.0,1.037948717948718
2.5817747770051938,2.9824908424908423,0.0,1.037948717948718
2.5838122319983086,2.9824908424908423,0.0,1.037948717948718
2.5852969480038155,2.9824908424908423,0.0,1.037948717948718
2.5900115320109762,2.9824908424908423,0.0,1.037948717948718
2.5907501010078704,2.9824908424908423,0.0,1.037948717948718
2.592858852003701,2.9824908424908423,0.0,1.037948717948718
2.5942745150096016,2.9824908424908423,0.0,1.037948717948718
2.5990755460079527,2.9824908424908423,0.0,1.037948717948718
2.5993574800086208,2.9824908424908423,0.0,1.037948717948718
2.6040449050051393,2.9824908424908423,0.0,1.037948717948718
2.6043316180002876,2.9824908424908423,0.0,1.037948717948718
2.609036356006982,2.9824908424908423,0.0,1.037948717948718
2.609344541997416,1.1016117216117214,0.0,0.21838827838827837
2.613936501002172,1.1016117216117214,0.0,0.21838827838827837
2.614761275006458,1.1016117216117214,0.0,0.21838827838827837
2.616227104997961,1.1016117216117214,0.0,0.21838827838827837
2.620887026001583,1.1016117216117214,0.0,0.21838827838827837
2.6211025369993877,1.1016117216117214,0.0,0.21838827838827837
2.6288340690080076,1.1016117216117214,0.0,0.21838827838827837
2.6339124990045093,2.5682783882783884,0.0,1.3538461538461537
2.6399675130087417,0.7599267399267399,0.0,0.5439560439560439
2.6443844140012516,1.303076923076923,0.0,0.7421978021978022
2.6446685940027237,1.303076923076923,0.0,0.7421978021978022
2.652271148006548,1.8865201465201462,0.0,1.0347252747252746
2.65918063200661,1.8865201465201462,0.0,1.0347252747252746
2.6650722720078193,1.8865201465201462,0.0,1.0347252747252746
2.674087239007349,1.8865201465201462,0.0,1.0347252747252746
2.681771422008751,1.8865201465201462,0.0,1.0347252747252746
2.6897157470084494,0.963003663003663,0.0,0.6011721611721611
2.696667484007776,0.963003663003663,0.0,0.6011721611721611
2.702078429007088,0.6454945054945055,0.0,0.6398534798534798
2.703527417004807,0.6454945054945055,0.0,0.6398534798534798
2.708116174006136,0.6454945054945055,0.0,0.6398534798534798
2.7082639950094745,0.6454945054945055,0.0,0.6398534798534798
2.7151110069971764,0.6454945054945055,0.0,0.6398534798534798
2.7198659850109834,0.6454945054945055,0.0,0.6398534798534798
2.7261014859977877,1.1257875457875457,0.0,0.6648351648351648
2.730079906003084,0.51010989010989,0.0,0.4383882783882784
2.736031410007854,0.07172161172161172,0.0,0.5238095238095237
2.740235222008778,0.6938461538461538,0.0,0.49479853479853475
2.7416398490022402,0.6938461538461538,0.0,0.49479853479853475
2.748396915005287,0.6938461538461538,0.0,0.49479853479853475
2.754140531003941,1.7398534798534797,0.0,1.1120879120879121
2.763270679002744,1.7398534798534797,0.0,1.1120879120879121
2.7716315440047765,1.7398534798534797,0.0,1.1120879120879121
2.777573288010899,1.7398534798534797,0.0,1.1120879120879121
2.7861926650075475,1.7398534798534797,0.0,1.1120879120879121
2.7924999370006844,1.7398534798534797,0.0,1.1120879120879121
2.7964793630089844,1.7398534798534797,0.0,1.1120879120879121
2.8003191410098225,1.7398534798534797,0.0,1.1120879120879121
2.805229670004337,1.7398534798534797,0.0,1.1120879120879121
2.8128406670002732,1.9848351648351645,0.0,1.2490842490842489
2.8183311199973105,1.9848351648351645,0.0,1.2490842490842489
2.818671382003231,1.9848351648351645,0.0,1.2490842490842489
2.8265116830007173,1.9848351648351645,0.0,1.2490842490842489
2.832439472011174,2.273333333333333,0.0,0.4722344322344322
2.8392389049986377,2.273333333333333,0.0,0.4722344322344322
2.8448028590064496,2.273333333333333,0.0,0.4722344322344322
2.854011931005516,2.273333333333333,0.0,0.4722344322344322
2.8635110769973835,0.46820512820512816,0.0,0.8816117216117215
2.8688284719974035,0.46820512820512816,0.0,0.8816117216117215
2.8704948290105676,0.46820512820512816,0.0,0.8816117216117215
2.8774584690108895,0.46820512820512816,0.0,0.8816117216117215
2.8816089800093323,2.5956776556776555,0.0,1.7503296703296702
2.8832705079985317,1.0564835164835162,0.0,0.697069597069597
2.8875851460034028,1.0564835164835162,0.0,0.697069597069597
2.8912621040071826,1.0564835164835162,0.0,0.697069597069597
2.89610405600979,0.3021978021978022,0.0,0.7873260073260073
2.9044733850023476,0.3021978021978022,0.0,0.7873260073260073
2.912434565005242,0.8534065934065934,0.0,0.5221978021978021
2.919626065006014,0.8534065934065934,0.0,0.5221978021978021
2.9254948110028636,0.8534065934065934,0.0,0.5221978021978021
2.932752391003305,0.755091575091575,0.0,0.5995604395604395
2.939952450004057,0.61003663003663,0.0,0.5600732600732601
2.9468175990041345,0.61003663003663,0.0,0.5600732600732601
2.95231778100424,0.61003663003663,0.0,0.5600732600732601
2.9525527030054945,0.61003663003663,0.0,0.5600732600732601
2.9623813689977396,0.61003663003663,0.0,0.5600732600732601
2.970424085011473,2.6005128205128205,0.0,1.7954578754578752
2.9795152130100178,2.6005128205128205,0.0,1.7954578754578752
2.9865213739976753,2.6005128205128205,0.0,1.7954578754578752
2.992674015011289,2.3716483516483513,0.0,0.6882051282051282
2.996778478001943,2.3716483516483513,0.0,0.6882051282051282
2.999625249998644,2.3716483516483513,0.0,0.6882051282051282
3.003799718004302,2.3716483516483513,0.0,0.6882051282051282
3.0042279140034225,2.3716483516483513,0.0,0.6882051282051282
3.0149471790064126,2.3716483516483513,0.0,0.6882051282051282
3.0227935620059725,2.3716483516483513,0.0,0.6882051282051282
3.0298576909990516,2.3716483516483513,0.0,0.6882051282051282
3.036968643005821,2.3716483516483513,0.0,0.6882051282051282
3.0433882030047243,2.3716483516483513,0.0,0.6882051282051282
3.048143314998015,2.3716483516483513,0.0,0.6882051282051282
3.054800598009024,2.3716483516483513,0.0,0.6882051282051282
3.0621325180109125,0.7986080586080586,0.0,0.7381684981684982
3.0668824760068674,0.7986080586080586,0.0,0.7381684981684982
3.0750517690030392,2.1089377289377285,0.0,0.9871794871794871
3.0833444650052115,2.1089377289377285,0.0,0.9871794871794871
3.0918025040009525,2.5989010989010985,0.0,1.8824908424908422
3.098521810999955,2.5989010989010985,0.0,1.8824908424908422
3.104021796010784,2.5989010989010985,0.0,1.8824908424908422
3.1043506160058314,2.4635164835164836,0.0,0.7913553113553113
3.112841940004728,2.4635164835164836,0.0,0.7913553113553113
3.1187429310084553,2.4635164835164836,0.0,0.7913553113553113
3.1271464950114023,2.4635164835164836,0.0,0.7913553113553113
3.1352380419994006,2.4635164835164836,0.0,0.7913553113553113
3.142902920997585,0.7147985347985348,0.0,0.3755311355311355
3.14877217799949,2.6005128205128205,0.0,1.8567032967032966
3.154822755997884,0.1829304029304029,0.0,0.3578021978021978
3.1594652549974853,0.49560439560439556,0.0,0.1676190476190476
3.1669258940091822,0.49560439560439556,0.0,0.1676190476190476
3.173352840007283,0.46820512820512816,0.0,0.3142857142857142
3.1797790819982765,0.46820512820512816,0.0,0.3142857142857142
3.1852387109975098,0.46820512820512816,0.0,0.3142857142857142
3.185537399011082,0.904981684981685,0.0,0.20146520146520144
3.1927142630011076,3.3,0.0,0.8332600732600732
3.197905756009277,0.5584615384615385,0.0,0.7994139194139194
3.200525560998358,0.8211721611721612,0.0,0.49157509157509155
3.2099672480107984,0.6132600732600733,0.0,0.423076923076923
3.2167121630045585,0.6132600732600733,0.0,0.423076923076923
3.2229103080026107,0.7663736263736264,0.0,0.3352380952380952
3.227617001000908,1.8687912087912086,0.0,0.8018315018315018
3.233418610005174,2.028351648351648,0.0,0.9565567765567766
3.240935466004885,0.7083516483516483,0.0,0.386007326007326
3.2470815730048344,0.7083516483516483,0.0,0.386007326007326
3.2526732940023066,0.7083516483516483,0.0,0.386007326007326
3.2640012330084573,0.7083516483516483,0.0,0.386007326007326
3.2737648080073996,0.7083516483516483,0.0,0.386007326007326
3.283172420997289,0.7083516483516483,0.0,0.386007326007326
3.2935431829973822,0.7083516483516483,0.0,0.386007326007326
3.3005482430016855,2.2282051282051283,0.0,0.36666666666666664
3.3046203010017052,2.2282051282051283,0.0,0.36666666666666664
3.307350380011485,2.2282051282051283,0.0,0.36666666666666664
3.3128562710044207,3.3,0.0,1.473113553113553
3.3131742650002707,3.3,0.0,1.473113553113553
3.3200695639970945,3.3,0.0,1.473113553113553
3.3264233610098017,3.3,0.0,1.473113553113553
3.330917446000967,3.3,0.0,1.473113553113553
3.3368031030113343,3.3,0.0,1.473113553113553
3.3463347580109257,0.6277655677655677,0.0,0.31186813186813184
3.3547990860097343,0.6277655677655677,0.0,0.31186813186813184
3.3613891179993516,0.3263736263736263,0.0,0.3852014652014652
3.367243654007325,1.93003663003663,0.0,0.8888644688644688
3.375892615003977,1.93003663003663,0.0,0.8888644688644688
3.382650929997908,1.93003663003663,0.0,0.8888644688644688
3.3878894579975167,1.93003663003663,0.0,0.8888644688644688
3.389766039006645,1.93003663003663,0.0,0.8888644688644688
3.3938046890107216,0.4166300366300366,0.0,0.33926739926739924
3.3955054450052558,0.4166300366300366,0.0,0.33926739926739924
3.3991681170009542,0.4166300366300366,0.0,0.33926739926739924
3.406857702997513,0.4166300366300366,0.0,0.33926739926739924
3.4118634670012398,2.112161172161172,0.0,1.4416849816849817
3.415767587008304,2.112161172161172,0.0,1.4416849816849817
3.4196963970025536,2.112161172161172,0.0,1.4416849816849817
3.4291340630006744,2.112161172161172,0.0,1.4416849816849817
3.4360146750113927,2.5086446886446883,0.0,1.39010989010989
3.442907632997958,2.5086446886446883,0.0,1.39010989010989
3.4475853080075467,2.5086446886446883,0.0,1.39010989010989
3.453565839008661,2.868058608058608,0.0,0.6124542124542125
3.4653475049999543,0.7567032967032966,0.0,0.5012454212454212
3.476475521005341,0.7567032967032966,0.0,0.5012454212454212
3.485577589002787,0.7567032967032966,0.0,0.5012454212454212
3.49447501800023,0.7567032967032966,0.0,0.5012454212454212
3.500167407997651,0.14424908424908423,0.0,0.45692307692307693
3.5004169430030743,0.14424908424908423,0.0,0.45692307692307693
3.5072653660026845,0.14424908424908423,0.0,0.45692307692307693
3.5138210270088166,0.14424908424908423,0.0,0.45692307692307693
3.518684699010919,0.42630036630036633,0.0,0.1805128205128205
3.5264270339976065,1.3917216117216116,0.0,0.8163369963369963
3.531622795999283,1.3917216117216116,0.0,0.8163369963369963
3.533206563006388,1.3917216117216116,0.0,0.8163369963369963
3.541985575007857,1.3917216117216116,0.0,0.8163369963369963
3.547453919003601,1.3917216117216116,0.0,0.8163369963369963
3.547768830001587,1.3917216117216116,0.0,0.8163369963369963
3.5555929300026037,1.3917216117216116,0.0,0.8163369963369963
3.563091861011344,1.3917216117216116,0.0,0.8163369963369963
3.568144952005241,0.3183150183150183,0.0,0.28849816849816845
3.5705569260026095,2.5924542124542125,0.0,1.6987545787545786
3.570742171999882,2.5924542124542125,0.0,1.6987545787545786
3.5788264279981377,2.5924542124542125,0.0,1.6987545787545786
3.585803948008106,0.726080586080586,0.0,0.5818315018315018
3.588986003000173,0.726080586080586,0.0,0.5818315018315018
3.5913216180051677,0.726080586080586,0.0,0.5818315018315018
3.5914594440109795,0.726080586080586,0.0,0.5818315018315018
3.5974796380032785,0.726080586080586,0.0,0.5818315018315018
3.6020325959980255,0.726080586080586,0.0,0.5818315018315018
3.602178757006186,0.726080586080586,0.0,0.5818315018315018
3.609710830001859,0.726080586080586,0.0,0.5818315018315018
3.614998821009067,0.726080586080586,0.0,0.5818315018315018
3.6172067200095626,0.726080586080586,0.0,0.5818315018315018
3.6174740190035664,0.726080586080586,0.0,0.5818315018315018
3.626356376000331,0.726080586080586,0.0,0.5818315018315018
3.6320641220081598,1.5802930402930402,0.0,0.8695238095238095
3.6434622700035106,1.5802930402930402,0.0,0.8695238095238095
3.652133561001392,2.6762637362637363,0.0,1.1096703296703296
3.660069592006039,2.033186813186813,0.0,1.1161172161172161
3.6644818350032438,2.033186813186813,0.0,1.1161172161172161
3.665402341997833,3.092087912087912,0.0,1.2740659340659342
3.6670539890037617,3.092087912087912,0.0,1.2740659340659342
3.6709698979975656,3.092087912087912,0.0,1.2740659340659342
3.67915712800459,3.092087912087912,0.0,1.2740659340659342
3.68580513400957,2.9905494505494503,0.0,0.7486446886446886
3.6923367270064773,0.7438095238095238,0.0,0.5520146520146519
3.6980063220107695,0.7438095238095238,0.0,0.5520146520146519
3.706039504002547,0.7438095238095238,0.0,0.5520146520146519
3.7124543539976003,0.7438095238095238,0.0,0.5520146520146519
3.717155817008461,0.49560439560439556,0.0,0.8147252747252747
3.726334630002384,0.49560439560439556,0.0,0.8147252747252747
3.73136499300017,0.49560439560439556,0.0,0.8147252747252747
3.7367953850043705,0.49560439560439556,0.0,0.8147252747252747
3.737061250998522,0.49560439560439556,0.0,0.8147252747252747
3.7471631020016503,0.49560439560439556,0.0,0.8147252747252747
3.755075225009932,0.49560439560439556,0.0,0.8147252747252747
3.7632472020050045,0.6535531135531135,0.0,0.5044688644688645
3.770056196997757,1.8978021978021975,0.0,0.9033699633699634
3.7768003000091994,1.8978021978021975,0.0,0.9033699633699634
3.7805149519990664,1.8978021978021975,0.0,0.9033699633699634
3.7860299900057726,1.8978021978021975,0.0,0.9033699633699634
3.7876285200036364,1.8978021978021975,0.0,0.9033699633699634
3.7933194850047585,1.8978021978021975,0.0,0.9033699633699634
3.7934260940091917,1.8978021978021975,0.0,0.9033699633699634
3.7985240319976583,1.8978021978021975,0.0,0.9033699633699634
3.801787238000543,1.9268131868131868,0.0,0.792967032967033
3.802883385011228,1.9268131868131868,0.0,0.792967032967033
3.8032339790079277,1.9268131868131868,0.0,0.792967032967033
3.81273755300208,1.9268131868131868,0.0,0.792967032967033
3.8196725450106896,2.723003663003663,0.0,0.6285714285714284
3.8289953180064913,2.5956776556776555,0.0,1.917948717948718
3.835972351997043,2.5956776556776555,0.0,1.917948717948718
3.8429443900095066,0.46175824175824176,0.0,0.6664468864468864
3.8467343320080545,0.5504029304029303,0.0,0.3876190476190476
3.8504929930059006,2.6327472527472526,0.0,1.3586813186813185
3.8506172729976242,2.6327472527472526,0.0,1.3586813186813185
3.8555599240062293,0.415018315018315,0.0,0.5439560439560439
3.861360377006349,0.415018315018315,0.0,0.5439560439560439
3.8666224379994674,0.9098168498168498,0.0,0.25142857142857145
3.8696025690005627,0.9098168498168498,0.0,0.25142857142857145
3.8726214580092346,1.5335531135531135,0.0,0.20388278388278389
3.874581409007078,1.5335531135531135,0.0,0.20388278388278389
3.877597215003334,1.5335531135531135,0.0,0.20388278388278389
3.879141563011217,0.8808058608058608,0.0,0.42630036630036633
3.883514394998201,0.8808058608058608,0.0,0.42630036630036633
3.885014213999966,0.8808058608058608,0.0,0.42630036630036633
3.8920591450005304,0.8808058608058608,0.0,0.42630036630036633
3.8969805220112903,0.8808058608058608,0.0,0.42630036630036633
3.9015005380060757,0.8808058608058608,0.0,0.42630036630036633
3.9017107789986767,0.8808058608058608,0.0,0.42630036630036633
3.9089659550081706,2.5392673992673993,0.0,0.8115018315018314
3.9127577600011136,2.5956776556776555,0.0,1.7648351648351648
3.9173449350055307,0.805054945054945,0.0,0.448058608058608
3.917723869002657,0.7857142857142856,0.0,0.5246153846153846
3.9224127320048865,0.7857142857142856,0.0,0.5246153846153846
3.922677630005637,0.7857142857142856,0.0,0.5246153846153846
3.928735105000669,0.7857142857142856,0.0,0.5246153846153846
3.932377841003472,0.7212454212454212,0.0,0.2087179487179487
3.932560157001717,0.7212454212454212,0.0,0.2087179487179487
3.9376191820047097,0.7212454212454212,0.0,0.2087179487179487
3.9424360749981133,0.7196336996336996,0.0,0.4561172161172161
3.9468364720087266,0.7212454212454212,0.0,0.5262271062271061
3.947762178009725,0.7212454212454212,0.0,0.5262271062271061
3.949579755004379,0.7212454212454212,0.0,0.5262271062271061
3.951814574000309,1.7463003663003662,0.0,0.3578021978021978
3.952108623998356,1.7463003663003662,0.0,0.3578021978021978
3.9583396620000713,1.7463003663003662,0.0,0.3578021978021978
3.9624870420084335,3.3,0.0,1.003296703296703
3.9646919009974226,3.3,0.0,1.003296703296703
3.9654737149976427,3.3,0.0,1.003296703296703
3.967644244999974,3.3,0.0,1.003296703296703
3.96846364501107,3.3,0.0,1.003296703296703
3.9706695720087737,3.3,0.0,1.003296703296703
3.9708883889979916,3.3,0.0,1.003296703296703
3.9792331570060924,3.3,0.0,1.003296703296703
3.983624457003316,3.3,0.0,1.003296703296703
3.9852806230046554,3.3,0.0,1.003296703296703
3.990145186005975,3.3,0.0,1.003296703296703
3.996999474999029,2.5908424908424905,0.0,1.818827838827839
4.0012918209977215,2.5908424908424905,0.0,1.818827838827839
4.003785748005612,1.6866666666666665,0.0,0.9525274725274724
4.00387599899841,2.698827838827839,0.0,1.0282783882783881
4.013077203009743,2.698827838827839,0.0,1.0282783882783881
4.020386654010508,1.8623443223443221,0.0,0.21435897435897436
4.0259957180096535,0.51010989010989,0.0,0.4222710622710622
4.026229239010718,0.51010989010989,0.0,0.4222710622710622
4.030690908010001,0.51010989010989,0.0,0.4222710622710622
4.03151446901029,0.51010989010989,0.0,0.4222710622710622
4.033725145010976,0.51010989010989,0.0,0.4222710622710622
4.034511728998041,0.51010989010989,0.0,0.4222710622710622
4.036060839003767,0.51010989010989,0.0,0.4222710622710622
4.042143020997173,0.51010989010989,0.0,0.4222710622710622
4.045894763010438,1.2966300366300365,0.0,0.7583150183150182
4.050293911001063,1.2966300366300365,0.0,0.7583150183150182
4.0518429829971865,0.5358974358974359,0.0,0.2836630036630036
4.0577531840099255,0.5358974358974359,0.0,0.2836630036630036
4.06331465599942,1.7575824175824175,0.0,0.5874725274725274
4.063587844007998,1.7575824175824175,0.0,0.5874725274725274
4.0687759240099695,1.7575824175824175,0.0,0.5874725274725274
4.072391695008264,1.4046153846153846,0.0,0.0273992673992674
4.0726185370003805,1.4046153846153846,0.0,0.0273992673992674
4.078926729998784,1.4046153846153846,0.0,0.0273992673992674
4.082670679010334,0.8115018315018314,0.0,0.47706959706959706
4.0882315799972275,0.8115018315018314,0.0,0.47706959706959706
4.091611106006894,0.8115018315018314,0.0,0.47706959706959706
4.097580701010884,0.8115018315018314,0.0,0.47706959706959706
4.102796189006767,0.8115018315018314,0.0,0.47706959706959706
4.10699279900291,0.8115018315018314,0.0,0.47706959706959706
4.1096892159985146,0.8115018315018314,0.0,0.47706959706959706
4.113492921998841,0.8115018315018314,0.0,0.47706959706959706
4.117889533008565,0.8115018315018314,0.0,0.47706959706959706
4.119373224006267,1.7221245421245421,0.0,0.9476923076923076
4.126896001005662,1.7221245421245421,0.0,0.9476923076923076
4.132469364005374,2.0621978021978022,0.0,1.3747985347985348
4.132663468000828,1.4513553113553113,0.0,0.0693040293040293
4.137669286006712,1.4513553113553113,0.0,0.0693040293040293
4.146543962007854,1.4513553113553113,0.0,0.0693040293040293
4.152151934002177,1.4513553113553113,0.0,0.0693040293040293
4.152601063004113,1.4594139194139193,0.0,0.051575091575091575
4.158048160010367,1.4594139194139193,0.0,0.051575091575091575
4.158427483009291,1.4594139194139193,0.0,0.051575091575091575
4.1629330510040745,1.4594139194139193,0.0,0.051575091575091575
4.163111657006084,2.6794871794871793,0.0,0.7494505494505495
4.168136275009601,2.6794871794871793,0.0,0.7494505494505495
4.176152490006643,1.859120879120879,0.0,1.1161172161172161
4.18063835700741,1.859120879120879,0.0,1.1161172161172161
4.1814823300082935,1.859120879120879,0.0,1.1161172161172161
4.183700676003355,1.859120879120879,0.0,1.1161172161172161
4.184668875997886,2.7084981684981684,0.0,1.0887179487179486
4.185494643999846,2.7084981684981684,0.0,1.0887179487179486
4.187293926006532,2.7084981684981684,0.0,1.0887179487179486
4.191184377006721,2.7084981684981684,0.0,1.0887179487179486
4.195780704001663,2.7084981684981684,0.0,1.0887179487179486
4.195866055000806,0.618095238095238,0.0,0.419047619047619
4.200890578998951,0.618095238095238,0.0,0.419047619047619
4.2045404620002955,0.618095238095238,0.0,0.419047619047619
4.204684352996992,0.618095238095238,0.0,0.419047619047619
4.211658704007277,0.618095238095238,0.0,0.419047619047619
4.215332820996991,1.743076923076923,0.0,0.6366300366300366
4.215434409008594,1.743076923076923,0.0,0.6366300366300366
4.220739725002204,1.743076923076923,0.0,0.6366300366300366
4.225238928003819,1.0742124542124543,0.0,0.6632234432234432
4.2254990939982235,1.0742124542124543,0.0,0.6632234432234432
4.230796589006786,1.0742124542124543,0.0,0.6632234432234432
4.2323330950021045,1.0742124542124543,0.0,0.6632234432234432
4.237502318006591,1.0742124542124543,0.0,0.6632234432234432
4.241787384002237,1.0742124542124543,0.0,0.6632234432234432
4.243422247003764,1.0742124542124543,0.0,0.6632234432234432
4.246801080997102,1.0742124542124543,0.0,0.6632234432234432
4.246996464004042,1.0742124542124543,0.0,0.6632234432234432
4.25214937000419,1.0742124542124543,0.0,0.6632234432234432
4.256742520999978,1.0742124542124543,0.0,0.6632234432234432
4.257081660005497,1.0742124542124543,0.0,0.6632234432234432
4.26513648800028,1.0742124542124543,0.0,0.6632234432234432
4.269478354006424,1.0742124542124543,0.0,0.6632234432234432
4.271666084998287,1.0742124542124543,0.0,0.6632234432234432
4.272109753001132,1.0742124542124543,0.0,0.6632234432234432
4.27855556900613,1.0742124542124543,0.0,0.6632234432234432
4.282356120005716,3.1775091575091574,0.0,0.8389010989010988
4.2874056919972645,0.6616117216117217,0.0,0.24336996336996336
4.294186637998791,0.6616117216117217,0.0,0.24336996336996336
4.297817389000556,0.6616117216117217,0.0,0.24336996336996336
4.297955925998394,0.6616117216117217,0.0,0.24336996336996336
4.303242488007527,0.6616117216117217,0.0,0.24336996336996336
4.307678210010636,0.7309157509157509,0.0,0.5044688644688645
4.3080375010031275,0.7309157509157509,0.0,0.5044688644688645
4.313025662006112,0.7309157509157509,0.0,0.5044688644688645
4.316740752998157,0.7309157509157509,0.0,0.5044688644688645
4.3215553920017555,0.7309157509157509,0.0,0.5044688644688645
4.329578607008443,0.7309157509157509,0.0,0.5044688644688645
4.334551795007428,3.3,0.0,0.8566300366300367
4.339998772004037,0.6954578754578754,0.0,0.6261538461538461
4.341213740000967,0.6954578754578754,0.0,0.6261538461538461
4.341475086010178,0.6954578754578754,0.0,0.6261538461538461
4.346234582000761,0.6954578754578754,0.0,0.6261538461538461
4.351899681001669,2.6665934065934067,0.0,1.631062271062271
4.352126532001421,2.6665934065934067,0.0,1.631062271062271
4.359082523005782,2.6665934065934067,0.0,1.631062271062271
4.364922855005716,2.6665934065934067,0.0,1.631062271062271
4.3719313600013265,2.9873260073260073,0.0,1.2506959706959706
4.376715972000966,0.5842490842490843,0.0,0.722051282051282
4.38057299501088,0.5842490842490843,0.0,0.722051282051282
4.384945840007276,0.5842490842490843,0.0,0.722051282051282
4.385937935003312,2.681098901098901,0.0,0.7293040293040293
4.38745377700252,2.484468864468864,0.0,0.5584615384615385
4.394575812999392,2.484468864468864,0.0,0.5584615384615385
4.398309327007155,0.8598534798534798,0.0,0.4222710622710622
4.3984625459997915,0.8598534798534798,0.0,0.4222710622710622
4.403496439001174,0.8598534798534798,0.0,0.4222710622710622
4.410357464003027,1.1338461538461537,0.0,0.7526739926739926
4.414198960002977,1.6947252747252746,0.0,0.7526739926739926
4.4184892479970586,1.6947252747252746,0.0,0.7526739926739926
4.421327531003044,2.5989010989010985,0.0,1.805934065934066
4.428752974999952,0.6132600732600733,0.0,0.4198534798534798
4.434139271004824,0.6132600732600733,0.0,0.4198534798534798
4.435588459004066,0.6132600732600733,0.0,0.4198534798534798
4.442129424001905,0.6132600732600733,0.0,0.4198534798534798
4.448104523005895,0.6132600732600733,0.0,0.4198534798534798
4.452543642008095,0.6132600732600733,0.0,0.4198534798534798
4.45278825800051,0.6132600732600733,0.0,0.4198534798534798
4.460840081010247,0.6132600732600733,0.0,0.4198534798534798
4.466783404001035,3.3,0.0,0.9895970695970695
4.474662067004829,3.3,0.0,0.9895970695970695
4.478713657008484,3.3,0.0,0.9895970695970695
4.480940724009997,3.3,0.0,0.9895970695970695
4.481803375005256,3.3,0.0,0.9895970695970695
4.483364583997172,3.3,0.0,0.9895970695970695
4.487985047002439,3.3,0.0,0.9895970695970695
4.488387984005385,3.3,0.0,0.9895970695970695
4.496952560002683,3.3,0.0,0.9895970695970695
4.501716491009574,0.05882783882783882,0.0,0.5439560439560439
4.507926756006782,0.05882783882783882,0.0,0.5439560439560439
4.51190255000256,0.05882783882783882,0.0,0.5439560439560439
4.514181163001922,0.17487179487179486,0.0,0.4214652014652014
4.51494575200195,0.17487179487179486,0.0,0.4214652014652014
4.51732396800071,0.17487179487179486,0.0,0.4214652014652014
4.517516944004456,0.17487179487179486,0.0,0.4214652014652014
4.524428319011349,0.17487179487179486,0.0,0.4214652014652014
4.52869910300069,2.735897435897436,0.0,0.7526739926739926
4.5291166880051605,3.3,0.0,0.6841758241758242
4.53359175400692,3.3,0.0,0.6841758241758242
4.535042394010816,3.3,0.0,0.6841758241758242
4.540710619010497,3.3,0.0,0.6841758241758242
4.540894051009673,1.0306959706959706,0.0,0.6446886446886446
4.546767581006861,1.0306959706959706,0.0,0.6446886446886446
4.551840454005287,1.0306959706959706,0.0,0.6446886446886446
4.556843074999051,1.0306959706959706,0.0,0.6446886446886446
4.561943975000759,1.0306959706959706,0.0,0.6446886446886446
4.564227894006763,0.9581684981684981,0.0,0.20227106227106226
4.564517842998612,3.2452014652014647,0.0,1.1797802197802196
4.569665315008024,3.2452014652014647,0.0,1.1797802197802196
4.5752633980009705,2.5924542124542125,0.0,1.7745054945054943
4.575669270998333,0.5600732600732601,0.0,0.7188278388278388
4.580707246001111,0.5600732600732601,0.0,0.7188278388278388
4.5839712060114834,0.5600732600732601,0.0,0.7188278388278388
4.584856472007232,0.5600732600732601,0.0,0.7188278388278388
4.586376773004304,0.5600732600732601,0.0,0.7188278388278388
4.5965128440002445,0.5600732600732601,0.0,0.7188278388278388
4.601626984003815,0.5600732600732601,0.0,0.7188278388278388
4.606281554006273,0.423076923076923,0.0,0.2224175824175824
4.606366031002835,0.423076923076923,0.0,0.2224175824175824
4.612999860008131,0.423076923076923,0.0,0.2224175824175824
4.616633486002684,0.423076923076923,0.0,0.2224175824175824
4.616807565005729,0.423076923076923,0.0,0.2224175824175824
4.622846719008521,3.195238095238095,0.0,0.7816849816849816
4.62899146899872,3.195238095238095,0.0,0.7816849816849816
4.632702380011324,2.597289377289377,0.0,1.6906959706959706
4.6386906359985005,2.597289377289377,0.0,1.6906959706959706
4.645936016007909,2.597289377289377,0.0,1.6906959706959706
4.650365225010319,2.597289377289377,0.0,1.6906959706959706
4.651927005004836,2.597289377289377,0.0,1.6906959706959706
4.6581491340039065,2.597289377289377,0.0,1.6906959706959706
4.6615897419978864,2.597289377289377,0.0,1.6906959706959706
4.661895260011079,2.597289377289377,0.0,1.6906959706959706
4.666871926005115,2.597289377289377,0.0,1.6906959706959706
4.673075459999382,2.597289377289377,0.0,1.6906959706959706
4.681649040998309,2.597289377289377,0.0,1.6906959706959706
4.687251262002974,2.597289377289377,0.0,1.6906959706959706
4.687746822004556,2.597289377289377,0.0,1.6906959706959706
4.692869913997129,2.597289377289377,0.0,1.6906959706959706
4.695210632009548,2.597289377289377,0.0,1.6906959706959706
4.696052166007576,2.597289377289377,0.0,1.6906959706959706
4.697558676009066,1.5835164835164834,0.0,0.5084981684981685
4.702146135998191,1.5835164835164834,0.0,0.5084981684981685
4.702461752007366,1.5835164835164834,0.0,0.5084981684981685
4.709767524997005,1.5835164835164834,0.0,0.5084981684981685
4.714893597003538,2.0815384615384613,0.0,1.2015384615384614
4.718388678011252,2.0815384615384613,0.0,1.2015384615384614
4.72918600399862,2.0815384615384613,0.0,1.2015384615384614
4.737520877999486,2.0815384615384613,0.0,1.2015384615384614
4.7424000989994965,2.0815384615384613,0.0,1.2015384615384614
4.746857774007367,2.0815384615384613,0.0,1.2015384615384614
4.747679077001521,2.0815384615384613,0.0,1.2015384615384614
4.749911705002887,2.0815384615384613,0.0,1.2015384615384614
4.750250245007919,2.0815384615384613,0.0,1.2015384615384614
4.75616161400103,2.0815384615384613,0.0,1.2015384615384614
4.76218224701006,2.0815384615384613,0.0,1.2015384615384614
4.767767274010112,2.0815384615384613,0.0,1.2015384615384614
4.767978560004849,2.0815384615384613,0.0,1.2015384615384614
4.775158496006043,2.0815384615384613,0.0,1.2015384615384614
4.779101334002917,2.0815384615384613,0.0,1.2015384615384614
4.783799147000536,2.0815384615384613,0.0,1.2015384615384614
4.790068221002002,0.502051282051282,0.0,0.3908424908424908
4.793193999998039,0.02498168498168498,0.0,0.5221978021978021
4.794849087003968,0.02498168498168498,0.0,0.5221978021978021
4.7985196220106445,0.02498168498168498,0.0,0.5221978021978021
4.804128773001139,0.02498168498168498,0.0,0.5221978021978021
4.804990132004605,0.5342857142857143,0.0,0.25868131868131866
4.80746320700564,0.5342857142857143,0.0,0.25868131868131866
4.812210214004153,0.5342857142857143,0.0,0.25868131868131866
4.817404633999104,0.5342857142857143,0.0,0.25868131868131866
4.82176316800178,0.5342857142857143,0.0,0.25868131868131866
4.823339093010873,0.5342857142857143,0.0,0.25868131868131866
4.829608735002694,2.621465201465201,0.0,1.1153113553113554
4.8331005630025174,2.4425641025641025,0.0,0.43758241758241756
4.833228336006869,2.4425641025641025,0.0,0.43758241758241756
4.83774344700214,2.4425641025641025,0.0,0.43758241758241756
4.839030854011071,2.4425641025641025,0.0,0.43758241758241756
4.8392429200030165,2.4425641025641025,0.0,0.43758241758241756
4.849223632001667,2.4425641025641025,0.0,0.43758241758241756
4.859911749997991,2.4425641025641025,0.0,0.43758241758241756
4.864348257004167,2.4425641025641025,0.0,0.43758241758241756
4.864624449997791,0.46175824175824176,0.0,0.4174358974358974
4.869633377005812,0.46175824175824176,0.0,0.4174358974358974
4.8792358150094515,0.46175824175824176,0.0,0.4174358974358974
4.886786543007474,0.6084249084249085,0.0,0.4561172161172161
4.893034542008536,0.6084249084249085,0.0,0.4561172161172161
4.896191460007685,0.6084249084249085,0.0,0.4561172161172161
4.897865249004099,0.6084249084249085,0.0,0.4561172161172161
4.901529003007454,0.6084249084249085,0.0,0.4561172161172161
4.901658556002076,0.6084249084249085,0.0,0.4561172161172161
4.909532762001618,0.6084249084249085,0.0,0.4561172161172161
4.9143440580082824,0.6084249084249085,0.0,0.4561172161172161
4.919653801000095,0.6084249084249085,0.0,0.4561172161172161
4.921278980007628,0.6084249084249085,0.0,0.4561172161172161
4.9286370879999595,0.6084249084249085,0.0,0.4561172161172161
4.931790379006998,0.6084249084249085,0.0,0.4561172161172161
4.933966026001144,0.6084249084249085,0.0,0.4561172161172161
4.934269652003422,0.6084249084249085,0.0,0.4561172161172161
4.942190157002187,0.6084249084249085,0.0,0.4561172161172161
4.946497637007269,0.6084249084249085,0.0,0.4561172161172161
4.947349043999566,0.6084249084249085,0.0,0.4561172161172161
4.948932797007728,0.6084249084249085,0.0,0.4561172161172161
4.95281244799844,0.6084249084249085,0.0,0.4561172161172161
4.9591705330094555,0.6084249084249085,0.0,0.4561172161172161
4.963636457003304,1.7817582417582416,0.0,0.8437362637362636
4.9637465690029785,1.7817582417582416,0.0,0.8437362637362636
4.9686899869993795,1.7817582417582416,0.0,0.8437362637362636
4.977654647009331,1.7817582417582416,0.0,0.8437362637362636
4.984500799007947,1.7817582417582416,0.0,0.8437362637362636
4.989752355002565,1.7817582417582416,0.0,0.8437362637362636
4.993464131010114,1.7978754578754577,0.0,0.946080586080586
5.0011040050012525,1.7978754578754577,0.0,0.946080586080586
5.00891813900671,2.553772893772894,0.0,0.7478388278388278
5.015738553003757,2.553772893772894,0.0,0.7478388278388278
5.018870954008889,0.7712087912087912,0.0,0.7712087912087912
5.021191167004872,2.635970695970696,0.0,1.8953846153846152
5.021399777004262,2.635970695970696,0.0,1.8953846153846152
5.028890194997075,2.635970695970696,0.0,1.8953846153846152
5.033373890008079,2.635970695970696,0.0,1.8953846153846152
5.034867627997301,2.635970695970696,0.0,1.8953846153846152
5.041374405001989,2.635970695970696,0.0,1.8953846153846152
5.045038805998047,2.635970695970696,0.0,1.8953846153846152
5.0506425549974665,2.635970695970696,0.0,1.8953846153846152
5.050892052997369,1.975164835164835,0.0,0.5278388278388277
5.057822151007713,1.975164835164835,0.0,0.5278388278388277
5.061307662006584,1.108058608058608,0.0,0.42710622710622714
5.061534854001366,1.108058608058608,0.0,0.42710622710622714
5.066553324999404,1.108058608058608,0.0,0.42710622710622714
5.070930968009634,1.108058608058608,0.0,0.42710622710622714
5.072672740003327,1.108058608058608,0.0,0.42710622710622714
5.076076798999566,1.108058608058608,0.0,0.42710622710622714
5.076805703007267,1.108058608058608,0.0,0.42710622710622714
5.078925114998128,1.108058608058608,0.0,0.42710622710622714
5.07981511100661,1.108058608058608,0.0,0.42710622710622714
5.081991904007737,0.7615384615384615,0.0,0.5133333333333333
5.0829156920081005,0.7615384615384615,0.0,0.5133333333333333
5.0838121859997045,0.7615384615384615,0.0,0.5133333333333333
5.085330975998659,0.7615384615384615,0.0,0.5133333333333333
5.090274356000009,0.7615384615384615,0.0,0.5133333333333333
5.093958723999094,0.7615384615384615,0.0,0.5133333333333333
5.1007443929993315,0.7615384615384615,0.0,0.5133333333333333
5.1081717390043195,0.8131135531135532,0.0,0.5528205128205127
5.111758461003774,2.8100366300366297,0.0,0.5367032967032966
5.1162776770070195,2.8100366300366297,0.0,0.5367032967032966
5.1178609050111845,2.8100366300366297,0.0,0.5367032967032966
5.123120201998972,2.6037362637362635,0.0,1.6705494505494505
5.126803457009373,1.49003663003663,0.0,0.8123076923076923
5.134579782010405,1.49003663003663,0.0,0.8123076923076923
5.140339190009399,1.49003663003663,0.0,0.8123076923076923
5.148496713009081,1.7688644688644688,0.0,0.963003663003663
5.154061148001347,0.5971428571428571,0.0,0.2747985347985348
5.155054141010623,0.726080586080586,0.0,0.6019780219780219
5.155953335997765,0.726080586080586,0.0,0.6019780219780219
5.156876356006251,0.726080586080586,0.0,0.6019780219780219
5.158428886003094,0.726080586080586,0.0,0.6019780219780219
5.162838468997506,0.726080586080586,0.0,0.6019780219780219
5.163754085006076,0.6954578754578754,0.0,0.527032967032967
5.1646236180095,0.6954578754578754,0.0,0.527032967032967
5.16622173700307,0.6954578754578754,0.0,0.527032967032967
5.170502521999879,0.6954578754578754,0.0,0.527032967032967
5.171995003998745,0.6954578754578754,0.0,0.527032967032967
5.176510327000869,0.6954578754578754,0.0,0.527032967032967
5.176799295004457,3.3,0.0,1.4578021978021978
5.182067986999755,3.3,0.0,1.4578021978021978
5.1850557690049754,3.3,0.0,1.4578021978021978
5.1878113510028925,3.3,0.0,1.4578021978021978
5.191764168004738,2.0928205128205124,0.0,0.4964102564102564
5.19582983100554,1.1547985347985346,0.0,0.024175824175824173
5.19916355200985,1.1547985347985346,0.0,0.024175824175824173
5.199915860008332,1.1547985347985346,0.0,0.024175824175824173
5.20203037300962,1.1547985347985346,0.0,0.024175824175824173
5.20348203300091,1.1547985347985346,0.0,0.024175824175824173
5.2076951380004175,1.1547985347985346,0.0,0.024175824175824173
5.209929616001318,1.1547985347985346,0.0,0.024175824175824173
5.21021369000664,1.1547985347985346,0.0,0.024175824175824173
5.215196050005034,1.1547985347985346,0.0,0.024175824175824173
5.218789309001295,1.1547985347985346,0.0,0.024175824175824173
5.2189658590068575,1.1547985347985346,0.0,0.024175824175824173
5.224113860997022,1.1547985347985346,0.0,0.024175824175824173
5.228685191003024,0.4488644688644688,0.0,0.35619047619047617
5.238332957000239,0.4488644688644688,0.0,0.35619047619047617
5.24707653799851,0.4488644688644688,0.0,0.35619047619047617
5.254334868004662,0.45369963369963373,0.0,0.3852014652014652
5.261074920010287,0.45369963369963373,0.0,0.3852014652014652
5.265629330999218,0.45369963369963373,0.0,0.3852014652014652
5.2658936040097615,0.45369963369963373,0.0,0.3852014652014652
5.27438566100318,1.6334798534798534,0.0,0.7421978021978022
5.280829039009404,1.6334798534798534,0.0,0.7421978021978022
5.285344591000467,1.6334798534798534,0.0,0.7421978021978022
5.285567224011174,1.6334798534798534,0.0,0.7421978021978022
5.293493821009179,1.6334798534798534,0.0,0.7421978021978022
5.299998570000753,1.6334798534798534,0.0,0.7421978021978022
5.307114923998597,1.6334798534798534,0.0,0.7421978021978022
5.310875424998812,1.6334798534798534,0.0,0.7421978021978022
5.316645523998886,1.6334798534798534,0.0,0.7421978021978022
5.316858713005786,1.6334798534798534,0.0,0.7421978021978022
5.322091420006473,1.6334798534798534,0.0,0.7421978021978022
5.32504381200124,1.6334798534798534,0.0,0.7421978021978022
5.327650058010477,1.6334798534798534,0.0,0.7421978021978022
5.332070194010157,1.6334798534798534,0.0,0.7421978021978022
5.333586708002258,0.7728205128205128,0.0,0.755091575091575
5.337324828011333,0.7728205128205128,0.0,0.755091575091575
5.337432879998232,0.7728205128205128,0.0,0.755091575091575
5.341891361997114,1.7559706959706958,0.0,0.8896703296703296
5.3434627990063746,1.7559706959706958,0.0,0.8896703296703296
5.34721640200587,2.7584615384615385,0.0,1.0919413919413918
5.347341910004616,2.7584615384615385,0.0,1.0919413919413918
5.354157447000034,2.7584615384615385,0.0,1.0919413919413918
5.3593330180010526,2.7584615384615385,0.0,1.0919413919413918
5.3618725090054795,2.7584615384615385,0.0,1.0919413919413918
5.3719485420006095,2.7584615384615385,0.0,1.0919413919413918
5.382401455004583,2.7584615384615385,0.0,1.0919413919413918
5.390822333007236,2.7584615384615385,0.0,1.0919413919413918
5.395734151999932,2.7584615384615385,0.0,1.0919413919413918
5.401532757998211,0.7824908424908424,0.0,0.5487912087912087
5.4016930610087,2.589230769230769,0.0,1.6254212454212453
5.407209490003879,2.589230769230769,0.0,1.6254212454212453
5.409243228001287,3.3,0.0,1.3925274725274726
5.410237474003225,3.3,0.0,1.3925274725274726
5.411931655005901,3.3,0.0,1.3925274725274726
5.415113529001246,3.3,0.0,1.3925274725274726
5.417488745006267,3.3,0.0,1.3925274725274726
5.417691235008533,3.3,0.0,1.3925274725274726
5.423890342004597,3.3,0.0,1.3925274725274726
5.428398725998704,2.752014652014652,0.0,0.855018315018315
5.428734722008812,2.752014652014652,0.0,0.855018315018315
5.433586215003743,2.752014652014652,0.0,0.855018315018315
5.439006675005658,2.752014652014652,0.0,0.855018315018315
5.442397047008853,0.954945054945055,0.0,0.3997069597069597
5.442520958997193,0.954945054945055,0.0,0.3997069597069597
5.447433085006196,0.954945054945055,0.0,0.3997069597069597
5.455786165010068,1.8945787545787542,0.0,0.9517216117216116
5.4608528789976845,2.278168498168498,0.0,0.6535531135531135
5.463952821010025,2.278168498168498,0.0,0.6535531135531135
5.466418711002916,2.278168498168498,0.0,0.6535531135531135
5.466531224010396,2.423223443223443,0.0,0.5254212454212454
5.47362657400663,2.423223443223443,0.0,0.5254212454212454
5.477271388997906,1.6657142857142855,0.0,0.20307692307692307
5.482897194000543,1.6657142857142855,0.0,0.20307692307692307
5.483720030999393,1.6657142857142855,0.0,0.20307692307692307
5.485262586007593,1.6657142857142855,0.0,0.20307692307692307
5.4902862460003234,1.6657142857142855,0.0,0.20307692307692307
5.494610827008728,1.6657142857142855,0.0,0.20307692307692307
5.496143459007726,1.6657142857142855,0.0,0.20307692307692307
5.499852740002098,1.6657142857142855,0.0,0.20307692307692307
5.499989827003446,1.6657142857142855,0.0,0.20307692307692307
5.504567445997964,1.6657142857142855,0.0,0.20307692307692307
5.504970107998815,1.6657142857142855,0.0,0.20307692307692307
5.510404713000753,1.6657142857142855,0.0,0.20307692307692307
5.511241615007748,1.6657142857142855,0.0,0.20307692307692307
5.5128144930058625,1.6657142857142855,0.0,0.20307692307692307
5.517156355999759,0.6648351648351648,0.0,0.6938461538461538
5.518742136002402,2.597289377289377,0.0,1.90021978021978
5.525712855000165,2.597289377289377,0.0,1.90021978021978
5.5289989940065425,2.3200732600732596,0.0,0.6390476190476191
5.529925683003967,2.3200732600732596,0.0,0.6390476190476191
5.531458645011298,2.3200732600732596,0.0,0.6390476190476191
5.536280747997807,2.3200732600732596,0.0,0.6390476190476191
5.543324793005013,0.4810989010989011,0.0,0.2909157509157509
5.547876171011012,0.4810989010989011,0.0,0.2909157509157509
5.548182299011387,0.4810989010989011,0.0,0.2909157509157509
5.553237619009451,0.4810989010989011,0.0,0.2909157509157509
5.559591477009235,0.4810989010989011,0.0,0.2909157509157509
5.56378907400358,3.1130402930402927,0.0,1.016190476190476
5.565288962010527,3.1130402930402927,0.0,1.016190476190476
5.570786481999676,3.1130402930402927,0.0,1.016190476190476
5.571274121000897,3.1130402930402927,0.0,1.016190476190476
5.5778879080025945,3.1130402930402927,0.0,1.016190476190476
5.585087915009353,3.1130402930402927,0.0,1.016190476190476
5.592623452001135,2.6714285714285713,0.0,1.1024175824175824
5.596104006006499,0.3102564102564102,0.0,0.3602197802197802
5.596305237006163,0.3102564102564102,0.0,0.3602197802197802
5.601143620006042,0.3102564102564102,0.0,0.3602197802197802
5.60695232800208,0.3102564102564102,0.0,0.3602197802197802
5.613712966005551,2.826153846153846,0.0,1.1394871794871795
5.618127956011449,2.826153846153846,0.0,1.1394871794871795
5.619635379000101,1.6157509157509156,0.0,0.909010989010989
5.626536733005196,1.6157509157509156,0.0,0.909010989010989
5.6303508920100285,1.6157509157509156,0.0,0.909010989010989
5.635940302003291,1.6157509157509156,0.0,0.909010989010989
5.6369666310056346,0.5890842490842491,0.0,0.45692307692307693
5.6380860390054295,0.5890842490842491,0.0,0.45692307692307693
5.638527603005059,0.5890842490842491,0.0,0.45692307692307693
5.6438866530079395,0.5890842490842491,0.0,0.45692307692307693
5.644017760001589,0.7389743589743589,0.0,0.5415384615384615
5.649048270002822,0.7389743589743589,0.0,0.5415384615384615
5.655384080004296,0.7389743589743589,0.0,0.5415384615384615
5.660247352003353,0.365054945054945,0.0,0.1692307692307692
5.66460913400806,0.365054945054945,0.0,0.1692307692307692
5.6656970089970855,0.49882783882783877,0.0,0.36827838827838827
5.66592565200699,0.49882783882783877,0.0,0.36827838827838827
5.6703957240097225,0.49882783882783877,0.0,0.36827838827838827
5.672035359006259,0.49882783882783877,0.0,0.36827838827838827
5.677345546006109,0.49882783882783877,0.0,0.36827838827838827
5.677587108002626,0.49882783882783877,0.0,0.36827838827838827
5.68259671900887,0.49882783882783877,0.0,0.36827838827838827
5.6871730880084215,0.49882783882783877,0.0,0.36827838827838827
5.687442588008707,0.49882783882783877,0.0,0.36827838827838827
5.696021816009306,0.49882783882783877,0.0,0.36827838827838827
5.701241586997639,0.12813186813186814,0.0,0.5415384615384615
5.704613055000664,0.9936263736263735,0.0,0.6624175824175824
5.705013856000733,0.9936263736263735,0.0,0.6624175824175824
5.711552630004007,0.9936263736263735,0.0,0.6624175824175824
5.715242089005187,0.9936263736263735,0.0,0.6624175824175824
5.715358268003911,0.9936263736263735,0.0,0.6624175824175824
5.720824767005979,0.9936263736263735,0.0,0.6624175824175824
5.721167324009002,0.9936263736263735,0.0,0.6624175824175824
5.728915550003876,0.9936263736263735,0.0,0.6624175824175824
5.733461338997586,0.9936263736263735,0.0,0.6624175824175824
5.733761360010249,0.6825641025641025,0.0,0.5479853479853479
5.740248447007616,0.6825641025641025,0.0,0.5479853479853479
5.7441044580045855,0.6825641025641025,0.0,0.5479853479853479
5.748447349003982,0.6825641025641025,0.0,0.5479853479853479
5.749286505000782,0.6825641025641025,0.0,0.5479853479853479
5.751480685998104,0.6825641025641025,0.0,0.5479853479853479
5.7522924070071895,0.6825641025641025,0.0,0.5479853479853479
5.754077992009115,0.6825641025641025,0.0,0.5479853479853479
5.761113847998786,0.5955311355311355,0.0,0.43677655677655675
5.765082494006492,0.5955311355311355,0.0,0.43677655677655675
5.771967602006043,2.107326007326007,0.0,1.4013919413919413
5.777181814002688,2.107326007326007,0.0,1.4013919413919413
5.778250439005205,0.39406593406593404,0.0,0.16197802197802197
5.77855300300871,0.39406593406593404,0.0,0.16197802197802197
5.783711449999828,0.39406593406593404,0.0,0.16197802197802197
5.787243514001602,0.7405860805860806,0.0,0.5326739926739926
5.787366737000411,0.7405860805860806,0.0,0.5326739926739926
5.794832818006398,0.7405860805860806,0.0,0.5326739926739926
5.7992276120057795,0.49076923076923074,0.0,0.3916483516483516
5.800799721997464,1.3659340659340657,0.0,0.7687912087912088
5.805209280006238,1.3659340659340657,0.0,0.7687912087912088
5.808000244011055,1.3659340659340657,0.0,0.7687912087912088
5.812098249007249,1.3659340659340657,0.0,0.7687912087912088
5.813668321003206,1.3659340659340657,0.0,0.7687912087912088
5.817438284997479,1.3659340659340657,0.0,0.7687912087912088
5.8238243340019835,2.12989010989011,0.0,0.8840293040293039
5.829425703006564,2.12989010989011,0.0,0.8840293040293039
5.829590476001613,2.12989010989011,0.0,0.8840293040293039
5.835285863009631,2.12989010989011,0.0,0.8840293040293039
5.835439265007153,0.4005128205128205,0.0,0.18857142857142856
5.843398609998985,0.4005128205128205,0.0,0.18857142857142856
5.8475363190082135,0.5068864468864469,0.0,0.3795604395604395
5.8490842480096035,0.5068864468864469,0.0,0.3795604395604395
5.854567148009664,0.5068864468864469,0.0,0.3795604395604395
5.8565790230059065,0.5117216117216117,0.0,0.846153846153846
5.8568683190096635,0.5117216117216117,0.0,0.846153846153846
5.866044005000731,0.5117216117216117,0.0,0.846153846153846
5.872981267006253,0.5117216117216117,0.0,0.846153846153846
5.877740169002209,0.4520879120879121,0.0,0.4448351648351648
5.881532587009133,0.4520879120879121,0.0,0.4448351648351648
5.88633474400558,0.7421978021978022,0.0,0.5133333333333333
5.886416748006013,0.7421978021978022,0.0,0.5133333333333333
5.89587958699849,0.7421978021978022,0.0,0.5133333333333333
5.902729057997931,0.7421978021978022,0.0,0.5133333333333333
5.910532907000743,2.6682051282051282,0.0,0.8268131868131867
5.917272233011317,2.6682051282051282,0.0,0.8268131868131867
5.923351195000578,0.6438827838827839,0.0,0.42952380952380953
5.927887858997565,1.1821978021978021,0.0,0.6720879120879121
5.92803547999938,1.1821978021978021,0.0,0.6720879120879121
5.933693097002106,1.1821978021978021,0.0,0.6720879120879121
5.933944390999386,1.1821978021978021,0.0,0.6720879120879121
5.9415940970066,1.1821978021978021,0.0,0.6720879120879121
5.945879136008443,2.5956776556776555,0.0,1.9203663003663003
5.948062791998382,2.5956776556776555,0.0,1.9203663003663003
5.948904371005483,2.5956776556776555,0.0,1.9203663003663003
5.950520305006648,2.5956776556776555,0.0,1.9203663003663003
5.958257031001267,2.5956776556776555,0.0,1.9203663003663003
5.965403153997613,2.5956776556776555,0.0,1.9203663003663003
5.969968935009092,2.5956776556776555,0.0,1.9203663003663003
5.970210812010919,2.5956776556776555,0.0,1.9203663003663003
5.978418908998719,2.5956776556776555,0.0,1.9203663003663003
5.982892906002235,2.5956776556776555,0.0,1.9203663003663003
5.984799491998274,2.5956776556776555,0.0,1.9203663003663003
5.987320797998109,2.5956776556776555,0.0,1.9203663003663003
5.987417039999855,2.5956776556776555,0.0,1.9203663003663003
5.993689071008703,2.5956776556776555,0.0,1.9203663003663003
5.997568659004173,0.776043956043956,0.0,0.6978754578754578
6.002086259002681,0.776043956043956,0.0,0.6978754578754578
6.002360222002608,0.776043956043956,0.0,0.6978754578754578
6.008426297004917,0.776043956043956,0.0,0.6978754578754578
6.012119253005949,0.776043956043956,0.0,0.6978754578754578
6.01715934900858,0.630989010989011,0.0,0.49882783882783877
6.022173386998475,0.630989010989011,0.0,0.49882783882783877
6.02687764899747,0.630989010989011,0.0,0.49882783882783877
6.031465840002056,3.3,0.0,1.4352380952380952
6.03174605499953,3.3,0.0,1.4352380952380952
6.037125273011043,3.3,0.0,1.4352380952380952
6.04220080000232,2.589230769230769,0.0,1.8405860805860805
6.045441818001564,2.589230769230769,0.0,1.8405860805860805
6.0463725099980365,2.589230769230769,0.0,1.8405860805860805
6.047893618000671,2.589230769230769,0.0,1.8405860805860805
6.052244876002078,2.589230769230769,0.0,1.8405860805860805
6.053116764000151,2.589230769230769,0.0,1.8405860805860805
6.055975356997806,2.589230769230769,0.0,1.8405860805860805
6.059447145002196,0.7695970695970695,0.0,0.6245421245421244
6.059600843000226,0.7695970695970695,0.0,0.6245421245421244
6.06419570199796,0.7695970695970695,0.0,0.6245421245421244
6.064500753011089,2.803589743589743,0.0,1.1024175824175824
6.069486532011069,2.803589743589743,0.0,1.1024175824175824
6.078845608004485,2.803589743589743,0.0,1.1024175824175824
6.08520795100776,1.3578754578754577,0.0,0.7712087912087912
6.092853788009961,0.7712087912087912,0.0,0.5068864468864469
6.096319680000306,0.7712087912087912,0.0,0.5068864468864469
6.097101947001647,0.776043956043956,0.0,0.518974358974359
6.098676320005325,0.776043956043956,0.0,0.518974358974359
6.102370727006928,0.776043956043956,0.0,0.518974358974359
6.10253306600498,0.6471062271062271,0.0,0.4174358974358974
6.11033981401124,0.6471062271062271,0.0,0.4174358974358974
6.117123347008601,1.805934065934066,0.0,0.5528205128205127
6.122658519001561,1.805934065934066,0.0,0.5528205128205127
6.122947266005212,0.8147252747252747,0.0,0.5923076923076923
6.130395615997259,0.8147252747252747,0.0,0.5923076923076923
6.136874861011165,0.8147252747252747,0.0,0.5923076923076923
6.1411738699971465,0.8147252747252747,0.0,0.5923076923076923
6.142703358011204,0.8147252747252747,0.0,0.5923076923076923
6.146992289010086,0.8147252747252747,0.0,0.5923076923076923
6.149215961006121,2.6762637362637363,0.0,1.3054945054945053
6.149500744009856,2.6762637362637363,0.0,1.3054945054945053
6.154591673010145,2.6762637362637363,0.0,1.3054945054945053
6.158807030005846,2.6762637362637363,0.0,1.3054945054945053
6.1603535000031115,2.6762637362637363,0.0,1.3054945054945053
6.165367571011302,2.6762637362637363,0.0,1.3054945054945053
6.169755866008927,2.6762637362637363,0.0,1.3054945054945053
6.171927044008044,2.6762637362637363,0.0,1.3054945054945053
6.172813890007092,2.6762637362637363,0.0,1.3054945054945053
6.174303357009194,2.6762637362637363,0.0,1.3054945054945053
6.178575056997943,2.6762637362637363,0.0,1.3054945054945053
6.180119117998402,2.6762637362637363,0.0,1.3054945054945053
6.184354096010793,0.7373626373626374,0.0,0.4488644688644688
6.186592381010996,0.7373626373626374,0.0,0.4488644688644688
6.187366602011025,0.7373626373626374,0.0,0.4488644688644688
6.189542541003902,0.7373626373626374,0.0,0.4488644688644688
6.1897874490096,0.7373626373626374,0.0,0.4488644688644688
6.19477289300994,0.7373626373626374,0.0,0.4488644688644688
6.199089216010179,0.7373626373626374,0.0,0.4488644688644688
6.200678555003833,0.7373626373626374,0.0,0.4488644688644688
6.204369750004844,0.7373626373626374,0.0,0.4488644688644688
6.204501466010697,0.7373626373626374,0.0,0.4488644688644688
6.209572851003031,0.7373626373626374,0.0,0.4488644688644688
6.213153058008174,0.7373626373626374,0.0,0.4488644688644688
6.213348725010292,0.7373626373626374,0.0,0.4488644688644688
6.220297218998894,0.7373626373626374,0.0,0.4488644688644688
6.226077913001063,0.7373626373626374,0.0,0.4488644688644688
6.231056917007663,0.7373626373626374,0.0,0.4488644688644688
6.234969975004788,0.09589743589743589,0.0,0.5447619047619047
6.23872112200479,0.523003663003663,0.0,0.43274725274725273
6.245248945997446,0.523003663003663,0.0,0.43274725274725273
6.249408472998766,3.032454212454212,0.0,1.1902564102564102
6.25192431700998,3.032454212454212,0.0,1.1902564102564102
6.259427092998521,3.032454212454212,0.0,1.1902564102564102
6.2632247370056575,3.032454212454212,0.0,1.1902564102564102
6.268283926998265,3.032454212454212,0.0,1.1902564102564102
6.273572224003146,3.032454212454212,0.0,1.1902564102564102
6.276499608997256,3.032454212454212,0.0,1.1902564102564102
6.279816497000866,3.274212454212454,0.0,1.0073260073260073
6.280166305004968,3.274212454212454,0.0,1.0073260073260073
6.285212371003581,3.274212454212454,0.0,1.0073260073260073
6.289933029998792,3.274212454212454,0.0,1.0073260073260073
6.290212546999101,3.274212454212454,0.0,1.0073260073260073
6.2948791649978375,3.274212454212454,0.0,1.0073260073260073
6.295011281006737,3.274212454212454,0.0,1.0073260073260073
6.300282540003536,3.274212454212454,0.0,1.0073260073260073
6.302733499003807,2.4715750915750916,0.0,0.8316483516483516
6.308217935002176,2.4715750915750916,0.0,0.8316483516483516
6.309075206008856,2.4715750915750916,0.0,0.8316483516483516
6.31136641401099,2.4715750915750916,0.0,0.8316483516483516
6.311624203997781,2.4715750915750916,0.0,0.8316483516483516
6.316961125005037,2.4715750915750916,0.0,0.8316483516483516
6.319450780007173,2.4715750915750916,0.0,0.8316483516483516
6.324539465000271,2.4715750915750916,0.0,0.8316483516483516
6.328778041002806,2.4715750915750916,0.0,0.8316483516483516
6.3309490630053915,2.4715750915750916,0.0,0.8316483516483516
6.332446072003222,2.4715750915750916,0.0,0.8316483516483516
6.337136629997985,2.4715750915750916,0.0,0.8316483516483516
6.33740049500193,2.4715750915750916,0.0,0.8316483516483516
6.342141818997334,2.4715750915750916,0.0,0.8316483516483516
6.342395409999881,2.4715750915750916,0.0,0.8316483516483516
6.3464684280043,2.4715750915750916,0.0,0.8316483516483516
6.3505013660033,2.5344322344322343,0.0,1.041978021978022
6.353886433003936,2.5344322344322343,0.0,1.041978021978022
6.354745039003319,2.5344322344322343,0.0,1.041978021978022
6.356806107010925,2.5344322344322343,0.0,1.041978021978022
6.358298274004483,2.5344322344322343,0.0,1.041978021978022
6.363045702004456,2.5344322344322343,0.0,1.041978021978022
6.363252167997416,2.5344322344322343,0.0,1.041978021978022
6.367849861999275,2.5344322344322343,0.0,1.041978021978022
6.368110877010622,2.5344322344322343,0.0,1.041978021978022
6.372711426010937,2.5344322344322343,0.0,1.041978021978022
6.373018661004608,2.5344322344322343,0.0,1.041978021978022
6.377665058011189,0.4214652014652014,0.0,0.40776556776556777
6.378476291007246,3.3,0.0,1.3683516483516485
6.380559041004744,3.3,0.0,1.3683516483516485
6.38197627000045,3.3,0.0,1.3683516483516485
6.38211028900696,3.3,0.0,1.3683516483516485
6.3874524970015045,3.3,0.0,1.3683516483516485
6.389905711010215,1.6947252747252746,0.0,0.9331868131868131
6.390034044001368,1.6947252747252746,0.0,0.9331868131868131
6.39524081700074,1.6947252747252746,0.0,0.9331868131868131
6.398775620997185,0.5036630036630036,0.0,0.5052747252747253
6.398967961999006,0.5036630036630036,0.0,0.5052747252747253
6.404139866004698,0.5036630036630036,0.0,0.5052747252747253
6.407638793010847,0.7035164835164834,0.0,0.5278388278388277
6.407717666006647,0.7035164835164834,0.0,0.5278388278388277
6.412567467006738,0.7035164835164834,0.0,0.5278388278388277
6.4172132829990005,0.7035164835164834,0.0,0.5278388278388277
6.417930665003951,0.7035164835164834,0.0,0.5278388278388277
6.419992339011515,0.7035164835164834,0.0,0.5278388278388277
6.42142385400075,0.7035164835164834,0.0,0.5278388278388277
6.426123085009749,0.365054945054945,0.0,0.4754578754578754
6.426348995999433,0.365054945054945,0.0,0.4754578754578754
6.4309401250066,0.365054945054945,0.0,0.4754578754578754
6.431216520009912,0.365054945054945,0.0,0.4754578754578754
6.435840860998724,0.365054945054945,0.0,0.4754578754578754
6.435984986004769,0.6116483516483516,0.0,0.6076190476190476
6.440624961003778,0.6116483516483516,0.0,0.6076190476190476
6.441343591010082,0.6116483516483516,0.0,0.6076190476190476
6.443727511999896,0.6116483516483516,0.0,0.6076190476190476
6.448760589002632,1.1902564102564102,0.0,0.29010989010989013
6.454226922011003,1.8172161172161172,0.0,1.0290842490842491
6.45658278701012,1.8172161172161172,0.0,1.0290842490842491
6.456819589002407,1.8172161172161172,0.0,1.0290842490842491
6.462137281007017,1.8172161172161172,0.0,1.0290842490842491
6.465013086999534,1.8172161172161172,0.0,1.0290842490842491
6.468613378005102,1.8172161172161172,0.0,1.0290842490842491
6.468747810009518,1.8172161172161172,0.0,1.0290842490842491
6.473667170997942,1.8172161172161172,0.0,1.0290842490842491
6.478634803002933,1.8172161172161172,0.0,1.0290842490842491
6.48329219900188,3.3,0.0,1.1177289377289377
6.483615798002575,3.3,0.0,1.1177289377289377
6.48873429800733,3.3,0.0,1.1177289377289377
6.492284163003205,3.3,0.0,1.1177289377289377
6.492528761998983,3.3,0.0,1.1177289377289377
6.497805076010991,3.3,0.0,1.1177289377289377
6.500799918998382,3.3,0.0,1.1177289377289377
6.503077037006733,3.3,0.0,1.1177289377289377
6.503911009000149,3.3,0.0,1.1177289377289377
6.50549287701142,3.3,0.0,1.1177289377289377
6.509939242008841,3.3,0.0,1.1177289377289377
6.5116682310035685,3.3,0.0,1.1177289377289377
6.514772670008824,3.3,0.0,1.1177289377289377
6.5171042880101595,3.3,0.0,1.1177289377289377
6.517409435007721,3.3,0.0,1.1177289377289377
6.5228728340007365,3.3,0.0,1.1177289377289377
6.524380511997151,3.3,0.0,1.1177289377289377
6.530554419005057,3.3,0.0,1.1177289377289377
6.534343281004112,2.6005128205128205,0.0,1.9034432234432233
6.539727163006319,0.356996336996337,0.0,0.5318681318681319
6.540606413997011,0.356996336996337,0.0,0.5318681318681319
6.542140435005422,0.356996336996337,0.0,0.5318681318681319
6.546674415003508,0.356996336996337,0.0,0.5318681318681319
6.547493381003733,2.46029304029304,0.0,1.1136996336996337
6.54908430800424,2.46029304029304,0.0,1.1136996336996337
6.553578924009344,2.46029304029304,0.0,1.1136996336996337
6.554439412007923,2.46029304029304,0.0,1.1136996336996337
6.556017888011411,2.46029304029304,0.0,1.1136996336996337
6.560428946002503,2.46029304029304,0.0,1.1136996336996337
6.561236806999659,2.46029304029304,0.0,1.1136996336996337
6.562910393011407,0.5149450549450549,0.0,0.4802930402930403
6.566595213997061,0.5149450549450549,0.0,0.4802930402930403
6.571976507009822,0.5149450549450549,0.0,0.4802930402930403
6.574211052997271,0.5149450549450549,0.0,0.4802930402930403
6.57451399799902,0.5149450549450549,0.0,0.4802930402930403
6.579752268997254,0.5149450549450549,0.0,0.4802930402930403
6.582167025000672,0.5149450549450549,0.0,0.4802930402930403
6.582328393007629,0.5149450549450549,0.0,0.4802930402930403
6.587448395002866,1.6689377289377287,0.0,0.361025641025641
6.591244948998792,1.6689377289377287,0.0,0.361025641025641
6.594880953009124,0.03948717948717949,0.0,0.6454945054945055
6.594964841002366,0.03948717948717949,0.0,0.6454945054945055
6.600259141006973,0.03948717948717949,0.0,0.6454945054945055
6.602633311005775,0.03948717948717949,0.0,0.6454945054945055
6.602882111008512,0.03948717948717949,0.0,0.6454945054945055
6.60745328500343,0.03948717948717949,0.0,0.6454945054945055
6.608325501001673,2.017069597069597,0.0,1.1161172161172161
6.610528915000032,2.017069597069597,0.0,1.1161172161172161
6.611332514003152,2.017069597069597,0.0,1.1161172161172161
6.613668739999412,2.017069597069597,0.0,1.1161172161172161
6.613849608009332,2.017069597069597,0.0,1.1161172161172161
6.618848340003751,2.017069597069597,0.0,1.1161172161172161
6.624138240003958,3.2339194139194136,0.0,2.0235164835164836
6.627848552001524,3.2339194139194136,0.0,2.0235164835164836
6.632200873005786,3.2339194139194136,0.0,2.0235164835164836
6.634402170006069,3.2339194139194136,0.0,2.0235164835164836
6.634671599997091,3.2339194139194136,0.0,2.0235164835164836
6.639868878002744,3.2339194139194136,0.0,2.0235164835164836
6.642844202011474,0.6873992673992674,0.0,0.4738461538461538
6.645027945007314,0.6873992673992674,0.0,0.4738461538461538
6.646718076008256,0.6873992673992674,0.0,0.4738461538461538
6.64967536200129,0.6873992673992674,0.0,0.4738461538461538
6.652603524009464,1.411062271062271,0.0,0.22725274725274724
6.655595572010498,1.411062271062271,0.0,0.22725274725274724
6.657748085010098,1.411062271062271,0.0,0.22725274725274724
6.6591577979997965,1.411062271062271,0.0,0.22725274725274724
6.663871819997439,1.411062271062271,0.0,0.22725274725274724
6.664105935997213,1.411062271062271,0.0,0.22725274725274724
6.668812593008624,1.411062271062271,0.0,0.22725274725274724
6.669053096004063,1.411062271062271,0.0,0.22725274725274724
6.673694491008064,1.411062271062271,0.0,0.22725274725274724
6.673961984997732,1.411062271062271,0.0,0.22725274725274724
6.678612869000062,1.411062271062271,0.0,0.22725274725274724
6.67891071800841,1.411062271062271,0.0,0.22725274725274724
6.683520903010503,1.411062271062271,0.0,0.22725274725274724
6.6837908910092665,1.411062271062271,0.0,0.22725274725274724
6.688920761996997,1.411062271062271,0.0,0.22725274725274724
6.692890379999881,1.411062271062271,0.0,0.22725274725274724
6.696594989000005,0.25706959706959703,0.0,0.5165567765567766
6.701627941001789,0.25706959706959703,0.0,0.5165567765567766
6.705403700005263,0.25706959706959703,0.0,0.5165567765567766
6.710575657998561,0.25706959706959703,0.0,0.5165567765567766
6.713639681998757,0.25706959706959703,0.0,0.5165567765567766
6.715841562006972,0.5778021978021978,0.0,0.4432234432234432
6.7166870220098644,0.5778021978021978,0.0,0.4432234432234432
6.718827237011283,0.5778021978021978,0.0,0.4432234432234432
6.71915908101073,0.5778021978021978,0.0,0.4432234432234432
6.7244403030053945,0.5778021978021978,0.0,0.4432234432234432
6.726727430999745,0.28608058608058606,0.0,0.2925274725274725
6.726936699997168,0.28608058608058606,0.0,0.2925274725274725
6.732509167006356,0.28608058608058606,0.0,0.2925274725274725
6.733454241009895,0.28608058608058606,0.0,0.2925274725274725
6.734257721007452,0.28608058608058606,0.0,0.2925274725274725
6.735852028999943,0.28608058608058606,0.0,0.2925274725274725
6.739579216999118,0.28608058608058606,0.0,0.2925274725274725
6.739659519007546,0.28608058608058606,0.0,0.2925274725274725
6.74477535400365,0.28608058608058606,0.0,0.2925274725274725
6.747984882997116,0.28608058608058606,0.0,0.2925274725274725
6.749513182003284,0.28608058608058606,0.0,0.2925274725274725
6.754069007001817,0.28608058608058606,0.0,0.2925274725274725
6.7543076160072815,0.28608058608058606,0.0,0.2925274725274725
6.759369156003231,0.28608058608058606,0.0,0.2925274725274725
6.762330657002167,0.28608058608058606,0.0,0.2925274725274725
6.765262433007592,0.28608058608058606,0.0,0.2925274725274725
6.768335475004278,0.28608058608058606,0.0,0.2925274725274725
6.770498769998085,3.3,0.0,1.5802930402930402
6.771366867003962,3.3,0.0,1.5802930402930402
6.773081354011083,0.7792673992673992,0.0,0.5915018315018314
6.776666418008972,0.7792673992673992,0.0,0.5915018315018314
6.776763488000142,1.2047619047619047,0.0,0.4794871794871795
6.781758062003064,1.2047619047619047,0.0,0.4794871794871795
6.786460421004449,1.2047619047619047,0.0,0.4794871794871795
6.786682025005575,2.5344322344322343,0.0,1.1394871794871795
6.7913119989971165,2.5344322344322343,0.0,1.1394871794871795
6.791573961003451,2.5344322344322343,0.0,1.1394871794871795
6.796671793999849,2.5344322344322343,0.0,1.1394871794871795
6.800494549010182,2.5344322344322343,0.0,1.1394871794871795
6.804954177001491,2.5344322344322343,0.0,1.1394871794871795
6.8067568550031865,2.5344322344322343,0.0,1.1394871794871795
6.809694335999666,2.5344322344322343,0.0,1.1394871794871795
6.812762322006165,2.5344322344322343,0.0,1.1394871794871795
6.815619123008219,2.5344322344322343,0.0,1.1394871794871795
6.81940036600281,2.5344322344322343,0.0,1.1394871794871795
6.824452856002608,2.5344322344322343,0.0,1.1394871794871795
6.829890385008184,2.5344322344322343,0.0,1.1394871794871795
6.831504098008736,2.5344322344322343,0.0,1.1394871794871795
6.835740415001055,2.5344322344322343,0.0,1.1394871794871795
6.8386442190094385,2.5344322344322343,0.0,1.1394871794871795
6.841540915003861,2.5344322344322343,0.0,1.1394871794871795
6.845192131004296,2.5344322344322343,0.0,1.1394871794871795
6.845385911001358,2.9099633699633696,0.0,1.1918681318681317
6.850465834999341,2.9099633699633696,0.0,1.1918681318681317
6.85478929700912,2.9099633699633696,0.0,1.1918681318681317
6.856954502000008,2.9099633699633696,0.0,1.1918681318681317
6.857765774009749,2.9099633699633696,0.0,1.1918681318681317
6.860093303010217,2.9099633699633696,0.0,1.1918681318681317
6.860411301997374,2.9099633699633696,0.0,1.1918681318681317
6.865394936001394,2.9099633699633696,0.0,1.1918681318681317
6.869989213009831,2.5038095238095237,0.0,1.5585347985347984
6.870823536999524,2.5038095238095237,0.0,1.5585347985347984
6.872329719000845,2.5038095238095237,0.0,1.5585347985347984
6.8773124540020945,2.5038095238095237,0.0,1.5585347985347984
6.8817909299978055,0.5955311355311355,0.0,0.3908424908424908
6.882106167002348,0.49882783882783877,0.0,0.28849816849816845
6.887262339005247,0.49882783882783877,0.0,0.28849816849816845
6.891218734002905,3.3,0.0,1.0516483516483515
6.895037220005179,1.9316483516483516,0.0,0.49157509157509155
6.899581549005234,1.9316483516483516,0.0,0.49157509157509155
6.900415605006856,1.9316483516483516,0.0,0.49157509157509155
6.902720120007871,1.9316483516483516,0.0,0.49157509157509155
6.902945797002758,1.9316483516483516,0.0,0.49157509157509155
6.907480374997249,2.5956776556776555,0.0,0.8783882783882784
6.908964033005759,2.5956776556776555,0.0,0.8783882783882784
6.913572745004785,2.262051282051282,0.0,0.39809523809523806
6.9138231050019385,2.262051282051282,0.0,0.39809523809523806
6.9190138220001245,2.262051282051282,0.0,0.39809523809523806
6.922646933002397,2.262051282051282,0.0,0.39809523809523806
6.9279408720030915,2.262051282051282,0.0,0.39809523809523806
6.931510107999202,2.262051282051282,0.0,0.39809523809523806
6.931618153001182,2.262051282051282,0.0,0.39809523809523806
6.93670881500293,2.262051282051282,0.0,0.39809523809523806
6.940390711999498,2.262051282051282,0.0,0.39809523809523806
6.940563641008339,2.262051282051282,0.0,0.39809523809523806
6.94565092700941,2.262051282051282,0.0,0.39809523809523806
6.9493637300038245,2.262051282051282,0.0,0.39809523809523806
6.95469640599913,2.262051282051282,0.0,0.39809523809523806
6.9577748000010615,2.262051282051282,0.0,0.39809523809523806
6.959335135004949,2.262051282051282,0.0,0.39809523809523806
6.964476626002579,2.262051282051282,0.0,0.39809523809523806
6.967413277001469,2.262051282051282,0.0,0.39809523809523806
6.970354696997674,2.054139194139194,0.0,1.2531135531135529
6.973254368000198,2.054139194139194,0.0,1.2531135531135529
6.976155298005324,0.5842490842490843,0.0,0.40776556776556777
6.979097928007832,0.5842490842490843,0.0,0.40776556776556777
6.982118394007557,0.5842490842490843,0.0,0.40776556776556777
6.984544174003531,0.5842490842490843,0.0,0.40776556776556777
6.989864300005138,0.5842490842490843,0.0,0.40776556776556777
6.9927423570043175,0.5842490842490843,0.0,0.40776556776556777
6.995659831009107,0.5842490842490843,0.0,0.40776556776556777
6.998608163004974,0.5842490842490843,0.0,0.40776556776556777
7.00226454201038,2.597289377289377,0.0,2.108131868131868
7.0073930350044975,2.597289377289377,0.0,2.108131868131868
7.012467430002289,2.693992673992674,0.0,2.1468131868131866
7.0162512170063565,2.693992673992674,0.0,2.1468131868131866
7.021446087004733,2.693992673992674,0.0,2.1468131868131866
7.025990068999818,2.693992673992674,0.0,2.1468131868131866
7.026192869001534,2.693992673992674,0.0,2.1468131868131866
7.031371176999528,2.693992673992674,0.0,2.1468131868131866
7.034979832998943,2.693992673992674,0.0,2.1468131868131866
7.035168002999853,2.693992673992674,0.0,2.1468131868131866
7.040147571999114,2.693992673992674,0.0,2.1468131868131866
7.043802889005747,3.3,0.0,1.3812454212454213
7.049032568000257,3.3,0.0,1.3812454212454213
7.053573010009131,3.3,0.0,1.3812454212454213
7.053854521000176,3.3,0.0,1.3812454212454213
7.058839318997343,3.3,0.0,1.3812454212454213
7.064240848005284,3.3,0.0,1.3812454212454213
7.065881160000572,2.629523809523809,0.0,1.1588278388278386
7.068936412004405,1.838168498168498,0.0,1.0484249084249082
7.071230013010791,1.838168498168498,0.0,1.0484249084249082
7.072056365010212,1.838168498168498,0.0,1.0484249084249082
7.074419360011234,1.838168498168498,0.0,1.0484249084249082
7.0745838830043795,1.838168498168498,0.0,1.0484249084249082
7.079761938002775,1.838168498168498,0.0,1.0484249084249082
7.083388992003165,1.4287912087912087,0.0,1.1862271062271061
7.088458192010876,1.4287912087912087,0.0,1.1862271062271061
7.09276281100756,2.2765567765567765,0.0,0.7244688644688644
7.0942779860051814,2.2765567765567765,0.0,0.7244688644688644
7.099334451006143,2.2765567765567765,0.0,0.7244688644688644
7.102935668008286,2.2765567765567765,0.0,0.7244688644688644
7.108179447997827,2.2765567765567765,0.0,0.7244688644688644
7.111970904006739,2.5876190476190475,0.0,1.6117216117216115
7.116683683008887,2.5876190476190475,0.0,1.6117216117216115
7.116877867010771,2.5876190476190475,0.0,1.6117216117216115
7.122529889005818,2.5876190476190475,0.0,1.6117216117216115
7.123325948006823,0.7567032967032966,0.0,0.4319413919413919
7.125545855000382,2.618241758241758,0.0,0.9452747252747251
7.125849432006362,2.382930402930403,0.0,1.4046153846153846
7.130926680008997,2.382930402930403,0.0,1.4046153846153846
7.13534171700303,2.594065934065934,0.0,2.096043956043956
7.13686988101108,2.594065934065934,0.0,2.096043956043956
7.140705673009506,3.3,0.0,1.1717216117216116
7.145841363002546,3.3,0.0,1.1717216117216116
7.149590257002274,3.3,0.0,1.1717216117216116
7.1548474580049515,3.3,0.0,1.4183150183150184
7.157964636004181,3.3,0.0,1.4183150183150184
7.160305077006342,3.3,0.0,1.4183150183150184
7.160596590008936,3.3,0.0,1.4183150183150184
7.16604012400785,3.3,0.0,1.4183150183150184
7.168392015999416,3.3,0.0,1.4183150183150184
7.168591670008027,3.3,0.0,1.4183150183150184
7.173842215997865,3.3,0.0,1.4183150183150184
7.177037945002667,1.3288644688644689,0.0,0.0419047619047619
7.177902369003277,1.3288644688644689,0.0,0.0419047619047619
7.1795159070024965,1.3288644688644689,0.0,0.0419047619047619
7.183905819998472,1.3288644688644689,0.0,0.0419047619047619
7.184713208000176,1.3288644688644689,0.0,0.0419047619047619
7.186276762004127,1.3288644688644689,0.0,0.0419047619047619
7.19141554601083,1.3288644688644689,0.0,0.0419047619047619
7.193686464001075,0.3376556776556776,0.0,0.3843956043956044
7.193970132997492,0.43274725274725273,0.0,0.38036630036630037
7.1991187800012995,0.43274725274725273,0.0,0.38036630036630037
7.202739055006532,0.43274725274725273,0.0,0.38036630036630037
7.202860575009254,0.43274725274725273,0.0,0.38036630036630037
7.207343401008984,0.43274725274725273,0.0,0.38036630036630037
7.208212812009151,0.43274725274725273,0.0,0.38036630036630037
7.209768250002526,0.43274725274725273,0.0,0.38036630036630037
7.214285084002768,0.43274725274725273,0.0,0.38036630036630037
7.215067580007599,0.9887912087912087,0.0,0.46739926739926735
7.216757100002724,0.9887912087912087,0.0,0.46739926739926735
7.2202969350037165,0.9887912087912087,0.0,0.46739926739926735
7.220558031011024,2.6069597069597066,0.0,2.884981684981685
7.22575850400608,2.6069597069597066,0.0,2.884981684981685
7.229357443997287,1.0484249084249082,0.0,0.8751648351648351
7.229545061010867,1.0484249084249082,0.0,0.8751648351648351
7.234567646009964,1.0484249084249082,0.0,0.8751648351648351
7.239685631997418,1.0065201465201465,0.0,0.7615384615384615
7.243463865001104,1.0065201465201465,0.0,0.7615384615384615
7.248636634001741,1.5915750915750915,0.0,0.3706959706959707
7.2515640030032955,2.2169230769230768,0.0,1.531135531135531
7.2551527739997255,2.2169230769230768,0.0,1.531135531135531
7.255364291006117,2.2169230769230768,0.0,1.531135531135531
7.2603311560087604,2.2169230769230768,0.0,1.531135531135531
7.264630767997005,2.2169230769230768,0.0,1.531135531135531
7.266863379001734,2.95025641025641,0.0,1.3079120879120878
7.267688271007501,2.95025641025641,0.0,1.3079120879120878
7.2698946239979705,2.95025641025641,0.0,1.3079120879120878
7.270168654998997,2.95025641025641,0.0,1.3079120879120878
7.275333112003864,2.95025641025641,0.0,1.3079120879120878
7.279038159002084,2.95025641025641,0.0,1.3079120879120878
7.2840711870085215,2.95025641025641,0.0,1.3079120879120878
7.289365062009892,2.95025641025641,0.0,1.3079120879120878
7.292395505006425,2.95025641025641,0.0,1.3079120879120878
7.295254655007739,2.95025641025641,0.0,1.3079120879120878
7.299517261999426,2.95025641025641,0.0,1.3079120879120878
7.301084810998873,1.079047619047619,0.0,0.7784615384615384
7.306413712009089,1.079047619047619,0.0,0.7784615384615384
7.308702911002911,1.079047619047619,0.0,0.7784615384615384
7.3089782260067295,1.079047619047619,0.0,0.7784615384615384
7.31417141899874,1.079047619047619,0.0,0.7784615384615384
7.317221650009742,1.079047619047619,0.0,0.7784615384615384
7.319437561003724,2.7197802197802194,0.0,0.9065934065934066
7.320280087005813,1.456190476190476,0.0,1.4094505494505494
7.3224787740036845,1.456190476190476,0.0,1.4094505494505494
7.322753546002787,1.456190476190476,0.0,1.4094505494505494
7.3281709130096715,2.468351648351648,0.0,0.726080586080586
7.330470907007111,2.468351648351648,0.0,0.726080586080586
7.330641068998375,2.468351648351648,0.0,0.726080586080586
7.335702110998682,2.468351648351648,0.0,0.726080586080586
7.340246787003707,2.468351648351648,0.0,0.726080586080586
7.34105596000154,1.062930402930403,0.0,0.9904029304029303
7.343445801001508,1.062930402930403,0.0,0.9904029304029303
7.343615147008677,1.062930402930403,0.0,0.9904029304029303
7.348689260004903,1.062930402930403,0.0,0.9904029304029303
7.3530954989983,1.062930402930403,0.0,0.9904029304029303
7.354593918003957,0.5600732600732601,0.0,0.43355311355311354
7.359088771001552,0.5600732600732601,0.0,0.43355311355311354
7.359897678004927,0.5600732600732601,0.0,0.43355311355311354
7.3614869190059835,0.5600732600732601,0.0,0.43355311355311354
7.366007647011429,0.5600732600732601,0.0,0.43355311355311354
7.366283487004694,0.5600732600732601,0.0,0.43355311355311354
7.371288577007363,0.5600732600732601,0.0,0.43355311355311354
7.375109808010166,0.5600732600732601,0.0,0.43355311355311354
7.379549113000394,0.5600732600732601,0.0,0.43355311355311354
7.380435223007225,2.5908424908424905,0.0,1.9598534798534797
7.381907854010933,2.5908424908424905,0.0,1.9598534798534797
7.386368557999958,2.5908424908424905,0.0,1.9598534798534797
7.3879150040011154,2.5908424908424905,0.0,1.9598534798534797
7.392301537009189,2.5908424908424905,0.0,1.9598534798534797
7.394766533005168,2.5908424908424905,0.0,1.9598534798534797
7.394917779005482,0.9323809523809523,0.0,0.4996336996336996
7.400177431001794,0.9323809523809523,0.0,0.4996336996336996
7.403385584009811,0.9323809523809523,0.0,0.4996336996336996
7.404829228005838,0.9323809523809523,0.0,0.4996336996336996
7.409131482010707,0.9323809523809523,0.0,0.4996336996336996
7.411521715010167,0.9323809523809523,0.0,0.4996336996336996
7.411663310005679,0.9323809523809523,0.0,0.4996336996336996
7.416975297004683,0.9323809523809523,0.0,0.4996336996336996
7.419226582002011,0.9323809523809523,0.0,0.4996336996336996
7.42006728600245,0.9323809523809523,0.0,0.4996336996336996
7.421602763002738,0.9323809523809523,0.0,0.4996336996336996
7.425932602011017,0.9323809523809523,0.0,0.4996336996336996
7.427552576002199,2.3716483516483513,0.0,1.473113553113553
7.432872218007105,2.3716483516483513,0.0,1.473113553113553
7.435088714002632,2.3716483516483513,0.0,1.473113553113553
7.43596957900445,2.3716483516483513,0.0,1.473113553113553
7.437544325002818,2.3716483516483513,0.0,1.473113553113553
7.4424832680088,2.532820512820513,0.0,0.6358241758241758
7.446954879007535,2.532820512820513,0.0,0.6358241758241758
7.447866133006755,2.532820512820513,0.0,0.6358241758241758
7.449414545000764,2.532820512820513,0.0,0.6358241758241758
