time,emg1,emg2,emg3
0.038143760997627396,0.0,0.0,2.025128205128205
0.03850954299559817,0.0,0.0,2.025128205128205
0.04977876199700404,0.0,0.0,2.025128205128205
0.058641039999201894,0.0,0.0,2.025128205128205
0.06402823200187413,0.0,0.0,2.025128205128205
0.06802143799723126,0.0,0.0,2.025128205128205
0.06985854599770391,0.0,0.0,2.025128205128205
0.07325961800233927,0.0,0.0,2.025128205128205
0.0734751080017304,0.0,0.0,2.025128205128205
0.07935637799528195,0.0,0.0,2.025128205128205
0.08432322299631778,0.5052747252747253,0.0,1.2458608058608058
0.09000835500046378,0.5052747252747253,0.0,1.2458608058608058
0.09028134199616034,0.5052747252747253,0.0,1.2458608058608058
0.09524519799742848,0.5052747252747253,0.0,1.2458608058608058
0.10543225099536357,0.5052747252747253,0.0,1.2458608058608058
0.11380743399786297,0.4279120879120879,0.0,0.5383150183150183
0.1210269020011765,0.10395604395604395,0.0,2.5682783882783884
0.12632529599795816,0.10395604395604395,0.0,2.5682783882783884
0.12787044799915748,0.10395604395604395,0.0,2.5682783882783884
0.13595688300119946,0.10395604395604395,0.0,2.5682783882783884
0.14298826199956238,0.10395604395604395,0.0,2.5682783882783884
0.15078599399566883,0.10395604395604395,0.0,2.5682783882783884
0.15647464899666375,0.10395604395604395,0.0,2.5682783882783884
0.16460049799934495,0.10395604395604395,0.0,2.5682783882783884
0.17150711300200783,0.10395604395604395,0.0,2.5682783882783884
0.17709938999905717,0.10395604395604395,0.0,2.5682783882783884
0.17720400899997912,0.734139194139194,0.0,2.565860805860806
0.18585846800124273,0.734139194139194,0.0,2.565860805860806
0.1940717149991542,0.734139194139194,0.0,2.565860805860806
0.20154146799904993,0.734139194139194,0.0,2.565860805860806
0.2085201279987814,0.27802197802197803,0.0,0.5769963369963369
0.21284446799836587,0.27802197802197803,0.0,0.5769963369963369
0.2144424979996984,0.27802197802197803,0.0,0.5769963369963369
0.22012561399606057,0.27802197802197803,0.0,0.5769963369963369
0.22863335599686252,0.27802197802197803,0.0,0.5769963369963369
0.2388165989978006,0.3167032967032967,0.0,2.5706959706959704
0.24509116500121308,0.33604395604395604,0.0,0.6261538461538461
0.2526202619992546,0.33604395604395604,0.0,0.6261538461538461
0.26058294600079535,0.33604395604395604,0.0,0.6261538461538461
0.2700535370022408,0.33604395604395604,0.0,0.6261538461538461
0.27674184699571924,0.33604395604395604,0.0,0.6261538461538461
0.2840294349953183,0.47465201465201456,0.0,1.6955311355311353
0.28823503899911884,0.47465201465201456,0.0,1.6955311355311353
0.28994670199608663,0.47465201465201456,0.0,1.6955311355311353
0.29545516800135374,0.47465201465201456,0.0,1.6955311355311353
0.2956722529997933,0.47465201465201456,0.0,1.6955311355311353
0.307769910999923,0.47465201465201456,0.0,1.6955311355311353
0.3196156769990921,0.9033699633699634,0.0,2.573919413919414
0.3268445630019414,0.9033699633699634,0.0,2.573919413919414
0.33528379700146616,0.9033699633699634,0.0,2.573919413919414
0.33993722799641546,0.7647619047619048,0.0,2.5513553113553114
0.34011468999960925,0.7647619047619048,0.0,2.5513553113553114
0.3485133959984523,0.7647619047619048,0.0,2.5513553113553114
0.35671050399832893,0.0,0.0,0.759120879120879
0.36171124399697874,0.0,0.0,0.759120879120879
0.36852578899561195,0.0,0.0,0.759120879120879
0.37494453899853397,0.28124542124542123,0.0,2.577142857142857
0.3811742379984935,0.6793406593406592,0.0,2.5682783882783884
0.38585513299767626,0.6793406593406592,0.0,2.5682783882783884
0.3946951319958316,0.6648351648351648,0.0,2.5706959706959704
0.40496668499690713,0.6648351648351648,0.0,2.5706959706959704
0.4134128099976806,0.6648351648351648,0.0,2.5706959706959704
0.4211035179978353,0.6648351648351648,0.0,2.5706959706959704
0.4279356299957726,0.6648351648351648,0.0,2.5706959706959704
0.4349059500018484,1.3272527472527473,0.0,2.561831501831502
0.4399341390017071,0.5358974358974359,0.0,1.7406593406593407
0.443626932996267,0.5358974358974359,0.0,1.7406593406593407
0.4527793949964689,0.5358974358974359,0.0,1.7406593406593407
0.45786809099809034,0.5358974358974359,0.0,1.7406593406593407
0.4602765189993079,0.31186813186813184,0.0,0.36666666666666664
0.4678358910023235,2.3458608058608057,0.0,2.5747252747252745
0.4719241869970574,0.09106227106227105,0.0,2.5723076923076924
0.47525480300100753,0.3811721611721612,0.0,2.5747252747252745
0.4761871869995957,0.3811721611721612,0.0,2.5747252747252745
0.477765809999255,0.3811721611721612,0.0,2.5747252747252745
0.4848393659995054,0.3811721611721612,0.0,2.5747252747252745
0.4889172190014506,0.3924542124542124,0.0,2.569084249084249
0.4921756559997448,0.3924542124542124,0.0,2.569084249084249
0.4931313310007681,0.3924542124542124,0.0,2.569084249084249
0.49480552599561634,0.3924542124542124,0.0,2.569084249084249
0.5009182259964291,0.3924542124542124,0.0,2.569084249084249
0.5043565369996941,0.3924542124542124,0.0,2.569084249084249
0.5046690939998371,0.3924542124542124,0.0,2.569084249084249
0.509666264995758,0.0,0.0,2.6690109890109888
0.5146153820023756,0.0,0.0,2.6690109890109888
0.5186139709985582,0.0,0.0,2.6690109890109888
0.5219308099985938,0.0,0.0,2.6690109890109888
0.5228625679956167,0.0,0.0,2.6690109890109888
0.5245742309998604,0.0,0.0,2.6690109890109888
0.5278269319969695,0.0,0.0,2.6690109890109888
0.5287534390008659,0.0,0.0,2.6690109890109888
0.5300153220014181,0.0,0.0,2.6690109890109888
0.5301976749979076,0.0,0.0,2.6690109890109888
0.5392692809982691,0.0,0.0,2.6690109890109888
0.5450932160019875,0.7244688644688644,0.0,2.5594139194139194
0.5526001729958807,0.7244688644688644,0.0,2.5594139194139194
0.5594104249976226,0.1539194139194139,0.0,2.5723076923076924
0.5664409289965988,0.7599267399267399,0.0,2.552967032967033
0.5706382610005676,0.7599267399267399,0.0,2.552967032967033
0.5724186799998279,0.18454212454212454,0.0,2.5674725274725274
0.5763477869986673,0.18454212454212454,0.0,2.5674725274725274
0.5831064270023489,0.3811721611721612,0.0,0.4424175824175824
0.5889719940023497,0.3811721611721612,0.0,0.4424175824175824
0.5935080529961851,0.3811721611721612,0.0,0.4424175824175824
0.6030027239976334,0.3811721611721612,0.0,0.4424175824175824
0.6116632849953021,0.3811721611721612,0.0,0.4424175824175824
0.6216525810013991,0.3811721611721612,0.0,0.4424175824175824
0.630381672999647,0.24417582417582417,0.0,0.32717948717948714
0.636943457997404,0.24417582417582417,0.0,0.32717948717948714
0.640646702995582,0.24417582417582417,0.0,0.32717948717948714
0.6474742329955916,0.24417582417582417,0.0,0.32717948717948714
0.6512562540010549,0.24417582417582417,0.0,0.32717948717948714
0.6561137749959016,0.24417582417582417,0.0,0.32717948717948714
0.6605367719967035,0.24417582417582417,0.0,0.32717948717948714
0.6613789859984536,0.24417582417582417,0.0,0.32717948717948714
0.6643252089997986,0.24417582417582417,0.0,0.32717948717948714
0.6664487149973866,0.24417582417582417,0.0,0.32717948717948714
0.6667546989992843,0.24417582417582417,0.0,0.32717948717948714
0.6721308830019552,0.24417582417582417,0.0,0.32717948717948714
0.674410359999456,0.3876190476190476,0.0,2.573113553113553
0.6746393899957184,0.3876190476190476,0.0,2.573113553113553
0.6815788710009656,0.3876190476190476,0.0,2.573113553113553
0.6851472060006927,0.5165567765567766,0.0,2.5706959706959704
0.6852815620004549,0.5165567765567766,0.0,2.5706959706959704
0.690638180996757,0.5165567765567766,0.0,2.5706959706959704
0.6930905979970703,0.5165567765567766,0.0,2.5706959706959704
0.6932376350014238,0.5165567765567766,0.0,2.5706959706959704
0.7020294539979659,0.5165567765567766,0.0,2.5706959706959704
0.7084575569970184,0.5165567765567766,0.0,2.5706959706959704
0.7135079809959279,0.5165567765567766,0.0,2.5706959706959704
0.7175687359995209,0.5165567765567766,0.0,2.5706959706959704
0.72114106999652,0.4166300366300366,0.0,1.1378754578754577
0.7318762669965508,0.4166300366300366,0.0,1.1378754578754577
0.7401601109959302,1.382051282051282,0.0,2.557802197802198
0.7479424249977455,0.776043956043956,0.0,2.5553846153846154
0.7563916889994289,0.15069597069597068,0.0,2.5715018315018314
0.7642610120019526,0.1942124542124542,0.0,2.5747252747252745
0.7714991440006997,0.1942124542124542,0.0,2.5747252747252745
0.7777609959957772,0.1942124542124542,0.0,2.5747252747252745
0.7846274549956433,0.1942124542124542,0.0,2.5747252747252745
0.7878339469971252,0.6922344322344323,0.0,2.569084249084249
0.7902148619978107,0.6922344322344323,0.0,2.569084249084249
0.7903033740003593,0.6922344322344323,0.0,2.569084249084249
0.796194928996556,0.6922344322344323,0.0,2.569084249084249
0.7963826279956265,0.6922344322344323,0.0,2.569084249084249
0.8026673049971578,0.6922344322344323,0.0,2.569084249084249
0.8066297089972068,0.6922344322344323,0.0,2.569084249084249
0.8111754619967542,0.7357509157509158,0.0,2.5505494505494504
0.8114832389983349,0.7357509157509158,0.0,2.5505494505494504
0.8221725139956106,0.7357509157509158,0.0,2.5505494505494504
0.8315576769964537,0.7357509157509158,0.0,2.5505494505494504
0.8390790220000781,0.39406593406593404,0.0,2.577948717948718
0.846921263000695,0.39406593406593404,0.0,2.577948717948718
0.8527027660020394,0.39406593406593404,0.0,2.577948717948718
0.857330639999418,0.39406593406593404,0.0,2.577948717948718
0.8574576309983968,0.39406593406593404,0.0,2.577948717948718
0.8641007199985324,0.39406593406593404,0.0,2.577948717948718
0.8673108980001416,0.39406593406593404,0.0,2.577948717948718
0.8682960539954365,0.39406593406593404,0.0,2.577948717948718
0.8692113220022293,0.39406593406593404,0.0,2.577948717948718
0.8709479059980367,0.39406593406593404,0.0,2.577948717948718
0.8741537769965362,0.39406593406593404,0.0,2.577948717948718
0.8757919569980004,0.39406593406593404,0.0,2.577948717948718
0.8820812609992572,0.39406593406593404,0.0,2.577948717948718
0.8856360279969522,0.2087179487179487,0.0,2.565860805860806
0.8857763990017702,0.2087179487179487,0.0,2.565860805860806
0.8915202689968282,0.2087179487179487,0.0,2.565860805860806
0.891654845996527,0.2087179487179487,0.0,2.565860805860806
0.8978330339959939,0.2087179487179487,0.0,2.565860805860806
0.9032573239965132,0.2087179487179487,0.0,2.565860805860806
0.9050444749955204,0.2087179487179487,0.0,2.565860805860806
0.9081989260012051,0.2087179487179487,0.0,2.565860805860806
0.9106356999982381,0.2087179487179487,0.0,2.565860805860806
0.9108080709993374,0.2087179487179487,0.0,2.565860805860806
0.9178639949968783,0.2087179487179487,0.0,2.565860805860806
0.9217941999959294,0.38278388278388276,0.0,1.187032967032967
0.9265340700003435,0.2328937728937729,0.0,2.577948717948718
0.9342863749989192,0.2328937728937729,0.0,2.577948717948718
0.9388810669988743,0.2957509157509157,0.0,2.577142857142857
0.9397477519960376,0.2957509157509157,0.0,2.577142857142857
0.9414672029961366,0.2957509157509157,0.0,2.577142857142857
0.9455834449981921,0.2957509157509157,0.0,2.577142857142857
0.9489908629984711,0.2957509157509157,0.0,2.577142857142857
0.9491945779955131,0.2957509157509157,0.0,2.577142857142857
0.958119203998649,0.2957509157509157,0.0,2.577142857142857
0.9682506499957526,0.2957509157509157,0.0,2.577142857142857
0.9744183219954721,0.2957509157509157,0.0,2.577142857142857
0.9783226930012461,0.4504761904761904,0.0,3.3
0.9854209190016263,0.4504761904761904,0.0,3.3
0.9894596049998654,0.8356776556776556,0.0,2.56989010989011
0.9926191299964557,0.8356776556776556,0.0,2.56989010989011
0.994205326998781,0.8356776556776556,0.0,2.56989010989011
1.000259284999629,0.8356776556776556,0.0,2.56989010989011
1.0036545129987644,0.8356776556776556,0.0,2.56989010989011
1.003943736999645,0.8211721611721612,0.0,2.569084249084249
1.009457656997256,1.3675457875457875,0.0,2.552967032967033
1.0102840440013097,0.06527472527472526,0.0,3.3
1.0120298319961876,0.06527472527472526,0.0,3.3
1.016307878002408,0.06527472527472526,0.0,3.3
1.017360927995469,0.06527472527472526,0.0,3.3
1.0175584530006745,0.06527472527472526,0.0,3.3
1.0229131870000856,0.06527472527472526,0.0,3.3
1.0252760009971098,0.06527472527472526,0.0,3.3
1.0339895520010032,0.06527472527472526,0.0,3.3
1.0382465360016795,0.46336996336996333,0.0,2.573919413919414
1.0398453090019757,0.5246153846153846,0.0,1.3667399267399267
1.0437220719977631,0.5246153846153846,0.0,1.3667399267399267
1.0503324429955683,0.5246153846153846,0.0,1.3667399267399267
1.054190288996324,0.2232234432234432,0.0,2.5706959706959704
1.059544162999373,0.38278388278388276,0.0,2.577948717948718
1.0619854129981832,0.4182417582417582,0.0,0.9863736263736262
1.0620893859959324,0.4182417582417582,0.0,0.9863736263736262
1.0686269979996723,0.4456410256410256,0.0,2.5723076923076924
1.0725699940012419,1.1693040293040293,0.0,2.5505494505494504
1.0780042049955227,1.1693040293040293,0.0,2.5505494505494504
1.0795049209991703,1.1693040293040293,0.0,2.5505494505494504
1.0850764639981207,1.1693040293040293,0.0,2.5505494505494504
1.0858862179957214,1.1693040293040293,0.0,2.5505494505494504
1.0875433569963207,1.1693040293040293,0.0,2.5505494505494504
1.092698348002159,1.1693040293040293,0.0,2.5505494505494504
1.0959598479967099,1.1693040293040293,0.0,2.5505494505494504
1.0969106389966328,0.386007326007326,0.0,0.7824908424908424
1.0985148600011598,0.386007326007326,0.0,0.7824908424908424
1.102260359999491,0.386007326007326,0.0,0.7824908424908424
1.1074065749999136,0.4198534798534798,0.0,2.569084249084249
1.11061045799579,0.07494505494505493,0.0,2.573113553113553
1.112351473995659,0.18937728937728937,0.0,2.573919413919414
1.1156179089957732,0.18937728937728937,0.0,2.573919413919414
1.1171939220002969,0.18937728937728937,0.0,2.573919413919414
1.121560576997581,0.18937728937728937,0.0,2.573919413919414
1.1232748239999637,0.18937728937728937,0.0,2.573919413919414
1.1270305540019763,0.18937728937728937,0.0,2.573919413919414
1.1318392300017877,0.18937728937728937,0.0,2.573919413919414
1.131937960999494,0.18937728937728937,0.0,2.573919413919414
1.1371649489956326,0.18937728937728937,0.0,2.573919413919414
1.1394355459997314,0.14908424908424908,0.0,2.573919413919414
1.1397702530011884,0.14908424908424908,0.0,2.573919413919414
1.1449510210004519,0.6052014652014651,0.0,2.5723076923076924
1.1489406929977122,0.6052014652014651,0.0,2.5723076923076924
1.152410588998464,0.047545787545787546,0.0,2.5586080586080584
1.1588688679985353,0.047545787545787546,0.0,2.5586080586080584
1.1648685359978117,0.47465201465201456,0.0,2.5344322344322343
1.169682380001177,0.47465201465201456,0.0,2.5344322344322343
1.1741383699991275,0.0,0.0,3.3
1.1757442859961884,0.0,0.0,3.3
1.1810691349965055,0.0,0.0,3.3
1.1828391019953415,0.01531135531135531,0.0,3.3
1.1857657879954786,0.01531135531135531,0.0,3.3
1.1881902530003572,0.0,0.0,3.2129670329670326
1.1971696670007077,0.0,0.0,3.2129670329670326
1.2022461769956863,0.0,0.0,3.2129670329670326
1.2068022780003957,0.0,0.0,3.2129670329670326
1.2070039169993834,0.0,0.0,3.2129670329670326
1.2121103589961422,0.0,0.0,3.2129670329670326
1.2155095019988948,0.0,0.0,3.2129670329670326
1.215814199000306,0.7454212454212454,0.0,2.5594139194139194
1.220576223997341,0.7454212454212454,0.0,2.5594139194139194
1.2207705959954183,0.7454212454212454,0.0,2.5594139194139194
1.2257010579996859,0.7454212454212454,0.0,2.5594139194139194
1.2293022929952713,0.7454212454212454,0.0,2.5594139194139194
1.2295188389980467,0.7454212454212454,0.0,2.5594139194139194
1.2347260370006552,0.7454212454212454,0.0,2.5594139194139194
1.2381593409954803,0.4504761904761904,0.0,2.472380952380952
1.2383721329970285,0.4504761904761904,0.0,2.472380952380952
1.2432001319975825,0.4504761904761904,0.0,2.472380952380952
1.2433415359992068,0.41340659340659336,0.0,2.569084249084249
1.2481182299961802,0.7115750915750916,0.0,2.56989010989011
1.2482714649959235,0.7115750915750916,0.0,2.56989010989011
1.253058713999053,0.7115750915750916,0.0,2.56989010989011
1.2532214909952017,0.7115750915750916,0.0,2.56989010989011
1.2579537909987266,0.7115750915750916,0.0,2.56989010989011
1.2581712780011003,0.7115750915750916,0.0,2.56989010989011
1.2629440599994268,0.04271062271062271,0.0,1.199120879120879
1.2631083960004617,0.70996336996337,0.0,2.5723076923076924
1.2679998599996907,0.70996336996337,0.0,2.5723076923076924
1.2727885989952483,0.70996336996337,0.0,2.5723076923076924
1.2730331130005652,0.70996336996337,0.0,2.5723076923076924
1.277733160997741,0.70996336996337,0.0,2.5723076923076924
1.2779851090017473,0.70996336996337,0.0,2.5723076923076924
1.2827141449961346,0.70996336996337,0.0,2.5723076923076924
1.2828643030006788,0.70996336996337,0.0,2.5723076923076924
1.2876430059986887,0.70996336996337,0.0,2.5723076923076924
1.2878212180003175,1.1886446886446886,0.0,2.5561904761904763
1.2925998649952817,1.1886446886446886,0.0,2.5561904761904763
1.2927700619984535,1.1886446886446886,0.0,2.5561904761904763
1.2975535829973524,1.1886446886446886,0.0,2.5561904761904763
1.3024924349956564,0.5181684981684981,0.0,1.506153846153846
1.3072416790018906,0.04593406593406593,0.0,0.917069597069597
1.307414039998548,0.04593406593406593,0.0,0.917069597069597
1.3121057429962093,0.04593406593406593,0.0,0.917069597069597
1.3122653710015584,0.04593406593406593,0.0,0.917069597069597
1.316953472996829,0.04593406593406593,0.0,0.917069597069597
1.3172164220013656,0.04593406593406593,0.0,0.917069597069597
1.3218674109957647,0.21999999999999997,0.0,0.18454212454212454
1.3220879229993443,0.6648351648351648,0.0,2.569084249084249
1.3268308999977307,0.6648351648351648,0.0,2.569084249084249
1.3270234279989381,0.0,0.0,2.5465201465201464
1.3319766549975611,0.0,0.0,2.5465201465201464
1.336091311997734,0.0,0.0,2.5465201465201464
1.3388499040011084,0.0,0.0,2.5465201465201464
1.342361338000046,0.0,0.0,2.5465201465201464
1.3425712489988655,0.0,0.0,2.5465201465201464
1.3474225280006067,0.0,0.0,2.5465201465201464
1.3522985390009126,0.0,0.0,2.5465201465201464
1.3524331989974598,0.13538461538461538,0.09186813186813186,2.5763369963369964
1.3572268249990884,0.13538461538461538,0.09186813186813186,2.5763369963369964
1.3573309849962243,0.13538461538461538,0.09186813186813186,2.5763369963369964
1.3621603869978571,0.13538461538461538,0.09186813186813186,2.5763369963369964
1.3622753250019741,0.42952380952380953,0.03062271062271062,2.5795604395604395
1.3670290750014829,0.42952380952380953,0.03062271062271062,2.5795604395604395
1.3672430129954591,0.42952380952380953,0.03062271062271062,2.5795604395604395
1.3720808790021692,0.0,0.06205128205128205,2.561025641025641
1.37219306499901,0.06849816849816849,0.0556043956043956,2.5747252747252745
1.376950804995431,0.06849816849816849,0.0556043956043956,2.5747252747252745
1.3771352889962145,0.36747252747252745,0.03304029304029304,0.8526007326007327
1.3820535659979214,0.36747252747252745,0.03304029304029304,0.8526007326007327
1.3867999939975562,0.36747252747252745,0.03304029304029304,0.8526007326007327
1.3870688089955365,0.36747252747252745,0.03304029304029304,0.8526007326007327
1.391907684999751,0.36747252747252745,0.03304029304029304,0.8526007326007327
1.3920445929979905,0.36747252747252745,0.03304029304029304,0.8526007326007327
1.3967586459984886,0.36747252747252745,0.03304029304029304,0.8526007326007327
1.3970678679979756,0.6527472527472526,0.05641025641025641,2.5594139194139194
1.4018168639959185,0.6527472527472526,0.05641025641025641,2.5594139194139194
1.402038521002396,0.6527472527472526,0.05641025641025641,2.5594139194139194
1.4068025939996005,0.6527472527472526,0.05641025641025641,2.5594139194139194
1.4070524019989534,0.0,0.044322344322344324,1.7148717948717949
1.4118310589983594,0.0,0.044322344322344324,1.7148717948717949
1.4119197889958741,0.0,0.044322344322344324,1.7148717948717949
1.4166573239999707,0.0,0.044322344322344324,1.7148717948717949
1.4167809409991605,0.5173626373626373,3.3,1.851062271062271
1.4217700980007066,0.5173626373626373,3.3,1.851062271062271
1.425805038998078,0.5173626373626373,3.3,1.851062271062271
1.42903374999878,0.5173626373626373,3.3,1.851062271062271
1.429914504995395,0.5173626373626373,3.3,1.851062271062271
1.4319677730018157,0.5173626373626373,3.3,1.851062271062271
1.4334838899958413,0.5173626373626373,3.3,1.851062271062271
1.4400963799998863,0.5173626373626373,3.3,1.851062271062271
1.4452393280007527,0.2796336996336996,0.0,0.2715750915750916
1.4480103499954566,0.2796336996336996,0.0,0.2715750915750916
1.4511319099983666,0.2796336996336996,0.0,0.2715750915750916
1.4527056770020863,0.2796336996336996,0.0,0.2715750915750916
1.4566000499980873,0.2796336996336996,0.0,0.2715750915750916
1.4604874790020403,0.2796336996336996,0.0,0.2715750915750916
1.4656892529965262,0.0,0.0,2.693186813186813
1.4691051920017344,0.0,0.0,2.693186813186813
1.469265230000019,0.0,0.0,2.693186813186813
1.4743645749986172,0.0,0.0,2.693186813186813
1.477453601997695,0.0,0.0,2.693186813186813
1.4796773580019362,0.0,0.0,2.693186813186813
1.4804677270003594,0.0,0.0,2.693186813186813
1.4820199699970544,0.0,0.0,2.693186813186813
1.4872303910015034,0.0,0.0,2.693186813186813
1.4902373340009945,0.0,0.0,2.693186813186813
1.4924744660020224,0.0,0.0,2.693186813186813
1.4927642319962615,0.0,0.0,2.693186813186813
1.49800199099991,0.0,0.0,2.693186813186813
1.5005618720024358,0.22967032967032966,0.0,0.3038095238095238
1.5051032240007771,0.22967032967032966,0.0,0.3038095238095238
1.5059372019968578,0.22967032967032966,0.0,0.3038095238095238
1.5082826090001618,0.22967032967032966,0.0,0.3038095238095238
1.5085165119962767,0.22967032967032966,0.0,0.3038095238095238
1.5132330709966482,0.22967032967032966,0.0,0.3038095238095238
1.5134384449993377,0.22967032967032966,0.0,0.3038095238095238
1.518034617001831,0.46498168498168496,0.0,2.5626373626373624
1.5188533379987348,0.5649084249084249,0.0,1.5085714285714285
1.5205017030020826,0.5649084249084249,0.0,1.5085714285714285
1.5242604349987232,0.5649084249084249,0.0,1.5085714285714285
1.5295194319987786,0.5649084249084249,0.0,1.5085714285714285
1.532668542000465,0.5649084249084249,0.0,1.5085714285714285
1.5349452689988539,0.5649084249084249,0.0,1.5085714285714285
1.5351754110015463,0.5649084249084249,0.0,1.5085714285714285
1.5405080179989454,0.5649084249084249,0.0,1.5085714285714285
1.5428091299982043,0.5649084249084249,0.0,1.5085714285714285
1.543097141002363,0.4472527472527472,0.0,2.569084249084249
1.5482815739960643,0.6680586080586081,0.0,2.5706959706959704
1.5513519879968953,0.6680586080586081,0.0,2.5706959706959704
1.55445669600158,0.6680586080586081,0.0,2.5706959706959704
1.5561629219955648,0.6680586080586081,0.0,2.5706959706959704
1.5598560009966604,0.3199267399267399,0.0,0.3352380952380952
1.565323825001542,0.3199267399267399,0.0,0.3352380952380952
1.5661479769987636,0.3199267399267399,0.0,0.3352380952380952
1.5677533580019372,0.3199267399267399,0.0,0.3352380952380952
1.5721711570004118,0.3199267399267399,0.0,0.3352380952380952
1.5729892750023282,0.3199267399267399,0.0,0.3352380952380952
1.5752115759969456,0.3199267399267399,0.0,0.3352380952380952
1.5754476950023673,0.3199267399267399,0.0,0.3352380952380952
1.5805969549983274,0.4891575091575091,0.0,1.2232967032967033
1.5842919959977735,0.4891575091575091,0.0,1.2232967032967033
1.589593133998278,0.4891575091575091,0.0,1.2232967032967033
1.591919655998936,0.0,0.0,3.2210256410256406
1.5921675669960678,0.11846153846153845,0.0,2.5747252747252745
1.597353042998293,0.11846153846153845,0.0,2.5747252747252745
1.6010087769973325,0.11846153846153845,0.0,2.5747252747252745
1.6064289419955458,0.1555311355311355,0.0,0.32556776556776557
1.6079809939983534,0.1555311355311355,0.0,0.32556776556776557
1.612480133997451,0.1555311355311355,0.0,0.32556776556776557
1.6126512650007498,0.1555311355311355,0.0,0.32556776556776557
1.6182101640006294,0.1555311355311355,0.0,0.32556776556776557
1.6191909629997099,0.28930402930402926,0.0,0.21274725274725276
1.6199846509989584,0.28930402930402926,0.0,0.21274725274725276
1.6222049499992863,0.28930402930402926,0.0,0.21274725274725276
1.6224304110000958,0.35216117216117215,0.0,2.569084249084249
1.6276368769977125,0.35216117216117215,0.0,2.569084249084249
1.630678898000042,0.35216117216117215,0.0,2.569084249084249
1.6339331959970878,0.35216117216117215,0.0,2.569084249084249
1.6349276729961275,0.35216117216117215,0.0,2.569084249084249
1.6365431049998733,0.35216117216117215,0.0,2.569084249084249
1.6395209929978591,0.35216117216117215,0.0,2.569084249084249
1.6427199300014763,0.35216117216117215,0.0,2.569084249084249
1.6443040689991903,0.35216117216117215,0.0,2.569084249084249
1.6481001540014404,0.35216117216117215,0.0,2.569084249084249
1.6539754839977832,0.35216117216117215,0.0,2.569084249084249
1.6540694610011997,0.35216117216117215,0.0,2.569084249084249
1.6586272819986334,0.35216117216117215,0.0,2.569084249084249
1.6595408540015342,0.35216117216117215,0.0,2.569084249084249
1.6611311939996085,0.35216117216117215,0.0,2.569084249084249
1.6649798669968732,0.35216117216117215,0.0,2.569084249084249
1.6703306589988642,0.35216117216117215,0.0,2.569084249084249
1.6719058269954985,0.35216117216117215,0.0,2.569084249084249
1.6763770999968983,0.35216117216117215,0.0,2.569084249084249
1.6772052079977584,0.8614652014652014,0.0,2.5481318681318683
1.6789735810016282,0.8614652014652014,0.0,2.5481318681318683
1.6827909990024636,0.8614652014652014,0.0,2.5481318681318683
1.6866246159988805,0.8614652014652014,0.0,2.5481318681318683
1.6912662850008928,0.8614652014652014,0.0,2.5481318681318683
1.6915925970024546,0.1942124542124542,0.0,2.553772893772894
1.6968805399956182,0.1942124542124542,0.0,2.553772893772894
1.700115398001799,0.1942124542124542,0.0,2.553772893772894
1.70095611600118,0.1942124542124542,0.0,2.553772893772894
1.7025635760001023,0.1942124542124542,0.0,2.553772893772894
1.7063023090013303,0.1942124542124542,0.0,2.553772893772894
1.7114792749998742,0.1942124542124542,0.0,2.553772893772894
1.7152597589956713,0.17487179487179486,0.0,2.5787545787545785
1.720397678000154,0.17487179487179486,0.0,2.5787545787545785
1.724143670995545,0.17487179487179486,0.0,2.5787545787545785
1.7294662589993095,0.17487179487179486,0.0,2.5787545787545785
1.733433697001601,0.2328937728937729,0.0,2.569084249084249
1.7375877329977811,0.9646153846153847,0.0,2.5602197802197804
1.7403977279973333,0.9646153846153847,0.0,2.5602197802197804
1.7438370699965162,0.9646153846153847,0.0,2.5602197802197804
1.7440401009953348,0.9646153846153847,0.0,2.5602197802197804
1.7493671689953771,0.9646153846153847,0.0,2.5602197802197804
1.7523811169958208,0.03465201465201465,0.0,2.5441025641025643
1.7545278990000952,0.03465201465201465,0.0,2.5441025641025643
1.7553041849969304,0.03465201465201465,0.0,2.5441025641025643
1.7573645719967317,0.03465201465201465,0.0,2.5441025641025643
1.7581934310001088,0.03465201465201465,0.0,2.5441025641025643
1.7602514039972448,0.03465201465201465,0.0,2.5441025641025643
1.7616946269990876,0.03465201465201465,0.0,2.5441025641025643
1.766918209999858,0.805054945054945,0.0,2.56989010989011
1.7699267299976782,0.805054945054945,0.0,2.56989010989011
1.7728913070022827,0.805054945054945,0.0,2.56989010989011
1.7758929030023864,0.805054945054945,0.0,2.56989010989011
1.778171822996228,0.805054945054945,0.0,2.56989010989011
1.7784727460020804,0.805054945054945,0.0,2.56989010989011
1.7835985279962188,0.805054945054945,0.0,2.56989010989011
1.7875289099974907,0.5713553113553113,0.0,2.569084249084249
1.7914238090015715,0.5713553113553113,0.0,2.569084249084249
1.7959604040006525,0.26996336996336995,0.0,2.556996336996337
1.7961984369976562,0.26996336996336995,0.0,2.556996336996337
1.8015004909975687,0.26996336996336995,0.0,2.556996336996337
1.803963696998835,0.5375091575091575,0.0,2.5723076923076924
1.804172263997316,0.5375091575091575,0.0,2.5723076923076924
1.8095962110019173,0.5375091575091575,0.0,2.5723076923076924
1.810663238997222,0.5375091575091575,0.0,2.5723076923076924
1.812415645996225,0.5375091575091575,0.0,2.5723076923076924
1.8147319310010062,0.5375091575091575,0.0,2.5723076923076924
1.815539789997274,0.5375091575091575,0.0,2.5723076923076924
1.8171127379973768,0.5375091575091575,0.0,2.5723076923076924
1.8217551630004891,0.5375091575091575,0.0,2.5723076923076924
1.821882755997649,0.12974358974358974,0.0,0.6043956043956044
1.8271358630008763,0.12974358974358974,0.0,0.6043956043956044
1.829378848997294,0.12974358974358974,0.0,0.6043956043956044
1.8296031639983994,0.12974358974358974,0.0,0.6043956043956044
1.8348408079982619,0.12974358974358974,0.0,0.6043956043956044
1.8376429919953807,0.5149450549450549,0.0,1.2877655677655677
1.8419809909973992,0.5149450549450549,0.0,1.2877655677655677
1.8434479650022695,0.5149450549450549,0.0,1.2877655677655677
1.8482288689992856,0.5149450549450549,0.0,1.2877655677655677
1.848341288001393,0.5149450549450549,0.0,1.2877655677655677
1.853163523999683,0.5149450549450549,0.0,1.2877655677655677
1.8532892799994443,0.5149450549450549,0.0,1.2877655677655677
1.8580332749988884,0.5149450549450549,0.0,1.2877655677655677
1.8582435150019592,0.5149450549450549,0.0,1.2877655677655677
1.8631188459985424,0.5149450549450549,0.0,1.2877655677655677
1.8632000939978752,0.5149450549450549,0.0,1.2877655677655677
1.8681296259965166,0.5149450549450549,0.0,1.2877655677655677
1.8729988659979426,0.5149450549450549,0.0,1.2877655677655677
1.8730916639979114,0.39406593406593404,0.0,2.5723076923076924
1.8779309039964573,0.39406593406593404,0.0,2.5723076923076924
1.8781042069967953,0.4126007326007326,0.0,0.9525274725274724
1.882810064998921,0.4126007326007326,0.0,0.9525274725274724
1.8830087079986697,0.4126007326007326,0.0,0.9525274725274724
1.8882851829985157,0.4126007326007326,0.0,0.9525274725274724
1.8907488879995071,0.4126007326007326,0.0,0.9525274725274724
1.896028873998148,0.4126007326007326,0.0,0.9525274725274724
1.8993720500002382,0.3747252747252747,0.0,0.3795604395604395
1.899623220997455,0.3747252747252747,0.0,0.3795604395604395
1.9049539909974555,0.3747252747252747,0.0,0.3795604395604395
1.9080663659988204,0.4037362637362637,0.0,2.5706959706959704
1.909124817000702,0.4037362637362637,0.0,2.5706959706959704
1.9099578379973536,0.4037362637362637,0.0,2.5706959706959704
1.9116085579953506,0.4037362637362637,0.0,2.5706959706959704
1.9155754089952097,0.4037362637362637,0.0,2.5706959706959704
1.9194844029989326,0.4037362637362637,0.0,2.5706959706959704
1.9233784550015116,0.4037362637362637,0.0,2.5706959706959704
1.9278391619955073,0.4037362637362637,0.0,2.5706959706959704
1.9286499099980574,0.2651282051282051,0.0,3.3
1.9302126059992588,0.2651282051282051,0.0,3.3
1.9348884290011483,0.2651282051282051,0.0,3.3
1.935059392999392,0.49399267399267394,0.0,2.5747252747252745
1.9398567480020574,0.49399267399267394,0.0,2.5747252747252745
1.9400027509982465,0.2651282051282051,0.0,0.2594871794871795
1.9448279439966427,0.2651282051282051,0.0,0.2594871794871795
1.9495773849994293,0.2651282051282051,0.0,0.2594871794871795
1.9497588820013334,0.2651282051282051,0.0,0.2594871794871795
1.9545732039987342,0.2651282051282051,0.0,0.2594871794871795
1.959510489999957,0.2651282051282051,0.0,0.2594871794871795
1.9643445319961756,0.0,0.0,2.307179487179487
1.9644567489958717,0.0,0.0,2.307179487179487
1.9695203349983785,0.0,0.0,2.307179487179487
1.9736495350007317,0.0,0.0,2.307179487179487
1.9771053079966805,0.0,0.0,2.307179487179487
1.9773368230016786,0.0,0.0,2.307179487179487
1.9823016149966861,0.0,0.0,2.307179487179487
1.9857217329990817,0.13457875457875457,0.0,2.5706959706959704
1.9865199679989018,0.13457875457875457,0.0,2.5706959706959704
1.988631266001903,0.13457875457875457,0.0,2.5706959706959704
1.9900868810000247,0.13457875457875457,0.0,2.5706959706959704
1.9948299349998706,0.13457875457875457,0.0,2.5706959706959704
1.995058111002436,0.13457875457875457,0.0,2.5706959706959704
1.999823584999831,0.13457875457875457,0.0,2.5706959706959704
2.0000131119959406,0.13457875457875457,0.0,2.5706959706959704
2.005382625000493,0.13457875457875457,0.0,2.5706959706959704
2.0070442159994855,0.0,0.0,1.527912087912088
2.0108861469998374,0.0,0.0,2.0984615384615384
2.0147093319974374,0.0,0.0,2.0984615384615384
2.0186355440018815,0.0,0.0,2.0984615384615384
2.021889805997489,0.0,0.0,2.0984615384615384
2.023437826996087,0.0,0.0,2.569084249084249
2.0279537179958425,0.0,0.0,2.569084249084249
2.0282191389997024,0.0,0.0,2.569084249084249
2.0337493150000228,0.0,0.0,2.569084249084249
2.0345405690022744,0.0,0.0,2.569084249084249
2.0360493159969337,0.0,0.0,2.569084249084249
2.040368337999098,0.0,0.0,2.569084249084249
2.0412724100024207,0.0,0.0,2.569084249084249
2.0427981929969974,0.0,0.0,2.569084249084249
2.047215291997418,0.0,0.0,2.569084249084249
2.048089917996549,0.0,0.0,2.569084249084249
2.049620364996372,0.0,0.0,2.569084249084249
2.053383036000014,0.0,0.0,2.569084249084249
2.058725148999656,0.0,0.0,2.569084249084249
2.0618417379955645,0.45692307692307693,0.0,1.1580219780219778
2.0634253399985027,0.45692307692307693,0.0,1.1580219780219778
2.067110245996446,0.45692307692307693,0.0,1.1580219780219778
2.067232438996143,0.45692307692307693,0.0,1.1580219780219778
2.072957532000146,0.45692307692307693,0.0,1.1580219780219778
2.073147244998836,0.45692307692307693,0.0,1.1580219780219778
2.078350424999371,0.27802197802197803,0.0,2.5715018315018314
2.0815062199981185,0.27802197802197803,0.0,2.5715018315018314
2.0831642109988024,0.27802197802197803,0.0,2.5715018315018314
2.0869378080024035,0.27802197802197803,0.0,2.5715018315018314
2.0923581789975287,0.27802197802197803,0.0,2.5715018315018314
2.093987622996792,0.27802197802197803,0.0,2.5715018315018314
2.0984233830022276,0.27802197802197803,0.0,2.5715018315018314
2.0992568180008675,0.27802197802197803,0.0,2.5715018315018314
2.100836375000654,0.27802197802197803,0.0,2.5715018315018314
2.105363024995313,0.8324542124542124,0.0,2.569084249084249
2.106217137996282,0.8324542124542124,0.0,2.569084249084249
2.107827535000979,0.8324542124542124,0.0,2.569084249084249
2.1123506689982605,0.8324542124542124,0.0,2.569084249084249
2.113211803996819,0.8324542124542124,0.0,2.569084249084249
2.1155566359957447,0.8324542124542124,0.0,2.569084249084249
2.115778986000805,0.8324542124542124,0.0,2.569084249084249
2.1210567449961673,0.8324542124542124,0.0,2.569084249084249
2.123308754999016,0.8324542124542124,0.0,2.569084249084249
2.123545811002259,0.6342124542124542,0.0,2.573113553113553
2.128754174002097,0.6342124542124542,0.0,2.573113553113553
2.1317880659989896,0.6342124542124542,0.0,2.573113553113553
2.135089170995343,0.6342124542124542,0.0,2.573113553113553
2.1359010340020177,0.6342124542124542,0.0,2.573113553113553
2.137535781999759,0.6342124542124542,0.0,2.573113553113553
2.1414117999956943,0.6342124542124542,0.0,2.573113553113553
2.1459308650009916,0.6342124542124542,0.0,2.573113553113553
2.146788118996483,0.6342124542124542,0.0,2.573113553113553
2.148426990999724,0.6342124542124542,0.0,2.573113553113553
2.152414317999501,0.17809523809523808,0.0,2.5763369963369964
2.1561825559983845,0.17809523809523808,0.0,2.5763369963369964
2.1613896199996816,0.17809523809523808,0.0,2.5763369963369964
2.1652560599977733,0.12007326007326008,0.0,0.78007326007326
2.1696963630020036,0.6745054945054945,0.0,2.5706959706959704
2.1705843599993386,0.6745054945054945,0.0,2.5706959706959704
2.172393602995726,0.6745054945054945,0.0,2.5706959706959704
2.1754112810012884,0.6745054945054945,0.0,2.5706959706959704
2.1777558870016946,0.5713553113553113,0.0,1.7890109890109889
2.178042223000375,0.5713553113553113,0.0,1.7890109890109889
2.183449832999031,0.5713553113553113,0.0,1.7890109890109889
2.1852299140009563,0.5713553113553113,0.0,1.7890109890109889
2.188307327000075,0.5713553113553113,0.0,1.7890109890109889
2.1906144109962042,0.5713553113553113,0.0,1.7890109890109889
2.190876250999281,0.052380952380952375,0.0,2.573919413919414
2.1962014789969544,0.052380952380952375,0.0,2.573919413919414
2.197750779996568,0.052380952380952375,0.0,2.573919413919414
2.2021781180010294,0.052380952380952375,0.0,2.573919413919414
2.2030264179993537,0.052380952380952375,0.0,2.573919413919414
2.2045748789969366,0.052380952380952375,0.0,2.573919413919414
2.2089230150013464,0.052380952380952375,0.0,2.573919413919414
2.210442195995711,0.052380952380952375,0.0,2.573919413919414
2.214181807001296,0.052380952380952375,0.0,2.573919413919414
2.2193723839955055,0.052380952380952375,0.0,2.573919413919414
2.222589416996925,0.052380952380952375,0.0,2.573919413919414
2.2241198279953096,0.0975091575091575,0.0,2.56989010989011
2.228739587997552,0.0975091575091575,0.0,2.56989010989011
2.229019600999891,0.0975091575091575,0.0,2.56989010989011
2.23467317000177,0.0975091575091575,0.0,2.56989010989011
2.23484297899995,0.14747252747252745,0.0,2.573113553113553
2.2395811850001337,0.14747252747252745,0.0,2.573113553113553
2.2396758379982202,0.3763369963369963,0.0,0.2482051282051282
2.2445528839962208,0.3763369963369963,0.0,0.2482051282051282
2.244629269996949,0.3763369963369963,0.0,0.2482051282051282
2.2494440489972476,0.3763369963369963,0.0,0.2482051282051282
2.2495373759957147,0.0,0.0,2.573919413919414
2.254315708996728,0.0,0.0,2.573919413919414
2.259178847001749,0.0,0.0,2.573919413919414
2.2593542739996337,0.0,0.0,2.573919413919414
2.264051236001251,0.0,0.0,2.573919413919414
2.264129363000393,0.0,0.0,2.573919413919414
2.269029793002119,0.0,0.0,2.573919413919414
2.2737942120002117,0.0,0.0,2.561831501831502
2.278625403996557,0.28446886446886444,0.0,2.5755311355311354
2.2787656329965102,0.28446886446886444,0.0,2.5755311355311354
2.2834829700004775,0.28446886446886444,0.0,2.5755311355311354
2.283645930001512,0.28446886446886444,0.0,2.5755311355311354
2.288503292002133,0.28446886446886444,0.0,2.5755311355311354
2.2885872249971726,0.28446886446886444,0.0,2.5755311355311354
2.293213087999902,0.28446886446886444,0.0,2.5755311355311354
2.293528766000236,0.1829304029304029,0.0,2.573113553113553
2.298212688001513,0.1829304029304029,0.0,2.573113553113553
2.298467841996171,0.1829304029304029,0.0,2.573113553113553
2.3031375169957755,0.1829304029304029,0.0,2.573113553113553
2.3034217469976284,0.13457875457875457,0.0,2.56989010989011
2.308134097002039,0.13457875457875457,0.0,2.56989010989011
2.308295110000472,0.13457875457875457,0.0,2.56989010989011
2.3129450129999896,0.13457875457875457,0.0,2.56989010989011
2.3132369680024567,0.13457875457875457,0.0,2.56989010989011
2.317911792000814,0.13457875457875457,0.0,2.56989010989011
2.3181926249963,0.13457875457875457,0.0,2.56989010989011
2.3228688730014255,0.13457875457875457,0.0,2.56989010989011
2.3230694199955906,2.1024908424908424,0.0,2.573919413919414
2.327769981995516,2.1024908424908424,0.0,2.573919413919414
2.328563098999439,2.1024908424908424,0.0,2.573919413919414
2.330088385999261,2.1024908424908424,0.0,2.573919413919414
2.335120386997005,2.1024908424908424,0.0,2.573919413919414
2.3398766329992213,2.1024908424908424,0.0,2.573919413919414
2.3401197509956546,2.1024908424908424,0.0,2.573919413919414
2.344855801995436,2.1024908424908424,0.0,2.573919413919414
2.3450657299981685,0.356996336996337,0.0,2.56989010989011
2.349812585998734,0.356996336996337,0.0,2.56989010989011
2.3500176219968125,0.356996336996337,0.0,2.56989010989011
2.3547342120000394,0.13457875457875457,0.0,2.561831501831502
2.3548993860022165,0.13457875457875457,0.0,2.561831501831502
2.3596890510016237,0.13457875457875457,0.0,2.561831501831502
2.359820687001047,0.13457875457875457,0.0,2.561831501831502
2.3652223690005485,0.13457875457875457,0.0,2.561831501831502
2.3662445149966516,0.13457875457875457,0.0,2.561831501831502
2.3670523460023105,0.13457875457875457,0.0,2.561831501831502
2.368749781999213,0.0,0.0,2.5505494505494504
2.372479019999446,0.007252747252747252,0.0,2.573113553113553
2.376218826000695,0.08139194139194139,0.0,2.5723076923076924
2.3763274680022732,0.08139194139194139,0.0,2.5723076923076924
2.381622795997828,0.08139194139194139,0.0,2.5723076923076924
2.3841474919972825,0.08139194139194139,0.0,2.5723076923076924
2.3895535549963824,0.08139194139194139,0.0,2.5723076923076924
2.3918405980002717,0.08139194139194139,0.0,2.5723076923076924
2.392662737001956,0.08139194139194139,0.0,2.5723076923076924
2.3942417569996906,0.08139194139194139,0.0,2.5723076923076924
2.398596462000569,0.3457142857142857,0.0,2.5715018315018314
2.4001944799965713,0.3457142857142857,0.0,2.5715018315018314
2.4039187469970784,0.3457142857142857,0.0,2.5715018315018314
2.4040264829964144,1.2063736263736262,0.0,2.556996336996337
2.408774342002289,1.2063736263736262,0.0,2.556996336996337
2.40952102799929,0.1797069597069597,0.0,2.573113553113553
2.4115868439985206,0.1797069597069597,0.0,2.573113553113553
2.4124723579952843,0.1797069597069597,0.0,2.573113553113553
2.414586482998857,0.1797069597069597,0.0,2.573113553113553
2.4160280209980556,0.1797069597069597,0.0,2.573113553113553
2.4202341650016024,0.1797069597069597,0.0,2.573113553113553
2.42243558899645,0.1797069597069597,0.0,2.573113553113553
2.423851736995857,0.1797069597069597,0.0,2.573113553113553
2.4287790849994053,0.1797069597069597,0.0,2.573113553113553
2.4344059089999064,0.0,0.0,2.5465201465201464
2.4345184299963876,0.0,0.0,2.5465201465201464
2.439720550995844,0.0,0.0,2.5465201465201464
2.442639381995832,0.0,0.0,2.5465201465201464
2.4455876009960775,0.0,0.0,2.5465201465201464
2.448640834998514,0.0,0.0,2.5465201465201464
2.4523334959958447,0.0,0.0,2.5465201465201464
2.457562956995389,0.0,0.0,2.5465201465201464
2.4599034569982905,0.0,0.0,2.5465201465201464
2.4601128450012766,0.0,0.0,2.5465201465201464
2.465347279001435,0.0,0.0,2.5465201465201464
2.467664611998771,0.0,0.0,2.5465201465201464
2.467898057999264,0.0,0.0,2.5465201465201464
2.4733182630006922,0.0,0.0,2.5465201465201464
2.4757039960022666,0.0,0.0,2.5465201465201464
2.4758539159956854,0.8308424908424907,0.0,2.5594139194139194
2.48108300199965,0.8308424908424907,0.0,2.5594139194139194
2.4841685389983468,0.6164835164835165,0.0,2.573113553113553
2.48641992299963,0.6164835164835165,0.0,2.573113553113553
2.4866700009952183,0.0,0.0,2.5481318681318683
2.492115230001218,0.0,0.0,2.5481318681318683
2.4931366629971308,0.0,0.0,2.5481318681318683
2.4939861239981838,0.0,0.0,2.5481318681318683
2.4962105410013464,0.0,0.0,2.5481318681318683
2.4963657229964156,0.0,0.0,2.5481318681318683
2.5019162480020896,0.0,0.0,2.5481318681318683
2.502161784999771,0.0,0.0,2.5481318681318683
2.5074467070007813,0.0,0.0,2.5481318681318683
2.5098624079982983,0.0,0.0,2.5481318681318683
2.509970343002351,0.0,0.0,2.5481318681318683
2.515084881000803,0.0,0.0,2.5481318681318683
2.518230704998132,0.0,0.0,2.5481318681318683
2.5190919679953367,0.0024175824175824176,0.0,1.5907692307692307
2.521371408998675,0.0024175824175824176,0.0,1.5907692307692307
2.5215363949973835,0.0024175824175824176,0.0,1.5907692307692307
2.5262867619967437,0.0024175824175824176,0.0,1.5907692307692307
2.526358180999523,0.0024175824175824176,0.0,1.5907692307692307
2.531063244998222,0.0024175824175824176,0.0,1.5907692307692307
2.53122758599784,0.0024175824175824176,0.0,1.5907692307692307
2.5361732550009037,0.0024175824175824176,0.0,1.5907692307692307
2.5403350409978884,0.0024175824175824176,0.0,1.5907692307692307
2.542555585001537,0.0024175824175824176,0.0,1.5907692307692307
2.5433215480006766,0.0024175824175824176,0.0,1.5907692307692307
2.5454204589987057,0.0024175824175824176,0.0,1.5907692307692307
2.5468182589975186,0.0024175824175824176,0.0,1.5907692307692307
2.5517634029965848,0.0024175824175824176,0.0,1.5907692307692307
2.556604397999763,0.0024175824175824176,0.0,1.5907692307692307
2.5613899570016656,0.27318681318681315,0.0,0.22725274725274724
2.561547259996587,2.0315750915750916,0.0,2.5755311355311354
2.5662784449959872,2.0315750915750916,0.0,2.5755311355311354
2.5665065970024443,2.0315750915750916,0.0,2.5755311355311354
2.571175448996655,2.0315750915750916,0.0,2.5755311355311354
2.571940003996133,2.0315750915750916,0.0,2.5755311355311354
2.574071359995287,2.0315750915750916,0.0,2.5755311355311354
2.5755069730003015,2.0315750915750916,0.0,2.5755311355311354
2.580679868995503,2.0315750915750916,0.0,2.5755311355311354
2.5844009540014667,0.1265201465201465,0.0,3.3
2.5889192019967595,0.1265201465201465,0.0,3.3
2.589789509998809,0.1265201465201465,0.0,3.3
2.592009980995499,0.1265201465201465,0.0,3.3
2.5922450969956117,0.1265201465201465,0.0,3.3
2.597412766001071,0.1265201465201465,0.0,3.3
2.601199185999576,0.1265201465201465,0.0,3.3
2.605753518997517,0.1265201465201465,0.0,3.3
2.606656876996567,0.1265201465201465,0.0,3.3
2.6082008259982103,0.1265201465201465,0.0,3.3
2.612722304998897,0.1265201465201465,0.0,3.3
2.6135869739955524,0.1265201465201465,0.0,3.3
2.615110493999964,0.1265201465201465,0.0,3.3
2.619705402998079,0.1265201465201465,0.0,3.3
2.620007404999342,0.1265201465201465,0.0,3.3
2.625332110997988,0.1265201465201465,0.0,3.3
2.626917205998325,0.1265201465201465,0.0,3.3
2.6314014960007626,0.1265201465201465,0.0,3.3
2.6316542479980853,0.1265201465201465,0.0,3.3
2.6367804010005784,0.1265201465201465,0.0,3.3
2.6415996630021255,0.1265201465201465,0.0,3.3
2.6470074269964243,0.1265201465201465,0.0,3.3
2.6486385259995586,0.1265201465201465,0.0,3.3
2.652919606996875,0.1265201465201465,0.0,3.3
2.655028258996026,0.1265201465201465,0.0,3.3
2.65643237799668,0.1265201465201465,0.0,3.3
2.6605554260022473,0.1265201465201465,0.0,3.3
2.6639763029961614,0.1265201465201465,0.0,3.3
2.664214283002366,0.1265201465201465,0.0,3.3
2.669088942995586,0.1265201465201465,0.0,3.3
2.6691715589986416,0.1265201465201465,0.0,3.3
2.6739404539985117,0.1265201465201465,0.0,3.3
2.6741188660016633,0.1265201465201465,0.0,3.3
2.680039147999196,0.1265201465201465,0.0,3.3
2.6845200690004276,0.1265201465201465,0.0,3.3
2.684824251999089,0.1265201465201465,0.0,3.3
2.6899515859986423,0.1265201465201465,0.0,3.3
2.693681254000694,0.1265201465201465,0.0,3.3
2.6988849449990084,0.1265201465201465,0.0,3.3
2.7025758780000615,0.1265201465201465,0.0,3.3
2.707076649996452,0.1265201465201465,0.0,3.3
2.7079508370006806,0.1265201465201465,0.0,3.3
2.710272955999244,0.0846153846153846,0.0,2.561025641025641
2.710444855001697,0.0846153846153846,0.0,2.561025641025641
2.715668058001029,0.0846153846153846,0.0,2.561025641025641
2.7187290389992995,0.5423443223443223,0.0,3.3
2.721789948998776,0.5423443223443223,0.0,3.3
2.724175725998066,0.7599267399267399,0.0,2.569084249084249
2.724327372998232,0.7599267399267399,0.0,2.569084249084249
2.730056925000099,0.7599267399267399,0.0,2.569084249084249
2.7302203009967343,0.7599267399267399,0.0,2.569084249084249
2.7355406019996735,0.7599267399267399,0.0,2.569084249084249
2.737903634995746,0.7599267399267399,0.0,2.569084249084249
2.7381380680017173,0.28769230769230764,0.0,0.28205128205128205
2.7433181250016787,0.07978021978021978,0.0,0.8606593406593407
2.746377133000351,0.07978021978021978,0.0,0.8606593406593407
2.748699427997053,0.008864468864468863,0.0,2.54974358974359
2.7488828060013475,0.008864468864468863,0.0,2.54974358974359
2.7540604699970572,0.008864468864468863,0.0,2.54974358974359
2.757241403996886,0.008864468864468863,0.0,2.54974358974359
2.7581219189960393,0.008864468864468863,0.0,2.54974358974359
2.7596974879998015,0.008864468864468863,0.0,2.54974358974359
2.7641100109976833,0.008864468864468863,0.0,2.54974358974359
2.7650029380019987,0.008864468864468863,0.0,2.54974358974359
2.766585108001891,0.008864468864468863,0.0,2.54974358974359
2.7703804439952364,0.0,0.0,2.5424908424908423
2.778733266997733,0.0,0.0,2.5424908424908423
2.7825071740007843,0.0,0.0,2.5424908424908423
2.7862479260002146,0.0,0.0,2.5424908424908423
2.7915301760003786,0.0,0.0,2.5424908424908423
2.7937791789954645,0.0,0.0,2.5424908424908423
2.7945938810007647,0.0,0.0,2.5424908424908423
2.7961210349967587,0.0,0.0,2.5424908424908423
2.799960389995249,0.0,0.0,2.5424908424908423
2.803668002001359,0.0,0.0,2.5424908424908423
2.803758392998134,0.0,0.0,2.5424908424908423
2.808933533997333,1.373992673992674,0.0,2.553772893772894
2.81262092399993,1.373992673992674,0.0,2.553772893772894
2.817877777000831,0.2925274725274725,0.0,2.5674725274725274
2.8208679829986067,0.2925274725274725,0.0,2.5674725274725274
2.8233357229983085,0.2925274725274725,0.0,2.5674725274725274
2.823615476998384,0.49399267399267394,0.0,2.5723076923076924
2.8284122979966924,0.49399267399267394,0.0,2.5723076923076924
2.833951045999129,0.49399267399267394,0.0,2.5723076923076924
2.8361424429967883,0.49399267399267394,0.0,2.5723076923076924
2.836362210000516,0.49399267399267394,0.0,2.5723076923076924
2.8468599479965633,0.2328937728937729,0.0,0.20307692307692307
2.857053268002346,0.0,0.0,1.7253479853479854
2.867429625999648,0.1571428571428571,0.0,2.561025641025641
2.8740600070013897,0.1571428571428571,0.0,2.561025641025641
2.879447754996363,0.1571428571428571,0.0,2.561025641025641
2.8798743930019555,0.1571428571428571,0.0,2.561025641025641
2.887456664000638,0.1571428571428571,0.0,2.561025641025641
2.891967431998637,0.1571428571428571,0.0,2.561025641025641
2.8928454979977687,0.1571428571428571,0.0,2.561025641025641
2.895151848999376,0.1571428571428571,0.0,2.561025641025641
2.8955592069978593,0.1571428571428571,0.0,2.561025641025641
2.9008361259984667,0.1571428571428571,0.0,2.561025641025641
2.9024773450000794,0.1571428571428571,0.0,2.561025641025641
2.905846114997985,0.1571428571428571,0.0,2.561025641025641
2.9068475120002404,0.1571428571428571,0.0,2.561025641025641
2.907743711999501,0.1571428571428571,0.0,2.561025641025641
2.9089463779964717,0.1571428571428571,0.0,2.561025641025641
2.9092121880021296,0.1571428571428571,0.0,2.561025641025641
2.916427999996813,0.1571428571428571,0.0,2.561025641025641
2.920242303996929,0.1571428571428571,0.0,2.561025641025641
2.924740579997888,0.1571428571428571,0.0,2.561025641025641
2.9264440319966525,0.1571428571428571,0.0,2.561025641025641
2.9306252829992445,0.1571428571428571,0.0,2.561025641025641
2.933774528995855,0.1571428571428571,0.0,2.561025641025641
2.9345958909980254,0.1571428571428571,0.0,2.561025641025641
2.9361464219982736,0.1571428571428571,0.0,2.561025641025641
2.9407524919952266,0.1571428571428571,0.0,2.561025641025641
2.9410143040004186,0.1571428571428571,0.0,2.561025641025641
2.9483838849992026,0.1571428571428571,0.0,2.561025641025641
2.952753218996804,0.1571428571428571,0.0,2.561025641025641
2.9536401229997864,0.3231501831501831,0.0,2.5787545787545785
2.9552744219981832,0.3231501831501831,0.0,2.5787545787545785
2.9593682429986075,0.3231501831501831,0.0,2.5787545787545785
2.964686002000235,0.2328937728937729,0.0,0.18534798534798536
2.9662876750007854,0.6551648351648351,0.0,2.5706959706959704
2.9697693939961027,0.6551648351648351,0.0,2.5706959706959704
2.969930580999062,0.6551648351648351,0.0,2.5706959706959704
2.974513665001723,0.6551648351648351,0.0,2.5706959706959704
2.9749847519997275,0.6551648351648351,0.0,2.5706959706959704
2.980664352995518,0.6551648351648351,0.0,2.5706959706959704
2.9882897709976532,0.43758241758241756,0.0,0.5512087912087912
2.9942710179966525,0.43758241758241756,0.0,0.5512087912087912
2.9943789710014244,0.1813186813186813,0.0,2.5545787545787544
3.002064813998004,0.6035897435897435,0.0,1.8325274725274725
3.0075118009990547,0.6035897435897435,0.0,1.8325274725274725
3.0098144709991175,0.6035897435897435,0.0,1.8325274725274725
3.010066436996567,0.13457875457875457,0.0,2.556996336996337
3.017478793997725,0.13457875457875457,0.0,2.556996336996337
3.0220105679982225,0.13457875457875457,0.0,2.556996336996337
3.0228875940010766,0.7454212454212454,0.0,2.56989010989011
3.0244352410009014,0.7454212454212454,0.0,2.56989010989011
3.03114566700242,0.7454212454212454,0.0,2.56989010989011
3.0347178189986153,0.7454212454212454,0.0,2.56989010989011
3.0393785089981975,0.7454212454212454,0.0,2.56989010989011
3.0396168369989027,0.7454212454212454,0.0,2.56989010989011
3.0444340850008302,0.7454212454212454,0.0,2.56989010989011
3.0522773199991207,0.5697435897435897,0.0,2.569084249084249
3.056850830995245,0.2925274725274725,0.0,2.5747252747252745
3.057693957001902,0.2925274725274725,0.0,2.5747252747252745
3.0592650850012433,0.2925274725274725,0.0,2.5747252747252745
3.0660053699975833,0.2925274725274725,0.0,2.5747252747252745
3.069489199995587,0.0,0.0,3.3
3.0696498479956063,0.0,0.0,3.3
3.075038559996756,0.0,0.0,3.3
3.0775000209978316,0.0,0.0,3.3
3.0857098720007343,0.09589743589743589,0.0,0.6108424908424909
3.091143956000451,0.9468864468864467,0.0,2.5706959706959704
3.093578523999895,0.9468864468864467,0.0,2.5706959706959704
3.093784823002352,0.9468864468864467,0.0,2.5706959706959704
3.1008436479969532,0.9468864468864467,0.0,2.5706959706959704
3.1053060150006786,0.70996336996337,0.0,2.5706959706959704
3.1068708460006746,0.6277655677655677,0.0,2.5723076923076924
3.11084758600191,0.6277655677655677,0.0,2.5723076923076924
3.116698808997171,0.1571428571428571,0.0,2.5626373626373624
3.1216999249954824,0.1571428571428571,0.0,2.5626373626373624
3.1258799049974186,0.1571428571428571,0.0,2.5626373626373624
3.12852762699913,0.0,0.0,1.2998534798534798
3.1346960849987227,0.0,0.0,1.2998534798534798
3.138383170000452,0.0,0.0,1.2998534798534798
3.143411176999507,0.0,0.0,1.2998534798534798
3.1530433480002102,0.0,0.0,1.2998534798534798
3.1588664529990638,0.0,0.0,2.39018315018315
3.1590124270005617,0.0,0.0,2.39018315018315
3.167240265996952,0.0,0.0,2.39018315018315
3.171982884996396,1.3723809523809525,0.0,2.5432967032967033
3.1722450590023072,1.3723809523809525,0.0,2.5432967032967033
3.177803305996349,1.3723809523809525,0.0,2.5432967032967033
3.178059204998135,1.3723809523809525,0.0,2.5432967032967033
3.1858164309960557,0.24578754578754577,0.0,2.552967032967033
3.189686548001191,0.24578754578754577,0.0,2.552967032967033
3.1943927070024074,0.24578754578754577,0.0,2.552967032967033
3.194554084999254,0.24578754578754577,0.0,2.552967032967033
3.2015161829986027,0.24578754578754577,0.0,2.552967032967033
3.2055596639984287,0.24578754578754577,0.0,2.552967032967033
3.2089970509987324,0.24578754578754577,0.0,2.552967032967033
3.209289386999444,0.24578754578754577,0.0,2.552967032967033
3.2208205579954665,0.24578754578754577,0.0,2.552967032967033
3.2292493540007854,0.24578754578754577,0.0,2.552967032967033
3.23638924700208,0.6583882783882784,0.0,2.573113553113553
3.240556757999002,0.6583882783882784,0.0,2.573113553113553
3.2436608529969817,0.6583882783882784,0.0,2.573113553113553
3.248059295998246,0.48754578754578753,0.0,2.569084249084249
3.2482377249980345,0.48754578754578753,0.0,2.569084249084249
3.253201469000487,0.48754578754578753,0.0,2.569084249084249
3.2578475150003214,0.5455677655677655,0.0,2.5642490842490844
3.2580541080023977,0.5455677655677655,0.0,2.5642490842490844
3.2656655559985666,0.1087912087912088,0.0,2.548937728937729
3.2699623759981478,0.1087912087912088,0.0,2.548937728937729
3.271574170998065,0.1087912087912088,0.0,2.548937728937729
3.2753411529993173,0.1087912087912088,0.0,2.548937728937729
3.282568809001532,0.1087912087912088,0.0,2.548937728937729
3.2868038149972563,0.7776556776556776,0.0,2.5723076923076924
3.2885501019991352,0.7776556776556776,0.0,2.5723076923076924
3.292785831996298,0.7776556776556776,0.0,2.5723076923076924
3.2970413270013523,0.1555311355311355,0.0,2.5787545787545785
3.2973683859963785,0.1555311355311355,0.0,2.5787545787545785
3.3036352029957925,0.1555311355311355,0.0,2.5787545787545785
3.3073877560018445,0.1555311355311355,0.0,2.5787545787545785
3.314817332997336,0.1555311355311355,0.0,2.5787545787545785
3.3186186899984023,0.09106227106227105,0.0,2.573113553113553
3.3233825209972565,0.07978021978021978,0.0,0.585054945054945
3.329405933000089,1.1967032967032967,0.0,2.5521611721611723
3.3388200440022047,0.0,0.0,1.9155311355311355
3.346789532995899,0.0,0.0,1.9155311355311355
3.3519167869962985,0.0,0.0,1.9155311355311355
3.3549627989996225,0.0,0.0,1.9155311355311355
3.3565240019961493,0.0,0.0,1.9155311355311355
3.360369977999653,0.0,0.0,1.9155311355311355
3.367884908002452,0.0,0.0,1.9155311355311355
3.3716100070014363,1.211208791208791,0.0,2.5481318681318683
3.3718131889982033,1.211208791208791,0.0,2.5481318681318683
3.3762864189993707,1.211208791208791,0.0,2.5481318681318683
3.37839354800235,1.211208791208791,0.0,2.5481318681318683
3.3799484510018374,1.211208791208791,0.0,2.5481318681318683
3.386155661995872,1.211208791208791,0.0,2.5481318681318683
3.3892414110014215,1.211208791208791,0.0,2.5481318681318683
3.392258497995499,1.211208791208791,0.0,2.5481318681318683
3.3959467059976305,1.211208791208791,0.0,2.5481318681318683
3.4033834479996585,1.211208791208791,0.0,2.5481318681318683
3.4078825449978467,1.211208791208791,0.0,2.5481318681318683
3.4094164990019635,1.211208791208791,0.0,2.5481318681318683
3.417301954999857,1.211208791208791,0.0,2.5481318681318683
3.421488555999531,1.211208791208791,0.0,2.5481318681318683
3.423134092001419,1.211208791208791,0.0,2.5481318681318683
3.42922275300225,1.211208791208791,0.0,2.5481318681318683
3.435314690999803,0.1539194139194139,0.0,2.569084249084249
3.4394925929955207,0.1539194139194139,0.0,2.569084249084249
3.4409744549993775,0.1539194139194139,0.0,2.569084249084249
3.446937633001653,0.1539194139194139,0.0,2.569084249084249
3.4529481360004866,0.1539194139194139,0.0,2.569084249084249
3.456825633002154,0.1539194139194139,0.0,2.569084249084249
3.462733496002329,0.1539194139194139,0.0,2.569084249084249
3.470038116996875,0.1539194139194139,0.0,2.569084249084249
3.4752478859954863,0.1539194139194139,0.0,2.569084249084249
3.4776270629954524,0.32476190476190475,0.0,3.3
3.477811714001291,0.32476190476190475,0.0,3.3
3.4861110580022796,0.32476190476190475,0.0,3.3
3.4906636199957575,0.02336996336996337,0.0,2.5586080586080584
3.491655202997208,0.02336996336996337,0.0,2.5586080586080584
3.4926633540017065,0.02336996336996337,0.0,2.5586080586080584
3.4929125490016304,0.02336996336996337,0.0,2.5586080586080584
3.500117006995424,0.7147985347985348,0.0,2.5674725274725274
3.504206614001305,0.7147985347985348,0.0,2.5674725274725274
3.506610101998376,0.7147985347985348,0.0,2.5674725274725274
3.5068350219953572,0.7147985347985348,0.0,2.5674725274725274
3.5149419189983746,0.7147985347985348,0.0,2.5674725274725274
3.5205433500013896,0.7147985347985348,0.0,2.5674725274725274
3.527683045998856,0.6535531135531135,0.0,2.573113553113553
3.534318751997489,0.6535531135531135,0.0,2.573113553113553
3.537365530995885,0.747032967032967,0.0,2.561831501831502
3.539727308001602,0.747032967032967,0.0,2.561831501831502
3.5400121419952484,0.747032967032967,0.0,2.561831501831502
3.5455691809984273,0.747032967032967,0.0,2.561831501831502
3.5459398169987253,0.747032967032967,0.0,2.561831501831502
3.5511221409979044,0.747032967032967,0.0,2.561831501831502
3.5534160300012445,0.747032967032967,0.0,2.561831501831502
3.553633762996469,0.747032967032967,0.0,2.561831501831502
3.5592947469995124,0.747032967032967,0.0,2.561831501831502
3.559548158002144,0.747032967032967,0.0,2.561831501831502
3.569508262000454,0.747032967032967,0.0,2.561831501831502
3.57486839700141,0.747032967032967,0.0,2.561831501831502
3.5771770709980046,0.747032967032967,0.0,2.561831501831502
3.577390751997882,0.747032967032967,0.0,2.561831501831502
3.5837752369989175,0.747032967032967,0.0,2.561831501831502
3.58691433200147,0.3473260073260073,0.0,2.569084249084249
3.589250707998872,0.3473260073260073,0.0,2.569084249084249
3.5894397730007768,0.3473260073260073,0.0,2.569084249084249
3.5952806970017264,0.3473260073260073,0.0,2.569084249084249
3.595479677002004,0.3473260073260073,0.0,2.569084249084249
3.6024816290009767,0.3473260073260073,0.0,2.569084249084249
3.6091716759983683,0.6954578754578754,0.0,2.569084249084249
3.616371475996857,0.6954578754578754,0.0,2.569084249084249
3.6216627940011676,0.6954578754578754,0.0,2.569084249084249
3.622562377997383,0.6954578754578754,0.0,2.569084249084249
3.6241108609974617,0.6954578754578754,0.0,2.569084249084249
3.628950519996579,0.6954578754578754,0.0,2.569084249084249
3.6352587090004818,0.6954578754578754,0.0,2.569084249084249
3.6390568599963444,0.6954578754578754,0.0,2.569084249084249
3.644700794000528,0.19743589743589743,0.0,0.24256410256410255
3.6452196839964017,0.19743589743589743,0.0,0.24256410256410255
3.6497087129973806,0.19743589743589743,0.0,0.24256410256410255
3.6557389049994526,0.19743589743589743,0.0,0.24256410256410255
3.660260548000224,0.3731135531135531,0.0,0.8163369963369963
3.6605359929963015,0.07978021978021978,0.0,3.3
3.668550923001021,0.07978021978021978,0.0,3.3
3.6740747349977028,0.07978021978021978,0.0,3.3
3.6756524969969178,0.07978021978021978,0.0,3.3
3.6798742699975264,0.07978021978021978,0.0,3.3
3.682347519999894,0.22644688644688646,0.0,0.18857142857142856
3.686987577995751,0.22644688644688646,0.0,0.18857142857142856
3.687223382999946,0.5842490842490843,0.0,2.5432967032967033
3.692598444999021,0.24578754578754577,0.0,2.5747252747252745
3.696899526999914,0.4182417582417582,0.0,2.573919413919414
3.697251880999829,0.3908424908424908,0.0,1.1217582417582417
3.702273527997022,0.3908424908424908,0.0,1.1217582417582417
3.7061044739966746,2.0428571428571427,0.0,2.5723076923076924
3.7126252000016393,2.0428571428571427,0.0,2.5723076923076924
3.7177693789999466,2.0428571428571427,0.0,2.5723076923076924
3.7187311399975442,0.8485714285714284,0.0,2.5586080586080584
3.720248942998296,0.8485714285714284,0.0,2.5586080586080584
3.724734128001728,0.7953846153846154,0.0,2.56989010989011
3.726472417001787,0.7953846153846154,0.0,2.56989010989011
3.731489835001412,0.7953846153846154,0.0,2.56989010989011
3.735807395998563,0.7953846153846154,0.0,2.56989010989011
3.7417604439979186,0.7953846153846154,0.0,2.56989010989011
3.7522873029956827,0.7953846153846154,0.0,2.56989010989011
3.7580193169997074,0.1813186813186813,0.0,2.573919413919414
3.7584049979996053,0.1813186813186813,0.0,2.573919413919414
3.7654453009963618,0.1813186813186813,0.0,2.573919413919414
3.772934827997233,0.1813186813186813,0.0,2.573919413919414
3.7800812080022297,0.4182417582417582,0.0,2.5787545787545785
3.785823826001433,0.4424175824175824,0.0,1.2740659340659342
3.7904212759967777,0.4424175824175824,0.0,1.2740659340659342
3.790698174001591,0.4424175824175824,0.0,1.2740659340659342
3.7967308750012307,0.4424175824175824,0.0,1.2740659340659342
3.8022686949989293,0.4424175824175824,0.0,1.2740659340659342
3.803096072995686,0.8389010989010988,0.0,2.5706959706959704
3.8046700849954505,0.8389010989010988,0.0,2.5706959706959704
3.809284529001161,0.8389010989010988,0.0,2.5706959706959704
3.8178492699953495,0.8389010989010988,0.0,2.5706959706959704
3.822920452999824,0.8389010989010988,0.0,2.5706959706959704
3.826951923001616,0.8389010989010988,0.0,2.5706959706959704
3.8342592049957602,0.8389010989010988,0.0,2.5706959706959704
3.8375629450019915,0.8389010989010988,0.0,2.5706959706959704
3.8385486690021935,0.8389010989010988,0.0,2.5706959706959704
3.839483001996996,0.8389010989010988,0.0,2.5706959706959704
3.841041389001475,0.8389010989010988,0.0,2.5706959706959704
3.8477864250016864,0.8389010989010988,0.0,2.5706959706959704
3.851565266995749,1.4271794871794872,0.0,2.5561904761904763
3.8563991409973823,0.09428571428571428,0.0,2.552967032967033
3.86644325999805,0.09428571428571428,0.0,2.552967032967033
3.870626279996941,0.09428571428571428,0.0,2.552967032967033
3.874427172995638,0.3553846153846154,0.0,2.573919413919414
3.881905846996233,0.5649084249084249,0.0,1.8558974358974358
3.8875961289959378,0.5649084249084249,0.0,1.8558974358974358
3.892602273997909,0.5649084249084249,0.0,1.8558974358974358
3.8984153240016894,0.5649084249084249,0.0,1.8558974358974358
3.9063273049978307,0.1539194139194139,0.0,2.5473260073260073
3.912115688995982,0.07978021978021978,0.0,2.561831501831502
3.9124634159961715,0.4005128205128205,0.0,2.573919413919414
3.9223407019962906,0.4005128205128205,0.0,2.573919413919414
3.9323536199954106,0.0,0.0,3.223443223443223
3.9374094779996085,0.0,0.0,2.9655677655677657
3.9412678590015275,0.0,0.0,2.9655677655677657
3.9465013759981957,0.0,0.0,2.9655677655677657
3.9485966799984453,0.0,0.0,2.9655677655677657
3.9488335919959354,0.0,0.0,2.9655677655677657
3.9543741609959397,0.0,0.0,2.9655677655677657
3.9546948009956395,0.43113553113553116,0.0,2.577948717948718
3.9601588969962904,0.43113553113553116,0.0,2.577948717948718
3.9618074350000825,0.24739926739926738,0.0,0.15311355311355312
3.9656185549974907,0.24739926739926738,0.0,0.15311355311355312
3.9694654830018408,0.24739926739926738,0.0,0.15311355311355312
3.974277508998057,0.24739926739926738,0.0,0.15311355311355312
3.978948315998423,0.24739926739926738,0.0,0.15311355311355312
3.9791174810015946,0.24739926739926738,0.0,0.15311355311355312
3.985192061001726,0.24739926739926738,0.0,0.15311355311355312
3.9891160469996976,0.8582417582417583,0.0,2.569084249084249
3.9929376660002163,0.8582417582417583,0.0,2.569084249084249
3.999540213000728,0.4166300366300366,0.0,2.5747252747252745
4.002834079998138,0.4166300366300366,0.0,2.5747252747252745
4.003813513998466,0.4166300366300366,0.0,2.5747252747252745
4.004730881999421,0.4166300366300366,0.0,2.5747252747252745
4.0064704149990575,0.4166300366300366,0.0,2.5747252747252745
4.00897694699961,0.0,0.0,3.171062271062271
4.009109669997997,0.0846153846153846,0.0,2.561025641025641
4.017071351001505,0.0846153846153846,0.0,2.561025641025641
4.0220192189954105,0.0846153846153846,0.0,2.561025641025641
4.027213369001402,0.0846153846153846,0.0,2.561025641025641
4.030793257996265,1.4207326007326007,0.0,2.5594139194139194
4.036356639997393,1.4207326007326007,0.0,2.5594139194139194
4.036651541995525,1.4207326007326007,0.0,2.5594139194139194
4.042215317997034,1.4207326007326007,0.0,2.5594139194139194
4.043082416996185,1.4207326007326007,0.0,2.5594139194139194
4.046058105996053,1.4207326007326007,0.0,2.5594139194139194
4.048892988001171,1.4207326007326007,0.0,2.5594139194139194
4.052847310995276,1.4207326007326007,0.0,2.5594139194139194
4.056151857999794,1.4207326007326007,0.0,2.5594139194139194
4.056384121002338,1.4207326007326007,0.0,2.5594139194139194
4.063379973995325,1.4207326007326007,0.0,2.5594139194139194
4.067289947997779,1.4207326007326007,0.0,2.5594139194139194
4.071293303000857,0.13941391941391942,0.0,2.5674725274725274
4.074485270997684,0.3811721611721612,0.0,2.5723076923076924
4.076257631000772,0.3811721611721612,0.0,2.5723076923076924
4.082166519998282,0.3811721611721612,0.0,2.5723076923076924
4.087276496000413,0.3811721611721612,0.0,2.5723076923076924
4.08915768800216,0.3811721611721612,0.0,2.5723076923076924
4.091442117001861,0.3811721611721612,0.0,2.5723076923076924
4.092438897998363,0.3811721611721612,0.0,2.5723076923076924
4.092724595997424,0.3811721611721612,0.0,2.5723076923076924
4.100877031996788,0.3811721611721612,0.0,2.5723076923076924
4.1049445969983935,0.3811721611721612,0.0,2.5723076923076924
4.108647631001077,0.3811721611721612,0.0,2.5723076923076924
4.118159370002104,0.3811721611721612,0.0,2.5723076923076924
4.126469679002184,0.16358974358974357,0.0,2.5723076923076924
4.133484063000651,0.16358974358974357,0.0,2.5723076923076924
4.1373402230019565,0.16358974358974357,0.0,2.5723076923076924
4.142557852996106,0.16358974358974357,0.0,2.5723076923076924
4.146110529996804,0.16358974358974357,0.0,2.5723076923076924
4.14623644099629,0.16358974358974357,0.0,2.5723076923076924
4.154603117000079,0.16358974358974357,0.0,2.5723076923076924
4.160139399995387,0.16358974358974357,0.0,2.5723076923076924
4.162463528002263,0.16358974358974357,0.0,2.5723076923076924
4.162612656997226,0.16358974358974357,0.0,2.5723076923076924
4.1720456940020085,0.8211721611721612,0.0,2.5674725274725274
4.176882036001189,0.8211721611721612,0.0,2.5674725274725274
4.188811964995693,0.4005128205128205,0.0,3.1968498168498165
4.1890882209991105,0.4005128205128205,0.0,3.1968498168498165
4.19530929299799,0.4005128205128205,0.0,3.1968498168498165
4.201138978001836,0.4005128205128205,0.0,3.1968498168498165
4.2048616530009895,0.4005128205128205,0.0,3.1968498168498165
4.2109008519983036,0.4005128205128205,0.0,3.1968498168498165
4.220081419000053,0.4005128205128205,0.0,3.1968498168498165
4.22508292299608,0.2248351648351648,0.0,2.573113553113553
4.23180935200071,0.2248351648351648,0.0,2.573113553113553
4.234939164001844,0.2248351648351648,0.0,2.573113553113553
4.237406740998267,0.8066666666666666,0.0,2.5602197802197804
4.243468025000766,0.8066666666666666,0.0,2.5602197802197804
4.252216271997895,0.8066666666666666,0.0,2.5602197802197804
4.256862447000458,0.0,0.0,0.9992673992673992
4.25710198199522,0.0,0.0,0.9992673992673992
4.265356816002168,0.0,0.0,0.9992673992673992
4.270341334995464,0.0,0.0,0.9992673992673992
4.273485678000725,0.0,0.0,0.9992673992673992
4.2743895780004095,0.0,0.0,0.9992673992673992
4.275966449000407,0.0,0.0,0.9992673992673992
4.282709387996874,0.0,0.0,0.9992673992673992
4.286690845998237,0.0,0.0,0.9992673992673992
4.2892093819973525,0.0,0.0,0.9992673992673992
4.28933755899925,0.3763369963369963,0.0,2.573113553113553
4.294421057995351,0.3763369963369963,0.0,2.573113553113553
4.303746471996419,0.41340659340659336,0.0,0.9718681318681318
4.308888300001854,0.41340659340659336,0.0,0.9718681318681318
4.316208602002007,0.41340659340659336,0.0,0.9718681318681318
4.321649473000434,0.3602197802197802,0.0,2.577948717948718
4.321877297996252,0.3602197802197802,0.0,2.577948717948718
4.326525707001565,0.3602197802197802,0.0,2.577948717948718
4.3267932679955265,0.3602197802197802,0.0,2.577948717948718
4.33498132800014,0.3602197802197802,0.0,2.577948717948718
4.340431532000366,0.15875457875457877,0.0,2.552967032967033
4.342076118002296,0.19743589743589743,0.0,0.24417582417582417
4.346532117000606,0.5536263736263736,0.0,2.5723076923076924
4.346901026998239,0.5536263736263736,0.0,2.5723076923076924
4.351281975999882,0.5536263736263736,0.0,2.5723076923076924
4.352957905000949,0.4166300366300366,0.0,2.577948717948718
4.356364401995961,0.4166300366300366,0.0,2.577948717948718
4.356636420998257,0.4166300366300366,0.0,2.577948717948718
4.362687537999591,0.4166300366300366,0.0,2.577948717948718
4.369061147997854,0.2328937728937729,0.0,0.34087912087912087
4.372847496000759,0.2328937728937729,0.0,0.34087912087912087
4.372956089995569,0.2328937728937729,0.0,0.34087912087912087
4.37956290099828,0.2328937728937729,0.0,0.34087912087912087
4.3837684449972585,0.2328937728937729,0.0,0.34087912087912087
4.385375357996963,0.2328937728937729,0.0,0.34087912087912087
4.388677677998203,0.026593406593406595,0.0,2.149230769230769
4.390273778997653,0.026593406593406595,0.0,2.149230769230769
4.394247707998147,0.026593406593406595,0.0,2.149230769230769
4.400308299002063,0.026593406593406595,0.0,2.149230769230769
4.403888173997984,0.026593406593406595,0.0,2.149230769230769
4.403996642999118,0.026593406593406595,0.0,2.149230769230769
4.409529156000644,0.026593406593406595,0.0,2.149230769230769
4.4097675459997845,0.026593406593406595,0.0,2.149230769230769
4.418659762995958,0.026593406593406595,0.0,2.149230769230769
4.424238818995946,0.026593406593406595,0.0,2.149230769230769
4.425759190002282,0.012087912087912087,0.0,3.3
4.4315063359972555,0.012087912087912087,0.0,3.3
4.4370752120012185,0.2377289377289377,0.0,2.5666666666666664
4.437962447002064,0.2377289377289377,0.0,2.5666666666666664
4.4395075290012755,0.20388278388278389,0.0,0.9928205128205128
4.443340434001584,0.8711355311355311,0.0,2.5706959706959704
4.451397903001634,0.39406593406593404,0.0,2.569084249084249
4.455150492998655,0.39406593406593404,0.0,2.569084249084249
4.460344300001452,0.788937728937729,0.0,2.556996336996337
4.4667533339961665,0.788937728937729,0.0,2.556996336996337
4.47068846700131,0.788937728937729,0.0,2.556996336996337
4.475663723998878,0.49238095238095236,0.0,2.573919413919414
4.484232408001844,0.6825641025641025,0.0,2.565860805860806
4.488221275998512,0.6825641025641025,0.0,2.565860805860806
4.492634271002316,0.6825641025641025,0.0,2.565860805860806
4.493656197999371,0.6825641025641025,0.0,2.565860805860806
4.495537616996444,0.6825641025641025,0.0,2.565860805860806
4.498445220997382,0.6825641025641025,0.0,2.565860805860806
4.5009453969978495,0.6825641025641025,0.0,2.565860805860806
4.505704008995963,0.7454212454212454,0.0,2.569084249084249
4.505826314001752,0.7454212454212454,0.0,2.569084249084249
4.512053398000717,0.7454212454212454,0.0,2.569084249084249
4.518080153997289,0.7454212454212454,0.0,2.569084249084249
4.524009777000174,0.43274725274725273,0.0,1.0814652014652013
4.532329176996427,0.4005128205128205,0.0,2.5715018315018314
4.537170363997575,0.4005128205128205,0.0,2.5715018315018314
4.5418285409978125,0.4005128205128205,0.0,2.5715018315018314
4.542055940000864,0.4005128205128205,0.0,2.5715018315018314
4.550307546996919,0.4005128205128205,0.0,2.5715018315018314
4.554601064999588,0.4005128205128205,0.0,2.5715018315018314
4.55626300899894,0.4005128205128205,0.0,2.5715018315018314
4.560055030997319,0.4005128205128205,0.0,2.5715018315018314
4.568294512995635,0.4005128205128205,0.0,2.5715018315018314
4.5753479760023765,0.4005128205128205,0.0,2.5715018315018314
4.580875353996817,0.7824908424908424,0.0,2.5626373626373624
4.581167306001589,0.7824908424908424,0.0,2.5626373626373624
4.586142881998967,0.7824908424908424,0.0,2.5626373626373624
4.590624071999628,0.7824908424908424,0.0,2.5626373626373624
4.591652245995647,0.7824908424908424,0.0,2.5626373626373624
4.59269357699668,0.7824908424908424,0.0,2.5626373626373624
4.5929898690010305,0.7824908424908424,0.0,2.5626373626373624
4.601581436996639,0.7824908424908424,0.0,2.5626373626373624
4.60695943999599,0.7824908424908424,0.0,2.5626373626373624
4.609227148001082,0.7824908424908424,0.0,2.5626373626373624
4.609483300999273,0.7824908424908424,0.0,2.5626373626373624
4.617624339000031,0.7824908424908424,0.0,2.5626373626373624
4.622758207995503,0.7309157509157509,0.0,2.552967032967033
4.6271241110007395,0.43113553113553116,0.0,2.5723076923076924
4.628827241998806,0.43113553113553116,0.0,2.5723076923076924
4.632947509002406,0.43113553113553116,0.0,2.5723076923076924
4.633968823000032,0.43113553113553116,0.0,2.5723076923076924
4.6342986570016365,0.43113553113553116,0.0,2.5723076923076924
4.639618793000409,0.43113553113553116,0.0,2.5723076923076924
4.642097978001402,0.43113553113553116,0.0,2.5723076923076924
4.642270099997404,0.43113553113553116,0.0,2.5723076923076924
4.649764841000433,0.43113553113553116,0.0,2.5723076923076924
4.653674565000983,0.43113553113553116,0.0,2.5723076923076924
4.658222815000045,0.2506227106227106,0.0,2.5715018315018314
4.658446957997512,0.20549450549450549,0.0,0.17164835164835165
4.665119607998349,0.20549450549450549,0.0,0.17164835164835165
4.66901271900133,0.3779487179487179,0.0,2.5674725274725274
4.672972029999073,0.3779487179487179,0.0,2.5674725274725274
4.676826214999892,0.3779487179487179,0.0,2.5674725274725274
4.682201222000003,0.3779487179487179,0.0,2.5674725274725274
4.683780469997146,0.3779487179487179,0.0,2.5674725274725274
4.688268542995502,0.3779487179487179,0.0,2.5674725274725274
4.689141301001655,0.0,0.0,2.5481318681318683
4.690743279999879,0.0,0.0,2.5481318681318683
4.693909847999748,0.0,0.0,2.5481318681318683
4.6974456349998945,0.0,0.0,2.5481318681318683
4.702597021998372,0.0,0.0,2.5481318681318683
4.7052486979955574,0.0,0.0,2.5481318681318683
4.710282913998526,0.0,0.0,2.5481318681318683
4.714408665997325,0.0,0.0,2.5481318681318683
4.71539632799977,0.0,0.0,2.5481318681318683
4.716381981001177,0.0,0.0,2.5481318681318683
4.717334572997061,0.0,0.0,2.5481318681318683
4.718348311995214,0.0,0.0,2.5481318681318683
4.719308455998544,0.0,0.0,2.5481318681318683
4.7203296270017745,0.28608058608058606,0.0,2.5755311355311354
4.7212746889999835,0.28608058608058606,0.0,2.5755311355311354
4.722385802997451,0.28608058608058606,0.0,2.5755311355311354
4.722724220002419,0.28608058608058606,0.0,2.5755311355311354
4.727543804998277,0.28608058608058606,0.0,2.5755311355311354
4.73441623099643,0.28608058608058606,0.0,2.5755311355311354
4.738457560997631,0.3795604395604395,0.0,1.2917948717948717
4.741621802000736,0.1249084249084249,0.0,0.2498168498168498
4.74332264700206,0.43274725274725273,0.0,2.5723076923076924
4.748017637997691,0.43274725274725273,0.0,2.5723076923076924
4.753757637998206,0.43274725274725273,0.0,2.5723076923076924
4.754587714000081,0.3457142857142857,0.0,2.573919413919414
4.756162487996335,0.3457142857142857,0.0,2.573919413919414
4.759989963997214,0.3457142857142857,0.0,2.573919413919414
4.765596587996697,1.2450549450549449,0.0,2.5747252747252745
4.765943503996823,1.2450549450549449,0.0,2.5747252747252745
4.771342296000512,1.2450549450549449,0.0,2.5747252747252745
4.772885571997904,1.2450549450549449,0.0,2.5747252747252745
4.777657603000989,1.2450549450549449,0.0,2.5747252747252745
4.777788423001766,0.5117216117216117,0.0,1.5496703296703296
4.7868390180010465,0.5117216117216117,0.0,1.5496703296703296
4.795880227000453,0.5504029304029303,0.0,2.5715018315018314
4.800399717998516,0.5504029304029303,0.0,2.5715018315018314
4.8005569859960815,0.5504029304029303,0.0,2.5715018315018314
4.806235040996398,0.5504029304029303,0.0,2.5715018315018314
4.806472046999261,0.5504029304029303,0.0,2.5715018315018314
4.81389926099655,0.5504029304029303,0.0,2.5715018315018314
4.81759182499809,0.5504029304029303,0.0,2.5715018315018314
4.822195925997221,0.012087912087912087,0.0,3.3
4.8224685809982475,0.012087912087912087,0.0,3.3
4.831129592996149,0.012087912087912087,0.0,3.3
4.837137848997372,0.012087912087912087,0.0,3.3
4.8409660260003875,0.21999999999999997,0.0,0.15956043956043955
4.8502059480015305,0.21999999999999997,0.0,0.15956043956043955
4.854685949998384,0.21999999999999997,0.0,0.15956043956043955
4.855885058997956,0.2377289377289377,0.0,2.5763369963369964
4.864550047997909,0.2377289377289377,0.0,2.5763369963369964
4.868276467001124,0.2377289377289377,0.0,2.5763369963369964
4.87409830300021,0.2377289377289377,0.0,2.5763369963369964
4.874187011999311,0.2377289377289377,0.0,2.5763369963369964
4.882723365000857,0.2377289377289377,0.0,2.5763369963369964
4.888645009996253,0.010476190476190476,0.0,3.3
4.893360009002208,0.010476190476190476,0.0,3.3
4.901813634001883,0.7712087912087912,0.0,2.5561904761904763
4.906405067995365,0.3537728937728937,0.0,0.8928937728937728
4.906652858997404,0.3537728937728937,0.0,0.8928937728937728
4.914032628999848,0.3537728937728937,0.0,0.8928937728937728
4.918335026995919,0.3537728937728937,0.0,0.8928937728937728
4.919838700996479,0.12974358974358974,0.0,0.29413919413919415
4.924718472000677,0.12974358974358974,0.0,0.29413919413919415
4.93451939499937,0.39406593406593404,0.0,2.573113553113553
4.939404890996229,0.39406593406593404,0.0,2.573113553113553
4.9447683969992795,0.39406593406593404,0.0,2.573113553113553
4.948780651997367,0.0,0.0,0.9960439560439559
4.9503721479995875,0.0,0.0,0.9960439560439559
4.954146183998091,0.0,0.0,0.9960439560439559
4.9587619390003965,0.0,0.0,0.9960439560439559
4.959012480001547,0.18937728937728937,0.0,0.1805128205128205
4.966420356999151,0.18937728937728937,0.0,0.1805128205128205
4.971088177997444,0.18937728937728937,0.0,0.1805128205128205
4.971245638000255,0.1958241758241758,0.0,2.5755311355311354
4.976642246001575,0.1958241758241758,0.0,2.5755311355311354
4.978926078998484,0.1958241758241758,0.0,2.5755311355311354
4.979253386001801,0.1958241758241758,0.0,2.5755311355311354
4.985834088001866,0.1958241758241758,0.0,2.5755311355311354
4.989820442002383,0.7663736263736264,0.0,2.569084249084249
4.992997182998806,0.7663736263736264,0.0,2.569084249084249
4.994881227998121,0.7663736263736264,0.0,2.569084249084249
4.998360610996315,0.7663736263736264,0.0,2.569084249084249
5.007573900002171,0.7663736263736264,0.0,2.569084249084249
5.016099733002193,0.7663736263736264,0.0,2.569084249084249
5.020068165998964,0.7663736263736264,0.0,2.569084249084249
5.023971889997483,0.7663736263736264,0.0,2.569084249084249
5.028864938998595,0.7663736263736264,0.0,2.569084249084249
5.034302029001992,0.7663736263736264,0.0,2.569084249084249
5.035466451001412,0.7663736263736264,0.0,2.569084249084249
5.035654179999256,0.7663736263736264,0.0,2.569084249084249
5.041414665996854,0.7663736263736264,0.0,2.569084249084249
5.041549073001079,0.6777289377289377,0.0,2.5723076923076924
5.047330018001958,0.6777289377289377,0.0,2.5723076923076924
5.047424985998077,0.8243956043956043,0.0,2.569084249084249
5.052538591000484,0.190989010989011,0.0,2.573113553113553
5.056440005995682,0.190989010989011,0.0,2.573113553113553
5.061063775996445,0.190989010989011,0.0,2.573113553113553
5.061282809998374,0.6342124542124542,0.0,2.5706959706959704
5.066753510996932,0.6342124542124542,0.0,2.5706959706959704
5.067816131995642,0.6342124542124542,0.0,2.5706959706959704
5.068086068997218,0.6342124542124542,0.0,2.5706959706959704
5.0738122159964405,0.6342124542124542,0.0,2.5706959706959704
5.0739973449963145,0.6342124542124542,0.0,2.5706959706959704
5.079596071002015,0.6342124542124542,0.0,2.5706959706959704
5.079871764995914,0.24901098901098898,0.0,0.17648351648351646
5.084720694001589,0.24901098901098898,0.0,0.17648351648351646
5.091488799000217,0.24901098901098898,0.0,0.17648351648351646
5.095724177001102,0.24901098901098898,0.0,0.17648351648351646
5.097342383996875,0.24901098901098898,0.0,0.17648351648351646
5.10107213199808,0.24901098901098898,0.0,0.17648351648351646
5.106211516002077,0.24901098901098898,0.0,0.17648351648351646
5.109314494999126,0.0,0.0,3.3
5.111612050000986,0.09589743589743589,0.0,2.565860805860806
5.112023547997524,0.09589743589743589,0.0,2.565860805860806
5.116664699999092,0.09589743589743589,0.0,2.565860805860806
5.12190402700071,0.09589743589743589,0.0,2.565860805860806
5.125093493996246,0.0,0.0,3.1702564102564104
5.126809827001125,0.0,0.0,3.1702564102564104
5.13228421399981,0.0,0.0,3.1702564102564104
5.13248299100087,0.0,0.0,3.1702564102564104
5.137678193001193,0.0,0.0,3.1702564102564104
5.1406457150005735,0.25868131868131866,0.0,0.18615384615384614
5.14312258100108,0.25868131868131866,0.0,0.18615384615384614
5.148845923999033,0.25868131868131866,0.0,0.18615384615384614
5.149068371996691,0.25868131868131866,0.0,0.18615384615384614
5.154343837995839,0.25868131868131866,0.0,0.18615384615384614
5.156813292996958,0.25868131868131866,0.0,0.18615384615384614
5.16215905900026,0.1652014652014652,0.0,0.20146520146520144
5.164530741996714,0.1652014652014652,0.0,0.20146520146520144
5.170044491002045,0.1652014652014652,0.0,0.20146520146520144
5.1717755229983595,0.1652014652014652,0.0,0.20146520146520144
5.1747801969977445,0.1652014652014652,0.0,0.20146520146520144
5.177788731998589,0.1652014652014652,0.0,0.20146520146520144
5.180113132999395,0.1652014652014652,0.0,0.20146520146520144
5.180323656997643,0.1652014652014652,0.0,0.20146520146520144
5.185671189996356,0.66,0.0,2.569084249084249
5.188110757000686,0.66,0.0,2.569084249084249
5.188234164001187,0.66,0.0,2.569084249084249
5.194252757995855,0.66,0.0,2.569084249084249
5.1986578939977335,0.20388278388278389,0.0,2.5787545787545785
5.200193060001766,0.20388278388278389,0.0,2.5787545787545785
5.204585815001337,0.20388278388278389,0.0,2.5787545787545785
5.205535335000604,0.20388278388278389,0.0,2.5787545787545785
5.207098330000008,0.20388278388278389,0.0,2.5787545787545785
5.211561944997811,0.20388278388278389,0.0,2.5787545787545785
5.212477918998047,0.20388278388278389,0.0,2.5787545787545785
5.214032518997556,0.20388278388278389,0.0,2.5787545787545785
5.219101415998011,0.20388278388278389,0.0,2.5787545787545785
5.222115543001564,0.20388278388278389,0.0,2.5787545787545785
5.225076891001663,0.20388278388278389,0.0,2.5787545787545785
5.227970252999512,0.0,0.0,1.2652014652014651
5.2309798060014145,0.0,0.0,1.2652014652014651
5.233285718997649,0.0,0.0,1.2652014652014651
5.233465739001986,0.0,0.0,1.2652014652014651
5.238927441998385,0.0,0.0,1.2652014652014651
5.241693890995521,0.0,0.0,1.2652014652014651
5.244083181998576,0.0,0.0,1.2652014652014651
5.2442803739977535,1.120952380952381,0.0,2.5465201465201464
5.249499441000808,1.120952380952381,0.0,2.5465201465201464
5.252555006001785,1.120952380952381,0.0,2.5465201465201464
5.254201645999274,1.120952380952381,0.0,2.5465201465201464
5.257957285000884,1.120952380952381,0.0,2.5465201465201464
5.26243003399577,1.120952380952381,0.0,2.5465201465201464
5.263269675000629,1.120952380952381,0.0,2.5465201465201464
5.264871387000312,1.120952380952381,0.0,2.5465201465201464
5.269318697995914,1.120952380952381,0.0,2.5465201465201464
5.270213623000018,1.120952380952381,0.0,2.5465201465201464
5.271827603995916,1.120952380952381,0.0,2.5465201465201464
5.2763110579981,1.120952380952381,0.0,2.5465201465201464
5.277210364001803,1.120952380952381,0.0,2.5465201465201464
5.27885165099724,1.120952380952381,0.0,2.5465201465201464
5.283329869002046,1.120952380952381,0.0,2.5465201465201464
5.284252165001817,0.796996336996337,0.0,2.573919413919414
5.28600937200099,0.796996336996337,0.0,2.573919413919414
5.289651205996051,0.796996336996337,0.0,2.573919413919414
5.298375737998867,0.796996336996337,0.0,2.573919413919414
5.3063841620023595,0.796996336996337,0.0,2.573919413919414
5.3124605900011375,0.7824908424908424,0.0,2.56989010989011
5.319408452996868,0.7824908424908424,0.0,2.56989010989011
5.323681196998223,0.49076923076923074,0.0,2.17018315018315
5.325224900996545,0.49076923076923074,0.0,2.17018315018315
5.33242047100066,0.49076923076923074,0.0,2.17018315018315
5.336959255000693,0.49076923076923074,0.0,2.17018315018315
5.3371280419960385,0.49076923076923074,0.0,2.17018315018315
5.343255457999476,0.49076923076923074,0.0,2.17018315018315
5.34946729499643,0.49076923076923074,0.0,2.17018315018315
5.3550283549993765,0.17487179487179486,0.0,2.573919413919414
5.355214718001662,0.17487179487179486,0.0,2.573919413919414
5.36410624999553,0.17487179487179486,0.0,2.573919413919414
5.368795092996152,0.1797069597069597,0.0,0.4126007326007326
5.368917202002194,0.1797069597069597,0.0,0.4126007326007326
5.378978387998359,0.1797069597069597,0.0,0.4126007326007326
5.387374913996609,0.4182417582417582,0.0,2.5763369963369964
5.394739948998904,0.0,0.0,1.1314285714285715
5.40059184400161,0.842124542124542,0.0,2.556996336996337
5.409411130996887,0.842124542124542,0.0,2.556996336996337
5.4162445699985255,0.842124542124542,0.0,2.556996336996337
5.4229206219970365,0.842124542124542,0.0,2.556996336996337
5.429140998996445,0.7986080586080586,0.0,2.5715018315018314
5.435041290002118,0.7986080586080586,0.0,2.5715018315018314
5.4397492759962915,0.7986080586080586,0.0,2.5715018315018314
5.449168578001263,0.3295970695970696,0.0,0.27399267399267396
5.45587480100221,0.3295970695970696,0.0,0.27399267399267396
5.4617303400009405,0.43435897435897436,0.0,2.5747252747252745
5.469067771999107,0.43435897435897436,0.0,2.5747252747252745
5.476053903999855,0.43435897435897436,0.0,2.5747252747252745
5.4829239009995945,0.43435897435897436,0.0,2.5747252747252745
5.48854544400092,0.43435897435897436,0.0,2.5747252747252745
5.5004515269974945,0.10395604395604395,0.0,2.5505494505494504
5.507629314000951,0.3021978021978022,0.0,2.565860805860806
5.513223513997218,0.008864468864468863,0.0,3.0195604395604394
5.513444226999127,0.4391941391941392,0.0,2.5723076923076924
5.518301279997104,0.4391941391941392,0.0,2.5723076923076924
5.522657950001303,0.4391941391941392,0.0,2.5723076923076924
5.52428800999769,0.4391941391941392,0.0,2.5723076923076924
5.529977707999933,0.4391941391941392,0.0,2.5723076923076924
5.530211609999242,0.20065934065934066,0.0,2.5723076923076924
5.537797324999701,0.20065934065934066,0.0,2.5723076923076924
5.541992704995209,0.20065934065934066,0.0,2.5723076923076924
5.545207650997327,0.20065934065934066,0.0,2.5723076923076924
5.545490906995838,0.20065934065934066,0.0,2.5723076923076924
5.555310297997494,0.20065934065934066,0.0,2.5723076923076924
5.5641144559995155,0.20065934065934066,0.0,2.5723076923076924
5.570862098000362,0.8389010989010988,0.0,2.5723076923076924
5.575587587001792,0.1813186813186813,0.0,2.573113553113553
5.584643060996314,0.48432234432234433,0.0,1.3006593406593405
5.591101378995518,0.48432234432234433,0.0,1.3006593406593405
5.597815895998792,0.48432234432234433,0.0,1.3006593406593405
5.6033504029983305,0.48432234432234433,0.0,1.3006593406593405
5.608523638999031,0.48432234432234433,0.0,1.3006593406593405
5.616323595000722,0.07978021978021978,0.0,2.552967032967033
5.62237270699552,0.18454212454212454,0.0,2.5553846153846154
5.628750404001039,0.18454212454212454,0.0,2.5553846153846154
5.632648550999875,0.2071062271062271,0.0,2.5755311355311354
5.635018759996456,0.2071062271062271,0.0,2.5755311355311354
5.635229043997242,0.7325274725274724,0.0,2.552967032967033
5.640411768996273,0.7325274725274724,0.0,2.552967032967033
5.644909752998501,0.7325274725274724,0.0,2.552967032967033
5.645103114999074,0.7647619047619048,0.0,2.5682783882783884
5.652247478996287,0.7647619047619048,0.0,2.5682783882783884
5.658875237000757,0.7647619047619048,0.0,2.5682783882783884
5.66593980199832,0.7647619047619048,0.0,2.5682783882783884
5.67150052299985,0.7647619047619048,0.0,2.5682783882783884
5.671702881998499,0.7647619047619048,0.0,2.5682783882783884
5.68137570899853,0.3586080586080586,0.0,2.573919413919414
5.6880433179976535,0.3586080586080586,0.0,2.573919413919414
5.694413224002346,0.3586080586080586,0.0,2.573919413919414
5.697996363000129,0.1523076923076923,0.0,2.5561904761904763
5.703781816002447,0.1523076923076923,0.0,2.5561904761904763
5.704011734997039,0.1523076923076923,0.0,2.5561904761904763
5.713853843000834,0.1523076923076923,0.0,2.5561904761904763
5.720348153001396,0.1523076923076923,0.0,2.5561904761904763
5.725375415997405,0.3312087912087912,0.0,2.577142857142857
5.732727217997308,0.0,0.0,1.3756043956043955
5.7405610579953645,0.3231501831501831,0.0,2.5715018315018314
5.748110438995354,0.31509157509157504,0.0,0.29010989010989013
5.756835457999841,0.31509157509157504,0.0,0.29010989010989013
5.765653026996006,0.6519413919413919,0.0,2.54974358974359
5.779642993002199,0.6519413919413919,0.0,2.54974358974359
5.7907825090005645,0.6519413919413919,0.0,2.54974358974359
5.803230762998282,0.6519413919413919,0.0,2.54974358974359
5.81431879199954,0.6519413919413919,0.0,2.54974358974359
5.825166345995967,0.6519413919413919,0.0,2.54974358974359
5.834588079000241,0.27318681318681315,0.0,0.39567765567765567
5.840150238000206,0.3199267399267399,0.0,2.573919413919414
5.841134993999731,0.3199267399267399,0.0,2.573919413919414
5.842095273997984,0.3199267399267399,0.0,2.573919413919414
5.8430906779976794,0.3199267399267399,0.0,2.573919413919414
5.844753598998068,0.3199267399267399,0.0,2.573919413919414
5.849624868998944,0.3199267399267399,0.0,2.573919413919414
5.854153663000034,0.3199267399267399,0.0,2.573919413919414
5.854372247995343,0.3199267399267399,0.0,2.573919413919414
5.862413620001462,0.3199267399267399,0.0,2.573919413919414
5.870677000995784,0.30542124542124544,0.0,0.5028571428571429
5.878672710998217,1.0887179487179486,0.0,2.544908424908425
5.88655209299759,1.0887179487179486,0.0,2.544908424908425
5.8928926500011585,1.0887179487179486,0.0,2.544908424908425
5.899663160998898,1.0887179487179486,0.0,2.544908424908425
5.9046908730015275,1.0887179487179486,0.0,2.544908424908425
5.910431290001725,1.0887179487179486,0.0,2.544908424908425
5.91614328599826,1.0887179487179486,0.0,2.544908424908425
5.916399725996598,1.0887179487179486,0.0,2.544908424908425
5.922043580998434,1.0887179487179486,0.0,2.544908424908425
5.922879015997751,1.0887179487179486,0.0,2.544908424908425
5.924579487000301,1.0887179487179486,0.0,2.544908424908425
5.927945167997677,0.0,0.0,2.0017582417582416
5.929001887001505,0.09106227106227105,0.0,2.573113553113553
5.92933974799962,0.09106227106227105,0.0,2.573113553113553
5.93525553499785,0.09106227106227105,0.0,2.573113553113553
5.939754259001347,0.09106227106227105,0.0,2.573113553113553
5.940601932998106,0.09106227106227105,0.0,2.573113553113553
5.942442776002281,0.09106227106227105,0.0,2.573113553113553
5.948028409002291,0.09106227106227105,0.0,2.573113553113553
5.953627709001012,0.0,0.0,2.544908424908425
5.953881820001698,0.0,0.0,2.544908424908425
5.959186289997888,0.0,0.0,2.544908424908425
5.9620856039982755,0.0,0.0,2.544908424908425
5.9653797290011426,0.0,0.0,2.544908424908425
5.965591681997466,0.0,0.0,2.544908424908425
5.9704090309969615,0.0,0.0,2.544908424908425
5.975762313995801,0.0,0.0,2.544908424908425
5.978448396999738,0.0,0.0,2.544908424908425
5.984903972996108,0.0,0.0,2.544908424908425
5.989050133997807,0.6519413919413919,0.0,2.5723076923076924
5.9906400079999,0.6519413919413919,0.0,2.5723076923076924
5.99815346399555,0.6519413919413919,0.0,2.5723076923076924
6.002712520996283,0.6519413919413919,0.0,2.5723076923076924
6.0029954700003145,0.6519413919413919,0.0,2.5723076923076924
6.007420091002132,0.6519413919413919,0.0,2.5723076923076924
6.0082713949959725,0.6519413919413919,0.0,2.5723076923076924
6.009938864001015,0.6519413919413919,0.0,2.5723076923076924
6.017818699001509,0.6519413919413919,0.0,2.5723076923076924
6.022580716999073,0.6519413919413919,0.0,2.5723076923076924
6.030956461996539,0.6519413919413919,0.0,2.5723076923076924
6.038123502999952,0.6519413919413919,0.0,2.5723076923076924
6.04520482999942,0.32476190476190475,0.0,0.27802197802197803
6.0493979300008505,0.32476190476190475,0.0,0.27802197802197803
6.050206533000164,0.32476190476190475,0.0,0.27802197802197803
6.051875639001082,0.32476190476190475,0.0,0.27802197802197803
6.055673297996691,0.32476190476190475,0.0,0.27802197802197803
6.0622901070019,0.8372893772893772,0.0,2.557802197802198
6.067539543000748,0.03626373626373627,0.0,0.4416117216117216
6.069001618001494,0.03626373626373627,0.0,0.4416117216117216
6.074896853999235,0.03626373626373627,0.0,0.4416117216117216
6.081457688997034,0.03626373626373627,0.0,0.4416117216117216
6.084544247001759,0.03626373626373627,0.0,0.4416117216117216
6.08621642900107,0.03626373626373627,0.0,0.4416117216117216
6.091241716996592,0.026593406593406595,0.0,3.3
6.095219620001444,0.026593406593406595,0.0,3.3
6.098803495995526,0.5342857142857143,0.0,1.7116483516483516
6.104237223997188,0.5342857142857143,0.0,1.7116483516483516
6.105848138999136,0.5342857142857143,0.0,1.7116483516483516
6.110305386995606,0.1523076923076923,0.0,3.3
6.111465811998642,0.1523076923076923,0.0,3.3
6.111755049001658,0.1523076923076923,0.0,3.3
6.118138393998379,0.1523076923076923,0.0,3.3
6.121944398000778,0.1523076923076923,0.0,3.3
6.12798481000209,0.7228571428571429,0.0,2.569084249084249
6.132013641996309,0.7228571428571429,0.0,2.569084249084249
6.134414462998393,0.4214652014652014,0.0,2.573919413919414
6.14013140899624,0.4214652014652014,0.0,2.573919413919414
6.140351759000623,0.4214652014652014,0.0,2.573919413919414
6.146069411995995,0.4214652014652014,0.0,2.573919413919414
6.146246885997243,0.4214652014652014,0.0,2.573919413919414
6.151927576000162,0.4214652014652014,0.0,2.573919413919414
6.152860144997248,0.3908424908424908,0.0,2.573919413919414
6.1537172870012,0.3908424908424908,0.0,2.573919413919414
6.155555912999262,0.3908424908424908,0.0,2.573919413919414
6.157979909999995,0.3908424908424908,0.0,2.573919413919414
6.1581202460001805,0.25384615384615383,0.0,0.1926007326007326
6.163960485995631,0.26673992673992675,0.0,2.5602197802197804
6.169112408999354,0.26673992673992675,0.0,2.5602197802197804
6.172078179995879,0.26673992673992675,0.0,2.5602197802197804
6.175022039002215,0.26673992673992675,0.0,2.5602197802197804
6.177977091996581,0.26673992673992675,0.0,2.5602197802197804
6.180917806996149,0.1104029304029304,0.0,0.8268131868131867
6.183893348999845,0.1104029304029304,0.0,0.8268131868131867
6.186844274998293,0.1104029304029304,0.0,0.8268131868131867
6.189671826999984,0.1104029304029304,0.0,0.8268131868131867
6.1937674270011485,0.1104029304029304,0.0,0.8268131868131867
6.196551392000401,0.1104029304029304,0.0,0.8268131868131867
6.199973443995987,0.1104029304029304,0.0,0.8268131868131867
6.200772988995595,0.1104029304029304,0.0,0.8268131868131867
6.202871503999631,0.1104029304029304,0.0,0.8268131868131867
6.204272620001575,0.1104029304029304,0.0,0.8268131868131867
6.21005906299979,0.1104029304029304,0.0,0.8268131868131867
6.210284048000176,0.1104029304029304,0.0,0.8268131868131867
6.2165209489976405,0.1104029304029304,0.0,0.8268131868131867
6.222344964000513,0.28608058608058606,0.0,0.20307692307692307
6.231619514997874,0.28608058608058606,0.0,0.20307692307692307
6.2392592879987205,0.28608058608058606,0.0,0.20307692307692307
6.245825803001935,0.28608058608058606,0.0,0.20307692307692307
6.250386415995308,0.28608058608058606,0.0,0.20307692307692307
6.250542538000445,0.28608058608058606,0.0,0.20307692307692307
6.255888899999263,0.3731135531135531,0.0,2.577948717948718
6.2590261369987275,0.7599267399267399,0.0,2.5513553113553114
6.2605756129996735,0.7599267399267399,0.0,2.5513553113553114
6.264416363999771,0.7599267399267399,0.0,2.5513553113553114
6.2695868800001335,0.0,0.0,0.3594139194139194
6.272699052002281,0.0,0.0,0.3594139194139194
6.274309480999364,0.0,0.0,0.3594139194139194
6.278724218995194,0.0,0.0,0.3594139194139194
6.279577322995465,0.0,0.0,0.3594139194139194
6.281083755995496,0.0,0.0,0.3594139194139194
6.285668001000886,0.0,0.0,0.3594139194139194
6.286473198000749,0.0,0.0,0.3594139194139194
6.2880601739962,0.0,0.0,0.3594139194139194
6.291824259998975,0.0,0.0,0.3594139194139194
6.291921780997654,0.0,0.0,0.3594139194139194
6.2970508500002325,0.0,0.0,0.3594139194139194
6.300000144998194,0.0,0.0,0.3594139194139194
6.3029855209970265,0.0,0.0,0.3594139194139194
6.305277328996453,0.0,0.0,0.3594139194139194
6.30556058500224,0.0,0.0,0.3594139194139194
6.31072136000148,0.0,0.0,0.3594139194139194
6.314420230999531,0.0,0.0,0.3594139194139194
6.31893159399624,0.3779487179487179,0.0,2.5747252747252745
6.320463928001118,0.09912087912087912,0.0,0.5117216117216117
6.3242575409967685,0.09912087912087912,0.0,0.5117216117216117
6.328724291997787,0.26996336996336995,0.0,2.569084249084249
6.330282097995223,0.26996336996336995,0.0,2.569084249084249
6.334755928997765,0.26996336996336995,0.0,2.569084249084249
6.335658659001638,0.26996336996336995,0.0,2.569084249084249
6.337221878995479,0.3537728937728937,0.0,0.41098901098901097
6.3419345669972245,0.3537728937728937,0.0,0.41098901098901097
6.347369757000706,0.5455677655677655,0.0,2.569084249084249
6.349047028001223,0.5455677655677655,0.0,2.569084249084249
6.352695075998781,0.5455677655677655,0.0,2.569084249084249
6.358126139995875,0.2506227106227106,0.0,2.5747252747252745
6.360540301997389,0.2506227106227106,0.0,2.5747252747252745
6.360633361997316,0.2506227106227106,0.0,2.5747252747252745
6.366415311997116,0.2506227106227106,0.0,2.5747252747252745
6.366532036998251,0.2506227106227106,0.0,2.5747252747252745
6.372113491001073,0.2506227106227106,0.0,2.5747252747252745
6.372945629002061,0.2506227106227106,0.0,2.5747252747252745
6.375210541002161,0.2506227106227106,0.0,2.5747252747252745
6.375477902001876,0.5117216117216117,0.0,1.876043956043956
6.380587694002315,0.5117216117216117,0.0,1.876043956043956
6.384248941998521,0.5117216117216117,0.0,1.876043956043956
6.389458698002272,0.4827106227106227,0.0,2.540879120879121
6.39350694300083,0.4827106227106227,0.0,2.540879120879121
6.396488698999747,0.4827106227106227,0.0,2.540879120879121
6.399470372001815,0.4827106227106227,0.0,2.540879120879121
6.402594050996413,0.0,0.0,1.9654945054945054
6.404185444996983,0.37150183150183147,0.0,2.56989010989011
6.407913598995947,0.37150183150183147,0.0,2.56989010989011
6.408037717999832,0.37150183150183147,0.0,2.56989010989011
6.413619571998424,0.37150183150183147,0.0,2.56989010989011
6.413939947997278,0.16197802197802197,0.0,2.573919413919414
6.419061094995413,0.16197802197802197,0.0,2.573919413919414
6.422413160995347,0.23934065934065935,0.0,0.8767765567765567
6.422688737999124,0.23934065934065935,0.0,0.8767765567765567
6.427896763001627,0.9372161172161171,0.0,2.548937728937729
6.43099598599656,0.09267399267399268,0.0,3.3
6.433238999998139,0.21194139194139192,0.0,2.5553846153846154
6.433486369998718,0.21194139194139192,0.0,2.5553846153846154
6.438681389998237,0.21194139194139192,0.0,2.5553846153846154
6.442533907000325,0.21194139194139192,0.0,2.5553846153846154
6.446225793995836,0.8469597069597068,0.0,2.5674725274725274
6.446355845997459,0.8469597069597068,0.0,2.5674725274725274
6.45159378000244,0.8469597069597068,0.0,2.5674725274725274
6.4552591659958125,0.4778754578754579,0.0,2.573919413919414
6.4605166830006056,0.4778754578754579,0.0,2.573919413919414
6.463466692999646,0.4778754578754579,0.0,2.573919413919414
6.466454961999261,0.4778754578754579,0.0,2.573919413919414
6.469393850995402,0.4778754578754579,0.0,2.573919413919414
6.4731567609997,0.4778754578754579,0.0,2.573919413919414
6.477565050001431,0.4778754578754579,0.0,2.573919413919414
6.479111109001678,0.4778754578754579,0.0,2.573919413919414
6.483510159996513,0.4778754578754579,0.0,2.573919413919414
6.4843383859988535,0.5375091575091575,0.0,2.573113553113553
6.486573335998401,0.5375091575091575,0.0,2.573113553113553
6.48691405900172,0.1926007326007326,0.0,2.5634432234432234
6.492059022995818,0.1926007326007326,0.0,2.5634432234432234
6.49525791999622,0.1926007326007326,0.0,2.5634432234432234
6.496820681997633,0.8276190476190476,0.0,2.557802197802198
6.501431862001482,0.8276190476190476,0.0,2.557802197802198
6.50183449099859,0.8276190476190476,0.0,2.557802197802198
6.506340624000586,0.8276190476190476,0.0,2.557802197802198
6.507221412997751,0.8276190476190476,0.0,2.557802197802198
6.508832715997414,0.8276190476190476,0.0,2.557802197802198
6.514017101995705,0.8276190476190476,0.0,2.557802197802198
6.5180753439999535,0.46659340659340653,0.0,1.7688644688644688
6.520520336998743,0.46659340659340653,0.0,1.7688644688644688
6.520656982000219,0.46659340659340653,0.0,1.7688644688644688
6.5261361969969585,0.46659340659340653,0.0,1.7688644688644688
6.527703337997082,0.46659340659340653,0.0,1.7688644688644688
6.5320992459965055,0.46659340659340653,0.0,1.7688644688644688
6.533645634997811,0.46659340659340653,0.0,1.7688644688644688
6.5380575739982305,0.942051282051282,0.0,2.5666666666666664
6.538931230999879,0.0556043956043956,0.0,0.7945787545787546
6.540568953998445,0.0556043956043956,0.0,0.7945787545787546
6.543630934000248,0.16842490842490843,0.0,2.5723076923076924
6.5466326809983,0.7599267399267399,0.0,2.5674725274725274
6.549059783996199,0.7599267399267399,0.0,2.5674725274725274
6.549278296995908,0.7599267399267399,0.0,2.5674725274725274
6.554512645998329,0.0,0.0,2.5594139194139194
6.556812871000147,0.0,0.0,2.5594139194139194
6.557108759996481,0.0,0.0,0.4013186813186813
6.562288082001032,0.0,0.0,0.4013186813186813
6.566020375001244,1.120952380952381,0.0,2.5706959706959704
6.5705649410010665,1.120952380952381,0.0,2.5706959706959704
6.5708311529961065,1.120952380952381,0.0,2.5706959706959704
6.575975630999892,1.120952380952381,0.0,2.5706959706959704
6.579805911998847,1.120952380952381,0.0,2.5706959706959704
6.584422433996224,1.120952380952381,0.0,2.5706959706959704
6.584779773002083,1.120952380952381,0.0,2.5706959706959704
6.590137510000204,1.120952380952381,0.0,2.5706959706959704
6.592773919997853,1.120952380952381,0.0,2.5706959706959704
6.598059089999879,1.120952380952381,0.0,2.5706959706959704
6.601053108999622,1.120952380952381,0.0,2.5706959706959704
6.604184987001645,1.120952380952381,0.0,2.5706959706959704
6.6065941999986535,1.120952380952381,0.0,2.5706959706959704
6.612026147995493,1.120952380952381,0.0,2.5706959706959704
6.614519187998667,1.120952380952381,0.0,2.5706959706959704
6.614642323998851,1.120952380952381,0.0,2.5706959706959704
6.61992713699874,1.120952380952381,0.0,2.5706959706959704
6.623330258000351,1.120952380952381,0.0,2.5706959706959704
6.624164697997912,1.120952380952381,0.0,2.5706959706959704
6.625778369998443,1.120952380952381,0.0,2.5706959706959704
6.630322942997736,1.120952380952381,0.0,2.5706959706959704
6.630660315997375,1.120952380952381,0.0,2.5706959706959704
6.635955140001897,1.120952380952381,0.0,2.5706959706959704
6.63918002799619,1.120952380952381,0.0,2.5706959706959704
6.6407819890009705,1.120952380952381,0.0,2.5706959706959704
6.644510101999913,1.120952380952381,0.0,2.5706959706959704
6.649726889001613,0.0,0.0,2.8793406593406594
6.653399818998878,0.0,0.0,2.8793406593406594
6.65777603299648,0.5487912087912087,0.0,2.5666666666666664
6.659353622999333,0.2345054945054945,0.0,0.46417582417582415
6.6631573920021765,0.2345054945054945,0.0,0.46417582417582415
6.667550553000183,0.2345054945054945,0.0,0.46417582417582415
6.669100617997174,0.2345054945054945,0.0,0.46417582417582415
6.673568337995675,0.2345054945054945,0.0,0.46417582417582415
6.673820383999555,0.2345054945054945,0.0,0.46417582417582415
6.679274043999612,0.2345054945054945,0.0,0.46417582417582415
6.680337070996757,0.2345054945054945,0.0,0.46417582417582415
6.680602289001399,0.2345054945054945,0.0,0.46417582417582415
6.6858764400021755,0.2345054945054945,0.0,0.46417582417582415
6.689197364998108,0.2345054945054945,0.0,0.46417582417582415
6.689427027995407,0.2345054945054945,0.0,0.46417582417582415
6.694809757995245,0.2345054945054945,0.0,0.46417582417582415
6.69649365299847,0.2345054945054945,0.0,0.46417582417582415
6.700179858999036,0.2345054945054945,0.0,0.46417582417582415
6.705602911999449,0.2345054945054945,0.0,0.46417582417582415
6.706529078997846,0.2345054945054945,0.0,0.46417582417582415
6.708147992001614,0.2345054945054945,0.0,0.46417582417582415
6.711864409997361,0.2345054945054945,0.0,0.46417582417582415
6.71705563699652,0.2345054945054945,0.0,0.46417582417582415
6.719998772001418,0.2345054945054945,0.0,0.46417582417582415
6.723003366998455,0.2345054945054945,0.0,0.46417582417582415
6.725371432999964,0.2345054945054945,0.0,0.46417582417582415
6.725634648995765,0.2345054945054945,0.0,0.46417582417582415
6.730807861000358,0.2345054945054945,0.0,0.46417582417582415
6.733878250000998,0.2345054945054945,0.0,0.46417582417582415
6.735467742997571,1.0887179487179486,0.0,2.5634432234432234
6.740138059998571,1.0887179487179486,0.0,2.5634432234432234
6.740387473997544,1.0887179487179486,0.0,2.5634432234432234
6.745798946998548,1.0887179487179486,0.0,2.5634432234432234
6.7482674029961345,1.0887179487179486,0.0,2.5634432234432234
6.7483955130010145,1.0887179487179486,0.0,2.5634432234432234
6.753960925998399,1.0887179487179486,0.0,2.5634432234432234
6.755715273997339,1.0887179487179486,0.0,2.5634432234432234
6.758816039997328,1.0887179487179486,0.0,2.5634432234432234
6.7610683429957135,1.0887179487179486,0.0,2.5634432234432234
6.761358325995388,1.0887179487179486,0.0,2.5634432234432234
6.766653879996738,1.0887179487179486,0.0,2.5634432234432234
6.769638407000457,1.0887179487179486,0.0,2.5634432234432234
6.772639534996415,1.0887179487179486,0.0,2.5634432234432234
6.775660015002359,1.0887179487179486,0.0,2.5634432234432234
6.77865584599931,1.0887179487179486,0.0,2.5634432234432234
6.781686861999333,0.11362637362637362,0.0,1.0782417582417583
6.784637509001186,0.11362637362637362,0.0,1.0782417582417583
6.787633414998709,1.3304761904761904,0.0,2.569084249084249
6.789943037998455,1.3304761904761904,0.0,2.569084249084249
6.790232553998067,1.3304761904761904,0.0,2.569084249084249
6.795531071998994,1.3304761904761904,0.0,2.569084249084249
6.798592826999084,0.5439560439560439,0.0,2.573919413919414
6.800243343997863,0.5439560439560439,0.0,2.573919413919414
6.8047745040021255,0.5439560439560439,0.0,2.573919413919414
6.805587802999071,0.5439560439560439,0.0,2.573919413919414
6.807173506000254,0.0,0.0,2.8108424908424907
6.81150598199747,0.0,0.0,2.8108424908424907
6.812380016999668,0.0,0.0,2.8108424908424907
6.813938776998839,0.3843956043956044,0.0,2.573919413919414
6.818368544001714,0.3843956043956044,0.0,2.573919413919414
6.819298121001339,0.3843956043956044,0.0,2.573919413919414
6.820946128995274,0.3843956043956044,0.0,2.573919413919414
6.824757625996426,0.3843956043956044,0.0,2.573919413919414
6.8301651059955475,0.3843956043956044,0.0,2.573919413919414
6.832663839995803,0.3843956043956044,0.0,2.573919413919414
6.83796339899709,0.3843956043956044,0.0,2.573919413919414
6.840559757001756,0.3843956043956044,0.0,2.573919413919414
6.845906219998142,0.3843956043956044,0.0,2.573919413919414
6.848206287999346,0.3843956043956044,0.0,2.573919413919414
6.848451710000518,0.3843956043956044,0.0,2.573919413919414
6.853669318996253,0.3843956043956044,0.0,2.573919413919414
6.858120553995832,0.0,0.0,2.573113553113553
6.85834042699571,0.0,0.0,2.573113553113553
6.863748269999633,0.14586080586080585,0.0,2.5747252747252745
6.865958609996596,0.41340659340659336,0.0,2.5706959706959704
6.866227642000013,0.41340659340659336,0.0,2.5706959706959704
6.87132058700081,0.41340659340659336,0.0,2.5706959706959704
6.875152936001541,0.41340659340659336,0.0,2.5706959706959704
6.879503880998527,0.0975091575091575,0.0,0.25787545787545785
6.881064830995456,0.0975091575091575,0.0,0.25787545787545785
6.884843414998613,0.0975091575091575,0.0,0.25787545787545785
6.890250721000484,0.0975091575091575,0.0,0.25787545787545785
6.891820329001348,0.0975091575091575,0.0,0.25787545787545785
6.896289579999575,0.0975091575091575,0.0,0.25787545787545785
6.8970905160022085,0.25868131868131866,0.0,0.13538461538461538
6.898648556001717,0.25868131868131866,0.0,0.13538461538461538
6.903065824000805,0.25868131868131866,0.0,0.13538461538461538
6.903934663001564,0.25868131868131866,0.0,0.13538461538461538
6.905486527997709,0.25868131868131866,0.0,0.13538461538461538
6.909182324998255,0.25868131868131866,0.0,0.13538461538461538
6.909322624997003,0.25868131868131866,0.0,0.13538461538461538
6.914404948998708,0.31347985347985347,0.0,2.5682783882783884
6.91816238300089,0.6777289377289377,0.0,2.5747252747252745
6.92342260699661,0.6777289377289377,0.0,2.5747252747252745
6.9263751359976595,0.6777289377289377,0.0,2.5747252747252745
6.929381513000408,0.6777289377289377,0.0,2.5747252747252745
6.932402828999329,0.17487179487179486,0.0,2.573919413919414
6.9347044189999,0.17487179487179486,0.0,2.573919413919414
6.935028059997421,0.8195604395604396,0.0,3.017948717948718
6.940267457997834,0.4762637362637362,0.0,0.6084249084249085
6.943228987998737,0.9823443223443222,0.0,2.5706959706959704
6.946177928999532,0.9823443223443222,0.0,2.5706959706959704
6.949143154000922,0.9823443223443222,0.0,2.5706959706959704
6.952085856995836,0.1104029304029304,0.0,2.573919413919414
6.955058218998602,0.1104029304029304,0.0,2.573919413919414
6.958008296998742,0.1104029304029304,0.0,2.573919413919414
6.961018827001681,0.1104029304029304,0.0,2.573919413919414
6.963512504000391,0.1104029304029304,0.0,2.573919413919414
6.963601317998837,0.1104029304029304,0.0,2.573919413919414
6.968951320995984,0.1104029304029304,0.0,2.573919413919414
6.972052266995888,0.0,0.0,2.116996336996337
6.973676355999487,0.0,0.0,2.116996336996337
6.977318427998398,0.0,0.0,2.116996336996337
6.982760785002029,0.0,0.0,2.116996336996337
6.983712403001846,0.0,0.0,2.116996336996337
6.9845858400003635,1.448131868131868,0.0,3.3
6.986196159996325,1.448131868131868,0.0,3.3
6.990768586998456,1.448131868131868,0.0,3.3
6.9910479269965435,1.448131868131868,0.0,3.3
6.9962505959992995,1.448131868131868,0.0,3.3
6.999923787996522,1.448131868131868,0.0,3.3
7.000066838998464,0.07333333333333333,0.0,2.3652014652014652
7.00521606199618,0.07333333333333333,0.0,2.3652014652014652
7.008206760001485,0.0,0.0,2.5964835164835165
7.010440434001794,0.0,0.0,2.5964835164835165
7.010677908001526,0.0,0.0,2.5964835164835165
7.015840203996049,0.0,0.0,2.5964835164835165
7.019639243997517,0.0,0.0,2.5964835164835165
7.023524358999566,0.0,0.0,2.5964835164835165
7.027185147002456,0.0,0.0,2.5964835164835165
7.027338829000655,0.0,0.0,2.5964835164835165
7.032595926997601,0.0,0.0,2.5964835164835165
7.035593337001046,0.0,0.0,2.5964835164835165
7.038549851000425,0.0,0.0,2.5964835164835165
7.040841993999493,0.0,0.0,2.5964835164835165
7.041081251998548,1.1016117216117214,0.0,2.569084249084249
7.046427533001406,1.1016117216117214,0.0,2.569084249084249
7.0479875929959235,1.1016117216117214,0.0,2.569084249084249
7.052391937999346,1.1016117216117214,0.0,2.569084249084249
7.053950633999193,1.1016117216117214,0.0,2.569084249084249
7.058537543998682,1.1016117216117214,0.0,2.569084249084249
7.058830226997088,1.1016117216117214,0.0,2.569084249084249
7.06422081799974,1.1016117216117214,0.0,2.569084249084249
7.066141607996542,1.1016117216117214,0.0,2.569084249084249
7.068503411996062,1.1016117216117214,0.0,2.569084249084249
7.068835895996017,1.1016117216117214,0.0,2.569084249084249
7.073583842997323,1.1016117216117214,0.0,2.569084249084249
7.079158155996993,0.13135531135531134,0.0,2.5787545787545785
7.080743908998556,2.689157509157509,0.0,2.5755311355311354
7.084507334999216,2.689157509157509,0.0,2.5755311355311354
7.089771895996819,2.689157509157509,0.0,2.5755311355311354
7.093471834996308,2.689157509157509,0.0,2.5755311355311354
7.098770520999096,2.689157509157509,0.0,2.5755311355311354
7.101971978001529,0.43597069597069593,0.0,2.5747252747252745
7.103566069999943,0.43597069597069593,0.0,2.5747252747252745
7.107350170001155,0.43597069597069593,0.0,2.5747252747252745
7.112914502002241,0.43597069597069593,0.0,2.5747252747252745
7.113810695998836,0.43597069597069593,0.0,2.5747252747252745
7.115407847995812,0.43597069597069593,0.0,2.5747252747252745
7.119315135998477,0.43597069597069593,0.0,2.5747252747252745
7.123908299996401,0.43597069597069593,0.0,2.5747252747252745
7.124208278997685,0.9726739926739927,0.0,2.569084249084249
7.129351598996436,0.12329670329670328,0.0,1.361098901098901
7.13332193899987,0.12329670329670328,0.0,1.361098901098901
7.137014669999189,0.12329670329670328,0.0,1.361098901098901
7.142599753002287,0.0,0.0,0.4456410256410256
7.14294661799795,0.9791208791208791,0.0,2.5715018315018314
7.148077100995579,0.9791208791208791,0.0,2.5715018315018314
7.151093768996361,0.9791208791208791,0.0,2.5715018315018314
7.15407815999788,0.9791208791208791,0.0,2.5715018315018314
7.1570784540017485,0.9791208791208791,0.0,2.5715018315018314
7.160042051997152,0.9791208791208791,0.0,2.5715018315018314
7.163055313998484,0.9791208791208791,0.0,2.5715018315018314
7.166123709997919,0.9791208791208791,0.0,2.5715018315018314
7.1685654550019535,0.9791208791208791,0.0,2.5715018315018314
7.168789523995656,0.9791208791208791,0.0,2.5715018315018314
7.173960693995468,0.9791208791208791,0.0,2.5715018315018314
7.177838764997432,0.9791208791208791,0.0,2.5715018315018314
7.182519499998307,0.9791208791208791,0.0,2.5715018315018314
7.182835250001517,0.9791208791208791,0.0,2.5715018315018314
7.18743344899849,0.9791208791208791,0.0,2.5715018315018314
7.187780431995634,0.9791208791208791,0.0,2.5715018315018314
7.19311467299849,0.9791208791208791,0.0,2.5715018315018314
7.195615983997413,0.9791208791208791,0.0,2.5715018315018314
7.195783171002404,0.9791208791208791,0.0,2.5715018315018314
7.201156989998708,0.9791208791208791,0.0,2.5715018315018314
7.203644718996657,0.9791208791208791,0.0,2.5715018315018314
7.203781591000734,0.9791208791208791,0.0,2.5715018315018314
7.20918478800013,0.9791208791208791,0.0,2.5715018315018314
7.211638162996678,0.9791208791208791,0.0,2.5715018315018314
7.211779890996695,0.9791208791208791,0.0,2.5715018315018314
7.2169173329966725,0.9791208791208791,0.0,2.5715018315018314
7.220858524000505,0.9791208791208791,0.0,2.5715018315018314
7.224588960001711,0.747032967032967,0.0,2.5747252747252745
7.229087014995457,0.04915750915750916,0.0,0.5084981684981685
7.229887308996695,0.04915750915750916,0.0,0.5084981684981685
7.2314924800011795,0.04915750915750916,0.0,0.5084981684981685
7.23600197199994,0.04915750915750916,0.0,0.5084981684981685
7.236191474999941,0.04915750915750916,0.0,0.5084981684981685
7.241867329998058,0.04915750915750916,0.0,0.5084981684981685
7.242104092998488,0.7276923076923076,0.0,2.5706959706959704
7.2476225569989765,0.7276923076923076,0.0,2.5706959706959704
7.248601909996069,0.7276923076923076,0.0,2.5706959706959704
7.250108701999125,0.7276923076923076,0.0,2.5706959706959704
7.254692887996498,0.7276923076923076,0.0,2.5706959706959704
7.255016559000069,0.7276923076923076,0.0,2.5706959706959704
7.260290541002178,0.7276923076923076,0.0,2.5706959706959704
7.262757650998537,0.7276923076923076,0.0,2.5706959706959704
7.262850291001087,0.7276923076923076,0.0,2.5706959706959704
7.268000404001214,0.7276923076923076,0.0,2.5706959706959704
7.2716487719953875,0.7276923076923076,0.0,2.5706959706959704
7.2770183850007015,1.0178021978021978,0.0,2.5803663003663004
7.280180626999936,0.05399267399267399,2.573113553113553,0.6052014652014651
7.2826091189999715,0.05399267399267399,2.573113553113553,0.6052014652014651
7.282779371002107,0.05399267399267399,2.573113553113553,0.6052014652014651
7.287954522995278,1.9429304029304029,1.328058608058608,2.5843956043956045
7.291833167000732,0.0,0.3424908424908425,2.5594139194139194
7.295544884000265,0.0,0.3424908424908425,2.5594139194139194
7.30089682200196,0.0,0.3424908424908425,2.5594139194139194
7.30396284499875,0.3594139194139194,0.022564102564102562,2.5787545787545785
7.306210294002085,0.3594139194139194,0.022564102564102562,2.5787545787545785
7.306508797999413,0.3594139194139194,0.022564102564102562,2.5787545787545785
7.311813574000553,0.3594139194139194,0.022564102564102562,2.5787545787545785
7.314914773996861,0.3594139194139194,0.022564102564102562,2.5787545787545785
7.317269218998263,0.5350915750915751,0.033846153846153845,2.621465201465201
7.317545396996138,0.5350915750915751,0.033846153846153845,2.621465201465201
7.322849103002227,0.5350915750915751,0.033846153846153845,2.621465201465201
7.326046955000493,0.5350915750915751,0.033846153846153845,2.621465201465201
7.32836934599618,0.5350915750915751,0.033846153846153845,2.621465201465201
7.328572434998932,0.5350915750915751,0.033846153846153845,2.621465201465201
7.333142623996537,0.5350915750915751,0.033846153846153845,2.621465201465201
7.333399971998006,0.5350915750915751,0.033846153846153845,2.621465201465201
7.338582702999702,0.5350915750915751,0.033846153846153845,2.621465201465201
7.341658245000872,0.5350915750915751,0.033846153846153845,2.621465201465201
7.344024799000181,0.5350915750915751,0.033846153846153845,2.621465201465201
7.344287615997018,1.0306959706959706,0.03706959706959707,2.561025641025641
7.349757370997395,1.0306959706959706,0.03706959706959707,2.561025641025641
7.350807019996864,1.0306959706959706,0.03706959706959707,2.561025641025641
7.351811198997893,1.0306959706959706,0.03706959706959707,2.561025641025641
7.35211010799685,1.0306959706959706,0.03706959706959707,2.561025641025641
7.357316522000474,1.0306959706959706,0.03706959706959707,2.561025641025641
7.361161866996554,0.0,0.025787545787545788,1.2837362637362637
7.3649758259998634,0.0,0.025787545787545788,1.2837362637362637
7.369392223001341,0.0,0.025787545787545788,1.2837362637362637
7.370209248998435,0.0,0.025787545787545788,1.2837362637362637
7.371796342995367,0.0,0.025787545787545788,1.2837362637362637
7.376245786996151,0.0,0.025787545787545788,1.2837362637362637
7.377043360000243,0.0,0.025787545787545788,1.2837362637362637
7.378777127996727,0.0,0.025787545787545788,1.2837362637362637
7.382487055998354,0.6027838827838827,0.03626373626373627,2.5787545787545785
7.386957729999267,0.6027838827838827,0.03626373626373627,2.5787545787545785
7.387846457000705,0.0,0.03062271062271062,2.54974358974359
7.389600001995859,0.0,0.03062271062271062,2.54974358974359
7.392849509997177,0.0,0.03062271062271062,2.54974358974359
7.393753629999992,0.0,0.03062271062271062,2.54974358974359
7.395313285000157,0.0,0.03062271062271062,2.54974358974359
7.399845783998899,0.0,0.03062271062271062,2.54974358974359
7.400095969001995,0.0,0.03062271062271062,2.54974358974359
7.405451555998297,0.0,0.03062271062271062,2.54974358974359
7.407795747996715,1.6189743589743588,0.017728937728937726,2.561025641025641
7.4081513909986825,1.6189743589743588,0.017728937728937726,2.561025641025641
7.412662655995518,1.6189743589743588,0.017728937728937726,2.561025641025641
7.413557506995858,0.448058608058608,0.32395604395604394,2.5787545787545785
7.415166396996938,0.7381684981684982,2.5586080586080584,3.3
7.418899867996515,0.7381684981684982,2.5586080586080584,3.3
7.424242807996052,0.7381684981684982,2.5586080586080584,3.3
7.426537377999921,0.7381684981684982,2.5586080586080584,3.3
7.426821783999912,0.7381684981684982,2.5586080586080584,3.3
7.431404684997688,0.7381684981684982,2.5586080586080584,3.3
7.431684051996854,0.7381684981684982,2.5586080586080584,3.3
7.436957428995811,0.7381684981684982,2.5586080586080584,3.3
7.43928314599907,0.7381684981684982,2.5586080586080584,3.3
7.4401264229964,0.3424908424908425,0.0,2.565860805860806
7.441713421998429,0.3424908424908425,0.0,2.565860805860806
7.4460721840005135,0.3424908424908425,0.0,2.565860805860806
7.44693787900178,0.3424908424908425,0.0,2.565860805860806
