time,emg1,emg2,emg3
0.016273516994260717,0.0,0.1789010989010989,0.4037362637362637
0.0267190969971125,0.2627106227106227,0.2635164835164835,2.573113553113553
0.037067699995532166,0.2627106227106227,0.2635164835164835,2.573113553113553
0.04750029600108974,0.2627106227106227,0.2635164835164835,2.573113553113553
0.0573934839994763,0.10315018315018315,0.2643223443223443,3.3
0.06697016999532934,0.10315018315018315,0.2643223443223443,3.3
0.07555798699468141,0.2111355311355311,0.3046153846153846,2.5642490842490844
0.0821428970011766,0.2111355311355311,0.3046153846153846,2.5642490842490844
0.08840480700018816,0.052380952380952375,0.24739926739926738,2.888205128205128
0.09399929699429777,0.052380952380952375,0.24739926739926738,2.888205128205128
0.09420314899762161,0.052380952380952375,0.24739926739926738,2.888205128205128
0.10177729599672602,0.052380952380952375,0.24739926739926738,2.888205128205128
0.10862430300039705,0.052380952380952375,0.24739926739926738,2.888205128205128
0.11399466799775837,0.052380952380952375,0.24739926739926738,2.888205128205128
0.11429067100107204,0.052380952380952375,0.24739926739926738,2.888205128205128
0.1225324749975698,0.052380952380952375,0.24739926739926738,2.888205128205128
0.13054529199871467,0.052380952380952375,0.24739926739926738,2.888205128205128
0.1377137089948519,0.052380952380952375,0.24739926739926738,2.888205128205128
0.14241867599776015,1.2635897435897436,0.46175824175824176,2.573919413919414
0.14259190499433316,1.2635897435897436,0.46175824175824176,2.573919413919414
0.14819479300058447,1.2635897435897436,0.46175824175824176,2.573919413919414
0.14849379899533233,0.28930402930402926,0.1789010989010989,2.552967032967033
0.1530192559948773,0.28930402930402926,0.1789010989010989,2.552967032967033
0.15321920199494343,0.28930402930402926,0.1789010989010989,2.552967032967033
0.15851388599548955,0.28930402930402926,0.1789010989010989,2.552967032967033
0.16094091899867635,1.0548717948717947,0.5012454212454212,2.5787545787545785
0.16109434299869463,1.0548717948717947,0.5012454212454212,2.5787545787545785
0.16744386099890107,1.0548717948717947,0.5012454212454212,2.5787545787545785
0.1713206829954288,0.4013186813186813,0.2715750915750916,2.5553846153846154
0.17636058099742513,0.4013186813186813,0.2715750915750916,2.5553846153846154
0.1801419179973891,0.4013186813186813,0.2715750915750916,2.5553846153846154
0.18581945599726168,1.6463736263736264,0.4810989010989011,2.5481318681318683
0.1867942979952204,1.6463736263736264,0.4810989010989011,2.5481318681318683
0.18710068200016394,1.6463736263736264,0.4810989010989011,2.5481318681318683
0.19165381399943726,1.6463736263736264,0.4810989010989011,2.5481318681318683
0.19254366799577838,1.6463736263736264,0.4810989010989011,2.5481318681318683
0.193548525996448,1.6463736263736264,0.4810989010989011,2.5481318681318683
0.19492119799542706,1.6463736263736264,0.4810989010989011,2.5481318681318683
0.20553971199842636,1.6463736263736264,0.4810989010989011,2.5481318681318683
0.21238255199568812,1.6463736263736264,0.4810989010989011,2.5481318681318683
0.21805628899892326,1.6463736263736264,0.4810989010989011,2.5481318681318683
0.2183219869984896,0.8646886446886447,0.49479853479853475,2.5787545787545785
0.22648988099535927,0.8646886446886447,0.49479853479853475,2.5787545787545785
0.23117648100014776,0.4859340659340659,0.2562637362637363,2.5715018315018314
0.23135592499602353,1.012967032967033,0.36747252747252745,3.3
0.2362470329971984,1.012967032967033,0.36747252747252745,3.3
0.24173580199567368,0.7712087912087912,0.46659340659340653,2.5787545787545785
0.24339850199612556,0.8904761904761904,0.28769230769230764,3.3
0.24715026399644557,0.8904761904761904,0.28769230769230764,3.3
0.2472734299954027,0.4520879120879121,0.23934065934065935,2.5626373626373624
0.25417934999859426,0.49399267399267394,0.2627106227106227,2.569084249084249
0.25881915199715877,0.49399267399267394,0.2627106227106227,2.569084249084249
0.25902754799608374,0.49399267399267394,0.2627106227106227,2.569084249084249
0.26421824399585603,0.49399267399267394,0.2627106227106227,2.569084249084249
0.2696522409969475,0.49399267399267394,0.2627106227106227,2.569084249084249
0.2698907980011427,0.19824175824175824,0.21999999999999997,3.3
0.2747671030010679,0.19824175824175824,0.21999999999999997,3.3
0.2802494339994155,0.19824175824175824,0.21999999999999997,3.3
0.281855852001172,0.19824175824175824,0.21999999999999997,3.3
0.2874284589997842,0.19824175824175824,0.21999999999999997,3.3
0.28756160299963085,0.23531135531135527,0.4085714285714286,2.565860805860806
0.29317005499615334,0.23531135531135527,0.4085714285714286,2.565860805860806
0.29339730799983954,0.23531135531135527,0.4085714285714286,2.565860805860806
0.2988703609953518,0.23531135531135527,0.4085714285714286,2.565860805860806
0.30159634899609955,0.23531135531135527,0.4085714285714286,2.565860805860806
0.30536769299942534,0.23531135531135527,0.4085714285714286,2.565860805860806
0.3111717919964576,0.23531135531135527,0.4085714285714286,2.565860805860806
0.32205744899692945,0.5117216117216117,0.14908424908424908,0.9082051282051282
0.32889181099744746,0.5858608058608058,0.4593406593406593,2.5682783882783884
0.33461066900053993,0.5858608058608058,0.4593406593406593,2.5682783882783884
0.3462451239975053,0.5858608058608058,0.4593406593406593,2.5682783882783884
0.3548756800009869,0.4778754578754579,0.36747252747252745,2.5723076923076924
0.36051510199467884,0.5181684981684981,0.13216117216117215,0.7365567765567765
0.36145477799436776,1.0532600732600732,0.6753113553113552,2.5787545787545785
0.3623903740008245,1.0532600732600732,0.6753113553113552,2.5787545787545785
0.3640913509952952,1.0532600732600732,0.6753113553113552,2.5787545787545785
0.36784546799754025,1.0532600732600732,0.6753113553113552,2.5787545787545785
0.37362940699676983,1.0532600732600732,0.6753113553113552,2.5787545787545785
0.3784101089986507,1.0532600732600732,0.6753113553113552,2.5787545787545785
0.38509057099872734,1.3272527472527473,0.5391208791208791,2.552967032967033
0.3891497229997185,0.2909157509157509,0.26109890109890105,3.3
0.3909059779980453,0.2909157509157509,0.26109890109890105,3.3
0.3958461219954188,0.2909157509157509,0.26109890109890105,3.3
0.40115248399524717,0.6882051282051282,0.5915018315018314,2.5723076923076924
0.40419303499948,0.6882051282051282,0.5915018315018314,2.5723076923076924
0.4053934319963446,0.6882051282051282,0.5915018315018314,2.5723076923076924
0.4055863449975732,0.6882051282051282,0.5915018315018314,2.5723076923076924
0.41129443099634955,0.6882051282051282,0.5915018315018314,2.5723076923076924
0.4115478960011387,0.6882051282051282,0.5915018315018314,2.5723076923076924
0.41703045000031125,0.6882051282051282,0.5915018315018314,2.5723076923076924
0.4211296789944754,0.6882051282051282,0.5915018315018314,2.5723076923076924
0.42277574699983234,0.6882051282051282,0.5915018315018314,2.5723076923076924
0.4269757160000154,0.10315018315018315,0.3852014652014652,3.3
0.4294793139997637,0.10315018315018315,0.3852014652014652,3.3
0.43719801399856806,0.10315018315018315,0.3852014652014652,3.3
0.44140484200033825,0.10315018315018315,0.3852014652014652,3.3
0.44380264799838187,0.10315018315018315,0.3852014652014652,3.3
0.4439458909982932,0.31267399267399265,0.5294505494505495,2.5594139194139194
0.45062952299485914,0.31267399267399265,0.5294505494505495,2.5594139194139194
0.4558509979979135,0.4005128205128205,0.12087912087912088,0.4561172161172161
0.45680565299699083,0.8034432234432234,0.7284981684981684,2.5787545787545785
0.4584795299961115,0.8034432234432234,0.7284981684981684,2.5787545787545785
0.4623766969962162,0.8034432234432234,0.7284981684981684,2.5787545787545785
0.46733743300137576,0.8034432234432234,0.7284981684981684,2.5787545787545785
0.4728581969975494,0.6035897435897435,0.40776556776556777,2.557802197802198
0.4731328029956785,0.6269597069597069,0.23853479853479853,1.3103296703296703
0.4779339369997615,0.6269597069597069,0.23853479853479853,1.3103296703296703
0.4780973070010077,0.6269597069597069,0.23853479853479853,1.3103296703296703
0.48558478099585045,0.6269597069597069,0.23853479853479853,1.3103296703296703
0.4918573109971476,0.6269597069597069,0.23853479853479853,1.3103296703296703
0.495058517997677,0.6269597069597069,0.23853479853479853,1.3103296703296703
0.49745959699794184,0.6269597069597069,0.23853479853479853,1.3103296703296703
0.5057159439966199,0.6269597069597069,0.23853479853479853,1.3103296703296703
0.5124620469941874,0.6269597069597069,0.23853479853479853,1.3103296703296703
0.5185087169957114,0.6269597069597069,0.23853479853479853,1.3103296703296703
0.5225514249978005,0.6269597069597069,0.23853479853479853,1.3103296703296703
0.5258221510011936,0.6269597069597069,0.23853479853479853,1.3103296703296703
0.5274057169954176,0.4593406593406593,0.307032967032967,3.3
0.5312472969962982,0.755091575091575,0.42630036630036633,2.5602197802197804
0.5398888489944511,0.755091575091575,0.42630036630036633,2.5602197802197804
0.544763507998141,0.0,0.1652014652014652,1.7930402930402929
0.5522613239954808,0.0,0.1652014652014652,1.7930402930402929
0.5559059039951535,0.0,0.1652014652014652,1.7930402930402929
0.5615681829949608,0.0,0.1652014652014652,1.7930402930402929
0.5619041780009866,0.0,0.1652014652014652,1.7930402930402929
0.5689317559954361,0.0,0.1652014652014652,1.7930402930402929
0.5739785349942395,0.6841758241758242,0.45772893772893775,2.5674725274725274
0.5765039830002934,0.6841758241758242,0.45772893772893775,2.5674725274725274
0.5812007809945499,0.6841758241758242,0.45772893772893775,2.5674725274725274
0.5813773139961995,0.6841758241758242,0.45772893772893775,2.5674725274725274
0.5888591589973657,0.6841758241758242,0.45772893772893775,2.5674725274725274
0.593721072000335,0.6841758241758242,0.45772893772893775,2.5674725274725274
0.59871322500112,0.5383150183150183,0.1772893772893773,1.6383150183150184
0.6061052889999701,0.5383150183150183,0.1772893772893773,1.6383150183150184
0.6101062960005947,0.5383150183150183,0.1772893772893773,1.6383150183150184
0.6146671229944332,0.5383150183150183,0.1772893772893773,1.6383150183150184
0.6148851769976318,0.5383150183150183,0.1772893772893773,1.6383150183150184
0.6212822320012492,0.5383150183150183,0.1772893772893773,1.6383150183150184
0.6253301869946881,0.5383150183150183,0.1772893772893773,1.6383150183150184
0.6292694430012489,0.5383150183150183,0.1772893772893773,1.6383150183150184
0.6342456999991555,0.5383150183150183,0.1772893772893773,1.6383150183150184
0.6389807589948759,0.08864468864468865,0.016923076923076923,0.7446153846153846
0.6446391819990822,0.842124542124542,0.7430036630036629,2.5787545787545785
0.6449272530007875,0.17406593406593407,0.4126007326007326,2.552967032967033
0.6505243079955108,0.17406593406593407,0.4126007326007326,2.552967032967033
0.6508565809999709,0.8566300366300367,0.4166300366300366,3.3
0.6567543069977546,0.8566300366300367,0.4166300366300366,3.3
0.6624449839946465,0.8566300366300367,0.4166300366300366,3.3
0.6625797279994003,0.8566300366300367,0.4166300366300366,3.3
0.6695772009989014,0.8566300366300367,0.4166300366300366,3.3
0.674185445997864,0.8566300366300367,0.4166300366300366,3.3
0.6744092529988848,0.8566300366300367,0.4166300366300366,3.3
0.6793280060010147,0.8566300366300367,0.4166300366300366,3.3
0.6878996819941676,1.5883516483516482,0.5697435897435897,3.3
0.6921124520013109,1.5883516483516482,0.5697435897435897,3.3
0.6945605090004392,1.5883516483516482,0.5697435897435897,3.3
0.7005058659997303,0.13699633699633698,0.06124542124542124,0.8453479853479853
0.7006970289949095,0.13699633699633698,0.06124542124542124,0.8453479853479853
0.7075699509950937,0.13699633699633698,0.06124542124542124,0.8453479853479853
0.7115089779981645,0.13699633699633698,0.06124542124542124,0.8453479853479853
0.7155763299961109,0.13699633699633698,0.06124542124542124,0.8453479853479853
0.7198557259980589,1.0016849816849815,0.6132600732600733,2.5787545787545785
0.7202501520005171,1.0016849816849815,0.6132600732600733,2.5787545787545785
0.7273028819981846,1.0016849816849815,0.6132600732600733,2.5787545787545785
0.7320057589968201,1.0016849816849815,0.6132600732600733,2.5787545787545785
0.7322983589983778,0.3352380952380952,0.04996336996336996,0.22564102564102564
0.7393259029995534,0.3352380952380952,0.04996336996336996,0.22564102564102564
0.7440771900000982,0.7978021978021977,0.5213919413919413,2.5787545787545785
0.7441832139957114,0.0,0.13216117216117215,1.2055677655677655
0.7505030379979871,0.0,0.13216117216117215,1.2055677655677655
0.7540427179992548,0.5262271062271061,0.3295970695970696,2.5666666666666664
0.7597362919987063,0.3183150183150183,0.28608058608058606,3.3
0.7599471619978431,0.3183150183150183,0.28608058608058606,3.3
0.764692484997795,0.3183150183150183,0.28608058608058606,3.3
0.7649980319984024,0.3183150183150183,0.28608058608058606,3.3
0.7731512120008119,0.19018315018315018,0.24175824175824176,3.3
0.778004506995785,0.19018315018315018,0.24175824175824176,3.3
0.783271499996772,0.19018315018315018,0.24175824175824176,3.3
0.78664044499601,0.19018315018315018,0.24175824175824176,3.3
0.7868420509985299,0.19018315018315018,0.24175824175824176,3.3
0.791843989994959,0.19018315018315018,0.24175824175824176,3.3
0.7966201929957606,0.19018315018315018,0.24175824175824176,3.3
0.7968095149990404,0.19018315018315018,0.24175824175824176,3.3
0.8036845999959041,0.19018315018315018,0.24175824175824176,3.3
0.8071567849983694,0.19018315018315018,0.24175824175824176,3.3
0.8073837769989041,0.19018315018315018,0.24175824175824176,3.3
0.8127382729944657,0.19018315018315018,0.24175824175824176,3.3
0.8161905460001435,0.19018315018315018,0.24175824175824176,3.3
0.8166736749990378,0.19018315018315018,0.24175824175824176,3.3
0.8207747619962902,0.19018315018315018,0.24175824175824176,3.3
0.8239660569961416,0.17648351648351646,0.07978021978021978,3.3
0.8255816449964186,0.17648351648351646,0.07978021978021978,3.3
0.8293844369982253,0.17648351648351646,0.07978021978021978,3.3
0.8357958989945473,0.17648351648351646,0.07978021978021978,3.3
0.8392368189961417,0.17648351648351646,0.07978021978021978,3.3
0.8394807189979474,0.17648351648351646,0.07978021978021978,3.3
0.8440969439980108,0.17648351648351646,0.07978021978021978,3.3
0.8450349759950768,0.2063003663003663,0.27802197802197803,2.924468864468864
0.8460287380003138,0.2063003663003663,0.27802197802197803,2.924468864468864
0.8469818369994755,0.2063003663003663,0.27802197802197803,2.924468864468864
0.8479120529955253,0.2063003663003663,0.27802197802197803,2.924468864468864
0.8499043019983219,0.6503296703296703,0.31509157509157504,2.5666666666666664
0.8518503599989344,0.6503296703296703,0.31509157509157504,2.5666666666666664
0.8544336519989884,0.6503296703296703,0.31509157509157504,2.5666666666666664
0.8592565509970882,0.006446886446886447,0.02901098901098901,0.938021978021978
0.8646243469993351,0.006446886446886447,0.02901098901098901,0.938021978021978
0.8670584569990751,0.006446886446886447,0.02901098901098901,0.938021978021978
0.875119245996757,0.006446886446886447,0.02901098901098901,0.938021978021978
0.8800267789993086,0.006446886446886447,0.02901098901098901,0.938021978021978
0.8873909419999109,1.7124542124542126,0.4996336996336996,2.5626373626373624
0.8912540050005191,1.7124542124542126,0.4996336996336996,2.5626373626373624
0.8966394999952172,1.7124542124542126,0.4996336996336996,2.5626373626373624
0.8990160619941889,1.7124542124542126,0.4996336996336996,2.5626373626373624
0.8992087669976172,1.7124542124542126,0.4996336996336996,2.5626373626373624
0.9086143960012123,1.7124542124542126,0.4996336996336996,2.5626373626373624
0.9179468479997013,1.7124542124542126,0.4996336996336996,2.5626373626373624
0.9226238150004065,1.7124542124542126,0.4996336996336996,2.5626373626373624
0.9281489519999013,1.7124542124542126,0.4996336996336996,2.5626373626373624
0.9292713399991044,1.7124542124542126,0.4996336996336996,2.5626373626373624
0.9295109160011634,1.7124542124542126,0.4996336996336996,2.5626373626373624
0.9367795129946899,1.7124542124542126,0.4996336996336996,2.5626373626373624
0.9401784149958985,0.1523076923076923,0.028205128205128206,0.26915750915750913
0.9404542139964178,0.1523076923076923,0.028205128205128206,0.26915750915750913
0.9458895360003226,0.1523076923076923,0.028205128205128206,0.26915750915750913
0.9482459619975998,0.502051282051282,0.3457142857142857,2.5763369963369964
0.9568831930009765,0.502051282051282,0.3457142857142857,2.5763369963369964
0.9629588859970681,0.502051282051282,0.3457142857142857,2.5763369963369964
0.9706290819958667,0.09831501831501832,0.17406593406593407,2.0968498168498164
0.9749691039978643,0.6326007326007326,0.27882783882783885,2.5787545787545785
0.9775732779962709,0.3537728937728937,0.2079120879120879,3.3
0.9844356289977441,0.7913553113553113,0.4126007326007326,2.5787545787545785
0.9887878719964647,0.22805860805860806,0.25706959706959703,2.54974358974359
0.9904521439966629,0.22805860805860806,0.25706959706959703,2.54974358974359
0.9944703889996163,0.22805860805860806,0.25706959706959703,2.54974358974359
0.9976916019950295,0.21194139194139192,0.03142857142857143,0.24095238095238095
0.9987575299965101,0.21194139194139192,0.03142857142857143,0.24095238095238095
1.0000638749988866,0.21194139194139192,0.03142857142857143,0.24095238095238095
1.0070172129999264,0.21194139194139192,0.03142857142857143,0.24095238095238095
1.011557799000002,0.21194139194139192,0.03142857142857143,0.24095238095238095
1.0132249939997564,0.21194139194139192,0.03142857142857143,0.24095238095238095
1.0169599979999475,0.21194139194139192,0.03142857142857143,0.24095238095238095
1.0227031339964014,0.21194139194139192,0.03142857142857143,0.24095238095238095
1.028342530997179,0.21194139194139192,0.03142857142857143,0.24095238095238095
1.0291533939962392,0.21194139194139192,0.03142857142857143,0.24095238095238095
1.030750268000702,0.21194139194139192,0.03142857142857143,0.24095238095238095
1.0365480129985372,0.21194139194139192,0.03142857142857143,0.24095238095238095
1.0423969490002492,0.028205128205128206,0.024175824175824173,0.6543589743589743
1.0478228719948675,0.028205128205128206,0.024175824175824173,0.6543589743589743
1.0512680869942415,0.028205128205128206,0.024175824175824173,0.6543589743589743
1.0576305360009428,0.028205128205128206,0.024175824175824173,0.6543589743589743
1.061570842997753,0.028205128205128206,0.024175824175824173,0.6543589743589743
1.0686169609980425,0.24095238095238095,0.24659340659340656,2.54974358974359
1.072800208996341,0.6495238095238095,0.26673992673992675,2.5803663003663004
1.0751767010006006,0.6495238095238095,0.26673992673992675,2.5803663003663004
1.0753227699970012,0.012893772893772894,0.0556043956043956,0.5592673992673992
1.081380856994656,0.012893772893772894,0.0556043956043956,0.5592673992673992
1.0852769569974043,0.012893772893772894,0.0556043956043956,0.5592673992673992
1.0897899709962076,0.012893772893772894,0.0556043956043956,0.5592673992673992
1.090073882995057,0.012893772893772894,0.0556043956043956,0.5592673992673992
1.095331336997333,0.012893772893772894,0.0556043956043956,0.5592673992673992
1.09855486399465,0.0701098901098901,0.02901098901098901,0.4867399267399267
1.099468642998545,0.0701098901098901,0.02901098901098901,0.4867399267399267
1.1003496409975924,0.0701098901098901,0.02901098901098901,0.4867399267399267
1.1019676419964526,0.0701098901098901,0.02901098901098901,0.4867399267399267
1.1065525890007848,0.0701098901098901,0.02901098901098901,0.4867399267399267
1.1123769029945834,0.0701098901098901,0.02901098901098901,0.4867399267399267
1.1125133099994855,0.0701098901098901,0.02901098901098901,0.4867399267399267
1.1176271889999043,0.0701098901098901,0.02901098901098901,0.4867399267399267
1.1211697469989303,0.0701098901098901,0.02901098901098901,0.4867399267399267
1.121366618994216,0.29333333333333333,0.1241025641025641,3.3
1.1261959059993387,0.29333333333333333,0.1241025641025641,3.3
1.1311337820006884,0.29333333333333333,0.1241025641025641,3.3
1.1313144320010906,0.9017582417582416,0.25787545787545785,2.552967032967033
1.1359643809992122,0.32717948717948714,0.05882783882783882,0.3884249084249084
1.1362006359995576,0.32717948717948714,0.05882783882783882,0.3884249084249084
1.1441955159971258,0.32717948717948714,0.05882783882783882,0.3884249084249084
1.1505755639955169,0.32717948717948714,0.05882783882783882,0.3884249084249084
1.1541560789992218,0.32717948717948714,0.05882783882783882,0.3884249084249084
1.1589651179965585,0.32717948717948714,0.05882783882783882,0.3884249084249084
1.1590765500004636,0.32717948717948714,0.05882783882783882,0.3884249084249084
1.1650313629943412,0.32717948717948714,0.05882783882783882,0.3884249084249084
1.1736646389981615,0.32717948717948714,0.05882783882783882,0.3884249084249084
1.180082245999074,0.32717948717948714,0.05882783882783882,0.3884249084249084
1.1850028909975663,0.32717948717948714,0.05882783882783882,0.3884249084249084
1.1883536739987903,0.32717948717948714,0.05882783882783882,0.3884249084249084
1.1886863440013258,0.32717948717948714,0.05882783882783882,0.3884249084249084
1.1942700299987337,0.32717948717948714,0.05882783882783882,0.3884249084249084
1.1945452180007123,0.32717948717948714,0.05882783882783882,0.3884249084249084
1.2000287150003714,0.32717948717948714,0.05882783882783882,0.3884249084249084
1.2016305469951476,0.32717948717948714,0.05882783882783882,0.3884249084249084
1.2061794699984603,0.0,0.21274725274725276,1.722930402930403
1.2064214380006888,0.0,0.21274725274725276,1.722930402930403
1.2117412679945119,0.0,0.21274725274725276,1.722930402930403
1.2138970939995488,0.0,0.21274725274725276,1.722930402930403
1.215385311996215,0.1095970695970696,0.1571428571428571,1.9598534798534797
1.220042487999308,0.7816849816849816,0.4899633699633699,2.5787545787545785
1.220143646998622,0.7816849816849816,0.4899633699633699,2.5787545787545785
1.2255402980008512,0.7816849816849816,0.4899633699633699,2.5787545787545785
1.2273628559996723,0.3158974358974359,0.28849816849816845,3.3
1.2298198429998592,0.6906227106227106,0.3416849816849817,2.565860805860806
1.2300161109960754,0.6906227106227106,0.3416849816849817,2.565860805860806
1.2355659550012206,0.6906227106227106,0.3416849816849817,2.565860805860806
1.2364302220012178,0.24256410256410255,0.0419047619047619,0.21597069597069596
1.2380380049944506,0.24256410256410255,0.0419047619047619,0.21597069597069596
1.2419587109980057,0.24256410256410255,0.0419047619047619,0.21597069597069596
1.2457484269980341,1.7213186813186814,0.4754578754578754,3.3
1.250465279998025,1.7213186813186814,0.4754578754578754,3.3
1.2553967630010447,1.7213186813186814,0.4754578754578754,3.3
1.2628872919958667,1.7213186813186814,0.4754578754578754,3.3
1.2689469280012418,1.7213186813186814,0.4754578754578754,3.3
1.274366799996642,1.7213186813186814,0.4754578754578754,3.3
1.274634157998662,1.7213186813186814,0.4754578754578754,3.3
1.283401501001208,1.7213186813186814,0.4754578754578754,3.3
1.29256858399458,1.7213186813186814,0.4754578754578754,3.3
1.3001545279985294,1.7213186813186814,0.4754578754578754,3.3
1.304698053994798,1.7213186813186814,0.4754578754578754,3.3
1.3056460279985913,0.5512087912087912,0.41018315018315016,2.5561904761904763
1.30656904100033,0.5512087912087912,0.41018315018315016,2.5561904761904763
1.3082154519943288,0.5512087912087912,0.41018315018315016,2.5561904761904763
1.3120761850004783,0.788937728937729,0.3626373626373626,2.561025641025641
1.3169020479981555,0.20468864468864467,0.051575091575091575,0.39890109890109887
1.3222845369964489,0.20468864468864467,0.051575091575091575,0.39890109890109887
1.3248194150000927,0.20468864468864467,0.051575091575091575,0.39890109890109887
1.3249565379956039,0.20468864468864467,0.051575091575091575,0.39890109890109887
1.3305174560009618,0.20468864468864467,0.051575091575091575,0.39890109890109887
1.3307085310007096,0.20468864468864467,0.051575091575091575,0.39890109890109887
1.3361386649994529,0.20468864468864467,0.051575091575091575,0.39890109890109887
1.337737465997634,0.20468864468864467,0.051575091575091575,0.39890109890109887
1.3422378089962876,0.20468864468864467,0.051575091575091575,0.39890109890109887
1.3431132689947844,0.20468864468864467,0.051575091575091575,0.39890109890109887
1.3447193989995867,0.20468864468864467,0.051575091575091575,0.39890109890109887
1.3494766229996458,0.20468864468864467,0.051575091575091575,0.39890109890109887
1.3551101819975884,0.20468864468864467,0.051575091575091575,0.39890109890109887
1.3560932420004974,0.20468864468864467,0.051575091575091575,0.39890109890109887
1.3563917930005118,0.20468864468864467,0.051575091575091575,0.39890109890109887
1.36170686299738,0.20468864468864467,0.051575091575091575,0.39890109890109887
1.3638575799996033,0.0,0.23208791208791207,0.7365567765567765
1.365323827994871,0.0,0.23208791208791207,0.7365567765567765
1.3695143469958566,0.0,0.23208791208791207,0.7365567765567765
1.3723323980011628,0.0,0.23208791208791207,0.7365567765567765
1.3752552890000516,0.0,0.23208791208791207,0.7365567765567765
1.3789326319965767,0.0,0.23208791208791207,0.7365567765567765
1.3841118529962841,0.0,0.23208791208791207,0.7365567765567765
1.3873451459949138,0.0,0.23208791208791207,0.7365567765567765
1.3888978039976791,0.0,0.23208791208791207,0.7365567765567765
1.3927937479966204,0.0,0.23208791208791207,0.7365567765567765
1.3967260399949737,0.0,0.23208791208791207,0.7365567765567765
1.40052755799843,0.0,0.23208791208791207,0.7365567765567765
1.4062393249987508,1.3256410256410256,0.46417582417582415,2.5787545787545785
1.4064991400009603,1.3256410256410256,0.46417582417582415,2.5787545787545785
1.4115124279996962,1.3256410256410256,0.46417582417582415,2.5787545787545785
1.415955219999887,0.5084981684981685,0.17245421245421244,2.5594139194139194
1.4168584539947915,0.5084981684981685,0.17245421245421244,2.5594139194139194
1.4184723729995312,0.5084981684981685,0.17245421245421244,2.5594139194139194
1.4226577519948478,0.5084981684981685,0.17245421245421244,2.5594139194139194
1.4247971379954834,0.5084981684981685,0.17245421245421244,2.5594139194139194
1.4255955209955573,0.5084981684981685,0.17245421245421244,2.5594139194139194
1.4277360159976524,0.5084981684981685,0.17245421245421244,2.5594139194139194
1.4286330659961095,0.5084981684981685,0.17245421245421244,2.5594139194139194
1.430184229000588,0.5084981684981685,0.17245421245421244,2.5594139194139194
1.434365364999394,0.5084981684981685,0.17245421245421244,2.5594139194139194
1.4372488859953592,0.5084981684981685,0.17245421245421244,2.5594139194139194
1.4414798889993108,2.006593406593406,0.6914285714285714,2.5787545787545785
1.4437549889989896,2.006593406593406,0.6914285714285714,2.5787545787545785
1.4445970019951346,2.006593406593406,0.6914285714285714,2.5787545787545785
1.4461326499949791,2.006593406593406,0.6914285714285714,2.5787545787545785
1.4503349660008098,1.1467399267399265,0.40534798534798533,2.5666666666666664
1.4525049899966689,0.8115018315018314,0.19985347985347984,2.8317948717948713
1.4528503519977676,0.8115018315018314,0.19985347985347984,2.8317948717948713
1.4576938179961871,0.15794871794871795,0.04915750915750916,0.4383882783882784
1.4577759649982909,0.15794871794871795,0.04915750915750916,0.4383882783882784
1.462637407996226,0.15794871794871795,0.04915750915750916,0.4383882783882784
1.468250313999306,0.15794871794871795,0.04915750915750916,0.4383882783882784
1.4685861969992402,0.15794871794871795,0.04915750915750916,0.4383882783882784
1.4734343839954818,0.15794871794871795,0.04915750915750916,0.4383882783882784
1.479038646000845,0.35216117216117215,0.06285714285714286,0.190989010989011
1.479962257995794,0.35216117216117215,0.06285714285714286,0.190989010989011
1.4808406189986272,0.35216117216117215,0.06285714285714286,0.190989010989011
1.4824904970009811,0.35216117216117215,0.06285714285714286,0.190989010989011
1.4864295289953589,0.35216117216117215,0.06285714285714286,0.190989010989011
1.491139846999431,1.3884981684981685,0.38036630036630037,2.5674725274725274
1.4964766289995168,1.3884981684981685,0.38036630036630037,2.5674725274725274
1.4987873409991153,1.7487179487179487,0.5745787545787545,2.5763369963369964
1.4990791689997423,1.7487179487179487,0.5745787545787545,2.5763369963369964
1.5036393609989318,1.7487179487179487,0.5745787545787545,2.5763369963369964
1.5039110889993026,0.43435897435897436,0.3038095238095238,1.7704761904761903
1.5094528129993705,0.43435897435897436,0.3038095238095238,1.7704761904761903
1.510288462995959,1.220879120879121,0.303003663003663,3.3
1.5118907219948596,1.220879120879121,0.303003663003663,3.3
1.515721523996035,1.220879120879121,0.303003663003663,3.3
1.5212618469959125,1.220879120879121,0.303003663003663,3.3
1.5215557069968781,0.35135531135531134,0.2602930402930403,1.4787545787545788
1.5272313079985906,0.35135531135531134,0.2602930402930403,1.4787545787545788
1.5275792389948037,1.212014652014652,0.3706959706959707,2.565054945054945
1.5325560849960311,1.212014652014652,0.3706959706959707,2.565054945054945
1.5367128209982184,1.2660073260073261,0.3731135531135531,3.3
1.5399059839983238,1.2660073260073261,0.3731135531135531,3.3
1.5415100059981341,1.2660073260073261,0.3731135531135531,3.3
1.5456107649952173,0.04029304029304029,0.17487179487179486,0.5133333333333333
1.5487439819989959,1.0242490842490841,0.311062271062271,2.5553846153846154
1.5503984479946666,1.0242490842490841,0.311062271062271,2.5553846153846154
1.5541801219951594,1.1967032967032967,0.3529670329670329,3.3
1.559659382000973,1.1967032967032967,0.3529670329670329,3.3
1.5612404639978195,1.1967032967032967,0.3529670329670329,3.3
1.5650007959993673,0.4553113553113553,0.30058608058608055,1.5295238095238095
1.5704789769952185,0.4553113553113553,0.30058608058608055,1.5295238095238095
1.5714113189969794,0.4553113553113553,0.30058608058608055,1.5295238095238095
1.5724366279973765,0.4553113553113553,0.30058608058608055,1.5295238095238095
1.5732852649962297,0.4553113553113553,0.30058608058608055,1.5295238095238095
1.5755374309956096,0.4553113553113553,0.30058608058608055,1.5295238095238095
1.575859215001401,0.4553113553113553,0.30058608058608055,1.5295238095238095
1.5811142399979872,0.4553113553113553,0.30058608058608055,1.5295238095238095
1.5842246280008112,0.4553113553113553,0.30058608058608055,1.5295238095238095
1.5858606129986583,0.4553113553113553,0.30058608058608055,1.5295238095238095
1.5902788809980848,0.4553113553113553,0.30058608058608055,1.5295238095238095
1.591825659997994,0.4553113553113553,0.30058608058608055,1.5295238095238095
1.5964617529971292,0.4553113553113553,0.30058608058608055,1.5295238095238095
1.5966292779994546,0.4553113553113553,0.30058608058608055,1.5295238095238095
1.60222345800139,0.4553113553113553,0.30058608058608055,1.5295238095238095
1.6031543360004434,0.4553113553113553,0.30058608058608055,1.5295238095238095
1.6047108079947066,0.4553113553113553,0.30058608058608055,1.5295238095238095
1.609413662001316,0.4553113553113553,0.30058608058608055,1.5295238095238095
1.609640850998403,0.4553113553113553,0.30058608058608055,1.5295238095238095
1.6149647839993122,0.4553113553113553,0.30058608058608055,1.5295238095238095
1.6179411220000475,0.4553113553113553,0.30058608058608055,1.5295238095238095
1.620318335997581,0.4553113553113553,0.30058608058608055,1.5295238095238095
1.6205426899978193,0.4553113553113553,0.30058608058608055,1.5295238095238095
1.6260647179951775,0.4553113553113553,0.30058608058608055,1.5295238095238095
1.6276435920008225,0.4553113553113553,0.30058608058608055,1.5295238095238095
1.631506077996164,0.4553113553113553,0.30058608058608055,1.5295238095238095
1.6360355139986495,0.4553113553113553,0.30058608058608055,1.5295238095238095
1.6363439869965077,0.9033699633699634,0.6019780219780219,2.5787545787545785
1.641178232996026,0.9033699633699634,0.6019780219780219,2.5787545787545785
1.6413145740007167,0.9033699633699634,0.6019780219780219,2.5787545787545785
1.6462460679977085,0.9033699633699634,0.6019780219780219,2.5787545787545785
1.6504405369996675,0.9033699633699634,0.6019780219780219,2.5787545787545785
1.652625848997559,0.49076923076923074,0.1676190476190476,0.3191208791208791
1.65343927199865,0.49076923076923074,0.1676190476190476,0.3191208791208791
1.6550324989948422,0.49076923076923074,0.1676190476190476,0.3191208791208791
1.659298114995181,0.49076923076923074,0.1676190476190476,0.3191208791208791
1.6621326339954976,0.49076923076923074,0.1676190476190476,0.3191208791208791
1.6656985329973395,0.49076923076923074,0.1676190476190476,0.3191208791208791
1.665979432000313,0.3344322344322344,0.311062271062271,3.3
1.6707809879953857,0.8252014652014652,0.4488644688644688,2.56989010989011
1.6709735059994273,0.5874725274725274,0.19904761904761903,0.7994139194139194
1.6758188210005756,0.5874725274725274,0.19904761904761903,0.7994139194139194
1.6759174629987683,0.1378021978021978,0.03465201465201465,0.5221978021978021
1.6807305199981784,0.1378021978021978,0.03465201465201465,0.5221978021978021
1.680861578999611,0.1378021978021978,0.03465201465201465,0.5221978021978021
1.6858096079959068,0.1378021978021978,0.03465201465201465,0.5221978021978021
1.6900266980010201,0.1378021978021978,0.03465201465201465,0.5221978021978021
1.6928366180000012,0.1378021978021978,0.03465201465201465,0.5221978021978021
1.6964023489999818,0.1378021978021978,0.03465201465201465,0.5221978021978021
1.6966143239988014,0.1378021978021978,0.03465201465201465,0.5221978021978021
1.7019286319991807,0.1378021978021978,0.03465201465201465,0.5221978021978021
1.7052188059969922,1.3893040293040293,0.46820512820512816,2.5787545787545785
1.7061416219949024,1.3893040293040293,0.46820512820512816,2.5787545787545785
1.707011591999617,1.3893040293040293,0.46820512820512816,2.5787545787545785
1.7086630389967468,1.3893040293040293,0.46820512820512816,2.5787545787545785
1.7136735929962015,1.3893040293040293,0.46820512820512816,2.5787545787545785
1.7175576079971506,1.3893040293040293,0.46820512820512816,2.5787545787545785
1.721292297996115,1.3893040293040293,0.46820512820512816,2.5787545787545785
1.726732611998159,1.3893040293040293,0.46820512820512816,2.5787545787545785
1.7299875850003446,1.099194139194139,0.5076923076923077,2.5642490842490844
1.730904798998381,1.099194139194139,0.5076923076923077,2.5642490842490844
1.7325435479942826,1.099194139194139,0.5076923076923077,2.5642490842490844
1.736868162995961,1.099194139194139,0.5076923076923077,2.5642490842490844
1.7383784189951257,1.099194139194139,0.5076923076923077,2.5642490842490844
1.7425886589990114,1.099194139194139,0.5076923076923077,2.5642490842490844
1.7448104930008412,1.099194139194139,0.5076923076923077,2.5642490842490844
1.7456027839944,1.099194139194139,0.5076923076923077,2.5642490842490844
1.7477496419960517,1.099194139194139,0.5076923076923077,2.5642490842490844
1.748553521996655,1.236996336996337,0.4424175824175824,2.5682783882783884
1.7501544979968457,1.236996336996337,0.4424175824175824,2.5682783882783884
1.7542887659947155,1.236996336996337,0.4424175824175824,2.5682783882783884
1.7571590379957343,0.46175824175824176,0.08058608058608058,0.311062271062271
1.7613511259987717,0.46175824175824176,0.08058608058608058,0.311062271062271
1.764184166000632,0.46175824175824176,0.08058608058608058,0.311062271062271
1.767673187998298,0.46175824175824176,0.08058608058608058,0.311062271062271
1.768480015998648,0.46175824175824176,0.08058608058608058,0.311062271062271
1.7700373599946033,0.46175824175824176,0.08058608058608058,0.311062271062271
1.7750613919997704,1.0758241758241758,0.27076923076923076,3.3
1.779286738994415,1.0758241758241758,0.27076923076923076,3.3
1.7823066950004431,1.8808791208791207,0.5439560439560439,3.3
1.7851150919959764,0.0,0.06043956043956044,2.868864468864469
1.7886512869954458,0.0,0.06043956043956044,2.868864468864469
1.788854682999954,0.0,0.06043956043956044,2.868864468864469
1.793800598999951,0.0,0.06043956043956044,2.868864468864469
1.797680389994639,0.017728937728937726,0.03062271062271062,0.6591941391941392
1.8023416910000378,0.017728937728937726,0.03062271062271062,0.6591941391941392
1.8024819089987432,0.017728937728937726,0.03062271062271062,0.6591941391941392
1.8079176699975505,0.017728937728937726,0.03062271062271062,0.6591941391941392
1.8096325389997219,0.017728937728937726,0.03062271062271062,0.6591941391941392
1.8127486179946573,0.842124542124542,0.24578754578754577,2.552967032967033
1.8159227799988003,0.842124542124542,0.24578754578754577,2.552967032967033
1.8175100849985029,0.755091575091575,0.37150183150183147,3.3
1.8213554809990455,0.755091575091575,0.37150183150183147,3.3
1.8266434199977084,0.2756043956043956,0.3263736263736263,2.166153846153846
1.8295722729963018,0.2756043956043956,0.3263736263736263,2.166153846153846
1.8317775260002236,0.2756043956043956,0.3263736263736263,2.166153846153846
1.8325839629978873,0.2756043956043956,0.3263736263736263,2.166153846153846
1.8347303819973604,0.2756043956043956,0.3263736263736263,2.166153846153846
1.8355772409995552,0.0,0.04029304029304029,0.6003663003663003
1.837068613996962,0.0,0.04029304029304029,0.6003663003663003
1.841913623000437,0.0,0.04029304029304029,0.6003663003663003
1.846715072999359,0.0,0.04029304029304029,0.6003663003663003
1.846880754994345,0.0,0.04029304029304029,0.6003663003663003
1.851720081998792,0.0,0.04029304029304029,0.6003663003663003
1.851875337997626,0.0,0.04029304029304029,0.6003663003663003
1.8567506539984606,0.0,0.04029304029304029,0.6003663003663003
1.8616870969999582,0.0,0.04029304029304029,0.6003663003663003
1.866660891995707,0.0,0.04029304029304029,0.6003663003663003
1.872814369999105,1.0484249084249082,0.3432967032967033,2.5706959706959704
1.8758701129991096,1.0484249084249082,0.3432967032967033,2.5706959706959704
1.8782248110001092,1.4787545787545788,0.5447619047619047,2.577142857142857
1.8784606150002219,1.4787545787545788,0.5447619047619047,2.577142857142857
1.8830614010003046,1.4787545787545788,0.5447619047619047,2.577142857142857
1.8833133070002077,0.0,0.1555311355311355,1.4054212454212454
1.8885177029951592,0.0,0.1555311355311355,1.4054212454212454
1.8923691460004193,0.0,0.1555311355311355,1.4054212454212454
1.8969558300013887,0.0,0.1555311355311355,1.4054212454212454
1.8971302619975177,0.0,0.1555311355311355,1.4054212454212454
1.9026023999977042,0.0,0.1555311355311355,1.4054212454212454
1.9047257150014048,0.0,0.1555311355311355,1.4054212454212454
1.9055621789957513,0.0,0.1555311355311355,1.4054212454212454
1.9070798229950015,0.0,0.1555311355311355,1.4054212454212454
1.9120862269992358,0.0,0.1555311355311355,1.4054212454212454
1.9168443140006275,1.0846886446886446,0.21355311355311357,2.54974358974359
1.9222193559980951,1.0846886446886446,0.21355311355311357,2.54974358974359
1.9246270619987627,1.0846886446886446,0.21355311355311357,2.54974358974359
1.9300797409960069,1.0846886446886446,0.21355311355311357,2.54974358974359
1.9325296600000001,1.0846886446886446,0.21355311355311357,2.54974358974359
1.9370935589977307,1.0846886446886446,0.21355311355311357,2.54974358974359
1.9379552239988698,1.0846886446886446,0.21355311355311357,2.54974358974359
1.9396445259990287,1.0846886446886446,0.21355311355311357,2.54974358974359
1.9429035189969,1.0846886446886446,0.21355311355311357,2.54974358974359
1.9445406619997812,1.0846886446886446,0.21355311355311357,2.54974358974359
1.9492129419959383,1.0846886446886446,0.21355311355311357,2.54974358974359
1.9493490449967794,1.0846886446886446,0.21355311355311357,2.54974358974359
1.9538256539963186,1.0846886446886446,0.21355311355311357,2.54974358974359
1.9560727989955922,1.0846886446886446,0.21355311355311357,2.54974358974359
1.9563556809953297,1.0846886446886446,0.21355311355311357,2.54974358974359
1.9615664459997788,1.0846886446886446,0.21355311355311357,2.54974358974359
1.9639024389980477,0.12974358974358974,0.24256410256410255,2.283003663003663
1.964093304995913,0.12974358974358974,0.24256410256410255,2.283003663003663
1.9692671709999559,0.12974358974358974,0.24256410256410255,2.283003663003663
1.9723166990006575,0.855018315018315,0.24175824175824176,2.5481318681318683
1.9746176799962996,0.855018315018315,0.24175824175824176,2.5481318681318683
1.9754352620002464,0.855018315018315,0.24175824175824176,2.5481318681318683
1.976306297001429,0.855018315018315,0.24175824175824176,2.5481318681318683
1.977838492995943,0.855018315018315,0.24175824175824176,2.5481318681318683
1.9828647049944266,1.1475457875457875,0.4029304029304029,2.5787545787545785
1.987021080996783,1.1475457875457875,0.4029304029304029,2.5787545787545785
1.9898651559997234,1.1475457875457875,0.4029304029304029,2.5787545787545785
1.993953123994288,1.1475457875457875,0.4029304029304029,2.5787545787545785
1.9974257819994818,1.1475457875457875,0.4029304029304029,2.5787545787545785
1.9977152299979934,1.1475457875457875,0.4029304029304029,2.5787545787545785
2.0025716419986566,1.1475457875457875,0.4029304029304029,2.5787545787545785
2.0068102259974694,0.39406593406593404,0.30542124542124544,3.3
2.0089257119980175,0.43999999999999995,0.28205128205128205,3.3
2.0103354940001736,0.43999999999999995,0.28205128205128205,3.3
2.0151159279994317,0.43999999999999995,0.28205128205128205,3.3
2.015331050999521,0.43999999999999995,0.28205128205128205,3.3
2.020115965999139,0.43999999999999995,0.28205128205128205,3.3
2.020362473995192,0.43999999999999995,0.28205128205128205,3.3
2.025067565999052,0.43999999999999995,0.28205128205128205,3.3
2.0253398409986403,0.43999999999999995,0.28205128205128205,3.3
2.030161119000695,0.43999999999999995,0.28205128205128205,3.3
2.0303676670009736,0.43999999999999995,0.28205128205128205,3.3
2.035172652998881,0.43999999999999995,0.28205128205128205,3.3
2.035315676999744,0.4214652014652014,0.06205128205128205,0.4899633699633699
2.040495718996681,0.4214652014652014,0.06205128205128205,0.4899633699633699
2.043583877995843,1.5907692307692307,0.5898901098901098,2.5787545787545785
2.045931622997159,0.8292307692307692,0.28285714285714286,2.5682783882783884
2.0461958759988192,0.8292307692307692,0.28285714285714286,2.5682783882783884
2.0513812369972584,0.8292307692307692,0.28285714285714286,2.5682783882783884
2.0544194639951456,0.8292307692307692,0.28285714285714286,2.5682783882783884
2.0567073700003675,0.8292307692307692,0.28285714285714286,2.5682783882783884
2.0575384920011857,0.8292307692307692,0.28285714285714286,2.5682783882783884
2.058497958998487,0.8292307692307692,0.28285714285714286,2.5682783882783884
2.06005843100138,0.8292307692307692,0.28285714285714286,2.5682783882783884
2.064760891997139,0.8292307692307692,0.28285714285714286,2.5682783882783884
2.064870891001192,0.8276190476190476,0.2772161172161172,2.5706959706959704
2.0693664430000354,0.49399267399267394,0.2345054945054945,2.54974358974359
2.0709133409982314,0.5375091575091575,0.12249084249084248,2.5602197802197804
2.0747103100002278,0.5713553113553113,0.14747252747252745,1.9308424908424908
2.080263087998901,0.5713553113553113,0.14747252747252745,1.9308424908424908
2.081245034998574,0.5713553113553113,0.14747252747252745,1.9308424908424908
2.082168989996717,0.5713553113553113,0.14747252747252745,1.9308424908424908
2.083795407997968,0.5713553113553113,0.14747252747252745,1.9308424908424908
2.0870196369942278,0.5713553113553113,0.14747252747252745,1.9308424908424908
2.088644520001253,0.5713553113553113,0.14747252747252745,1.9308424908424908
2.0932113050002954,0.5197802197802197,0.11443223443223444,2.5602197802197804
2.093544067000039,0.5197802197802197,0.11443223443223444,2.5602197802197804
2.0991148719986086,0.037875457875457874,0.037875457875457874,0.49802197802197795
2.1001298679984757,0.037875457875457874,0.037875457875457874,0.49802197802197795
2.1009305349944043,0.037875457875457874,0.037875457875457874,0.49802197802197795
2.1026795789948665,0.037875457875457874,0.037875457875457874,0.49802197802197795
2.105842673998268,0.037875457875457874,0.037875457875457874,0.49802197802197795
2.107407660994795,0.037875457875457874,0.037875457875457874,0.49802197802197795
2.111220257000241,0.037875457875457874,0.037875457875457874,0.49802197802197795
2.116079463994538,0.037875457875457874,0.037875457875457874,0.49802197802197795
2.121511842997279,0.9847619047619047,0.41340659340659336,2.5787545787545785
2.1231773479958065,0.9847619047619047,0.41340659340659336,2.5787545787545785
2.1269321419968037,0.9847619047619047,0.41340659340659336,2.5787545787545785
2.1270982209971407,0.9847619047619047,0.41340659340659336,2.5787545787545785
2.1316913059999933,0.9847619047619047,0.41340659340659336,2.5787545787545785
2.13260280299437,0.9847619047619047,0.41340659340659336,2.5787545787545785
2.1341862560002482,0.9847619047619047,0.41340659340659336,2.5787545787545785
2.137991701994906,0.9847619047619047,0.41340659340659336,2.5787545787545785
2.142538758998853,1.012967032967033,0.42630036630036633,2.5787545787545785
2.142910935996042,1.012967032967033,0.42630036630036633,2.5787545787545785
2.1475495869963197,0.4254945054945055,0.31347985347985347,2.553772893772894
2.147778501996072,0.4254945054945055,0.31347985347985347,2.553772893772894
2.153122525996878,0.4254945054945055,0.31347985347985347,2.553772893772894
2.1556050649960525,0.4254945054945055,0.31347985347985347,2.553772893772894
2.1557187469952623,0.4254945054945055,0.31347985347985347,2.553772893772894
2.1611230189955677,0.4254945054945055,0.31347985347985347,2.553772893772894
2.162893124994298,0.4254945054945055,0.31347985347985347,2.553772893772894
2.1652702139981557,0.4254945054945055,0.31347985347985347,2.553772893772894
2.165499884999008,0.4794871794871795,0.26915750915750913,2.5553846153846154
2.1709544109980925,0.4794871794871795,0.26915750915750913,2.5553846153846154
2.1734762029955164,0.4794871794871795,0.26915750915750913,2.5553846153846154
2.1789307039944106,0.4794871794871795,0.26915750915750913,2.5553846153846154
2.1805895759971463,1.0645421245421245,0.4464468864468864,2.5787545787545785
2.1845122939994326,1.0645421245421245,0.4464468864468864,2.5787545787545785
2.18784776499524,1.0645421245421245,0.4464468864468864,2.5787545787545785
2.188851701001113,1.0645421245421245,0.4464468864468864,2.5787545787545785
2.189152588995057,1.0645421245421245,0.4464468864468864,2.5787545787545785
2.193878270998539,1.0645421245421245,0.4464468864468864,2.5787545787545785
2.1941006259949063,1.0645421245421245,0.4464468864468864,2.5787545787545785
2.1990559789992403,1.0645421245421245,0.4464468864468864,2.5787545787545785
2.2044175539995194,1.7849816849816849,0.43032967032967034,3.3
2.206681131996447,0.7059340659340658,0.3602197802197802,2.577142857142857
2.2069662759968196,0.7059340659340658,0.3602197802197802,2.577142857142857
2.212406409998948,0.9331868131868131,0.2957509157509157,2.5787545787545785
2.21394583399524,0.9331868131868131,0.2957509157509157,2.5787545787545785
2.217881292999664,0.9331868131868131,0.2957509157509157,2.5787545787545785
2.221761262000655,0.9331868131868131,0.2957509157509157,2.5787545787545785
2.2271943359955912,0.9331868131868131,0.2957509157509157,2.5787545787545785
2.2288856209997903,0.9331868131868131,0.2957509157509157,2.5787545787545785
2.2319792299967958,0.9331868131868131,0.2957509157509157,2.5787545787545785
2.2342494260010426,0.9331868131868131,0.2957509157509157,2.5787545787545785
2.234434833000705,0.9331868131868131,0.2957509157509157,2.5787545787545785
2.2391165679946425,0.9331868131868131,0.2957509157509157,2.5787545787545785
2.239350364994607,0.9331868131868131,0.2957509157509157,2.5787545787545785
2.244842438994965,0.9331868131868131,0.2957509157509157,2.5787545787545785
2.2457437129996833,0.9331868131868131,0.2957509157509157,2.5787545787545785
2.247362317000807,0.9331868131868131,0.2957509157509157,2.5787545787545785
2.251091670994356,0.8590476190476191,0.2651282051282051,2.573919413919414
2.256451371998992,0.8590476190476191,0.2651282051282051,2.573919413919414
2.2587729669976397,0.9065934065934066,0.3497435897435897,2.561025641025641
2.2590523249964463,0.9065934065934066,0.3497435897435897,2.561025641025641
2.263861713996448,0.9065934065934066,0.3497435897435897,2.561025641025641
2.2639724999971804,0.9065934065934066,0.3497435897435897,2.561025641025641
2.2694506799962255,0.9065934065934066,0.3497435897435897,2.561025641025641
2.2703522669980885,0.9065934065934066,0.3497435897435897,2.561025641025641
2.271929498994723,0.9065934065934066,0.3497435897435897,2.561025641025641
2.2757672669977183,0.9065934065934066,0.3497435897435897,2.561025641025641
2.2802565889942343,0.004835164835164835,0.03062271062271062,0.48835164835164835
2.280507388000842,0.004835164835164835,0.03062271062271062,0.48835164835164835
2.2857446479974897,0.004835164835164835,0.03062271062271062,0.48835164835164835
2.2888342759979423,0.6342124542124542,0.3158974358974359,2.569084249084249
2.2912355980006396,0.4964102564102564,0.12732600732600732,2.569084249084249
2.2913505019969307,0.4964102564102564,0.12732600732600732,2.569084249084249
2.2968783369942685,0.4964102564102564,0.12732600732600732,2.569084249084249
2.297142729999905,0.4964102564102564,0.12732600732600732,2.569084249084249
2.302584092998586,0.4964102564102564,0.12732600732600732,2.569084249084249
2.304174962999241,0.0,0.0838095238095238,0.2683516483516483
2.3086347309945268,0.5431501831501832,0.26593406593406593,2.5602197802197804
2.3095405729982303,0.5431501831501832,0.26593406593406593,2.5602197802197804
2.310487953996926,0.5431501831501832,0.26593406593406593,2.5602197802197804
2.312076739995973,0.5431501831501832,0.26593406593406593,2.5602197802197804
2.3160311479950906,0.5431501831501832,0.26593406593406593,2.5602197802197804
2.320500396999705,0.5431501831501832,0.26593406593406593,2.5602197802197804
2.321328291996906,0.5431501831501832,0.26593406593406593,2.5602197802197804
2.3230544879988884,0.029816849816849816,0.16842490842490843,1.003296703296703
2.3269366189997527,0.029816849816849816,0.16842490842490843,1.003296703296703
2.3313596230000257,0.029816849816849816,0.16842490842490843,1.003296703296703
2.3322727029953967,0.4198534798534798,0.07736263736263736,0.4013186813186813
2.333843180000258,0.4198534798534798,0.07736263736263736,0.4013186813186813
2.338396664999891,0.4198534798534798,0.07736263736263736,0.4013186813186813
2.338748094996845,0.4198534798534798,0.07736263736263736,0.4013186813186813
2.343301585999143,0.4198534798534798,0.07736263736263736,0.4013186813186813
2.343584682996152,0.4198534798534798,0.07736263736263736,0.4013186813186813
2.348897052994289,0.4198534798534798,0.07736263736263736,0.4013186813186813
2.3512450529960915,0.8606593406593407,0.23208791208791207,2.556996336996337
2.35150977900048,0.8606593406593407,0.23208791208791207,2.556996336996337
2.356106508996163,0.8606593406593407,0.23208791208791207,2.556996336996337
2.356957933996455,0.8606593406593407,0.23208791208791207,2.556996336996337
2.3585319060002803,0.8606593406593407,0.23208791208791207,2.556996336996337
2.3624176960001932,0.8606593406593407,0.23208791208791207,2.556996336996337
2.366991714996402,0.8606593406593407,0.23208791208791207,2.556996336996337
2.3679120579981827,0.8606593406593407,0.23208791208791207,2.556996336996337
2.3695336309974664,0.8606593406593407,0.23208791208791207,2.556996336996337
2.374088907999976,0.8606593406593407,0.23208791208791207,2.556996336996337
2.374969352997141,0.8606593406593407,0.23208791208791207,2.556996336996337
2.3763974530011183,0.8606593406593407,0.23208791208791207,2.556996336996337
2.380873023001186,0.8606593406593407,0.23208791208791207,2.556996336996337
2.381748403997335,0.8606593406593407,0.23208791208791207,2.556996336996337
2.383196982998925,0.14505494505494507,0.24336996336996336,2.6504761904761907
2.388016892997257,0.14505494505494507,0.24336996336996336,2.6504761904761907
2.388163916999474,0.14505494505494507,0.24336996336996336,2.6504761904761907
2.39244515599421,0.14505494505494507,0.24336996336996336,2.6504761904761907
2.394642451996333,0.14505494505494507,0.24336996336996336,2.6504761904761907
2.396155568996619,0.14505494505494507,0.24336996336996336,2.6504761904761907
2.400436907999392,0.963003663003663,0.5415384615384615,2.5787545787545785
2.402643460998661,0.963003663003663,0.5415384615384615,2.5787545787545785
2.403443782000977,0.963003663003663,0.5415384615384615,2.5787545787545785
2.404939038999146,0.963003663003663,0.5415384615384615,2.5787545787545785
2.4099054249963956,0.963003663003663,0.5415384615384615,2.5787545787545785
2.4143418059975374,0.46739926739926735,0.17003663003663003,1.8164102564102564
2.4152130449947435,0.46739926739926735,0.17003663003663003,1.8164102564102564
2.4168287119973684,0.46739926739926735,0.17003663003663003,1.8164102564102564
2.4213026910001645,0.46739926739926735,0.17003663003663003,1.8164102564102564
2.4216043329943204,0.46739926739926735,0.17003663003663003,1.8164102564102564
2.426916614997026,0.46739926739926735,0.17003663003663003,1.8164102564102564
2.429112763995363,0.46739926739926735,0.17003663003663003,1.8164102564102564
2.4299859189995914,0.46739926739926735,0.17003663003663003,1.8164102564102564
2.4314439839945408,0.46739926739926735,0.17003663003663003,1.8164102564102564
2.4364031459990656,0.5181684981684981,0.1652014652014652,0.7905494505494506
2.4405926869949326,1.569010989010989,0.7147985347985348,2.5803663003663004
2.4427597719986807,1.569010989010989,0.7147985347985348,2.5803663003663004
2.4435782349974033,1.569010989010989,0.7147985347985348,2.5803663003663004
2.4451468150000437,1.569010989010989,0.7147985347985348,2.5803663003663004
2.4492658819945063,1.569010989010989,0.7147985347985348,2.5803663003663004
2.4521187559948885,0.47142857142857136,0.14908424908424908,2.5594139194139194
2.4550047899974743,0.47142857142857136,0.14908424908424908,2.5594139194139194
2.4585466319986153,0.47142857142857136,0.14908424908424908,2.5594139194139194
2.458768611999403,0.47142857142857136,0.14908424908424908,2.5594139194139194
2.4636434669955634,0.47142857142857136,0.14908424908424908,2.5594139194139194
2.463762761995895,0.47142857142857136,0.14908424908424908,2.5594139194139194
2.468718866999552,0.47142857142857136,0.14908424908424908,2.5594139194139194
2.4735316849983064,0.47142857142857136,0.14908424908424908,2.5594139194139194
2.4786516429958283,0.47142857142857136,0.14908424908424908,2.5594139194139194
2.4822448039994924,0.47142857142857136,0.14908424908424908,2.5594139194139194
2.482441836997168,0.47142857142857136,0.14908424908424908,2.5594139194139194
2.4872884369979147,0.47142857142857136,0.14908424908424908,2.5594139194139194
2.4922601590005797,0.47142857142857136,0.14908424908424908,2.5594139194139194
2.497154958997271,1.1556043956043955,0.3626373626373626,3.3
2.5013415759967756,0.0,0.07897435897435898,1.4070329670329669
2.503532766997523,1.2756776556776557,0.3626373626373626,3.3
2.5043863389946637,0.4351648351648352,0.3287912087912088,3.3
2.505932831998507,0.4351648351648352,0.3287912087912088,3.3
2.5101723749976372,0.5536263736263736,0.2917216117216117,3.3
2.51225087599596,0.5536263736263736,0.2917216117216117,3.3
2.5130960929964203,0.5536263736263736,0.2917216117216117,3.3
2.5152209919979214,0.5536263736263736,0.2917216117216117,3.3
2.5166505390006932,0.3731135531135531,0.30864468864468864,3.3
2.521444995996717,0.3731135531135531,0.30864468864468864,3.3
2.521712349000154,0.3731135531135531,0.30864468864468864,3.3
2.526514245000726,0.3731135531135531,0.30864468864468864,3.3
2.5315163279956323,0.3731135531135531,0.30864468864468864,3.3
2.536394611997821,0.6068131868131869,0.13135531135531134,0.36827838827838827
2.5413888869952643,0.6068131868131869,0.13135531135531134,0.36827838827838827
2.546220923999499,0.6068131868131869,0.13135531135531134,0.36827838827838827
2.5463399910004227,0.6068131868131869,0.13135531135531134,0.36827838827838827
2.5512111829957576,0.6068131868131869,0.13135531135531134,0.36827838827838827
2.551358350996452,0.6068131868131869,0.13135531135531134,0.36827838827838827
2.55621867699665,0.6068131868131869,0.13135531135531134,0.36827838827838827
2.556301430995518,0.14827838827838827,0.025787545787545788,0.381978021978022
2.5611841029967763,0.14827838827838827,0.025787545787545788,0.381978021978022
2.5660711449963856,0.0,0.32798534798534795,1.971135531135531
2.5662002760000178,0.0,0.32798534798534795,1.971135531135531
2.571000229996571,0.6479120879120879,0.4754578754578754,2.56989010989011
2.571190573995409,0.6479120879120879,0.4754578754578754,2.56989010989011
2.576144080994709,0.6479120879120879,0.4754578754578754,2.56989010989011
2.581072190994746,0.6479120879120879,0.4754578754578754,2.56989010989011
2.586072990001412,0.6479120879120879,0.4754578754578754,2.56989010989011
2.5907571319985436,0.6261538461538461,0.4593406593406593,2.565860805860806
2.5909864009954617,0.6261538461538461,0.4593406593406593,2.565860805860806
2.5965848179985187,0.6261538461538461,0.4593406593406593,2.565860805860806
2.5968591019991436,0.6261538461538461,0.4593406593406593,2.565860805860806
2.602233603000059,0.6261538461538461,0.4593406593406593,2.565860805860806
2.6043866319960216,0.9968498168498168,0.5423443223443223,2.577142857142857
2.605157625999709,0.9968498168498168,0.5423443223443223,2.577142857142857
2.607276083996112,0.9968498168498168,0.5423443223443223,2.577142857142857
2.6080976789962733,0.9968498168498168,0.5423443223443223,2.577142857142857
2.6102451400001883,0.9968498168498168,0.5423443223443223,2.577142857142857
2.6110505260003265,0.4867399267399267,0.2232234432234432,2.553772893772894
2.6131796189947636,0.4867399267399267,0.2232234432234432,2.553772893772894
2.6146397039992735,0.4867399267399267,0.2232234432234432,2.553772893772894
2.6188655189980636,0.4867399267399267,0.2232234432234432,2.553772893772894
2.6216601449996233,0.4867399267399267,0.2232234432234432,2.553772893772894
2.625192599996808,0.4867399267399267,0.2232234432234432,2.553772893772894
2.6253689369987114,0.4867399267399267,0.2232234432234432,2.553772893772894
2.630209985996771,0.4867399267399267,0.2232234432234432,2.553772893772894
2.630345801997464,0.4867399267399267,0.2232234432234432,2.553772893772894
2.635263591000694,0.4867399267399267,0.2232234432234432,2.553772893772894
2.635377204998804,0.4867399267399267,0.2232234432234432,2.553772893772894
2.640237508996506,0.4867399267399267,0.2232234432234432,2.553772893772894
2.645181201995001,1.5528937728937728,0.8711355311355311,2.577142857142857
2.6494140379945748,0.7115750915750916,0.41098901098901097,2.552967032967033
2.6522819719975814,0.7115750915750916,0.41098901098901097,2.552967032967033
2.6557885489964974,0.7115750915750916,0.41098901098901097,2.552967032967033
2.656087358998775,0.7115750915750916,0.41098901098901097,2.552967032967033
2.6609358899950166,1.543223443223443,0.9065934065934066,2.5787545787545785
2.6669952140000532,1.543223443223443,0.9065934065934066,2.5787545787545785
2.670826297995518,1.543223443223443,0.9065934065934066,2.5787545787545785
2.6752619280014187,1.543223443223443,0.9065934065934066,2.5787545787545785
2.676109528998495,1.543223443223443,0.9065934065934066,2.5787545787545785
2.6777515610010596,1.543223443223443,0.9065934065934066,2.5787545787545785
2.681536154996138,1.543223443223443,0.9065934065934066,2.5787545787545785
2.685982408998825,1.1838095238095236,0.6084249084249085,2.561025641025641
2.6869062400000985,1.1838095238095236,0.6084249084249085,2.561025641025641
2.6885484189988347,1.1838095238095236,0.6084249084249085,2.561025641025641
2.69311956299498,1.1838095238095236,0.6084249084249085,2.561025641025641
2.6933276199997636,1.1838095238095236,0.6084249084249085,2.561025641025641
2.697935903997859,1.1838095238095236,0.6084249084249085,2.561025641025641
2.698257903997728,1.1838095238095236,0.6084249084249085,2.561025641025641
2.70281730699935,1.1838095238095236,0.6084249084249085,2.561025641025641
2.70370398099476,1.1838095238095236,0.6084249084249085,2.561025641025641
2.7052636109947343,0.4778754578754579,0.5866666666666667,2.5481318681318683
2.7099259620008525,0.4778754578754579,0.5866666666666667,2.5481318681318683
2.710095520997129,0.4778754578754579,0.5866666666666667,2.5481318681318683
2.7161757969952305,0.4778754578754579,0.5866666666666667,2.5481318681318683
2.7214032129995758,1.3949450549450548,0.8953113553113552,2.5787545787545785
2.723719314999471,1.3949450549450548,0.8953113553113552,2.5787545787545785
2.724038993001159,0.40534798534798533,0.5109157509157509,3.3
2.729278795995924,0.40534798534798533,0.5109157509157509,3.3
2.732945193994965,0.796996336996337,0.4819047619047619,2.561025641025641
2.738399046997074,0.5890842490842491,0.195018315018315,0.6092307692307692
2.741530352999689,0.7373626373626374,0.5262271062271061,2.5505494505494504
2.741860189998988,0.7373626373626374,0.5262271062271061,2.5505494505494504
2.74709596199682,0.7373626373626374,0.5262271062271061,2.5505494505494504
2.7508664409979247,0.7373626373626374,0.5262271062271061,2.5505494505494504
2.75532225400093,0.7373626373626374,0.5262271062271061,2.5505494505494504
2.7562209569950937,0.7373626373626374,0.5262271062271061,2.5505494505494504
2.7578319759995793,0.7373626373626374,0.5262271062271061,2.5505494505494504
2.7625550480006495,0.7373626373626374,0.5262271062271061,2.5505494505494504
2.762843462995079,0.7373626373626374,0.5262271062271061,2.5505494505494504
2.7729795970008126,0.7373626373626374,0.5262271062271061,2.5505494505494504
2.781278413000109,0.7373626373626374,0.5262271062271061,2.5505494505494504
2.7883017509957426,0.7373626373626374,0.5262271062271061,2.5505494505494504
2.7914793089948944,0.7373626373626374,0.5262271062271061,2.5505494505494504
2.7930800399990403,0.7373626373626374,0.5262271062271061,2.5505494505494504
2.796799841999018,0.7373626373626374,0.5262271062271061,2.5505494505494504
2.8020667509990744,0.7373626373626374,0.5262271062271061,2.5505494505494504
2.805052154995792,0.7373626373626374,0.5262271062271061,2.5505494505494504
2.8080521789961495,0.7373626373626374,0.5262271062271061,2.5505494505494504
2.8110323949949816,0.7373626373626374,0.5262271062271061,2.5505494505494504
2.814281161001418,0.7373626373626374,0.5262271062271061,2.5505494505494504
2.8151249579968862,0.7373626373626374,0.5262271062271061,2.5505494505494504
2.816748725999787,0.7373626373626374,0.5262271062271061,2.5505494505494504
2.8212336379947374,0.7373626373626374,0.5262271062271061,2.5505494505494504
2.821495709998999,0.051575091575091575,0.311062271062271,1.1934798534798534
2.827032531000441,0.051575091575091575,0.311062271062271,1.1934798534798534
2.8295121799965273,0.051575091575091575,0.311062271062271,1.1934798534798534
2.8376304669945966,0.051575091575091575,0.311062271062271,1.1934798534798534
2.843845777999377,0.051575091575091575,0.311062271062271,1.1934798534798534
2.8503262539961725,0.051575091575091575,0.311062271062271,1.1934798534798534
2.8554708339943318,1.095164835164835,0.4158241758241758,3.3
2.857111605000682,0.448058608058608,0.11604395604395604,0.6495238095238095
2.8614763149962528,0.448058608058608,0.11604395604395604,0.6495238095238095
2.8623217880012817,0.448058608058608,0.11604395604395604,0.6495238095238095
2.864021518995287,0.448058608058608,0.11604395604395604,0.6495238095238095
2.8701552109996555,0.448058608058608,0.11604395604395604,0.6495238095238095
2.873496726999292,0.448058608058608,0.11604395604395604,0.6495238095238095
2.873756629996933,0.04915750915750916,0.04915750915750916,0.7027106227106227
2.8791880540011334,0.04915750915750916,0.04915750915750916,0.7027106227106227
2.880801840001368,0.04915750915750916,0.04915750915750916,0.7027106227106227
2.887328160999459,0.04915750915750916,0.04915750915750916,0.7027106227106227
2.89118151099683,0.04915750915750916,0.04915750915750916,0.7027106227106227
2.897388776000298,0.04915750915750916,0.04915750915750916,0.7027106227106227
2.9009640449949075,0.07172161172161172,0.1958241758241758,2.3498901098901097
2.901082343996677,1.228131868131868,0.5528205128205127,2.5787545787545785
2.9098689399979776,0.23853479853479853,0.3747252747252747,3.2016849816849815
2.9160383779963013,0.6269597069597069,0.195018315018315,1.075018315018315
2.91938193399983,0.6269597069597069,0.195018315018315,1.075018315018315
2.9195501139984117,0.6269597069597069,0.195018315018315,1.075018315018315
2.924262562999502,0.6269597069597069,0.195018315018315,1.075018315018315
2.924487390999275,0.0410989010989011,0.2772161172161172,1.2039560439560437
2.929416562001279,0.0410989010989011,0.2772161172161172,1.2039560439560437
2.92952826799592,0.9694505494505494,0.5044688644688645,2.5787545787545785
2.93842250599846,0.9694505494505494,0.5044688644688645,2.5787545787545785
2.943244109999796,0.9694505494505494,0.5044688644688645,2.5787545787545785
2.9433833889997914,0.9694505494505494,0.5044688644688645,2.5787545787545785
2.9496625030005816,0.9694505494505494,0.5044688644688645,2.5787545787545785
2.953127595996193,1.016190476190476,0.43113553113553116,2.54974358974359
2.959154935000697,0.1402197802197802,0.037875457875457874,0.7131868131868132
2.9645455529971514,0.1402197802197802,0.037875457875457874,0.7131868131868132
2.966357876000984,0.1402197802197802,0.037875457875457874,0.7131868131868132
2.9695697979987017,0.1402197802197802,0.037875457875457874,0.7131868131868132
2.9704432819999056,0.1402197802197802,0.037875457875457874,0.7131868131868132
2.9713611759943888,0.1402197802197802,0.037875457875457874,0.7131868131868132
2.972966182998789,0.1402197802197802,0.037875457875457874,0.7131868131868132
2.977506830000493,0.1643956043956044,0.03142857142857143,0.46095238095238095
2.977760274996399,0.022564102564102562,0.047545787545787546,0.9235164835164835
2.9838570759966387,0.022564102564102562,0.047545787545787546,0.9235164835164835
2.9904828520011506,0.022564102564102562,0.047545787545787546,0.9235164835164835
2.996897603996331,0.022564102564102562,0.047545787545787546,0.9235164835164835
3.002225748001365,0.0,0.07736263736263736,1.8534798534798533
3.004232551000314,0.0,0.07736263736263736,1.8534798534798533
3.0044822479976574,0.0,0.07736263736263736,1.8534798534798533
3.010077838000143,0.0,0.07736263736263736,1.8534798534798533
3.0116490820000763,0.0,0.07736263736263736,1.8534798534798533
3.0183320229989477,0.0,0.07736263736263736,1.8534798534798533
3.021975213996484,1.3659340659340657,0.527032967032967,2.5787545787545785
3.0288610849966062,1.3659340659340657,0.527032967032967,2.5787545787545785
3.0358787719960674,1.3659340659340657,0.527032967032967,2.5787545787545785
3.0394932470007916,1.3659340659340657,0.527032967032967,2.5787545787545785
3.0445494320010766,1.3659340659340657,0.527032967032967,2.5787545787545785
3.0534840670006815,0.5608791208791208,0.3972893772893773,2.5682783882783884
3.0582293199986452,0.5608791208791208,0.3972893772893773,2.5682783882783884
3.0584658189982292,0.5608791208791208,0.3972893772893773,2.5682783882783884
3.0630529849950108,0.5608791208791208,0.3972893772893773,2.5682783882783884
3.0632479779960704,0.5608791208791208,0.3972893772893773,2.5682783882783884
3.0735828670003684,0.7671794871794871,0.5125274725274725,2.5787545787545785
3.082275925997237,0.7671794871794871,0.5125274725274725,2.5787545787545785
3.091720706994238,0.7671794871794871,0.5125274725274725,2.5787545787545785
3.1014500899982522,0.759120879120879,0.3578021978021978,2.5787545787545785
3.1082218320007087,0.759120879120879,0.3578021978021978,2.5787545787545785
3.113935041001241,0.7841025641025641,0.5552380952380952,2.5787545787545785
3.1215891139945597,0.2949450549450549,0.05318681318681319,0.31267399267399265
3.127161567994335,0.2949450549450549,0.05318681318681319,0.31267399267399265
3.127516142994864,0.2949450549450549,0.05318681318681319,0.31267399267399265
3.136520781998115,0.2949450549450549,0.05318681318681319,0.31267399267399265
3.1412659479974536,0.2949450549450549,0.05318681318681319,0.31267399267399265
3.141436956000689,1.432014652014652,0.618095238095238,2.5787545787545785
3.146623300999636,1.432014652014652,0.618095238095238,2.5787545787545785
3.154140863996872,1.432014652014652,0.618095238095238,2.5787545787545785
3.1613090019964147,0.3795604395604395,0.1112087912087912,0.5197802197802197
3.1682514709973475,1.3788278388278388,0.5439560439560439,2.5787545787545785
3.174088269995991,1.3788278388278388,0.5439560439560439,2.5787545787545785
3.1825595119953505,1.3788278388278388,0.5439560439560439,2.5787545787545785
3.190893895996851,1.3788278388278388,0.5439560439560439,2.5787545787545785
3.197121655997762,1.3788278388278388,0.5439560439560439,2.5787545787545785
3.203247293997265,1.3788278388278388,0.5439560439560439,2.5787545787545785
3.208816749000107,1.7366300366300367,0.5995604395604395,2.565860805860806
3.2089930340007413,0.7019047619047618,0.23208791208791207,2.56989010989011
3.2139632429971243,0.7019047619047618,0.23208791208791207,2.56989010989011
3.2204814049982815,0.7019047619047618,0.23208791208791207,2.56989010989011
3.2246244509951794,0.7019047619047618,0.23208791208791207,2.56989010989011
3.2276771030010423,0.7019047619047618,0.23208791208791207,2.56989010989011
3.2288638280006126,0.7019047619047618,0.23208791208791207,2.56989010989011
3.2290707789943554,0.7019047619047618,0.23208791208791207,2.56989010989011
3.23833784499584,1.1120879120879121,0.39406593406593404,2.5561904761904763
3.242868786001054,1.1120879120879121,0.39406593406593404,2.5561904761904763
3.2437757910010987,1.1120879120879121,0.39406593406593404,2.5561904761904763
3.245364010996127,1.1120879120879121,0.39406593406593404,2.5561904761904763
3.248642154998379,1.1120879120879121,0.39406593406593404,2.5561904761904763
3.251164772998891,1.1120879120879121,0.39406593406593404,2.5561904761904763
3.2550365930001135,0.4504761904761904,0.09347985347985348,0.7252747252747253
3.2604694190013106,0.18776556776556774,0.03062271062271062,0.28849816849816845
3.262078292995284,1.4868131868131869,0.8018315018315018,2.5787545787545785
3.26754366899695,1.4868131868131869,0.8018315018315018,2.5787545787545785
3.2678655729978345,1.4868131868131869,0.8018315018315018,2.5787545787545785
3.2724937599996338,1.4868131868131869,0.8018315018315018,2.5787545787545785
3.2727231870012474,1.4868131868131869,0.8018315018315018,2.5787545787545785
3.2781671909979195,1.4868131868131869,0.8018315018315018,2.5787545787545785
3.2798736170007032,0.9331868131868131,0.6728937728937728,2.581172161172161
3.284402860001137,0.9331868131868131,0.6728937728937728,2.581172161172161
3.284615368997038,0.20388278388278389,0.423076923076923,2.5481318681318683
3.290277473999595,0.20388278388278389,0.423076923076923,2.5481318681318683
3.2904026719988906,0.6583882783882784,0.43274725274725273,2.5706959706959704
3.2962534190010047,0.6583882783882784,0.43274725274725273,2.5706959706959704
3.2963591369989445,0.9509157509157508,0.6656410256410257,2.5787545787545785
3.3029551379950135,0.9509157509157508,0.6656410256410257,2.5787545787545785
3.306177623999247,0.9509157509157508,0.6656410256410257,2.5787545787545785
3.308528027999273,0.9509157509157508,0.6656410256410257,2.5787545787545785
3.308796107994567,0.9509157509157508,0.6656410256410257,2.5787545787545785
3.313860973001283,0.9509157509157508,0.6656410256410257,2.5787545787545785
3.31979236099869,0.9509157509157508,0.6656410256410257,2.5787545787545785
3.323980033994303,0.9509157509157508,0.6656410256410257,2.5787545787545785
3.3256562189999386,0.9509157509157508,0.6656410256410257,2.5787545787545785
3.3287412349964143,0.9509157509157508,0.6656410256410257,2.5787545787545785
3.3311991000009584,0.9509157509157508,0.6656410256410257,2.5787545787545785
3.3389418839942664,0.9509157509157508,0.6656410256410257,2.5787545787545785
3.343619626997679,0.9509157509157508,0.6656410256410257,2.5787545787545785
3.3438089749979554,0.9509157509157508,0.6656410256410257,2.5787545787545785
3.3486290919972816,0.9509157509157508,0.6656410256410257,2.5787545787545785
3.355578312999569,0.9509157509157508,0.6656410256410257,2.5787545787545785
3.360251302998222,0.9509157509157508,0.6656410256410257,2.5787545787545785
3.360364991996903,2.046080586080586,0.6624175824175824,2.552967032967033
3.36667140499776,2.046080586080586,0.6624175824175824,2.552967032967033
3.369973453998682,2.046080586080586,0.6624175824175824,2.552967032967033
3.3702789659946575,2.046080586080586,0.6624175824175824,2.552967032967033
3.375091304995294,2.046080586080586,0.6624175824175824,2.552967032967033
3.375265260998276,0.4472527472527472,0.06769230769230769,0.3231501831501831
3.38007056999777,0.4472527472527472,0.06769230769230769,0.3231501831501831
3.380161003995454,0.4472527472527472,0.06769230769230769,0.3231501831501831
3.388468107994413,0.4472527472527472,0.06769230769230769,0.3231501831501831
3.3939439599998877,0.5012454212454212,0.4416117216117216,2.5481318681318683
3.396402708000096,0.17648351648351646,0.03223443223443223,0.527032967032967
3.404555472996435,0.17648351648351646,0.03223443223443223,0.527032967032967
3.409182660994702,2.006593406593406,0.6857875457875457,2.54974358974359
3.4094079919959768,1.0782417582417583,0.4488644688644688,2.573113553113553
3.4169417899975087,1.0782417582417583,0.4488644688644688,2.573113553113553
3.4212954829999944,1.0782417582417583,0.4488644688644688,2.573113553113553
3.4223444249946624,1.0782417582417583,0.4488644688644688,2.573113553113553
3.422730068996316,1.0782417582417583,0.4488644688644688,2.573113553113553
3.4273934949960676,1.0782417582417583,0.4488644688644688,2.573113553113553
3.427617597997596,1.0782417582417583,0.4488644688644688,2.573113553113553
3.4368925759990816,1.0782417582417583,0.4488644688644688,2.573113553113553
3.4409781149952323,1.0782417582417583,0.4488644688644688,2.573113553113553
3.4440458530007163,1.0782417582417583,0.4488644688644688,2.573113553113553
3.447127212995838,1.0782417582417583,0.4488644688644688,2.573113553113553
3.4499606099998346,1.0782417582417583,0.4488644688644688,2.573113553113553
3.453873375998228,1.0782417582417583,0.4488644688644688,2.573113553113553
3.4561728699991363,1.0782417582417583,0.4488644688644688,2.573113553113553
3.4563567349978257,1.0782417582417583,0.4488644688644688,2.573113553113553
3.4614703779952833,1.0782417582417583,0.4488644688644688,2.573113553113553
3.4686200180003652,1.0782417582417583,0.4488644688644688,2.573113553113553
3.4725287909968756,1.0782417582417583,0.4488644688644688,2.573113553113553
3.475681463998626,1.0782417582417583,0.4488644688644688,2.573113553113553
3.4775125429951004,1.0782417582417583,0.4488644688644688,2.573113553113553
3.4802845789963612,1.0782417582417583,0.4488644688644688,2.573113553113553
3.4869270769995637,1.0782417582417583,0.4488644688644688,2.573113553113553
3.4925881259987364,1.0782417582417583,0.4488644688644688,2.573113553113553
3.5026938320006593,1.0782417582417583,0.4488644688644688,2.573113553113553
3.5072631199946045,1.0782417582417583,0.4488644688644688,2.573113553113553
3.508118920995912,1.0782417582417583,0.4488644688644688,2.573113553113553
3.509848673995293,1.0782417582417583,0.4488644688644688,2.573113553113553
3.513528833995224,1.0782417582417583,0.4488644688644688,2.573113553113553
3.519237054999394,1.0782417582417583,0.4488644688644688,2.573113553113553
3.5193861329971696,1.2740659340659342,0.8493772893772893,2.5795604395604395
3.524421745998552,1.2740659340659342,0.8493772893772893,2.5795604395604395
3.5283468819980044,1.2740659340659342,0.8493772893772893,2.5795604395604395
3.5354617289995076,1.2740659340659342,0.8493772893772893,2.5795604395604395
3.540010249998886,0.2796336996336996,0.07252747252747253,0.27238095238095233
3.540111424001225,0.2796336996336996,0.07252747252747253,0.27238095238095233
3.5455409579953994,0.2796336996336996,0.07252747252747253,0.27238095238095233
3.5470782189950114,0.6873992673992674,0.614065934065934,2.5634432234432234
3.5539399609988322,0.7865201465201466,0.4899633699633699,2.5634432234432234
3.5577854910006863,0.7865201465201466,0.4899633699633699,2.5634432234432234
3.5623039720012457,0.7865201465201466,0.4899633699633699,2.5634432234432234
3.5626275629983866,0.7865201465201466,0.4899633699633699,2.5634432234432234
3.5697727570004645,0.7865201465201466,0.4899633699633699,2.5634432234432234
3.5736643119962537,0.5383150183150183,0.6116483516483516,2.561831501831502
3.5785128209972754,0.2328937728937729,0.0547985347985348,0.3489377289377289
3.5853007699988666,0.2328937728937729,0.0547985347985348,0.3489377289377289
3.588943417998962,0.2328937728937729,0.0547985347985348,0.3489377289377289
3.5949253819999285,0.2328937728937729,0.0547985347985348,0.3489377289377289
3.6027219600000535,0.32798534798534795,0.03868131868131868,0.253040293040293
3.6069661820001784,0.32798534798534795,0.03868131868131868,0.253040293040293
3.60926347199711,1.137069597069597,0.5068864468864469,2.5706959706959704
3.609531431000505,1.137069597069597,0.5068864468864469,2.5706959706959704
3.614237620997301,1.137069597069597,0.5068864468864469,2.5706959706959704
3.6144003969966434,0.07575091575091575,0.03706959706959707,0.5334798534798535
3.621312922994548,0.07575091575091575,0.03706959706959707,0.5334798534798535
3.625286007998511,0.07575091575091575,0.03706959706959707,0.5334798534798535
3.6297433419968,0.07575091575091575,0.03706959706959707,0.5334798534798535
3.630083714997454,1.1886446886446886,0.469010989010989,2.552967032967033
3.6385377069964306,1.1886446886446886,0.469010989010989,2.552967032967033
3.6431636339984834,1.1886446886446886,0.469010989010989,2.552967032967033
3.6434622739980114,1.1886446886446886,0.469010989010989,2.552967032967033
3.6487718839998706,1.1886446886446886,0.469010989010989,2.552967032967033
3.6520891600011964,0.904981684981685,0.5254212454212454,2.5787545787545785
3.6522983239992755,0.904981684981685,0.5254212454212454,2.5787545787545785
3.657118962997629,0.904981684981685,0.5254212454212454,2.5787545787545785
3.657237601997622,0.904981684981685,0.5254212454212454,2.5787545787545785
3.6624938339955406,0.904981684981685,0.5254212454212454,2.5787545787545785
3.664532213995699,0.06124542124542124,0.4657875457875458,3.3
3.667910939999274,0.1797069597069597,0.46498168498168496,2.56989010989011
3.677996662998339,0.1797069597069597,0.46498168498168496,2.56989010989011
3.6877854409976862,0.1797069597069597,0.46498168498168496,2.56989010989011
3.692556620000687,0.1797069597069597,0.46498168498168496,2.56989010989011
3.69272047499544,0.1797069597069597,0.46498168498168496,2.56989010989011
3.698430895994534,0.1797069597069597,0.46498168498168496,2.56989010989011
3.6987989580011345,0.8485714285714284,0.5294505494505495,2.5787545787545785
3.7050539049960207,0.8485714285714284,0.5294505494505495,2.5787545787545785
3.708919190998131,0.8485714285714284,0.5294505494505495,2.5787545787545785
3.713544064994494,0.8485714285714284,0.5294505494505495,2.5787545787545785
3.713843742996687,0.8485714285714284,0.5294505494505495,2.5787545787545785
3.721022534999065,0.0,0.04271062271062271,1.763223443223443
3.724904445996799,1.510989010989011,0.6463003663003662,2.573113553113553
3.728727853995224,1.510989010989011,0.6463003663003662,2.573113553113553
3.7342020610012696,1.510989010989011,0.6463003663003662,2.573113553113553
3.7346810109957005,1.510989010989011,0.6463003663003662,2.573113553113553
3.741905429997132,1.510989010989011,0.6463003663003662,2.573113553113553
3.7462505660005263,0.7671794871794871,0.15069597069597068,3.3
3.746521427994594,0.7671794871794871,0.15069597069597068,3.3
3.7566560319974087,0.7873260073260073,0.2175824175824176,2.5795604395604395
3.764228814994567,0.7873260073260073,0.2175824175824176,2.5795604395604395
3.7725121549956384,0.0,0.04673992673992674,3.192014652014652
3.7796367139962967,0.0,0.04673992673992674,3.192014652014652
3.787111195997568,0.0,0.04673992673992674,3.192014652014652
3.792437391995918,0.0,0.04673992673992674,3.192014652014652
3.79362104399479,0.6285714285714284,0.3376556776556776,2.557802197802198
3.793804260996694,0.6285714285714284,0.3376556776556776,2.557802197802198
3.803047150999191,0.6285714285714284,0.3376556776556776,2.557802197802198
3.807958666999184,0.6285714285714284,0.3376556776556776,2.557802197802198
3.808073736996448,0.03142857142857143,0.32153846153846155,3.3
3.8133455049974145,0.03142857142857143,0.32153846153846155,3.3
3.817707921996771,0.03142857142857143,0.32153846153846155,3.3
3.8179486459994223,0.21274725274725276,0.7631501831501831,2.577142857142857
3.823177897000278,0.21274725274725276,0.7631501831501831,2.577142857142857
3.826438957999926,1.5263003663003663,0.7937728937728937,2.5521611721611723
3.827458428000682,1.5263003663003663,0.7937728937728937,2.5521611721611723
3.8278761010005837,1.5263003663003663,0.7937728937728937,2.5521611721611723
3.83638782199705,1.5263003663003663,0.7937728937728937,2.5521611721611723
3.8406267229947844,0.3529670329670329,0.10315018315018315,0.39003663003663
3.84418020999874,0.03948717948717949,0.30542124542124544,0.6551648351648351
3.852411096995638,0.03948717948717949,0.30542124542124544,0.6551648351648351
3.857452320000448,0.03948717948717949,0.30542124542124544,0.6551648351648351
3.8606329030008055,0.03948717948717949,0.30542124542124544,0.6551648351648351
3.862432756999624,0.03948717948717949,0.30542124542124544,0.6551648351648351
3.8666894089983543,0.03948717948717949,0.30542124542124544,0.6551648351648351
3.86918550900009,0.03948717948717949,0.30542124542124544,0.6551648351648351
3.8740387389989337,0.03948717948717949,0.30542124542124544,0.6551648351648351
3.878584834994399,0.03948717948717949,0.30542124542124544,0.6551648351648351
3.8794838129979325,0.03948717948717949,0.30542124542124544,0.6551648351648351
3.8814201909990516,0.03948717948717949,0.30542124542124544,0.6551648351648351
3.885431634997076,0.03948717948717949,0.30542124542124544,0.6551648351648351
3.8869999300004565,0.03948717948717949,0.30542124542124544,0.6551648351648351
3.894408927000768,0.03948717948717949,0.30542124542124544,0.6551648351648351
3.9005323859964847,0.27076923076923076,0.024175824175824173,0.6511355311355311
3.907813357996929,0.0,0.15794871794871795,0.3706959706959707
3.9118114640004933,0.581025641025641,0.3602197802197802,2.5755311355311354
3.9178691540000727,0.581025641025641,0.3602197802197802,2.5755311355311354
3.922059594995517,0.581025641025641,0.3602197802197802,2.5755311355311354
3.9244585519991233,1.6302564102564103,0.34813186813186814,2.54974358974359
3.9333660880001844,0.4657875457875458,0.2715750915750916,2.5561904761904763
3.9389552919965354,0.5528205128205127,0.13538461538461538,2.5682783882783884
3.9392116779999924,0.5528205128205127,0.13538461538461538,2.5682783882783884
3.9438624969989178,0.5528205128205127,0.13538461538461538,2.5682783882783884
3.9446911310005817,0.5528205128205127,0.13538461538461538,2.5682783882783884
3.9464986879975186,0.5528205128205127,0.13538461538461538,2.5682783882783884
3.949981032994401,0.7615384615384615,0.27076923076923076,2.5787545787545785
3.95022795299883,0.9388278388278387,0.31509157509157504,2.5553846153846154
3.9568451619998086,0.9388278388278387,0.31509157509157504,2.5553846153846154
3.9605017229987425,1.1588278388278386,0.5004395604395604,2.5787545787545785
3.960650198998337,1.1588278388278386,0.5004395604395604,2.5787545787545785
3.96854918399913,1.1588278388278386,0.5004395604395604,2.5787545787545785
3.9726454299961915,0.5262271062271061,0.29816849816849816,2.5634432234432234
3.9758028969954466,0.4931868131868131,0.13457875457875457,0.850989010989011
3.978041508999013,0.4931868131868131,0.13457875457875457,0.850989010989011
3.978473099996336,0.4931868131868131,0.13457875457875457,0.850989010989011
3.984530066998559,0.4931868131868131,0.13457875457875457,0.850989010989011
3.9883488259947626,0.5310622710622711,0.43999999999999995,2.573113553113553
3.9929823959973874,0.5310622710622711,0.43999999999999995,2.573113553113553
3.9932217259993195,0.4424175824175824,0.112014652014652,0.253040293040293
4.00073439499829,0.4424175824175824,0.112014652014652,0.253040293040293
4.006311874996754,0.4424175824175824,0.112014652014652,0.253040293040293
4.0119315029951395,0.4424175824175824,0.112014652014652,0.253040293040293
4.013034521994996,0.4424175824175824,0.112014652014652,0.253040293040293
4.014996252997662,0.4424175824175824,0.112014652014652,0.253040293040293
4.016916697997658,0.4424175824175824,0.112014652014652,0.253040293040293
4.019298971994431,0.4424175824175824,0.112014652014652,0.253040293040293
4.025194229994668,1.6076923076923075,0.5246153846153846,3.3
4.031386627997563,1.6076923076923075,0.5246153846153846,3.3
4.035900218994357,0.46739926739926735,0.12893772893772892,0.5874725274725274
4.036076876996958,0.303003663003663,0.34007326007326005,2.552967032967033
4.040907907001383,0.303003663003663,0.34007326007326005,2.552967032967033
4.0487671839946415,0.303003663003663,0.34007326007326005,2.552967032967033
4.053677821997553,0.303003663003663,0.34007326007326005,2.552967032967033
4.0568137709997245,0.303003663003663,0.34007326007326005,2.552967032967033
4.05913729799795,1.361098901098901,0.7567032967032966,2.5787545787545785
4.059383586994954,1.361098901098901,0.7567032967032966,2.5787545787545785
4.065139531994646,1.361098901098901,0.7567032967032966,2.5787545787545785
4.072349355999904,0.3046153846153846,0.25868131868131866,2.54974358974359
4.077213223994477,0.5721611721611721,0.17406593406593407,0.8743589743589744
4.083203353999124,1.2337728937728938,0.5552380952380952,2.577142857142857
4.089200910995714,0.5439560439560439,0.3553846153846154,2.5747252747252745
4.093039512001269,0.5439560439560439,0.3553846153846154,2.5747252747252745
4.099980508995941,0.5439560439560439,0.3553846153846154,2.5747252747252745
4.104094759000873,0.9017582417582416,0.32153846153846155,2.56989010989011
4.105751347997284,0.9017582417582416,0.32153846153846155,2.56989010989011
4.110289012998692,0.9017582417582416,0.32153846153846155,2.56989010989011
4.110602092994668,0.9017582417582416,0.32153846153846155,2.56989010989011
4.118634034995921,0.9017582417582416,0.32153846153846155,2.56989010989011
4.122849278996,0.9017582417582416,0.32153846153846155,2.56989010989011
4.124415686994325,0.9017582417582416,0.32153846153846155,2.56989010989011
4.128403800998058,0.4021245421245421,0.2683516483516483,2.56989010989011
4.1340460069986875,0.4021245421245421,0.2683516483516483,2.56989010989011
4.134202813998854,0.4021245421245421,0.2683516483516483,2.56989010989011
4.139742093000677,0.4021245421245421,0.2683516483516483,2.56989010989011
4.140572828997392,0.4021245421245421,0.2683516483516483,2.56989010989011
4.142304509994574,0.4021245421245421,0.2683516483516483,2.56989010989011
4.144657029995869,0.4021245421245421,0.2683516483516483,2.56989010989011
4.144883904999006,0.4021245421245421,0.2683516483516483,2.56989010989011
4.152263470001344,0.4021245421245421,0.2683516483516483,2.56989010989011
4.156183651997708,0.4021245421245421,0.2683516483516483,2.56989010989011
4.160119027001201,0.0,0.09186813186813186,2.0049816849816846
4.166174799000146,1.1628571428571428,0.4013186813186813,2.5787545787545785
4.1731363689978025,0.805054945054945,0.386007326007326,2.5803663003663004
4.178545543996734,0.5673260073260072,0.28205128205128205,2.5787545787545785
4.178835621998587,1.303076923076923,0.6293772893772893,2.5787545787545785
4.187476806997438,1.303076923076923,0.6293772893772893,2.5787545787545785
4.194958508996933,1.303076923076923,0.6293772893772893,2.5787545787545785
4.200177432998316,1.303076923076923,0.6293772893772893,2.5787545787545785
4.201726008999685,1.1273992673992674,0.6873992673992674,2.5787545787545785
4.2059687259970815,1.1273992673992674,0.6873992673992674,2.5787545787545785
4.20845887500036,0.3916483516483516,0.4593406593406593,2.573919413919414
4.215325340999698,0.3916483516483516,0.4593406593406593,2.573919413919414
4.219773416996759,0.3916483516483516,0.4593406593406593,2.573919413919414
4.220684134001203,0.3916483516483516,0.4593406593406593,2.573919413919414
4.221661626994319,0.3916483516483516,0.4593406593406593,2.573919413919414
4.22257073399669,0.3916483516483516,0.4593406593406593,2.573919413919414
4.224131675000535,0.3916483516483516,0.4593406593406593,2.573919413919414
4.231198798996047,0.33604395604395604,0.5109157509157509,2.569084249084249
4.2363822420011275,1.0331135531135531,0.4383882783882784,2.5545787545787544
4.237313944999187,1.0331135531135531,0.4383882783882784,2.5545787545787544
4.238991804995749,1.0331135531135531,0.4383882783882784,2.5545787545787544
4.242119394999463,1.0331135531135531,0.4383882783882784,2.5545787545787544
4.244471209000039,1.0331135531135531,0.4383882783882784,2.5545787545787544
4.244725952994486,1.0331135531135531,0.4383882783882784,2.5545787545787544
4.252550779994635,1.0331135531135531,0.4383882783882784,2.5545787545787544
4.257291592999536,0.755091575091575,0.4835164835164835,2.5827838827838825
4.2574329630006105,0.755091575091575,0.4835164835164835,2.5827838827838825
4.262880997994216,0.755091575091575,0.4835164835164835,2.5827838827838825
4.264540644995577,0.755091575091575,0.4835164835164835,2.5827838827838825
4.269916428995202,0.755091575091575,0.4835164835164835,2.5827838827838825
4.271556342995609,0.755091575091575,0.4835164835164835,2.5827838827838825
4.27543832900119,0.755091575091575,0.4835164835164835,2.5827838827838825
4.280848536000121,0.755091575091575,0.4835164835164835,2.5827838827838825
4.283581897994736,0.755091575091575,0.4835164835164835,2.5827838827838825
4.286420955999347,0.755091575091575,0.4835164835164835,2.5827838827838825
4.289816480995796,0.755091575091575,0.4835164835164835,2.5827838827838825
4.290652042000147,0.755091575091575,0.4835164835164835,2.5827838827838825
4.2929972049969365,0.755091575091575,0.4835164835164835,2.5827838827838825
4.293139196000993,0.4085714285714286,0.10717948717948718,0.7309157509157509
4.299605774998781,0.4085714285714286,0.10717948717948718,0.7309157509157509
4.305975589995796,1.0677655677655677,0.7808791208791208,2.5787545787545785
4.309153846996196,1.0677655677655677,0.7808791208791208,2.5787545787545785
4.31077166099567,1.0677655677655677,0.7808791208791208,2.5787545787545785
4.315646110000671,1.0677655677655677,0.7808791208791208,2.5787545787545785
4.323224052001024,1.0677655677655677,0.7808791208791208,2.5787545787545785
4.328041223998298,1.0677655677655677,0.7808791208791208,2.5787545787545785
4.328183542995248,0.7156043956043956,0.5173626373626373,2.5787545787545785
4.335236958999303,0.7156043956043956,0.5173626373626373,2.5787545787545785
4.338595158995304,0.6342124542124542,0.21274725274725276,1.7833699633699631
4.339551776996814,0.8848351648351648,0.8002197802197801,2.5787545787545785
4.340545049999491,0.8848351648351648,0.8002197802197801,2.5787545787545785
4.341498766996665,0.8848351648351648,0.8002197802197801,2.5787545787545785
4.342614082997898,0.8848351648351648,0.8002197802197801,2.5787545787545785
4.34351367099589,0.8848351648351648,0.8002197802197801,2.5787545787545785
4.3444837409988395,0.8848351648351648,0.8002197802197801,2.5787545787545785
4.345393971998419,0.8848351648351648,0.8002197802197801,2.5787545787545785
4.347115198994288,0.8848351648351648,0.8002197802197801,2.5787545787545785
4.353326937998645,0.8848351648351648,0.8002197802197801,2.5787545787545785
4.356775120999373,0.8848351648351648,0.8002197802197801,2.5787545787545785
4.357083632996364,0.8848351648351648,0.8002197802197801,2.5787545787545785
4.361898816998291,0.8848351648351648,0.8002197802197801,2.5787545787545785
4.368587255994498,1.5464468864468863,0.7147985347985348,2.5481318681318683
4.371885123000538,1.5464468864468863,0.7147985347985348,2.5481318681318683
4.373593570999219,1.5464468864468863,0.7147985347985348,2.5481318681318683
4.3766846869984875,1.5464468864468863,0.7147985347985348,2.5481318681318683
4.378438741994614,0.2232234432234432,0.4021245421245421,3.3
4.385234452995064,0.2232234432234432,0.4021245421245421,3.3
4.391245629994955,0.2232234432234432,0.4021245421245421,3.3
4.396208082995145,0.2232234432234432,0.4021245421245421,3.3
4.403447209995647,0.6003663003663003,0.7857142857142856,2.5827838827838825
4.408867785998154,0.6003663003663003,0.7857142857142856,2.5827838827838825
4.409044907995849,0.6003663003663003,0.7857142857142856,2.5827838827838825
4.41483270599565,0.6003663003663003,0.7857142857142856,2.5827838827838825
4.415212625994172,0.6003663003663003,0.7857142857142856,2.5827838827838825
4.422515539001324,0.6003663003663003,0.7857142857142856,2.5827838827838825
4.426519497996196,0.1386080586080586,0.4931868131868131,2.544908424908425
4.43003081799543,0.6084249084249085,0.5334798534798535,2.573919413919414
4.430312459000561,0.5971428571428571,0.4867399267399267,2.5682783882783884
4.4390976799986674,0.5971428571428571,0.4867399267399267,2.5682783882783884
4.445181949995458,1.4795604395604396,0.5931135531135531,3.3
4.4489536239998415,0.20065934065934066,0.4512820512820513,3.3
4.460900387995935,0.20065934065934066,0.4512820512820513,3.3
4.471679071997642,0.28608058608058606,0.03304029304029304,0.4254945054945055
4.476344932998472,0.28608058608058606,0.03304029304029304,0.4254945054945055
4.4765469189951546,0.28608058608058606,0.03304029304029304,0.4254945054945055
4.484211349998077,0.28608058608058606,0.03304029304029304,0.4254945054945055
4.489208341001358,0.28608058608058606,0.03304029304029304,0.4254945054945055
4.492336930001329,0.28608058608058606,0.03304029304029304,0.4254945054945055
4.494012755996664,0.3843956043956044,0.0709157509157509,0.40937728937728934
4.499034902000858,0.3843956043956044,0.0709157509157509,0.40937728937728934
4.503374521998921,1.0049084249084248,0.6624175824175824,2.569084249084249
4.503607557999203,1.0049084249084248,0.6624175824175824,2.569084249084249
4.509317771997303,1.0049084249084248,0.6624175824175824,2.569084249084249
4.509472817997448,0.5858608058608058,0.4827106227106227,2.556996336996337
4.517022022999299,0.5858608058608058,0.4827106227106227,2.556996336996337
4.520557108000503,0.5858608058608058,0.4827106227106227,2.556996336996337
4.52078266999888,1.6447619047619046,0.70996336996337,3.3
4.525471130000369,1.6447619047619046,0.70996336996337,3.3
4.525628973999119,1.6447619047619046,0.70996336996337,3.3
4.530413948996284,0.2756043956043956,0.3755311355311355,3.1646153846153844
4.538263971997367,0.2756043956043956,0.3755311355311355,3.1646153846153844
4.5429835229952005,0.1515018315018315,0.3287912087912088,2.497362637362637
4.543123575000209,0.1515018315018315,0.3287912087912088,2.497362637362637
4.548858440000913,0.1515018315018315,0.3287912087912088,2.497362637362637
4.549114934998215,0.31750915750915754,0.2804395604395604,2.552967032967033
4.556334994995268,1.0274725274725274,0.47706959706959706,3.3
4.5603080410000985,0.12168498168498168,0.06043956043956044,0.46659340659340653
4.56520603899844,0.12168498168498168,0.06043956043956044,0.46659340659340653
4.5710656410010415,0.12168498168498168,0.06043956043956044,0.46659340659340653
4.571178448997671,1.0049084249084248,0.4126007326007326,3.3
4.575700508001319,1.0049084249084248,0.4126007326007326,3.3
4.576660426995659,0.26673992673992675,0.3344322344322344,2.198388278388278
4.578330851996725,0.26673992673992675,0.3344322344322344,2.198388278388278
4.582621761001064,0.26673992673992675,0.3344322344322344,2.198388278388278
4.584021906994167,0.26673992673992675,0.3344322344322344,2.198388278388278
4.589065025000309,0.26673992673992675,0.3344322344322344,2.198388278388278
4.593625996996707,0.7357509157509158,0.4891575091575091,2.557802197802198
4.593876797996927,0.4287179487179487,0.09831501831501832,0.45692307692307693
4.599742933998641,0.4287179487179487,0.09831501831501832,0.45692307692307693
4.599884520001069,0.4287179487179487,0.09831501831501832,0.45692307692307693
4.607537890995445,0.4287179487179487,0.09831501831501832,0.45692307692307693
4.612447077000979,0.49076923076923074,0.46175824175824176,2.5465201465201464
4.619454478997795,0.49076923076923074,0.46175824175824176,2.5465201465201464
4.623460885995883,0.8598534798534798,0.5367032967032966,2.5481318681318683
4.627230869999039,0.5455677655677655,0.4553113553113553,2.5481318681318683
4.633317118001287,0.5455677655677655,0.4553113553113553,2.5481318681318683
4.639154233998852,0.5310622710622711,0.2063003663003663,2.552967032967033
4.6445301869971445,0.9855677655677655,0.6108424908424909,2.573113553113553
4.646235396998236,0.9855677655677655,0.6108424908424909,2.573113553113553
4.652356733997294,0.9855677655677655,0.6108424908424909,2.573113553113553
4.6555318199971225,0.9855677655677655,0.6108424908424909,2.573113553113553
4.6572346319953795,0.9855677655677655,0.6108424908424909,2.573113553113553
4.660998106999614,0.9855677655677655,0.6108424908424909,2.573113553113553
4.667035421996843,0.0,0.166007326007326,1.647985347985348
4.672639944001276,0.48432234432234433,0.25545787545787546,3.3
4.673487214000488,0.28769230769230764,0.04593406593406593,0.2715750915750916
4.674331616995914,0.28769230769230764,0.04593406593406593,0.2715750915750916
4.67601530799584,0.28769230769230764,0.04593406593406593,0.2715750915750916
4.679089304998342,0.28769230769230764,0.04593406593406593,0.2715750915750916
4.683192459997372,0.28769230769230764,0.04593406593406593,0.2715750915750916
4.685555146999832,0.28769230769230764,0.04593406593406593,0.2715750915750916
4.69581109599676,0.28769230769230764,0.04593406593406593,0.2715750915750916
4.705681661995186,0.9976556776556775,0.4013186813186813,3.3
4.72240855400014,0.9976556776556775,0.4013186813186813,3.3
4.736164919995645,0.9976556776556775,0.4013186813186813,3.3
4.7521017260005465,0.9976556776556775,0.4013186813186813,3.3
4.760329017997719,0.13538461538461538,0.03706959706959707,0.3304029304029304
4.76993873599713,0.06285714285714286,0.051575091575091575,0.6019780219780219
4.777615273000265,0.0,0.19904761904761903,1.539194139194139
4.785173170996131,0.0,0.19904761904761903,1.539194139194139
4.791006009996636,0.0,0.19904761904761903,1.539194139194139
4.795284267995157,0.0,0.19904761904761903,1.539194139194139
4.796288546996948,0.0,0.19904761904761903,1.539194139194139
4.797608332999516,0.0,0.19904761904761903,1.539194139194139
4.805097236996517,0.0,0.19904761904761903,1.539194139194139
4.810423963994253,0.0,0.19904761904761903,1.539194139194139
4.812248756999907,0.0,0.19904761904761903,1.539194139194139
4.817142683001293,0.0,0.19904761904761903,1.539194139194139
4.820647975997417,0.5874725274725274,0.3287912087912088,2.5594139194139194
4.820817302999785,0.5874725274725274,0.3287912087912088,2.5594139194139194
4.825679893998313,0.5874725274725274,0.3287912087912088,2.5594139194139194
4.832260645998758,0.5874725274725274,0.3287912087912088,2.5594139194139194
4.836313971994969,0.5874725274725274,0.3287912087912088,2.5594139194139194
4.839015565994487,0.5874725274725274,0.3287912087912088,2.5594139194139194
4.843101530997956,0.5874725274725274,0.3287912087912088,2.5594139194139194
4.847176012001,0.5874725274725274,0.3287912087912088,2.5594139194139194
4.852662078999856,0.5874725274725274,0.3287912087912088,2.5594139194139194
4.852779200999066,0.5874725274725274,0.3287912087912088,2.5594139194139194
4.8576811399980215,0.5874725274725274,0.3287912087912088,2.5594139194139194
4.864153017995704,0.5874725274725274,0.3287912087912088,2.5594139194139194
4.868931835000694,0.5874725274725274,0.3287912087912088,2.5594139194139194
4.872960108994448,0.5874725274725274,0.3287912087912088,2.5594139194139194
4.876868473998911,0.5874725274725274,0.3287912087912088,2.5594139194139194
4.882799489998433,0.5874725274725274,0.3287912087912088,2.5594139194139194
4.8905574989985325,0.5874725274725274,0.3287912087912088,2.5594139194139194
4.895399337001436,0.5874725274725274,0.3287912087912088,2.5594139194139194
4.903687394995359,0.1087912087912088,0.11282051282051282,0.27238095238095233
4.909311094997975,0.1087912087912088,0.11282051282051282,0.27238095238095233
4.909623959996679,0.2989743589743589,0.14989010989010987,2.5795604395604395
4.916752076998819,0.2989743589743589,0.14989010989010987,2.5795604395604395
4.920344836995355,0.2989743589743589,0.14989010989010987,2.5795604395604395
4.925723549000395,1.7317948717948717,0.5979487179487178,2.5674725274725274
4.928983405996405,1.7317948717948717,0.5979487179487178,2.5674725274725274
4.930612691998249,1.7317948717948717,0.5979487179487178,2.5674725274725274
4.9352713699991,1.7317948717948717,0.5979487179487178,2.5674725274725274
4.94013563599583,0.7413919413919414,0.5415384615384615,2.5803663003663004
4.9403354409951135,1.112893772893773,0.8171428571428572,2.5787545787545785
4.945275808997394,1.112893772893773,0.8171428571428572,2.5787545787545785
4.953256752996822,1.112893772893773,0.8171428571428572,2.5787545787545785
4.959677972998179,1.112893772893773,0.8171428571428572,2.5787545787545785
4.9639714599979925,1.112893772893773,0.8171428571428572,2.5787545787545785
4.967272091998893,1.112893772893773,0.8171428571428572,2.5787545787545785
4.9732185319953714,1.112893772893773,0.8171428571428572,2.5787545787545785
4.973418096000387,1.112893772893773,0.8171428571428572,2.5787545787545785
4.9781876869965345,1.112893772893773,0.8171428571428572,2.5787545787545785
4.9783221969992155,1.112893772893773,0.8171428571428572,2.5787545787545785
4.98483177399612,1.112893772893773,0.8171428571428572,2.5787545787545785
4.988773910998134,1.112893772893773,0.8171428571428572,2.5787545787545785
4.99272504599503,1.112893772893773,0.8171428571428572,2.5787545787545785
4.996918849996291,1.112893772893773,0.8171428571428572,2.5787545787545785
4.99917310699675,1.112893772893773,0.8171428571428572,2.5787545787545785
4.9994539030012675,0.9146520146520146,0.5487912087912087,2.5803663003663004
5.004076819001057,0.9146520146520146,0.5487912087912087,2.5803663003663004
5.004238294997776,0.9146520146520146,0.5487912087912087,2.5803663003663004
5.009643776000303,0.9146520146520146,0.5487912087912087,2.5803663003663004
5.011167190998094,0.9146520146520146,0.5487912087912087,2.5803663003663004
5.017443728000217,0.9146520146520146,0.5487912087912087,2.5803663003663004
5.021470654995937,0.693040293040293,0.6688644688644688,2.5795604395604395
5.025869674995192,0.693040293040293,0.6688644688644688,2.5795604395604395
5.0261462349953945,0.35619047619047617,0.3295970695970696,2.5602197802197804
5.031921490000968,0.5786080586080585,0.4182417582417582,2.5787545787545785
5.032073631999083,0.5786080586080585,0.4182417582417582,2.5787545787545785
5.037311306994525,0.5786080586080585,0.4182417582417582,2.5787545787545785
5.040352867996262,0.5786080586080585,0.4182417582417582,2.5787545787545785
5.043555264994211,0.0,0.190989010989011,0.8751648351648351
5.0444989949974115,0.0,0.190989010989011,0.8751648351648351
5.0461203749946435,0.0,0.190989010989011,0.8751648351648351
5.049719873000868,0.30945054945054945,0.39406593406593404,3.3
5.049879843994859,0.5141391941391941,0.303003663003663,2.5706959706959704
5.054765301996667,0.5141391941391941,0.303003663003663,2.5706959706959704
5.059714869996242,0.2949450549450549,0.03868131868131868,0.3473260073260073
5.065397494996432,0.2949450549450549,0.03868131868131868,0.3473260073260073
5.065564548996917,0.2949450549450549,0.03868131868131868,0.3473260073260073
5.070562805994996,0.2949450549450549,0.03868131868131868,0.3473260073260073
5.077991370999371,0.4158241758241758,0.24336996336996336,2.5626373626373624
5.08310780699685,0.4158241758241758,0.24336996336996336,2.5626373626373624
5.087220246998186,0.4158241758241758,0.24336996336996336,2.5626373626373624
5.08995065199997,0.4158241758241758,0.24336996336996336,2.5626373626373624
5.095350487994438,0.4158241758241758,0.24336996336996336,2.5626373626373624
5.095601973996963,0.4158241758241758,0.24336996336996336,2.5626373626373624
5.103726581000956,0.4158241758241758,0.24336996336996336,2.5626373626373624
5.108568040996033,0.4158241758241758,0.24336996336996336,2.5626373626373624
5.115926202997798,0.4158241758241758,0.24336996336996336,2.5626373626373624
5.12042097900121,0.4158241758241758,0.24336996336996336,2.5626373626373624
5.120606336997298,0.4158241758241758,0.24336996336996336,2.5626373626373624
5.127572717996372,0.4158241758241758,0.24336996336996336,2.5626373626373624
5.131571277997864,0.4158241758241758,0.24336996336996336,2.5626373626373624
5.13549677899573,0.4158241758241758,0.24336996336996336,2.5626373626373624
5.1394612369986135,0.4158241758241758,0.24336996336996336,2.5626373626373624
5.146122532998561,1.05003663003663,0.8993406593406592,2.5787545787545785
5.149953663996712,1.05003663003663,0.8993406593406592,2.5787545787545785
5.155298737001431,1.05003663003663,0.8993406593406592,2.5787545787545785
5.157692622000468,1.05003663003663,0.8993406593406592,2.5787545787545785
5.158024623000529,1.05003663003663,0.8993406593406592,2.5787545787545785
5.162578243995085,1.05003663003663,0.8993406593406592,2.5787545787545785
5.162940723996144,1.05003663003663,0.8993406593406592,2.5787545787545785
5.1675810659944545,0.2868864468864469,0.5624908424908425,2.5586080586080584
5.167845377000049,0.2868864468864469,0.5624908424908425,2.5586080586080584
5.172618011994928,0.2868864468864469,0.5624908424908425,2.5586080586080584
5.172719246998895,0.2868864468864469,0.5624908424908425,2.5586080586080584
5.178371513000457,0.2868864468864469,0.5624908424908425,2.5586080586080584
5.178574902995024,0.2868864468864469,0.5624908424908425,2.5586080586080584
5.184115600997757,0.2868864468864469,0.5624908424908425,2.5586080586080584
5.185007230000338,1.6737728937728935,0.6269597069597069,3.3
5.186562103997858,1.6737728937728935,0.6269597069597069,3.3
5.191037160999258,1.6737728937728935,0.6269597069597069,3.3
5.191359191994707,1.6737728937728935,0.6269597069597069,3.3
5.195888810994802,1.6737728937728935,0.6269597069597069,3.3
5.196803628001362,1.6737728937728935,0.6269597069597069,3.3
5.198369756995817,1.6737728937728935,0.6269597069597069,3.3
5.202162743997178,1.6737728937728935,0.6269597069597069,3.3
5.206615179995424,1.6737728937728935,0.6269597069597069,3.3
5.208219417996588,0.29655677655677654,0.32556776556776557,3.3
5.212010368995834,0.29655677655677654,0.32556776556776557,3.3
5.21719958599715,0.5004395604395604,0.13619047619047617,0.5391208791208791
5.220994637995318,0.5004395604395604,0.13619047619047617,0.5391208791208791
5.226511278000544,0.020146520146520144,0.09831501831501832,3.2766300366300367
5.226885860996845,0.4416117216117216,0.45692307692307693,2.5505494505494504
5.232676896994235,0.4416117216117216,0.45692307692307693,2.5505494505494504
5.232830670996918,0.4416117216117216,0.45692307692307693,2.5505494505494504
5.237991860994953,0.4416117216117216,0.45692307692307693,2.5505494505494504
5.241066599999613,0.4416117216117216,0.45692307692307693,2.5505494505494504
5.244283476000419,0.4416117216117216,0.45692307692307693,2.5505494505494504
5.24520978199871,0.4416117216117216,0.45692307692307693,2.5505494505494504
5.246824554000341,0.4416117216117216,0.45692307692307693,2.5505494505494504
5.250851525001053,0.4416117216117216,0.45692307692307693,2.5505494505494504
5.254099498000869,0.4416117216117216,0.45692307692307693,2.5505494505494504
5.255739465996157,0.07736263736263736,0.03545787545787545,0.9347985347985347
5.258786751997832,0.07736263736263736,0.03545787545787545,0.9347985347985347
5.261846975998196,1.6093040293040293,0.7534798534798535,2.5545787545787544
5.2641179989950615,1.6093040293040293,0.7534798534798535,2.5545787545787544
5.264983717999712,1.6093040293040293,0.7534798534798535,2.5545787545787544
5.26658426499489,1.6093040293040293,0.7534798534798535,2.5545787545787544
5.270351554994704,1.6093040293040293,0.7534798534798535,2.5545787545787544
5.27672166100092,1.6093040293040293,0.7534798534798535,2.5545787545787544
5.281068223994225,1.6093040293040293,0.7534798534798535,2.5545787545787544
5.281912756996462,0.014505494505494505,0.08058608058608058,3.3
5.284266253998794,0.014505494505494505,0.08058608058608058,3.3
5.284482969000237,0.3384615384615384,0.6575824175824176,2.5706959706959704
5.2899572149981395,0.3384615384615384,0.6575824175824176,2.5706959706959704
5.292300004999561,0.3384615384615384,0.6575824175824176,2.5706959706959704
5.2924964419944445,0.4391941391941392,0.15633699633699633,0.5890842490842491
5.297779341999558,0.4391941391941392,0.15633699633699633,0.5890842490842491
5.3015848099967116,0.4391941391941392,0.15633699633699633,0.5890842490842491
5.305794706997403,0.4391941391941392,0.15633699633699633,0.5890842490842491
5.306725418995484,0.4391941391941392,0.15633699633699633,0.5890842490842491
5.308459629995923,0.4391941391941392,0.15633699633699633,0.5890842490842491
5.311638380997465,0.4391941391941392,0.15633699633699633,0.5890842490842491
5.3139987559989095,0.4391941391941392,0.15633699633699633,0.5890842490842491
5.314121251998586,0.4391941391941392,0.15633699633699633,0.5890842490842491
5.319895152999379,0.4391941391941392,0.15633699633699633,0.5890842490842491
5.325417159998324,0.0,0.2095238095238095,1.3756043956043955
5.327013944995997,0.0,0.2095238095238095,1.3756043956043955
5.331715975997213,0.0,0.2095238095238095,1.3756043956043955
5.337214920000406,0.0,0.2095238095238095,1.3756043956043955
5.338118314000894,0.0,0.2095238095238095,1.3756043956043955
5.339787290999084,0.0,0.2095238095238095,1.3756043956043955
5.344164645001001,1.3691575091575092,0.5786080586080585,2.5545787545787544
5.345328379997227,0.0,0.1829304029304029,1.1813919413919414
5.345459657997708,0.0,0.1829304029304029,1.1813919413919414
5.3562571989969,0.0,0.1829304029304029,1.1813919413919414
5.3619975529945805,0.0,0.1829304029304029,1.1813919413919414
5.362217026995495,0.0,0.1829304029304029,1.1813919413919414
5.369781504996354,0.37150183150183147,0.4021245421245421,3.3
5.374472757001058,0.5584615384615385,0.23128205128205126,0.9364102564102563
5.379975156,0.5584615384615385,0.23128205128205126,0.9364102564102563
5.382868193999457,0.5584615384615385,0.23128205128205126,0.9364102564102563
5.386175116000231,0.5584615384615385,0.23128205128205126,0.9364102564102563
5.3869997980000335,0.5028571428571429,0.506080586080586,2.5642490842490844
5.388860612998542,0.5028571428571429,0.506080586080586,2.5642490842490844
5.392213867999089,0.5028571428571429,0.506080586080586,2.5642490842490844
5.392503103001218,0.7147985347985348,0.24901098901098898,3.192014652014652
5.397696027001075,0.7147985347985348,0.24901098901098898,3.192014652014652
5.400598287000321,0.7147985347985348,0.24901098901098898,3.192014652014652
5.405523080000421,0.7147985347985348,0.24901098901098898,3.192014652014652
5.409727428996121,0.20146520146520144,0.32153846153846155,1.2982417582417582
5.412714706995757,0.20146520146520144,0.32153846153846155,1.2982417582417582
5.41658884199569,0.20146520146520144,0.32153846153846155,1.2982417582417582
5.423518247996981,0.20146520146520144,0.32153846153846155,1.2982417582417582
5.42923160999635,0.9339926739926739,0.772014652014652,2.5787545787545785
5.437905544000387,0.29010989010989013,0.4142124542124542,2.552967032967033
5.4432655639975565,0.29010989010989013,0.4142124542124542,2.552967032967033
5.446373141996446,0.29010989010989013,0.4142124542124542,2.552967032967033
5.448913617001381,0.29010989010989013,0.4142124542124542,2.552967032967033
5.455067479997524,0.29010989010989013,0.4142124542124542,2.552967032967033
5.459059405999142,0.29010989010989013,0.4142124542124542,2.552967032967033
5.462856871999975,0.29010989010989013,0.4142124542124542,2.552967032967033
5.470849561999785,0.15472527472527473,0.46739926739926735,2.5602197802197804
5.475504718997399,0.15472527472527473,0.46739926739926735,2.5602197802197804
5.475631371999043,0.15472527472527473,0.46739926739926735,2.5602197802197804
5.481876166995789,0.15472527472527473,0.46739926739926735,2.5602197802197804
5.486200810999435,0.15472527472527473,0.46739926739926735,2.5602197802197804
5.486484234999807,0.15472527472527473,0.46739926739926735,2.5602197802197804
5.491214131994639,0.15472527472527473,0.46739926739926735,2.5602197802197804
5.498034201998962,0.332014652014652,0.08058608058608058,0.7583150183150182
5.503188382994267,0.9831501831501831,0.6511355311355311,2.581172161172161
5.5047985130004236,0.9831501831501831,0.6511355311355311,2.581172161172161
5.508880648994818,0.9831501831501831,0.6511355311355311,2.581172161172161
5.511360694996256,0.9831501831501831,0.6511355311355311,2.581172161172161
5.511492386998725,0.9831501831501831,0.6511355311355311,2.581172161172161
5.518407591000141,0.9831501831501831,0.6511355311355311,2.581172161172161
5.521625089000736,1.1499633699633698,0.5906959706959707,2.5787545787545785
5.5232194579948555,1.8849084249084247,0.6567765567765567,2.5521611721611723
5.5271562749985605,1.8849084249084247,0.6567765567765567,2.5521611721611723
5.532234058999165,1.8849084249084247,0.6567765567765567,2.5521611721611723
5.538578412997595,1.8849084249084247,0.6567765567765567,2.5521611721611723
5.54291170599754,1.8849084249084247,0.6567765567765567,2.5521611721611723
5.544632047996856,1.8849084249084247,0.6567765567765567,2.5521611721611723
5.549147378995258,1.8849084249084247,0.6567765567765567,2.5521611721611723
5.549503812995681,0.8622710622710623,0.4553113553113553,2.5787545787545785
5.553633783994883,1.0508424908424907,0.39003663003663,2.5561904761904763
5.556260104000103,0.3304029304029304,0.03868131868131868,0.30058608058608055
5.560834349998913,0.3304029304029304,0.03868131868131868,0.30058608058608055
5.561164441998699,0.3304029304029304,0.03868131868131868,0.30058608058608055
5.567399438994471,0.3304029304029304,0.03868131868131868,0.30058608058608055
5.571194188996742,0.5632967032967032,0.40534798534798533,2.5594139194139194
5.5757264040003065,0.7454212454212454,0.2562637362637363,3.3
5.576595783000812,0.9646153846153847,0.7131868131868132,2.581978021978022
5.578235880995635,0.9646153846153847,0.7131868131868132,2.581978021978022
5.585783604001335,0.9646153846153847,0.7131868131868132,2.581978021978022
5.59213876099966,0.9646153846153847,0.7131868131868132,2.581978021978022
5.597179630000028,0.9646153846153847,0.7131868131868132,2.581978021978022
5.6017769609970856,0.9646153846153847,0.7131868131868132,2.581978021978022
5.60642137999821,0.9646153846153847,0.7131868131868132,2.581978021978022
5.606540650995157,0.9646153846153847,0.7131868131868132,2.581978021978022
5.611324031000549,0.9646153846153847,0.7131868131868132,2.581978021978022
5.619659493000654,0.9646153846153847,0.7131868131868132,2.581978021978022
5.623822174995439,0.9646153846153847,0.7131868131868132,2.581978021978022
5.626900647999719,0.3416849816849817,0.523003663003663,2.5674725274725274
5.628605277997849,0.3416849816849817,0.523003663003663,2.5674725274725274
5.634741965994181,0.3416849816849817,0.523003663003663,2.5674725274725274
5.6401623119963915,0.3416849816849817,0.523003663003663,2.5674725274725274
5.640337831995566,1.0516483516483515,0.9662271062271062,2.5755311355311354
5.647859746000904,1.0516483516483515,0.9662271062271062,2.5755311355311354
5.652264776996162,1.0516483516483515,0.9662271062271062,2.5755311355311354
5.652480034994369,1.0516483516483515,0.9662271062271062,2.5755311355311354
5.658948740994674,1.0516483516483515,0.9662271062271062,2.5755311355311354
5.665358532998653,1.0516483516483515,0.9662271062271062,2.5755311355311354
5.668937999995251,1.0516483516483515,0.9662271062271062,2.5755311355311354
5.674566857996979,1.0516483516483515,0.9662271062271062,2.5755311355311354
5.675583869997354,1.0516483516483515,0.9662271062271062,2.5755311355311354
5.675899155998195,1.0516483516483515,0.9662271062271062,2.5755311355311354
5.681698827000218,1.2055677655677655,0.9227106227106227,2.581172161172161
5.681816424999852,1.2055677655677655,0.9227106227106227,2.581172161172161
5.687447076001263,1.2055677655677655,0.9227106227106227,2.581172161172161
5.6877039760001935,1.2055677655677655,0.9227106227106227,2.581172161172161
5.696217078999325,1.2055677655677655,0.9227106227106227,2.581172161172161
5.702720185996441,1.2055677655677655,0.9227106227106227,2.581172161172161
5.706747143995017,1.2055677655677655,0.9227106227106227,2.581172161172161
5.709810424996249,1.2055677655677655,0.9227106227106227,2.581172161172161
5.7122211050009355,1.2055677655677655,0.9227106227106227,2.581172161172161
5.712357986994903,1.2055677655677655,0.9227106227106227,2.581172161172161
5.720971835995442,1.2055677655677655,0.9227106227106227,2.581172161172161
5.727495598999667,1.2055677655677655,0.9227106227106227,2.581172161172161
5.73272305700084,1.2055677655677655,0.9227106227106227,2.581172161172161
5.736294557995279,1.2055677655677655,0.9227106227106227,2.581172161172161
5.741148702996725,1.2055677655677655,0.9227106227106227,2.581172161172161
5.747464061998471,1.0065201465201465,0.5729670329670329,2.5787545787545785
5.752796321998176,1.0065201465201465,0.5729670329670329,2.5787545787545785
5.753617702997872,0.30622710622710625,0.08542124542124542,0.27882783882783885
5.755237371995463,0.30622710622710625,0.08542124542124542,0.27882783882783885
5.7591257780004526,0.30622710622710625,0.08542124542124542,0.27882783882783885
5.7651330689986935,0.9476923076923076,0.7027106227106227,2.5787545787545785
5.770257951000531,0.9476923076923076,0.7027106227106227,2.5787545787545785
5.7726968319984735,0.9476923076923076,0.7027106227106227,2.5787545787545785
5.772915659996215,0.9476923076923076,0.7027106227106227,2.5787545787545785
5.777583082999627,0.9476923076923076,0.7027106227106227,2.5787545787545785
5.777773073998105,0.7937728937728937,0.6954578754578754,2.569084249084249
5.787536559000728,0.7937728937728937,0.6954578754578754,2.569084249084249
5.796409069997026,0.7051282051282051,0.4931868131868131,2.5666666666666664
5.804107446994749,0.7051282051282051,0.4931868131868131,2.5666666666666664
5.80937536899728,0.012893772893772894,0.3158974358974359,1.2378021978021978
5.809789626997372,0.012893772893772894,0.3158974358974359,1.2378021978021978
5.818486482996377,0.012893772893772894,0.3158974358974359,1.2378021978021978
5.822499732996221,0.012893772893772894,0.3158974358974359,1.2378021978021978
5.826854538994667,0.012893772893772894,0.3158974358974359,1.2378021978021978
5.82861282399972,0.012893772893772894,0.3158974358974359,1.2378021978021978
5.834756928998104,0.012893772893772894,0.3158974358974359,1.2378021978021978
5.838365039999189,0.012893772893772894,0.3158974358974359,1.2378021978021978
5.844745833994239,0.012893772893772894,0.3158974358974359,1.2378021978021978
5.852345658000559,1.7293772893772894,0.6535531135531135,3.3
5.857296811998822,0.9807326007326007,0.3843956043956044,3.3
5.862230317994545,0.9807326007326007,0.3843956043956044,3.3
5.8655890250011,0.0,0.19824175824175824,1.7253479853479854
5.865932657994563,0.0,0.19824175824175824,1.7253479853479854
5.87198281599558,0.0,0.19824175824175824,1.7253479853479854
5.876058103996911,0.0,0.19824175824175824,1.7253479853479854
5.8796614649982075,0.0,0.19824175824175824,1.7253479853479854
5.888670276995981,0.0,0.19824175824175824,1.7253479853479854
5.896367814995756,0.0,0.19824175824175824,1.7253479853479854
5.903437212000426,0.0,0.19824175824175824,1.7253479853479854
5.908330273996398,0.9372161172161171,0.6543589743589743,2.5787545787545785
5.914669384997978,0.9372161172161171,0.6543589743589743,2.5787545787545785
5.918699403999199,0.9372161172161171,0.6543589743589743,2.5787545787545785
5.921016625994525,0.9372161172161171,0.6543589743589743,2.5787545787545785
5.921174425995559,0.9372161172161171,0.6543589743589743,2.5787545787545785
5.92674443499709,0.9372161172161171,0.6543589743589743,2.5787545787545785
5.927650518999144,0.9372161172161171,0.6543589743589743,2.5787545787545785
5.929280235999613,0.9372161172161171,0.6543589743589743,2.5787545787545785
5.935293403999822,0.9372161172161171,0.6543589743589743,2.5787545787545785
5.939106115998584,0.9372161172161171,0.6543589743589743,2.5787545787545785
5.9436087629947,1.0363369963369962,0.7671794871794871,2.5787545787545785
5.9439737489956315,1.0363369963369962,0.7671794871794871,2.5787545787545785
5.952079917995434,1.0363369963369962,0.7671794871794871,2.5787545787545785
5.9586590670005535,1.0363369963369962,0.7671794871794871,2.5787545787545785
5.964900150996982,1.0363369963369962,0.7671794871794871,2.5787545787545785
5.968784926000808,1.7189010989010989,0.6406593406593406,3.3
5.975449799996568,0.5657142857142857,0.25142857142857145,2.557802197802198
5.978866200995981,0.8985347985347985,0.614065934065934,2.5787545787545785
5.9791104159958195,0.8985347985347985,0.614065934065934,2.5787545787545785
