time,emg1,emg2,emg3
0.0024173960009648,0.0,0.0032234432234432234,0.0008058608058608059
0.012622087000636384,0.0,0.0032234432234432234,0.0008058608058608059
0.028626097002415918,0.0,0.0032234432234432234,0.0008058608058608059
0.04411263500151108,0.0,0.0032234432234432234,0.0008058608058608059
0.056756222002150025,0.0,0.0032234432234432234,0.0008058608058608059
0.0672366390026582,0.0,0.0032234432234432234,0.0008058608058608059
0.07378510200214805,0.0,0.0032234432234432234,0.0008058608058608059
0.07968963700113818,0.0,0.0032234432234432234,0.0008058608058608059
0.08599330099968938,0.0,0.07494505494505493,0.008864468864468863
0.09062166700095986,0.0,0.07494505494505493,0.008864468864468863
0.0949692430003779,0.0,0.0,0.010476190476190476
0.0967938560024777,0.0,0.0,0.010476190476190476
0.09857384800125146,0.0,0.012893772893772894,0.02498168498168498
0.10228644699964207,0.0,0.012893772893772894,0.02498168498168498
0.10922122199917794,0.0,0.012893772893772894,0.012893772893772894
0.11337052599992603,0.0,0.012893772893772894,0.012893772893772894
0.11586555400208454,0.0,0.017728937728937726,0.010476190476190476
0.12174329200206557,0.0,0.004835164835164835,0.010476190476190476
0.12631810600214521,0.0,0.004835164835164835,0.010476190476190476
0.12648054099918227,0.0,0.004835164835164835,0.010476190476190476
0.13178799100205651,0.0,0.004835164835164835,0.010476190476190476
0.1343240810019779,0.0,0.004835164835164835,0.010476190476190476
0.14279569700011052,0.0,0.004835164835164835,0.010476190476190476
0.14894425800230238,0.0,0.004835164835164835,0.010476190476190476
0.15525061600055778,0.0,0.004835164835164835,0.010476190476190476
0.16318994000175735,0.0,0.016117216117216115,0.0
0.17060242899970035,0.0,0.016117216117216115,0.0
0.17615931200271007,0.0,0.016117216117216115,0.0
0.18578451000212226,0.0,0.016117216117216115,0.0
0.19283712200194714,0.0,0.016117216117216115,0.0
0.19796249000137323,0.0,0.03223443223443223,0.024175824175824173
0.2017150909996417,0.0,0.0,0.0
0.20625914099946385,0.0,0.0,0.0
0.20708637600182556,0.0,0.01934065934065934,0.2506227106227106
0.2097650910000084,0.0,0.01934065934065934,0.2506227106227106
0.21583325200117542,0.0,0.01934065934065934,0.2506227106227106
0.21928392200061353,0.0,0.01934065934065934,0.2506227106227106
0.21952758400220773,0.0,0.01934065934065934,0.2506227106227106
0.22737186900121742,0.0,0.01934065934065934,0.2506227106227106
0.23387775599985616,0.0,0.004835164835164835,0.0821978021978022
0.24061853000239353,0.0,0.004835164835164835,0.0821978021978022
0.2461603150004521,0.0,0.016117216117216115,0.0
0.25601757600088604,0.0,0.016117216117216115,0.0
0.26217052500214777,0.0,0.016117216117216115,0.0
0.26627122400168446,0.0,0.0032234432234432234,0.0032234432234432234
0.2686047490024066,0.0,0.00967032967032967,0.5109157509157509
0.26874759500060463,0.0,0.00967032967032967,0.5109157509157509
0.275753349000297,0.0,0.00967032967032967,0.5109157509157509
0.27962343000035617,0.0,0.022564102564102562,0.017728937728937726
0.2841927810004563,0.0,0.0016117216117216117,0.0
0.29109200300081284,0.0,0.0,0.02095238095238095
0.29657074400165584,0.0,0.014505494505494505,0.05882783882783882
0.3084657250001328,0.0,0.014505494505494505,0.05882783882783882
0.3138761730006081,0.0,0.014505494505494505,0.05882783882783882
0.3154057020001346,0.0,0.014505494505494505,0.05882783882783882
0.3192064079994452,0.0,0.014505494505494505,0.05882783882783882
0.32600683300188393,0.0,0.014505494505494505,0.05882783882783882
0.33008836199951475,0.0,0.014505494505494505,0.05882783882783882
0.3324724190024426,0.0,0.006446886446886447,0.0
0.33800708900162135,0.0,0.007252747252747252,0.020146520146520144
0.340880310999637,0.0,0.007252747252747252,0.014505494505494505
0.3438132219998806,0.0,0.007252747252747252,0.014505494505494505
0.3447173480017227,0.0,0.004029304029304029,1.278901098901099
0.3462979770010861,0.0,0.004029304029304029,3.3
0.35088764000101946,0.0,0.011282051282051281,0.12329670329670328
0.3510980920000293,0.0,0.011282051282051281,0.12329670329670328
0.35727217699968605,0.0,0.011282051282051281,0.12329670329670328
0.3612718149997818,0.0,0.011282051282051281,0.12329670329670328
0.3635991820010531,0.0,0.0,0.0
0.3736994480022986,0.0,0.0,0.0
0.37977207800213364,0.0,0.0,0.0
0.3835815290003666,0.0,0.0,0.0
0.38748085200131754,0.0,0.0,0.0
0.39379941299921484,0.0,0.0,0.0
0.3976556769994204,0.0,0.0,0.0
0.40242472600220935,0.0,0.0,0.0
0.41024606300197775,0.0,0.0,0.0
0.41424122100215754,0.0,0.0,0.0
0.4193431530002272,0.0,0.0,0.0
0.4230872910011385,0.0,0.0,0.0
0.4274041300013778,0.0,0.033846153846153845,0.026593406593406595
0.42761230600081035,0.0,0.033846153846153845,0.026593406593406595
0.43324093200135394,0.0,0.033846153846153845,0.026593406593406595
0.43347746500148787,0.0,0.0,0.0
0.44025307999982033,0.0,0.0,0.0
0.44450603400036925,0.0,0.0,0.0
0.44609224300074857,0.0,0.0,0.0
0.45049906200074474,0.0,0.0,0.0
0.4507308370011742,0.0,0.0,0.0
0.4569126810019952,0.0,0.01531135531135531,0.0
0.46105111300130375,0.0,0.01531135531135531,0.0
0.461937890999252,0.0,0.01531135531135531,0.0
0.4635024560011516,0.0,0.01531135531135531,0.0
0.4680275140017329,0.0,0.01531135531135531,0.0
0.46818960400196374,0.0,0.01531135531135531,0.0
0.47531271200205083,0.0,0.01531135531135531,0.0
0.47951168900181074,0.0,0.0136996336996337,0.018534798534798533
0.4804241109995928,0.0,0.0136996336996337,0.018534798534798533
0.4821844100006274,0.0,0.012087912087912087,0.018534798534798533
0.4853521540026122,0.0,0.012087912087912087,0.018534798534798533
0.4869048100008513,0.0,0.012087912087912087,0.018534798534798533
0.49389974999940023,0.0,0.012087912087912087,0.018534798534798533
0.49785907000114094,0.0,0.012087912087912087,0.018534798534798533
0.5017358400000376,0.0,0.012087912087912087,0.018534798534798533
0.5090918360001524,0.0,0.004029304029304029,0.0008058608058608059
0.5154967090020364,0.0,0.04673992673992674,0.03868131868131868
0.5192652490004548,0.0,0.04673992673992674,0.03868131868131868
0.5269956670017564,0.0,0.04673992673992674,0.03868131868131868
0.5308669070000178,0.0,0.03304029304029304,0.026593406593406595
0.5356397150026169,0.0,0.016117216117216115,0.03142857142857143
0.5446602560004976,0.0,0.016117216117216115,0.03142857142857143
0.5493075720005436,0.0,0.0,0.0
0.5495833850000054,0.0,0.0,0.0
0.5559282510002959,0.0,0.0,0.0
0.5612087500012422,0.0,0.0,0.0
0.5614312659999996,0.0,0.012893772893772894,0.0
0.5667528310004855,0.0,0.012893772893772894,0.0
0.5684447540006659,0.0,0.0024175824175824176,1.6826373626373625
0.5710162150026008,0.0,0.0024175824175824176,1.6826373626373625
0.57827803300097,0.0,0.0024175824175824176,1.6826373626373625
0.5828356050005823,0.0,0.0024175824175824176,1.6826373626373625
0.5830594319995726,0.0,0.0024175824175824176,1.6826373626373625
0.5887263520016859,0.0,0.0024175824175824176,1.6826373626373625
0.5889688320021378,0.0,0.0024175824175824176,1.6826373626373625
0.5959211000008509,0.0,0.0024175824175824176,1.6826373626373625
0.6004710630004411,0.0,0.0024175824175824176,1.6826373626373625
0.6013363269994443,0.0,0.0024175824175824176,1.6826373626373625
0.603652838999551,0.0,0.0024175824175824176,1.6826373626373625
0.603855271001521,0.0,0.0024175824175824176,1.6826373626373625
0.6108140440010175,0.0,0.0024175824175824176,1.6826373626373625
0.6147901030017238,0.0,0.0024175824175824176,1.6826373626373625
0.618663370001741,0.0,0.0024175824175824176,1.6826373626373625
0.6239870120007254,0.0,0.0024175824175824176,1.6826373626373625
0.6254595169993991,0.0,0.00967032967032967,0.0008058608058608059
0.6297516760023427,0.0,0.00967032967032967,0.0008058608058608059
0.6306302980010514,0.0,0.022564102564102562,0.006446886446886447
0.6321963949994824,0.0,0.007252747252747252,0.0
0.6365952609994565,0.0,0.007252747252747252,0.0
0.6374158329999773,0.0,0.007252747252747252,0.0
0.6395970910016331,0.0,0.007252747252747252,0.0
0.639888386001985,0.0,0.0024175824175824176,0.0
0.6459380110027269,0.0,0.0024175824175824176,0.0
0.6498183260009682,0.0,0.0024175824175824176,0.0
0.6530797850027739,0.0,0.0024175824175824176,0.0
0.6538999210024485,0.0,0.0024175824175824176,0.0
0.6554004800018447,0.0,0.0024175824175824176,0.0
0.6619140460024937,0.0,0.0024175824175824176,0.0
0.6658953149999434,0.0,0.0024175824175824176,0.0
0.6689916499999526,0.0,0.0024175824175824176,0.0
0.6713923530005559,0.0,0.0024175824175824176,0.0
0.6716850360026001,0.0,0.014505494505494505,0.0024175824175824176
0.677189960002579,0.0,0.014505494505494505,0.0024175824175824176
0.6774371860010433,0.0,0.014505494505494505,0.0024175824175824176
0.6828607470015413,0.0,0.014505494505494505,0.0024175824175824176
0.6832594799998333,0.0,0.014505494505494505,0.0024175824175824176
0.6879987300017092,0.0,0.014505494505494505,0.0024175824175824176
0.6881214570021257,0.0,0.014505494505494505,0.0024175824175824176
0.6992818660000921,0.0,0.014505494505494505,0.0024175824175824176
0.7057478009992337,0.0,0.0,0.0
0.7114330000003974,0.0,0.018534798534798533,0.014505494505494505
0.720527180001227,0.0,0.018534798534798533,0.014505494505494505
0.7326841979993333,0.0,0.018534798534798533,0.014505494505494505
0.7430408700020052,0.0,0.018534798534798533,0.014505494505494505
0.7480014169996139,0.0,0.0016117216117216117,0.00967032967032967
0.752593514000182,0.0,0.011282051282051281,0.0410989010989011
0.7527304560026096,0.0,0.011282051282051281,0.0410989010989011
0.7608440719995997,0.0,0.011282051282051281,0.0410989010989011
0.7656610430021829,0.0,0.0,0.0
0.7702940970011696,0.0,0.0,0.0
0.7789765369998349,0.0,0.0,0.0
0.7840810790003161,0.0,0.0,0.0
0.7872774940005911,0.0,0.0,0.0
0.788841527999466,0.0,0.0,0.0
0.7950604280013067,0.0,0.0,0.0
0.7995403280001483,0.0,0.0,0.0
0.7997424380009761,0.0,0.0,0.0
0.8073923640004068,0.0,0.0,0.0
0.8123622640014219,0.0,0.0016117216117216117,0.8437362637362636
0.8161902600004396,0.0,0.0016117216117216117,0.8437362637362636
0.8228653100013616,0.0,0.0016117216117216117,0.8437362637362636
0.829118934001599,0.0,0.0016117216117216117,0.8437362637362636
0.8337696890012012,0.0,0.004029304029304029,0.12249084249084248
0.845105254000373,0.0,0.004029304029304029,0.12249084249084248
0.8534332039998844,0.0,0.004835164835164835,0.0
0.8608902000014496,0.0,0.004835164835164835,0.0
0.8649166860013793,0.0,0.0,0.0
0.8681340559996897,0.0,0.0,0.0
0.8689843409993045,0.0,0.0,0.0032234432234432234
0.8706127410005138,0.0,0.0,0.0032234432234432234
0.8781557500005874,0.0,0.0,0.0032234432234432234
0.8820236700012174,0.0,0.011282051282051281,0.010476190476190476
0.8884014409995871,0.0,0.011282051282051281,0.010476190476190476
0.8930335760014714,0.0,0.0008058608058608059,0.09025641025641025
0.8996872970019467,0.0,0.0008058608058608059,0.09025641025641025
0.9034951930007082,0.0,0.0008058608058608059,0.09025641025641025
0.9137635690021852,0.0,0.0008058608058608059,0.09025641025641025
0.9211244729995087,0.0,0.0008058608058608059,0.09025641025641025
0.9263255430014397,0.0,0.0008058608058608059,0.09025641025641025
0.9279150110014598,0.0,0.008864468864468863,0.03868131868131868
0.931800075002684,0.0,0.008864468864468863,0.03868131868131868
0.9354710590014292,0.0,0.008864468864468863,0.03868131868131868
0.9356296030018711,0.0,0.008864468864468863,0.03868131868131868
0.9424885150001501,0.0,0.008864468864468863,0.03868131868131868
0.9478465070023958,0.0,0.0,0.0
0.9480773380018945,0.0,0.0,0.0
0.9532350310000766,0.0,0.0,0.0
0.9583163520001108,0.0,0.0,0.0
0.9607314780005254,0.0,0.0,0.0
0.9660725780013308,0.0,0.0,0.0
0.9682994770009827,0.0,0.0,0.0
0.9684806330005813,0.0,0.0,0.0
0.976045391002117,0.0,0.0,0.0
0.9811856050000642,0.0,0.02095238095238095,0.0
0.9827019610020216,0.0,0.011282051282051281,0.0
0.9887432560026355,0.0,0.011282051282051281,0.0
0.9926926990010543,0.0,0.004029304029304029,1.6778021978021975
0.9960218449996319,0.0,0.004029304029304029,1.6778021978021975
0.9962888100017153,0.0,0.004029304029304029,1.6778021978021975
1.0007865280022088,0.0,0.004029304029304029,1.6778021978021975
1.001119770000514,0.0,0.0,0.0
1.0076593280027737,0.0,0.0,0.0
1.011406003999582,0.0,0.0,0.0
1.0167139350014622,0.0,0.0,0.0
1.018262732999574,0.0,0.0,0.0
1.023640097999305,0.0,0.0,0.0
1.0251755110002705,0.0,0.0,0.0
1.031638758002373,0.0,0.0,0.0
1.0371879930025898,0.0,0.0,0.0
1.0482808750020922,0.0,0.0024175824175824176,0.0016117216117216117
1.055466529000114,0.0,0.0024175824175824176,0.0016117216117216117
1.0602325780018873,0.0,0.0024175824175824176,0.0016117216117216117
1.060356583999237,0.0,0.0024175824175824176,0.0016117216117216117
1.0657015630022215,0.0,0.0024175824175824176,0.0016117216117216117
1.0672278730016842,0.0,0.0024175824175824176,0.0016117216117216117
1.0750354110023181,0.0,0.0024175824175824176,0.0016117216117216117
1.0788512050021382,0.0,0.0024175824175824176,0.0016117216117216117
1.083466962001694,0.0,0.0024175824175824176,0.0016117216117216117
1.083533692999481,0.0,0.0024175824175824176,0.0016117216117216117
1.0895992330006266,0.0,0.0024175824175824176,0.0016117216117216117
1.0947282029992493,0.0,0.0024175824175824176,0.0016117216117216117
1.0962860510007886,0.0,0.0024175824175824176,0.0016117216117216117
1.100863184001355,0.0,0.0024175824175824176,0.0016117216117216117
1.1011648790008621,0.0,0.0024175824175824176,0.0016117216117216117
1.1071726490008587,0.0,0.0024175824175824176,0.0016117216117216117
1.1107987480027077,0.0,0.0024175824175824176,0.0016117216117216117
1.1161125729995547,0.0,0.0024175824175824176,0.0016117216117216117
1.1182996520001325,0.0,0.0024175824175824176,0.0016117216117216117
1.1184673730022041,0.0,0.0024175824175824176,0.0016117216117216117
1.127465834000759,0.0,0.0024175824175824176,0.0016117216117216117
1.1335930390014255,0.0,0.0024175824175824176,0.0016117216117216117
1.1394966660009231,0.0,0.0024175824175824176,0.0016117216117216117
1.1483465380006237,0.0,0.0024175824175824176,0.0016117216117216117
1.1543482340021,0.0,0.0016117216117216117,0.02901098901098901
1.1581205790025706,0.0,0.016117216117216115,0.03062271062271062
1.161461051000515,0.0,0.016117216117216115,0.03062271062271062
1.162189278002188,0.0,0.016117216117216115,0.03062271062271062
1.1643424700014293,0.0,0.016117216117216115,0.03062271062271062
1.1651666210018448,0.0,0.016117216117216115,0.03062271062271062
1.1672653580026235,0.0,0.016117216117216115,0.03062271062271062
1.1680813090024458,0.0,0.016117216117216115,0.03062271062271062
1.1695628890010994,0.0,0.016117216117216115,0.03062271062271062
1.1755399909998232,0.0,0.016117216117216115,0.03062271062271062
1.1797423600000911,0.0,0.016117216117216115,0.03062271062271062
1.181323616001464,0.0,0.016117216117216115,0.03062271062271062
1.1875906120003492,0.0,0.016117216117216115,0.03062271062271062
1.1941461970018281,0.0,0.016117216117216115,0.03062271062271062
1.1972127490007551,0.0,0.016117216117216115,0.03062271062271062
1.199447291000979,0.0,0.016117216117216115,0.03062271062271062
1.2002529220008,0.0,0.0016117216117216117,0.007252747252747252
1.2024441680005111,0.0,0.0024175824175824176,0.0
1.2026964819997374,0.0,0.026593406593406595,0.02095238095238095
1.2111700620007468,0.0,0.026593406593406595,0.02095238095238095
1.218363029001921,0.0,0.0,0.224029304029304
1.2241311390025658,0.0,0.0,0.224029304029304
1.2326219909991778,0.0,0.0,0.224029304029304
1.2399027890023717,0.0,0.008058608058608058,0.0
1.2446846410020953,0.0,0.008058608058608058,0.0
1.2492034130009415,0.0,0.008058608058608058,0.0
1.2493940610002028,0.0,0.008058608058608058,0.0
1.2549165910022566,0.0,0.008058608058608058,0.0
1.2551405119993433,0.0,0.012893772893772894,0.0
1.26071751100244,0.0,0.012893772893772894,0.0
1.2609505370019178,0.0,0.012893772893772894,0.0
1.2673781070006953,0.0,0.012893772893772894,0.0
1.2720192870001483,0.0,0.012893772893772894,0.0
1.2788212080013182,0.0,0.0,0.0
1.2840252730020438,0.0,0.0,0.0
1.2856872219999786,0.0,0.0032234432234432234,0.0
1.2913450190026197,0.0,0.0032234432234432234,0.0
1.2989243470001384,0.0,0.025787545787545788,0.025787545787545788
1.3057834970022668,0.0,0.005641025641025641,0.0008058608058608059
1.3114665930006595,0.0,0.0273992673992674,1.8663736263736261
1.321279155999946,0.0,0.0016117216117216117,0.06124542124542124
1.3321214410025277,0.0,0.0016117216117216117,0.06124542124542124
1.3394471680003335,0.0,0.0016117216117216117,0.06124542124542124
1.344355134999205,0.0,0.012087912087912087,0.005641025641025641
1.3480556930007879,0.0,0.012087912087912087,0.005641025641025641
1.3532216189996689,0.0,0.012087912087912087,0.005641025641025641
1.356245046001277,0.0,0.0,0.005641025641025641
1.3588259050011402,0.0,0.0,0.005641025641025641
1.3655782390014792,0.0,0.011282051282051281,0.0
1.3716522400027316,0.0,0.011282051282051281,0.0
1.3768725430018094,0.0,0.011282051282051281,0.0
1.3780279519996839,0.0,0.011282051282051281,0.0
1.3781969070005289,0.0,0.011282051282051281,0.0
1.3873158280002826,0.0,0.011282051282051281,0.0
1.3960468750010477,0.0,0.011282051282051281,0.0
1.4050336889995378,0.0,0.011282051282051281,0.0
1.4145747860020492,0.0,0.01934065934065934,0.0
1.4226180820005538,0.0,0.01934065934065934,0.0
1.4300847000013164,0.0,0.004835164835164835,0.008058608058608058
1.437514564000594,0.0,0.004835164835164835,0.008058608058608058
1.4436325290007517,0.0,0.011282051282051281,0.007252747252747252
1.4477959140021994,0.0,0.02095238095238095,0.010476190476190476
1.4501304580007854,0.0,0.016117216117216115,0.03706959706959707
1.4503304620011477,0.0,0.016117216117216115,0.03706959706959707
1.4558273139991798,0.0,0.016117216117216115,0.03706959706959707
1.457524524001201,0.0,0.016117216117216115,0.03706959706959707
1.4615019320008287,0.0,0.016117216117216115,0.03706959706959707
1.4654842730014934,0.0,0.016117216117216115,0.03706959706959707
1.469402277001791,0.0,0.016117216117216115,0.03706959706959707
1.4739938470011111,0.0,0.0,0.012893772893772894
1.4742089190003753,0.0,0.014505494505494505,0.0
1.4802444190027018,0.0,0.014505494505494505,0.0
1.487833301001956,0.0,0.014505494505494505,0.0
1.4932026120004593,0.0,0.008864468864468863,0.02901098901098901
1.4979380780023348,0.0,0.008864468864468863,0.02901098901098901
1.5038447930019174,0.0,0.016923076923076923,0.0
1.5102578210025968,0.0,0.006446886446886447,0.004835164835164835
1.5158674230006,0.0,0.006446886446886447,0.004835164835164835
1.5159893759991974,0.0,0.017728937728937726,0.006446886446886447
1.5245352480014844,0.0,0.017728937728937726,0.006446886446886447
1.5316044710016286,0.0,0.017728937728937726,0.006446886446886447
1.5360027530005027,0.0,0.017728937728937726,0.006446886446886447
1.536845517999609,0.0,0.017728937728937726,0.006446886446886447
1.5378728169998794,0.0,0.017728937728937726,0.006446886446886447
1.5387370070020552,0.0,0.017728937728937726,0.006446886446886447
1.5402488700019603,0.0,0.017728937728937726,0.006446886446886447
1.5449196510016918,0.0,0.017728937728937726,0.006446886446886447
1.54505124500065,0.0,0.017728937728937726,0.006446886446886447
1.5500915000011446,0.0,0.017728937728937726,0.006446886446886447
1.5549170180020155,0.0,0.0024175824175824176,0.0016117216117216117
1.5603724899992812,0.0,0.0024175824175824176,0.0016117216117216117
1.5619955290021608,0.0,0.0024175824175824176,0.0016117216117216117
1.5657130390027305,0.0,0.0024175824175824176,0.0016117216117216117
1.5703480699994543,0.0,0.0032234432234432234,0.07252747252747253
1.5705362879998574,0.0,0.0032234432234432234,0.07252747252747253
1.5760637880011927,0.0,0.0032234432234432234,0.07252747252747253
1.5776405270007672,0.0,0.0,0.012893772893772894
1.5814299609992304,0.0,0.0,0.012893772893772894
1.5861517250014003,0.0,0.0,0.012893772893772894
1.586222223002551,0.0,0.0,0.012893772893772894
1.5918352200023946,0.0,0.0,0.012893772893772894
1.5921354929996596,0.0,0.0,0.014505494505494505
1.6008112310009892,0.0,0.0,0.014505494505494505
1.6083216700026242,0.0,0.0,0.014505494505494505
1.616158313001506,0.0,0.0,0.014505494505494505
1.6232211060014379,0.0,0.0032234432234432234,0.0
1.6288388470020436,0.0,0.0032234432234432234,0.0
1.6370562170013727,0.0,0.0032234432234432234,0.0
1.644807076001598,0.0,0.006446886446886447,0.0
1.6523913720011478,0.0,0.006446886446886447,0.0
1.6597806550016685,0.0,0.006446886446886447,0.0
1.6666226359993743,0.0,0.006446886446886447,0.0
1.6723062890014262,0.0,0.0,0.1942124542124542
1.6785292070017022,0.0,0.02336996336996337,0.022564102564102562
1.682605087000411,0.0,0.02336996336996337,0.022564102564102562
1.686391499999445,0.0,0.02336996336996337,0.022564102564102562
1.691270411000005,0.0,0.0,0.1249084249084249
1.6968311839991657,0.0,0.0,0.1249084249084249
1.697108691001631,0.0,0.0,0.1249084249084249
1.7022305480022624,0.0,0.0,0.1249084249084249
1.7056083780007611,0.0,0.0,0.1249084249084249
1.7058342800009996,0.0,0.0,0.1249084249084249
1.7105908250014181,0.0,0.0,0.1249084249084249
1.710742768002092,0.0,0.008058608058608058,0.03142857142857143
1.715444411001954,0.0,0.008058608058608058,0.03142857142857143
1.7156346039992059,0.0,0.005641025641025641,0.024175824175824173
1.7203542120005295,0.0,0.005641025641025641,0.024175824175824173
1.7206142319992068,0.0,0.005641025641025641,0.024175824175824173
1.7253083560026425,0.0,0.005641025641025641,0.024175824175824173
1.7255326500016963,0.0,0.005641025641025641,0.024175824175824173
1.730248798001412,0.0,0.02175824175824176,0.07655677655677656
1.7304334830005246,0.0,0.0136996336996337,0.03868131868131868
1.7352515120001044,0.0,0.0136996336996337,0.03868131868131868
1.7354847839997092,0.0,0.0136996336996337,0.03868131868131868
1.740867098000308,0.0,0.0136996336996337,0.03868131868131868
1.7424381550008547,0.0,0.0136996336996337,0.03868131868131868
1.7464578930012067,0.0,0.0136996336996337,0.03868131868131868
1.7498423590004677,0.0,0.0136996336996337,0.03868131868131868
1.7506049200019334,0.0,0.0136996336996337,0.03868131868131868
1.7527466800020193,0.0,0.0136996336996337,0.03868131868131868
1.75308368900005,0.0,0.0136996336996337,0.03868131868131868
1.7578144670005713,0.0,0.0136996336996337,0.03868131868131868
1.7580734100010886,0.0,0.0136996336996337,0.03868131868131868
1.7629579120002745,0.0,0.0136996336996337,0.03868131868131868
1.7630370400001993,0.0,0.0136996336996337,0.03868131868131868
1.7685547420005605,0.0,0.0136996336996337,0.03868131868131868
1.7695467510020535,0.0,0.0136996336996337,0.03868131868131868
1.7704061510012252,0.0,0.0136996336996337,0.03868131868131868
1.7721322990000772,0.0,0.0136996336996337,0.03868131868131868
1.7753187849993992,0.0,0.0136996336996337,0.03868131868131868
1.7777071510026872,0.0,0.0136996336996337,0.03868131868131868
1.7779093790013576,0.0,0.0136996336996337,0.03868131868131868
1.783823959001893,0.0,0.0136996336996337,0.03868131868131868
1.788484659002279,0.0,0.0136996336996337,0.03868131868131868
1.7885951589996694,0.0,0.0136996336996337,0.03868131868131868
1.7943366360013897,0.0,0.0136996336996337,0.03868131868131868
1.7996863030020904,0.0,0.0136996336996337,0.03868131868131868
1.8019418309995672,0.0,0.0136996336996337,0.03868131868131868
1.8027383940025175,0.0,0.0136996336996337,0.03868131868131868
1.8042462379999051,0.0,0.0,0.00967032967032967
1.808685713000159,0.0,0.0,0.00967032967032967
1.8101968310002121,0.0,0.0,0.00967032967032967
1.8144779540016316,0.0,0.0,0.00967032967032967
1.8171903700022085,0.0,0.0,0.00967032967032967
1.8214326380002603,0.0,0.0,0.00967032967032967
1.8240028889995301,0.0,0.0,0.00967032967032967
1.8287843540019821,0.0,0.0,0.00967032967032967
1.8338892110004963,0.0,0.0,0.00967032967032967
1.8367815359997621,0.0,0.007252747252747252,0.0
1.8379311050011893,0.0,0.007252747252747252,0.0
1.838197561002744,0.0,0.007252747252747252,0.0
1.846325598002295,0.0,0.007252747252747252,0.0
1.8507679930007725,0.0,0.007252747252747252,0.0
1.8516190760019526,0.0,0.007252747252747252,0.0
1.8537984700014931,0.0,0.007252747252747252,0.0
1.854076896001061,0.0,0.007252747252747252,0.0
1.8595935520024796,0.0,0.007252747252747252,0.0
1.860463463999622,0.0,0.007252747252747252,0.0
1.8628345950019138,0.0,0.007252747252747252,0.0
1.8711482700018678,0.0,0.007252747252747252,0.0
1.8791440800014243,0.0,0.007252747252747252,0.0
1.8870207030013262,0.0,0.006446886446886447,0.0008058608058608059
1.892750191000232,0.0,0.006446886446886447,0.0008058608058608059
1.8996020570011751,0.0,0.006446886446886447,0.0008058608058608059
1.9058088929996302,0.0,0.014505494505494505,0.0273992673992674
1.9111281020013848,0.0,0.014505494505494505,0.0273992673992674
1.9125391350025893,0.0,0.014505494505494505,0.0273992673992674
1.9200592279994453,0.0,0.014505494505494505,0.0273992673992674
1.9263326300024346,0.0,0.014505494505494505,0.0273992673992674
1.9305782289993658,0.0,0.014505494505494505,0.0273992673992674
1.9320566310016147,0.0,0.014505494505494505,0.0273992673992674
1.9385266060016875,0.0,0.014505494505494505,0.0273992673992674
1.9433744039997691,0.0,0.014505494505494505,0.0273992673992674
1.9479545790018165,0.0,0.022564102564102562,0.0032234432234432234
1.9482035510009155,0.0,0.022564102564102562,0.0032234432234432234
1.9540305949994945,0.0,0.022564102564102562,0.0032234432234432234
1.9541359880022355,0.0,0.022564102564102562,0.0032234432234432234
1.9611385660027736,0.0,0.022564102564102562,0.0032234432234432234
1.9676991540000017,0.0,0.022564102564102562,0.0032234432234432234
1.9709315180007252,0.0,0.022564102564102562,0.0032234432234432234
1.9719806409993907,0.0,0.00967032967032967,0.00967032967032967
1.9722083209999255,0.0,0.00967032967032967,0.00967032967032967
1.9775727900014317,0.0,0.00967032967032967,0.00967032967032967
1.9791867769999953,0.0,0.016117216117216115,0.006446886446886447
1.9837760049995268,0.0,0.016117216117216115,0.006446886446886447
1.983890474999498,0.0,0.016117216117216115,0.006446886446886447
1.9895057310022821,0.0,0.016117216117216115,0.006446886446886447
1.989584131999436,0.0,0.005641025641025641,0.02095238095238095
1.9948824679995596,0.0,0.005641025641025641,0.02095238095238095
1.9963701810011116,0.0,0.012893772893772894,0.0
2.001128124000388,0.0,0.012893772893772894,0.0
2.0011918650016014,0.0,0.012893772893772894,0.0
2.0059085659995617,0.0,0.012893772893772894,0.0
2.006078750000597,0.0,0.012893772893772894,0.0
2.0108984159996908,0.0,0.012893772893772894,0.0
2.0150051929995243,0.0,0.012893772893772894,0.0
2.01710002800246,0.0,0.0,0.0
2.017960519002372,0.0,0.0,0.0
2.019977143001597,0.0,0.0,0.0
2.02140878100181,0.0,0.0,0.0
2.0261707179997757,0.0,0.0,0.0
2.0311010270015686,0.0,0.008058608058608058,0.052380952380952375
2.0365798320017348,0.0,0.018534798534798533,0.02901098901098901
2.0374900990027527,0.0,0.018534798534798533,0.02901098901098901
2.0392637950026256,0.0,0.018534798534798533,0.02901098901098901
2.0430348230001982,0.0,0.018534798534798533,0.02901098901098901
2.047286355002143,0.0,0.018534798534798533,0.02901098901098901
2.047547015001328,0.0,0.018534798534798533,0.02901098901098901
2.053332354000304,0.0,0.018534798534798533,0.02901098901098901
2.0534695259993896,0.0,0.018534798534798533,0.02901098901098901
2.058796567001991,0.0,0.018534798534798533,0.02901098901098901
2.060327540999424,0.0,0.018534798534798533,0.02901098901098901
2.06422291600029,0.0,0.017728937728937726,0.004835164835164835
2.069009167000331,0.0,0.012893772893772894,0.006446886446886447
2.0738434590020915,0.0,0.0,0.10315018315018315
2.0787568270025076,0.0,0.0,0.10315018315018315
2.08356655100215,0.0,0.0,0.10315018315018315
2.088499885001511,0.0,0.00967032967032967,0.01531135531135531
2.092408697000792,0.0,0.00967032967032967,0.01531135531135531
2.0958700480005064,0.0,0.00967032967032967,0.01531135531135531
2.096036978000484,0.0,0.02336996336996337,0.0136996336996337
2.1015363030019216,0.0,0.02336996336996337,0.0136996336996337
2.1025390260001586,0.0,0.02336996336996337,0.0136996336996337
2.1028032210015226,0.0,0.02336996336996337,0.0136996336996337
2.112112225000601,0.0,0.0,0.017728937728937726
2.120436443001381,0.0,0.0,0.017728937728937726
2.1246810520024155,0.0,0.0,0.017728937728937726
2.126283968002099,0.0,0.0,0.017728937728937726
2.1302755210017494,0.0,0.0,0.017728937728937726
2.134189756001433,0.0,0.00967032967032967,0.020146520146520144
2.1372437350000837,0.0,0.00967032967032967,0.020146520146520144
2.1395505690015852,0.0,0.00967032967032967,0.020146520146520144
2.139692920001835,0.0,0.00967032967032967,0.020146520146520144
2.145341259001725,0.0,0.00967032967032967,0.020146520146520144
2.1455834500011406,0.0,0.005641025641025641,0.0
2.1506337730024825,0.0,0.005641025641025641,0.0
2.1533439100021496,0.0,0.005641025641025641,0.0
2.1567576800007373,0.0,0.005641025641025641,0.0
2.1575037190013973,0.0,0.005641025641025641,0.008864468864468863
2.1595665019995067,0.0,0.008058608058608058,0.0
2.161014597000758,0.0,0.008058608058608058,0.0
2.1657773580009234,0.0,0.008058608058608058,0.0
2.1706660540003213,0.0,0.018534798534798533,0.033846153846153845
2.1707581730006495,0.0,0.018534798534798533,0.033846153846153845
2.1760349530013627,0.0,0.018534798534798533,0.033846153846153845
2.1781736760021886,0.0,0.004835164835164835,0.0
2.17837671199959,0.0,0.004835164835164835,0.0
2.183283972000936,0.0,0.00967032967032967,0.0032234432234432234
2.1877217069995822,0.0,0.00967032967032967,0.0032234432234432234
2.1884916980015987,0.0,0.00967032967032967,0.0032234432234432234
2.1907570570001553,0.0,0.00967032967032967,0.0032234432234432234
2.1908932740007003,0.0,0.00967032967032967,0.0032234432234432234
2.1962403310026275,0.0,0.00967032967032967,0.0032234432234432234
2.197694753001997,0.0,0.00967032967032967,0.0032234432234432234
2.201154504000442,0.0,0.00967032967032967,0.0032234432234432234
2.2013247060021968,0.0,0.00967032967032967,0.0032234432234432234
2.205970664999768,0.0,0.00967032967032967,0.0032234432234432234
2.206751144000009,0.0,0.00967032967032967,0.0032234432234432234
2.2087433250017057,0.0,0.00967032967032967,0.0032234432234432234
2.2108404419996077,0.0,0.00967032967032967,0.0032234432234432234
2.2123162240022793,0.0,0.00967032967032967,0.0032234432234432234
2.2169565340009285,0.0,0.00967032967032967,0.0032234432234432234
2.217077778001112,0.0,0.00967032967032967,0.0032234432234432234
2.2218814389998442,0.0,0.00967032967032967,0.0032234432234432234
2.2219421560002957,0.0,0.00967032967032967,0.0032234432234432234
2.226659219002613,0.0,0.00967032967032967,0.0032234432234432234
2.231453885000519,0.0,0.00967032967032967,0.0032234432234432234
2.2361083430005237,0.0,0.00967032967032967,0.0032234432234432234
2.2363292059999367,0.0,0.00967032967032967,0.0032234432234432234
2.24102398100149,0.0,0.00967032967032967,0.0032234432234432234
2.2411419290001504,0.0,0.00967032967032967,0.0032234432234432234
2.245985464000114,0.0,0.00967032967032967,0.0032234432234432234
2.246072231002472,0.0,0.0032234432234432234,0.0
2.250718246999895,0.0,0.0032234432234432234,0.0
2.250833064001199,0.0,0.0032234432234432234,0.0
2.2555953250011953,0.0,0.0032234432234432234,0.0
2.2603100500018627,0.0,0.0032234432234432234,0.0
2.261025867999706,0.0,0.0032234432234432234,0.0
2.2637542209995445,0.0,0.0032234432234432234,0.0
2.266559738000069,0.0,0.0136996336996337,0.0008058608058608059
2.270629029000702,0.0,0.0136996336996337,0.0008058608058608059
2.273355432000244,0.0,0.0136996336996337,0.0008058608058608059
2.2768276640017575,0.0,0.0136996336996337,0.0008058608058608059
2.2770836720010266,0.0,0.0136996336996337,0.0008058608058608059
2.2819262049997633,0.0,0.0136996336996337,0.0008058608058608059
2.2866438630007906,0.0,0.024175824175824173,0.020146520146520144
2.286745769000845,0.0,0.024175824175824173,0.020146520146520144
2.292155258001003,0.0,0.024175824175824173,0.020146520146520144
2.2938453880015004,0.0,0.024175824175824173,0.020146520146520144
2.296987378002086,0.0,0.024175824175824173,0.020146520146520144
2.2992299140023533,0.0,0.0136996336996337,0.0
2.299536654001713,0.0,0.0016117216117216117,0.010476190476190476
2.3043646260011883,0.0,0.0016117216117216117,0.010476190476190476
2.308437468000193,0.0,0.0016117216117216117,0.010476190476190476
2.3111450290016364,0.0,0.020146520146520144,0.03868131868131868
2.3157775920008135,0.0,0.020146520146520144,0.03868131868131868
2.3159427720020176,0.0,0.020146520146520144,0.03868131868131868
2.3207509970015963,0.0,0.020146520146520144,0.03868131868131868
2.3208214290025353,0.0,0.004835164835164835,0.0
2.3255191710013605,0.0,0.004835164835164835,0.0
2.3256858960012323,0.0,0.004835164835164835,0.0
2.330425329000718,0.0,0.004835164835164835,0.0
2.3351343600006658,0.0,0.004835164835164835,0.0
2.340151557000354,0.0,0.004835164835164835,0.0
2.344422182002745,0.0,0.006446886446886447,0.011282051282051281
2.3464329689995793,0.0,0.006446886446886447,0.011282051282051281
2.347278646000632,0.0,0.006446886446886447,0.011282051282051281
2.3494156310007384,0.0,0.006446886446886447,0.011282051282051281
2.3507855120005843,0.0,0.006446886446886447,0.011282051282051281
2.354933159000211,0.0,0.006446886446886447,0.011282051282051281
2.3570226570009254,0.0,0.0,0.0032234432234432234
2.358374814000854,0.0,0.0,0.0032234432234432234
2.3625418920019,0.0,0.0,0.0032234432234432234
2.3651834730007977,0.0,0.0,0.0032234432234432234
2.369186718002311,0.0,0.0,0.0032234432234432234
2.373249084001145,0.0,0.0,0.0032234432234432234
2.3753501150022203,0.0,0.0,0.0032234432234432234
2.376778177000233,0.0,0.0,0.0032234432234432234
2.3814474920000066,0.0,0.0,0.0032234432234432234
2.3815382089997,0.0,0.010476190476190476,0.028205128205128206
2.3862106400010816,0.0,0.010476190476190476,0.028205128205128206
2.386458452001534,0.0,0.010476190476190476,0.028205128205128206
2.3910927760007326,0.0,0.0273992673992674,0.06043956043956044
2.39185115300279,0.0,0.024175824175824173,0.01934065934065934
2.3939312799993786,0.0,0.024175824175824173,0.01934065934065934
2.3960046650026925,0.0,0.024175824175824173,0.01934065934065934
2.3974454199997126,0.0,0.024175824175824173,0.01934065934065934
2.4048730520007666,0.0,0.024175824175824173,0.01934065934065934
2.4087012540003343,0.0,0.0016117216117216117,0.0410989010989011
2.4172037610005646,0.0,0.004835164835164835,0.05721611721611722
2.422758791002707,0.0,0.004835164835164835,0.05721611721611722
2.427578725000785,0.0,0.004835164835164835,0.05721611721611722
2.432413815000473,0.0,0.0016117216117216117,0.06205128205128205
2.436912780001876,0.0,0.0,0.0
2.4371918159995403,0.0,0.0,0.0
2.442501715999242,0.0,0.0,0.0
2.4448835460025293,0.0,0.0,0.0
2.445033047999459,0.0,0.018534798534798533,0.024175824175824173
2.450405960000353,0.0,0.018534798534798533,0.024175824175824173
2.4521202329997323,0.0,0.018534798534798533,0.024175824175824173
2.4553130900021642,0.0,0.018534798534798533,0.024175824175824173
2.4569770540001628,0.0,0.018534798534798533,0.024175824175824173
2.4610058260004735,0.0,0.012893772893772894,0.0
2.464840329001163,0.0,0.012893772893772894,0.0
2.4699468740000157,0.0,0.008058608058608058,1.8123809523809524
2.4730651490026503,0.0,0.008058608058608058,1.8123809523809524
2.4755396799992013,0.0,0.008058608058608058,1.8123809523809524
2.4812450710014673,0.0,0.008058608058608058,1.8123809523809524
2.4814033860020572,0.0,0.0008058608058608059,0.006446886446886447
2.487129069002549,0.0,0.0008058608058608059,0.006446886446886447
2.4872949090022303,0.0,0.0008058608058608059,0.006446886446886447
2.492045517999941,0.0,0.0008058608058608059,0.006446886446886447
2.492183169000782,0.0,0.0008058608058608059,0.006446886446886447
2.4968812229999457,0.0,0.0008058608058608059,0.006446886446886447
2.4970785650002654,0.0,0.0008058608058608059,0.006446886446886447
2.5018489620015316,0.0,0.0008058608058608059,0.006446886446886447
2.501945086001797,0.0,0.0008058608058608059,0.006446886446886447
2.506619395000598,0.0,0.0008058608058608059,0.006446886446886447
2.5073436460006633,0.0,0.0008058608058608059,0.006446886446886447
2.509455720002734,0.0,0.006446886446886447,0.0547985347985348
2.510184405000473,0.0,0.0,0.02498168498168498
2.5122576800022216,0.0,0.012893772893772894,0.006446886446886447
2.5136063000027207,0.0,0.012893772893772894,0.006446886446886447
2.519102334001218,0.0,0.0,0.0
2.519302274002257,0.0,0.0,0.0
2.524321136999788,0.0,0.004835164835164835,0.011282051282051281
2.5289960440022696,0.0,0.00967032967032967,0.011282051282051281
2.529112330001226,0.0,0.012893772893772894,0.38681318681318677
2.5347735520008428,0.0,0.012893772893772894,0.38681318681318677
2.5349793580026017,0.0,0.012893772893772894,0.38681318681318677
2.5404818120005075,0.0,0.012893772893772894,0.38681318681318677
2.5414228400004504,0.0,0.012893772893772894,0.38681318681318677
2.5431447320006555,0.0,0.012893772893772894,0.38681318681318677
2.546521307001967,0.0,0.017728937728937726,0.02095238095238095
2.547457327000302,0.0,0.017728937728937726,0.02095238095238095
2.5484423660018365,0.0,0.017728937728937726,0.02095238095238095
2.550098681000236,0.0,0.017728937728937726,0.02095238095238095
2.554112248002639,0.0,0.017728937728937726,0.02095238095238095
2.5581953130022157,0.0,0.007252747252747252,0.0032234432234432234
2.5598781690023316,0.0,0.007252747252747252,0.0032234432234432234
2.563104558001214,0.0,0.007252747252747252,0.0032234432234432234
2.563977974001318,0.0,0.007252747252747252,0.0032234432234432234
2.5649278560013045,0.0,0.007252747252747252,0.0032234432234432234
2.565893191000214,0.0,0.007252747252747252,0.0032234432234432234
2.5676186740020057,0.0,0.007252747252747252,0.0032234432234432234
2.5715480940016278,0.0,0.007252747252747252,0.0032234432234432234
2.575876293001784,0.0,0.007252747252747252,0.0
2.5767896860015753,0.0,0.007252747252747252,0.0
2.578468826999597,0.0,0.007252747252747252,0.0
2.5822776740023983,0.0,0.007252747252747252,0.0
2.5865752620011335,0.0,0.007252747252747252,0.0
2.5890992679997,0.0,0.007252747252747252,0.0
2.5946536230003403,0.0,0.007252747252747252,0.0
2.595420911002293,0.0,0.007252747252747252,0.0
2.597809295002662,0.0,0.007252747252747252,0.0
2.5979382940022333,0.0,0.007252747252747252,0.0
2.603560138002649,0.0,0.007252747252747252,0.0
2.6037304240016965,0.0,0.007252747252747252,0.0
2.6085990270003094,0.0,0.004029304029304029,2.756849816849817
2.6087397470000724,0.0,0.004029304029304029,2.756849816849817
2.6134078050017706,0.0,0.004029304029304029,2.756849816849817
2.613586685001792,0.0,0.004029304029304029,2.756849816849817
2.6183502780004346,0.0,0.004029304029304029,2.756849816849817
2.623005932000524,0.0,0.0016117216117216117,0.0
2.6231424450015766,0.0,0.06446886446886446,0.028205128205128206
2.627965187999507,0.0,0.06446886446886446,0.028205128205128206
2.6326243319999776,0.0,0.06446886446886446,0.028205128205128206
2.6327883420017315,0.0,0.06446886446886446,0.028205128205128206
2.6375151370011736,0.0,0.06446886446886446,0.028205128205128206
2.642393231999449,0.0,0.06446886446886446,0.028205128205128206
2.6425135560020863,0.0,0.06446886446886446,0.028205128205128206
2.648843704002502,0.0,0.06446886446886446,0.028205128205128206
2.652266225999483,0.0,0.0,1.2732600732600732
2.6531174180017842,0.0,0.0016117216117216117,0.0136996336996337
2.655256915000791,0.0,0.0016117216117216117,0.0136996336996337
2.655976501002442,0.0,0.0016117216117216117,0.0136996336996337
2.6582112480027718,0.0,0.0016117216117216117,0.0136996336996337
2.6589868110022508,0.0,0.0016117216117216117,0.0136996336996337
2.66111021100005,0.0,0.0016117216117216117,0.0136996336996337
2.6618857360008406,0.0,0.02336996336996337,0.022564102564102562
2.6638785819995974,0.0,0.02336996336996337,0.022564102564102562
2.6653546590023325,0.0,0.02336996336996337,0.022564102564102562
2.670031043002382,0.0,0.02336996336996337,0.022564102564102562
2.6701484610021,0.0,0.02336996336996337,0.022564102564102562
2.6748091709996515,0.0,0.02336996336996337,0.022564102564102562
2.6750841930006573,0.0,0.02336996336996337,0.022564102564102562
2.679823798000143,0.0,0.02336996336996337,0.022564102564102562
2.6798834840010386,0.0,0.0008058608058608059,0.0
2.684597849001875,0.0,0.0008058608058608059,0.0
2.6846794900011446,0.0,0.0008058608058608059,0.0
2.689295571999537,0.0,0.0008058608058608059,0.0
2.689418720001413,0.0,0.0008058608058608059,0.0
2.6941893830007757,0.0,0.0008058608058608059,0.0
2.7001758690021234,0.0,0.017728937728937726,0.016923076923076923
2.704481852000754,0.0,0.005641025641025641,0.005641025641025641
2.705286342999898,0.0,0.005641025641025641,0.005641025641025641
2.706834926000738,0.0,0.005641025641025641,0.005641025641025641
2.711110649001057,0.0,0.005641025641025641,0.005641025641025641
2.7119678830022167,0.0,0.005641025641025641,0.005641025641025641
2.713469542002713,0.0,0.005641025641025641,0.005641025641025641
2.717737222999858,0.0,0.005641025641025641,0.005641025641025641
2.719242603001476,0.0,0.005641025641025641,0.005641025641025641
2.723611253000854,0.0,0.005641025641025641,0.005641025641025641
2.7251018040005874,0.0,0.005641025641025641,0.005641025641025641
2.7294425559994124,0.0,0.005641025641025641,0.005641025641025641
2.7309405890009657,0.0,0.005641025641025641,0.005641025641025641
2.736093575000268,0.0,0.005641025641025641,0.005641025641025641
2.739055908001319,0.0,0.005641025641025641,0.005641025641025641
2.741341075001401,0.0,0.005641025641025641,0.005641025641025641
2.741429273999529,0.0,0.0008058608058608059,0.012893772893772894
2.7476876830005494,0.0,0.0008058608058608059,0.012893772893772894
2.753640995000751,0.0,0.0008058608058608059,0.012893772893772894
2.760397276000731,0.0,0.0008058608058608059,0.012893772893772894
2.7657603139996354,0.0,0.0008058608058608059,0.012893772893772894
2.765877810001257,0.0,0.0008058608058608059,0.012893772893772894
2.77364876700085,0.0,0.0008058608058608059,0.012893772893772894
2.779748771001323,0.0,0.0008058608058608059,0.012893772893772894
2.784407799001201,0.0,0.0008058608058608059,0.012893772893772894
2.791233497999201,0.0,0.0008058608058608059,0.012893772893772894
2.7981286680005724,0.0,0.0008058608058608059,0.012893772893772894
2.802257772000303,0.0,0.0008058608058608059,0.012893772893772894
2.803742683001474,0.0,0.0008058608058608059,0.012893772893772894
2.8120547880025697,0.0,0.0008058608058608059,0.012893772893772894
2.8201860560002388,0.0,0.0008058608058608059,0.012893772893772894
2.82723009899928,0.0,0.007252747252747252,0.0
2.832267060999584,0.0,0.007252747252747252,0.0
2.8345334350015037,0.0,0.005641025641025641,0.016117216117216115
2.8347472570021637,0.0,0.005641025641025641,0.016117216117216115
2.844397648001177,0.0,0.005641025641025641,0.016117216117216115
2.851867082001263,0.0,0.0,0.0
2.8558095789994695,0.0,0.0,0.0
2.862436837000132,0.0,0.0,0.0
2.865827690002334,0.0,0.0,0.0
2.866128027999366,0.0,0.0,0.0
2.875111993002065,0.0,0.0,0.0
2.88158601500254,0.0,0.011282051282051281,0.024175824175824173
2.8847410609996587,0.0,0.016923076923076923,0.016923076923076923
2.8862540219997754,0.0,0.016923076923076923,0.016923076923076923
2.8948942349998106,0.0,0.016923076923076923,0.016923076923076923
2.899645232999319,0.0,0.016923076923076923,0.01934065934065934
2.9078946270019514,0.0,0.016923076923076923,0.01934065934065934
2.913358215999324,0.0,0.016923076923076923,0.01934065934065934
2.913553149999643,0.0,0.016923076923076923,0.01934065934065934
2.9252330090021132,0.0,0.016923076923076923,0.01934065934065934
2.9313612400001148,0.0,0.007252747252747252,0.00967032967032967
2.93527702999927,0.0,0.007252747252747252,0.00967032967032967
2.9436047060007695,0.0,0.007252747252747252,0.00967032967032967
2.950409170000057,0.0,0.007252747252747252,0.00967032967032967
2.9539744940011587,0.0,0.0024175824175824176,0.8767765567765567
2.954125993001071,0.0,0.0024175824175824176,0.8767765567765567
2.964257740000903,0.0,0.0024175824175824176,0.8767765567765567
2.9748005100009323,0.0,0.0024175824175824176,0.8767765567765567
2.9807698799995705,0.0,0.0024175824175824176,0.8767765567765567
2.985288424002647,0.0,0.0032234432234432234,0.004029304029304029
2.9854071459994884,0.0,0.008864468864468863,0.01531135531135531
2.9942720210019615,0.0,0.008864468864468863,0.01531135531135531
3.000425226000516,0.0,0.008864468864468863,0.01531135531135531
3.004295473001548,0.0,0.008864468864468863,0.01531135531135531
3.0109883370023454,0.0,0.008864468864468863,0.01531135531135531
3.0150013310012582,0.0,0.0016117216117216117,0.04029304029304029
3.019309242001327,0.0,0.0016117216117216117,0.04029304029304029
3.0203369340015342,0.0,0.011282051282051281,0.011282051282051281
3.022386529002688,0.0,0.011282051282051281,0.011282051282051281
3.0238394490006613,0.0,0.011282051282051281,0.011282051282051281
3.0274121750007907,0.0,0.011282051282051281,0.011282051282051281
3.0275620790016546,0.0,0.011282051282051281,0.011282051282051281
3.0329837440003757,0.0,0.011282051282051281,0.011282051282051281
3.0345052930024394,0.0,0.011282051282051281,0.011282051282051281
3.0387446420027118,0.0,0.011282051282051281,0.011282051282051281
3.0429088390010293,0.0,0.0008058608058608059,0.0
3.043172556001082,0.0,0.0008058608058608059,0.0
3.0487549820027198,0.0,0.0008058608058608059,0.0
3.0495384850000846,0.0,0.0008058608058608059,0.0
3.0510961010004394,0.0,0.0008058608058608059,0.0
3.059738334002759,0.0,0.0008058608058608059,0.0
3.0641724910019548,0.0,0.0008058608058608059,0.0
3.06572020800013,0.0,0.0008058608058608059,0.0
3.069854553999903,0.0,0.0008058608058608059,0.0
3.072507463002694,0.0,0.0008058608058608059,0.0
3.076441255001555,0.0,0.0008058608058608059,0.0
3.0788865360009368,0.0,0.0016117216117216117,0.0
3.079081715000939,0.0,0.0016117216117216117,0.0
3.0844031180022284,0.0,0.0016117216117216117,0.0
3.088128586001403,0.0,0.0016117216117216117,0.0
3.0956740450019424,0.0,0.0016117216117216117,0.0
3.1001926839999214,0.0,0.0016117216117216117,0.0
3.101756653002667,0.0,0.0016117216117216117,0.0
3.1078772170003504,0.0,0.0016117216117216117,0.0
3.1124012040017988,0.0,0.004029304029304029,3.2548717948717947
3.112713328002428,0.0,0.004029304029304029,3.2548717948717947
3.121975984002347,0.0,0.004029304029304029,3.2548717948717947
3.128072218001762,0.0,0.014505494505494505,0.0
3.1320567930015386,0.0,0.014505494505494505,0.0
3.134951923002518,0.0,0.008864468864468863,0.007252747252747252
3.1376586309997947,0.0,0.008058608058608058,0.0
3.1447416139999405,0.0,0.00967032967032967,0.012893772893772894
3.1486292600020533,0.0,0.017728937728937726,0.006446886446886447
3.153113628999563,0.0,0.017728937728937726,0.006446886446886447
3.1532728230013163,0.0,0.00967032967032967,0.06688644688644689
3.1612172150016704,0.0,0.00967032967032967,0.06688644688644689
3.165620989002491,0.0,0.00967032967032967,0.06688644688644689
3.166419634999329,0.0,0.00967032967032967,0.06688644688644689
3.1680554790000315,0.0,0.00967032967032967,0.06688644688644689
3.1746775829997205,0.0,0.00967032967032967,0.06688644688644689
3.177891979001288,0.0,0.00967032967032967,0.06688644688644689
3.178872694999882,0.0,0.00967032967032967,0.06688644688644689
3.179787025001133,0.0,0.00967032967032967,0.06688644688644689
3.181342845000472,0.0,0.00967032967032967,0.06688644688644689
3.1858163100005186,0.0,0.00967032967032967,0.06688644688644689
3.186759259999235,0.0,0.00967032967032967,0.06688644688644689
3.187756969000475,0.0,0.00967032967032967,0.06688644688644689
3.189218276002066,0.0,0.00967032967032967,0.06688644688644689
3.194178751000436,0.0,0.00967032967032967,0.06688644688644689
3.1980007800011663,0.0,0.01531135531135531,0.0024175824175824176
3.2027651099997456,0.0,0.0,0.0
3.2082289650024904,0.0,0.0,0.0
3.2083339740020165,0.0,0.0,0.0
3.2137986890011234,0.0,0.0,0.0
3.2147583270016185,0.0,0.0,0.0
3.2156013380008517,0.0,0.0,0.0
3.2170982179995917,0.0,0.0,0.0
3.224043853002513,0.0,0.0,0.0
3.2275168859996484,0.0,0.0032234432234432234,0.022564102564102562
3.22760185000152,0.0,0.0032234432234432234,0.022564102564102562
3.232914416999847,0.0,0.014505494505494505,0.11282051282051282
3.2346940620009264,0.0,0.014505494505494505,0.11282051282051282
3.238665052002034,0.0,0.014505494505494505,0.11282051282051282
3.2428867740018177,0.0,0.004835164835164835,0.007252747252747252
3.2450932589999866,0.0,0.0709157509157509,0.0
3.2452444020018447,0.0,0.0709157509157509,0.0
3.24988470199969,0.0,0.0709157509157509,0.0
3.250097131000075,0.0,0.0032234432234432234,0.8622710622710623
3.25707667000097,0.0,0.0032234432234432234,0.8622710622710623
3.261481167002785,0.0,0.011282051282051281,0.0419047619047619
3.261740259000362,0.0,0.011282051282051281,0.0419047619047619
3.2663167089995113,0.0,0.011282051282051281,0.0419047619047619
3.2671099670005788,0.0,0.011282051282051281,0.0419047619047619
3.2698124369999277,0.0,0.011282051282051281,0.0419047619047619
3.275116265001998,0.0,0.011282051282051281,0.0419047619047619
3.277776454000559,0.0,0.011282051282051281,0.0419047619047619
3.280799221000052,0.0,0.011282051282051281,0.0419047619047619
3.2838226429994393,0.0,0.011282051282051281,0.0419047619047619
3.2864211199994315,0.0,0.011282051282051281,0.0419047619047619
3.2928025380024337,0.0,0.011282051282051281,0.0419047619047619
3.295866610002122,0.0,0.011282051282051281,0.0419047619047619
3.2974643870002183,0.0,0.011282051282051281,0.0419047619047619
3.301208196000516,0.0,0.011282051282051281,0.0419047619047619
3.3013135920009518,0.0,0.011282051282051281,0.0419047619047619
3.309063466000225,0.0,0.011282051282051281,0.0419047619047619
3.3128141769993817,0.0,0.011282051282051281,0.0419047619047619
3.317426734000037,0.0,0.011282051282051281,0.0419047619047619
3.3183468419993005,0.0,0.011282051282051281,0.0419047619047619
3.3193019659993297,0.0,0.011282051282051281,0.0419047619047619
3.32080973399934,0.0,0.011282051282051281,0.0419047619047619
3.326389444999222,0.0,0.02336996336996337,0.017728937728937726
3.3264638489999925,0.0,0.02336996336996337,0.017728937728937726
3.3318135469999106,0.0,0.02336996336996337,0.017728937728937726
3.334082181001577,0.0,0.006446886446886447,0.024175824175824173
3.334380856002099,0.0,0.006446886446886447,0.024175824175824173
3.340164012002788,0.0,0.006446886446886447,0.024175824175824173
3.3464043460007815,0.0,0.011282051282051281,0.0032234432234432234
3.350204209000367,0.0,0.011282051282051281,0.0032234432234432234
3.3578770460007945,0.0,0.011282051282051281,0.0032234432234432234
3.3618073030011146,0.0,0.011282051282051281,0.0032234432234432234
3.3658702470020216,0.0,0.011282051282051281,0.0032234432234432234
3.368235565001669,0.0,0.011282051282051281,0.0032234432234432234
3.3684257290005917,0.0,0.011282051282051281,0.0032234432234432234
3.3757283150007424,0.0,0.011282051282051281,0.0032234432234432234
3.379550397999992,0.0,0.024175824175824173,0.016117216117216115
3.38335461799943,0.0,0.03868131868131868,0.020146520146520144
3.390658505002648,0.0,0.00967032967032967,0.04593406593406593
3.395041861000209,0.0,0.006446886446886447,0.7083516483516483
3.3964809790013533,0.0,0.006446886446886447,0.7083516483516483
3.4013856740020856,0.0,0.006446886446886447,0.7083516483516483
3.4074589789997844,0.0,0.006446886446886447,0.7083516483516483
3.411016384001414,0.0,0.0,2.3813186813186813
3.411128234001808,0.0,0.0,2.3813186813186813
3.415784127002553,0.0,0.0,2.3813186813186813
3.416097911001998,0.0,0.0,2.3813186813186813
3.423212539000815,0.0,0.0,2.3813186813186813
3.4269286679991637,0.0,0.0,2.3813186813186813
3.427043595002033,0.0,0.0,2.3813186813186813
3.4321214340016013,0.0,0.0,2.3813186813186813
3.4369012610004575,0.0,0.010476190476190476,0.0
3.4437262950013974,0.0,0.010476190476190476,0.0
3.4485339210004895,0.0,0.010476190476190476,0.0
3.4563159700010146,0.0,0.005641025641025641,1.0073260073260073
3.4608646020024025,0.0,0.005641025641025641,1.0073260073260073
3.4609655839994957,0.0,0.005641025641025641,1.0073260073260073
3.466185575001873,0.0,0.005641025641025641,1.0073260073260073
3.468485765002697,0.0,0.005641025641025641,1.0073260073260073
3.4687926010010415,0.0,0.005641025641025641,1.0073260073260073
3.4766803519996756,0.0,0.005641025641025641,1.0073260073260073
3.4811679300000833,0.0,0.005641025641025641,1.0073260073260073
3.4820767380006146,0.0,0.005641025641025641,1.0073260073260073
3.483623620002618,0.0,0.004835164835164835,0.016117216117216115
3.489431253001385,0.0,0.004029304029304029,0.006446886446886447
3.4957948150004086,0.0,0.004029304029304029,0.006446886446886447
3.4995193630020367,0.0,0.004029304029304029,0.006446886446886447
3.499654234001355,0.0,0.004029304029304029,0.006446886446886447
3.5060584019993257,0.0,0.004029304029304029,0.006446886446886447
3.5124315169996407,0.0,0.0,0.005641025641025641
3.5166739110027265,0.0,0.0032234432234432234,0.08864468864468865
3.518138421000913,0.0,0.0032234432234432234,0.08864468864468865
3.5296375270008866,0.0,0.0032234432234432234,0.08864468864468865
3.5387372040022456,0.0,0.025787545787545788,0.02901098901098901
3.5479188099998282,0.0,0.025787545787545788,0.02901098901098901
3.5524581900026533,0.0,0.007252747252747252,1.6850549450549448
3.55501865000042,0.0,0.007252747252747252,1.6850549450549448
3.5625278240004263,0.0,0.007252747252747252,1.6850549450549448
3.5688343190013256,0.0,0.011282051282051281,0.0
3.5744337489995814,0.0,0.004029304029304029,0.5874725274725274
3.5829143580012897,0.0,0.010476190476190476,0.004029304029304029
3.59059589699973,0.0,0.010476190476190476,0.004029304029304029
3.5953685240019695,0.0,0.010476190476190476,0.004029304029304029
3.5999092500023835,0.0,0.010476190476190476,0.004029304029304029
3.600257275000331,0.0,0.004835164835164835,0.0
3.608641914001055,0.0,0.004835164835164835,0.0
3.6128498170000967,0.0,0.004835164835164835,0.0
3.6151021990008303,0.0,0.004835164835164835,0.0
3.6152713440023945,0.0,0.004835164835164835,0.0
3.6215016250025656,0.0,0.004835164835164835,0.0
3.626516967000498,0.0,0.004835164835164835,0.0
3.628995974002464,0.0,0.004835164835164835,0.0
3.6378979190012615,0.0,0.004835164835164835,0.0
3.6456776420018286,0.0,0.004835164835164835,0.0
3.6514461200022197,0.0,0.0,0.16842490842490843
3.6587382670004445,0.0,0.02901098901098901,0.07413919413919413
3.6627075050018902,0.0,0.02901098901098901,0.07413919413919413
3.6663357360012014,0.0,0.0008058608058608059,0.005641025641025641
3.666476735001197,0.0,0.0008058608058608059,0.005641025641025641
3.673695655001211,0.0,0.0008058608058608059,0.1402197802197802
3.6782479110006534,0.0,0.01531135531135531,0.0
3.6783842040022137,0.0,0.0016117216117216117,0.010476190476190476
3.6837815569997474,0.0,0.0016117216117216117,0.010476190476190476
3.68558378400121,0.0,0.0016117216117216117,0.010476190476190476
3.689465792002011,0.0,0.0016117216117216117,0.02498168498168498
3.6935927490012546,0.0,0.0016117216117216117,0.02498168498168498
3.6951401229998737,0.0,0.0016117216117216117,0.02498168498168498
3.6997646759991767,0.0,0.0016117216117216117,0.02498168498168498
3.6998445999997784,0.0,0.0016117216117216117,0.02498168498168498
3.707185298000695,0.0,0.0016117216117216117,0.02498168498168498
3.7115133040024375,0.0,0.0016117216117216117,0.02498168498168498
3.712345935000485,0.0,0.0016117216117216117,0.02498168498168498
3.7140327350025473,0.0,0.0016117216117216117,0.02498168498168498
3.7170039970005746,0.0,0.0016117216117216117,0.02498168498168498
3.7196268719999352,0.0,0.01934065934065934,0.004835164835164835
3.7255509620008525,0.0,0.01531135531135531,0.006446886446886447
3.730852953001886,0.0,0.01531135531135531,0.006446886446886447
3.7325077320019773,0.0,0.01531135531135531,0.006446886446886447
3.7365405340024154,0.0,0.03142857142857143,0.0
3.741932259999885,0.0,0.03142857142857143,0.0
3.7528839980004705,0.0,0.03142857142857143,0.0
3.7659582100022817,0.0,0.03142857142857143,0.0
3.773945423999976,0.0,0.03142857142857143,0.0
3.7822037040023133,0.0,0.007252747252747252,0.004029304029304029
3.791304411002784,0.0,0.02336996336996337,0.03223443223443223
3.799235268001212,0.0,0.02336996336996337,0.03223443223443223
3.8083076149996486,0.0,0.004835164835164835,0.0
3.8176205230010964,0.0,0.004835164835164835,0.0
3.8235699640026724,0.0,0.004835164835164835,0.0
3.828321529999812,0.0,0.004835164835164835,0.0
3.8362955760021578,0.0,0.004835164835164835,0.0
3.844424364000588,0.0,0.004835164835164835,0.0
3.848668009002722,0.0,0.004835164835164835,0.0
3.8503930940023565,0.0,0.004835164835164835,0.0
3.854050329999154,0.0,0.004835164835164835,0.0
3.861443046000204,0.0,0.0,0.0
3.866442349000863,0.0,0.0,0.0
3.8696157220001624,0.0,0.0,0.0
3.8717984499999147,0.0,0.0,0.0
3.87213547400097,0.0,0.0,0.0
3.877907481000875,0.0,0.0,0.0
3.8779771350018564,0.0,0.0,0.0
3.883324389000336,0.0,0.0,0.0
3.88571972200225,0.0,0.0,0.0
3.8926927220018115,0.0,0.0,0.0
3.8964926330008893,0.0,0.0,0.0
3.901307047002774,0.0,0.0,0.0
3.909849423002015,0.0,0.0,0.0
3.9145049569997354,0.0,0.0,0.0
3.9152697890021955,0.0,0.0,0.0
3.9174534260018845,0.0,0.0,0.0
3.918327720999514,0.0,0.0,0.0
3.92018407499927,0.0,0.0,0.0
3.923340642002586,0.0,0.0,0.0
3.923519538002438,0.0,0.0,0.0
3.928715917001682,0.0,0.0,0.0
3.9310610800021095,0.0,0.018534798534798533,2.481245421245421
3.9326400110003306,0.0,0.018534798534798533,2.481245421245421
3.9349099490027584,0.0,0.018534798534798533,2.481245421245421
3.935221290001209,0.0,0.018534798534798533,2.481245421245421
3.942769434001093,0.0,0.018534798534798533,2.481245421245421
3.9474455439994927,0.0,0.018534798534798533,2.481245421245421
3.9476175700001477,0.0,0.018534798534798533,2.481245421245421
3.953154840000934,0.0,0.018534798534798533,2.481245421245421
3.9547357250012283,0.0,0.018534798534798533,2.481245421245421
3.9592199090002396,0.0,0.018534798534798533,2.481245421245421
3.9594074960004946,0.0,0.018534798534798533,2.481245421245421
3.9647710509998433,0.0,0.018534798534798533,2.481245421245421
3.9663565940027183,0.0,0.018534798534798533,2.481245421245421
3.971577451000485,0.0,0.018534798534798533,2.481245421245421
3.973297021999315,0.0,0.0032234432234432234,0.01934065934065934
3.976380464999238,0.0,0.0032234432234432234,0.01934065934065934
3.97927073900064,0.0,0.005641025641025641,0.016923076923076923
3.982183170999633,0.0,0.005641025641025641,0.016923076923076923
3.9843920470011653,0.0,0.014505494505494505,0.0
3.9845877940024366,0.0,0.014505494505494505,0.0
3.9926206870004535,0.0,0.014505494505494505,0.0
3.9988155950013606,0.0,0.007252747252747252,0.0
4.001891689000331,0.0,0.014505494505494505,0.025787545787545788
4.005179986001167,0.0,0.014505494505494505,0.025787545787545788
4.005479062001541,0.0,0.014505494505494505,0.025787545787545788
4.014445758002694,0.0,0.014505494505494505,0.025787545787545788
4.021308442999725,0.0,0.014505494505494505,0.025787545787545788
4.0257552770017355,0.0,0.014505494505494505,0.025787545787545788
4.026058808001835,0.0,0.014505494505494505,0.025787545787545788
4.031308894001995,0.0,0.014505494505494505,0.025787545787545788
4.0328716120020545,0.0,0.014505494505494505,0.025787545787545788
4.036927610002749,0.0,0.014505494505494505,0.025787545787545788
4.041089573001955,0.0,0.014505494505494505,0.025787545787545788
4.042708766002761,0.0,0.014505494505494505,0.025787545787545788
4.0472348160001275,0.0,0.014505494505494505,0.025787545787545788
4.047400235001987,0.0,0.014505494505494505,0.025787545787545788
4.052847382001346,0.0,0.014505494505494505,0.025787545787545788
4.05426808500124,0.0,0.00967032967032967,0.02175824175824176
4.060464853002486,0.0,0.00967032967032967,0.02175824175824176
4.064250123999955,0.0,0.00967032967032967,0.02175824175824176
4.068787756001257,0.0,0.00967032967032967,0.02175824175824176
4.0697012310010905,0.0,0.018534798534798533,0.9871794871794871
4.071173579002789,0.0,0.018534798534798533,0.9871794871794871
4.077429404002032,0.0,0.018534798534798533,0.9871794871794871
4.0813305680021585,0.0,0.018534798534798533,0.9871794871794871
4.085799226002564,0.0,0.018534798534798533,0.9871794871794871
4.086116300000867,0.0,0.0032234432234432234,2.6698168498168497
4.093142142999568,0.0,0.0032234432234432234,2.6698168498168497
4.097248113001115,0.0,0.0032234432234432234,2.6698168498168497
4.099586664000526,0.0,0.0032234432234432234,2.6698168498168497
4.099697980000201,0.0,0.0032234432234432234,2.6698168498168497
4.109342506999383,0.0,0.0032234432234432234,2.6698168498168497
4.11620600400056,0.0,0.01531135531135531,0.0016117216117216117
4.122733107000386,0.0,0.01531135531135531,0.0016117216117216117
4.127014666002651,0.0,0.008864468864468863,0.0
4.129269848999684,0.0,0.008864468864468863,0.0
4.129386534001242,0.0,0.008864468864468863,0.0
4.139971615000832,0.0,0.008864468864468863,0.0
4.147824629999377,0.0,0.007252747252747252,0.051575091575091575
4.154191613000876,0.0,0.00967032967032967,0.047545787545787546
4.158964713002206,0.0,0.0008058608058608059,0.008864468864468863
4.162904305001575,0.0,0.012893772893772894,0.0
4.166023870999197,0.0,0.012893772893772894,0.0
4.168255319000309,0.0,0.012893772893772894,0.0
4.168429115001345,0.0,0.012893772893772894,0.0
4.1773791020023054,0.0,0.012893772893772894,0.0
4.181848652999179,0.0,0.008864468864468863,0.0
4.182206638000935,0.0,0.008864468864468863,0.0
4.1892999459996645,0.0,0.008864468864468863,0.0
4.192890815000283,0.0,0.008864468864468863,0.0
4.198251502999483,0.0,0.008864468864468863,0.0
4.199873569999909,0.0,0.008864468864468863,0.018534798534798533
4.204657031001261,0.0,0.008864468864468863,0.018534798534798533
4.211153136999201,0.0,0.008864468864468863,0.018534798534798533
4.214952857000753,0.0,0.0,0.014505494505494505
4.221231870000338,0.0,0.0,0.014505494505494505
4.227384367000923,0.0,0.0,0.014505494505494505
4.231536765000783,0.0,0.0,0.014505494505494505
4.232351679002022,0.0,0.007252747252747252,0.028205128205128206
4.233898237001995,0.0,0.007252747252747252,0.028205128205128206
4.241263202002301,0.0,0.007252747252747252,0.028205128205128206
4.244377458002418,0.0,0.014505494505494505,0.016117216117216115
4.247448718000669,0.0,0.014505494505494505,0.016117216117216115
4.248968220999814,0.0,0.014505494505494505,0.10798534798534798
4.255184028999793,0.0,0.014505494505494505,0.10798534798534798
4.25949974499963,0.0,0.014505494505494505,0.10798534798534798
4.259654137000325,0.0,0.014505494505494505,0.10798534798534798
4.264961431999836,0.0,0.014505494505494505,0.10798534798534798
4.268210718000773,0.0,0.014505494505494505,0.10798534798534798
4.2691471300022386,0.0,0.0,0.018534798534798533
4.271507564000785,0.0,0.0,0.018534798534798533
4.279734173000179,0.0,0.011282051282051281,0.01934065934065934
4.2849570180005685,0.0,0.011282051282051281,0.01934065934065934
4.288912549000088,0.0,0.011282051282051281,0.01934065934065934
4.292671267001424,0.0,0.0008058608058608059,0.010476190476190476
4.296617266001704,0.0,0.0008058608058608059,0.010476190476190476
4.299627395001153,0.0,0.017728937728937726,0.0024175824175824176
4.302509375000227,0.0,0.0024175824175824176,0.0
4.307966160002252,0.0,0.017728937728937726,0.0
4.30817106700124,0.0,0.017728937728937726,0.0
4.31373881699983,0.0,0.017728937728937726,0.0
4.313939629002562,0.0,0.0,0.0032234432234432234
4.319135992001975,0.0,0.0,0.0032234432234432234
4.323913988999266,0.0,0.0,0.0032234432234432234
4.327153533002274,0.0,0.02175824175824176,0.006446886446886447
4.32800397200117,0.0,0.02175824175824176,0.006446886446886447
4.329561138001736,0.0,0.02175824175824176,0.006446886446886447
4.333203771002445,0.0,0.02175824175824176,0.006446886446886447
4.333332189002249,0.0,0.02175824175824176,0.006446886446886447
4.340168810002069,0.0,0.02175824175824176,0.006446886446886447
4.3441238190025615,0.0,0.02175824175824176,0.006446886446886447
4.34792223399927,0.0,0.02175824175824176,0.006446886446886447
4.3511347560015565,0.0,0.02175824175824176,0.006446886446886447
4.351929083000869,0.0,0.02175824175824176,0.006446886446886447
4.3547054049995495,0.0,0.02175824175824176,0.006446886446886447
4.358873854002013,0.0,0.02175824175824176,0.006446886446886447
4.359220927999559,0.0,0.02175824175824176,0.006446886446886447
4.367502946002787,0.0,0.02175824175824176,0.006446886446886447
4.373021157000039,0.0,0.02175824175824176,0.006446886446886447
4.374877092999668,0.0,0.02175824175824176,0.006446886446886447
4.375304503999359,0.0,0.02175824175824176,0.006446886446886447
4.382653922002646,0.0,0.02175824175824176,0.006446886446886447
4.389319875001092,0.0,0.02175824175824176,0.006446886446886447
4.39181236299919,0.0,0.006446886446886447,0.0701098901098901
4.396290200002113,0.0,0.006446886446886447,0.0701098901098901
4.3965083440016315,0.0,0.006446886446886447,0.0701098901098901
4.40184692800176,0.0,0.006446886446886447,0.0701098901098901
4.405117031001282,0.0,0.012893772893772894,0.008864468864468863
4.405465302999801,0.0,0.012893772893772894,0.008864468864468863
4.411289282001235,0.0,0.012893772893772894,0.008864468864468863
4.415805961001752,0.0,0.012893772893772894,0.008864468864468863
4.416581339999539,0.0,0.012893772893772894,0.008864468864468863
4.418205565001699,0.0,0.010476190476190476,0.02336996336996337
4.4247354559993255,0.0,0.010476190476190476,0.02336996336996337
4.427796887001023,0.0,0.010476190476190476,0.02336996336996337
4.430057994002709,0.0,0.010476190476190476,0.02336996336996337
4.4303110069995455,0.0,0.010476190476190476,0.02336996336996337
4.435844476000057,0.0,0.010476190476190476,0.02336996336996337
4.436842622999393,0.0,0.010476190476190476,0.02336996336996337
4.43769340200015,0.0,0.010476190476190476,0.02336996336996337
4.442142115000024,0.0,0.010476190476190476,0.02336996336996337
4.447631880000699,0.0,0.006446886446886447,0.0024175824175824176
4.448568195999542,0.0,0.0032234432234432234,0.6583882783882784
4.449407664000319,0.0,0.0032234432234432234,0.6583882783882784
4.450927958001557,0.0,0.0032234432234432234,0.6583882783882784
4.457842363000964,0.0,0.0032234432234432234,0.6583882783882784
4.460995585999626,0.0,0.0032234432234432234,0.6583882783882784
4.463980986001843,0.0,0.0032234432234432234,0.6583882783882784
4.46645445300237,0.0,0.0032234432234432234,0.6583882783882784
4.466611272000591,0.0,0.0032234432234432234,0.6583882783882784
4.472764951002318,0.0,0.0032234432234432234,0.6583882783882784
4.478066289000708,0.0,0.0032234432234432234,0.6583882783882784
4.47830276500099,0.0,0.0032234432234432234,0.6583882783882784
4.484011537999322,0.0,0.0032234432234432234,0.6583882783882784
4.484150124000735,0.0,0.02901098901098901,0.020146520146520144
4.491765291000775,0.0,0.0,0.016117216117216115
4.495468260000052,0.0,0.0,0.016117216117216115
4.495539371000632,0.0,0.0,0.016117216117216115
4.500992331002635,0.0,0.0,0.016117216117216115
4.50532102500074,0.0,0.0,0.016117216117216115
4.514192227001331,0.0,0.0016117216117216117,0.0
4.520607315000234,0.0,0.0016117216117216117,0.0
4.52840101000038,0.0,0.010476190476190476,0.0008058608058608059
4.534889702001237,0.0,0.010476190476190476,0.0008058608058608059
4.541395580999961,0.0,0.006446886446886447,0.004835164835164835
4.546684444001585,0.0,0.0,0.0136996336996337
4.546833282001899,0.0,0.0,0.0136996336996337
4.5539646680008445,0.0,0.0,0.0136996336996337
4.5631641399995715,0.0,0.0,0.011282051282051281
4.571981666002102,0.0,0.016117216117216115,0.025787545787545788
4.577553888000693,0.0,0.016117216117216115,0.025787545787545788
4.5777557190012885,0.0,0.016117216117216115,0.025787545787545788
4.583255128000019,0.0,0.016117216117216115,0.025787545787545788
4.583520283002144,0.0,0.0,0.0
4.591865174999839,0.0,0.0,0.0
4.595699958001205,0.0,0.0,0.0
4.6007069590014,0.0,0.0,0.0
4.60616383100205,0.0,0.007252747252747252,0.0
4.608344742999179,0.0,0.007252747252747252,0.0
4.61387282600117,0.0,0.007252747252747252,0.0
4.6141884950011445,0.0,0.007252747252747252,0.0
4.620007980000082,0.0,0.007252747252747252,0.0
4.620411970001442,0.0,0.007252747252747252,0.0
4.6259897430027195,0.0,0.007252747252747252,0.0
4.626055201999407,0.0,0.007252747252747252,0.0
4.631269010002143,0.0,0.007252747252747252,0.0
4.634397637000802,0.0,0.006446886446886447,0.0
4.635244249999232,0.0,0.006446886446886447,0.0
4.637453523002478,0.0,0.006446886446886447,0.0
4.63776142200004,0.0,0.006446886446886447,0.0
4.643010186999163,0.0,0.006446886446886447,0.0
4.644548516000214,0.0,0.006446886446886447,0.0
4.648482585002057,0.0,0.0024175824175824176,0.0016117216117216117
4.651437306001753,0.0,0.0024175824175824176,0.0016117216117216117
4.654284472999279,0.0,0.0024175824175824176,0.0016117216117216117
4.658659778000583,0.0,0.0024175824175824176,0.0016117216117216117
4.658837902999949,0.0,0.0024175824175824176,0.0016117216117216117
4.6641388589996495,0.0,0.0024175824175824176,0.0016117216117216117
4.666499626000586,0.0,0.020146520146520144,0.012087912087912087
4.66656874399996,0.0,0.017728937728937726,0.048351648351648346
4.672869305999484,0.0,0.017728937728937726,0.048351648351648346
4.67795653900248,0.0,0.0024175824175824176,0.0
4.680359132002195,0.0,0.012893772893772894,0.0
4.680461515999923,0.0,0.012893772893772894,0.0
4.688817251000728,0.0,0.012893772893772894,0.0
4.695281109001371,0.0,0.012893772893772894,0.0
4.700111589001608,0.0,0.0032234432234432234,0.016923076923076923
4.709901776001061,0.0,0.0032234432234432234,0.03304029304029304
4.718049413000699,0.0,0.0032234432234432234,0.03304029304029304
4.722260282000207,0.0,0.0032234432234432234,0.03304029304029304
4.7241447849992255,0.0,0.0032234432234432234,0.03304029304029304
4.725929554999311,0.0,0.029816849816849816,0.02498168498168498
4.7282807330011565,0.0,0.029816849816849816,0.02498168498168498
4.728543532000913,0.0,0.029816849816849816,0.02498168498168498
4.734093737002695,0.0,0.029816849816849816,0.02498168498168498
4.734949402001803,0.0,0.0016117216117216117,0.0
4.737235291999241,0.0,0.0016117216117216117,0.0
4.737393105999217,0.0,0.0016117216117216117,0.0
4.744700104001822,0.0,0.0016117216117216117,0.0
4.749355465002736,0.0,0.0016117216117216117,0.0
4.749461860999872,0.0,0.0016117216117216117,0.0
4.7566660920019785,0.0,0.0016117216117216117,0.0
4.763365915001486,0.0,0.0016117216117216117,0.0
4.76681168900177,0.0,0.0016117216117216117,0.0
4.7753541199999745,0.0,0.0016117216117216117,0.0
4.7805070460017305,0.0,0.0016117216117216117,0.0
4.782933272999799,0.0,0.0016117216117216117,0.0
4.783028444999218,0.0,0.0016117216117216117,0.0
4.790740288000961,0.0,0.0,0.022564102564102562
4.7946036370012735,0.0,0.004029304029304029,0.004029304029304029
4.799994151999272,0.0,0.0,0.0
4.800898374000099,0.0,0.014505494505494505,0.011282051282051281
4.801920277001045,0.0,0.014505494505494505,0.011282051282051281
4.803437139002199,0.0,0.014505494505494505,0.011282051282051281
4.810422992002714,0.0,0.014505494505494505,0.011282051282051281
4.814261524999893,0.0,0.014505494505494505,0.011282051282051281
4.818687143000716,0.0,0.014505494505494505,0.011282051282051281
4.81983278700136,0.0,0.014505494505494505,0.011282051282051281
4.820064534000267,0.0,0.014505494505494505,0.011282051282051281
4.8263392230001045,0.0,0.014505494505494505,0.011282051282051281
4.830147119002504,0.0,0.014505494505494505,0.011282051282051281
4.834582405001129,0.0,0.014505494505494505,0.011282051282051281
4.835374378002598,0.0,0.014505494505494505,0.011282051282051281
4.8400022460009495,0.0,0.014505494505494505,0.011282051282051281
4.845798023001407,0.0,0.014505494505494505,0.011282051282051281
4.850222302000475,0.0,0.020146520146520144,0.008058608058608058
4.851745084000868,0.0,0.020146520146520144,0.008058608058608058
4.858460306000779,0.0,0.020146520146520144,0.008058608058608058
4.86242697200214,0.0,0.020146520146520144,0.008058608058608058
4.866276562999701,0.0,0.020146520146520144,0.008058608058608058
4.871895390002464,0.0,0.020146520146520144,0.008058608058608058
4.872160893002729,0.0,0.020146520146520144,0.008058608058608058
4.877417150000838,0.0,0.020146520146520144,0.008058608058608058
4.8789358739995805,0.0,0.020146520146520144,0.008058608058608058
4.88365936700211,0.0,0.020146520146520144,0.008058608058608058
4.883744393999223,0.0,0.020146520146520144,0.008058608058608058
4.891002230000595,0.0,0.020146520146520144,0.008058608058608058
4.8953278539993335,0.0,0.020146520146520144,0.008058608058608058
4.896154876001674,0.0,0.020146520146520144,0.008058608058608058
4.897676969001623,0.0,0.020146520146520144,0.008058608058608058
4.901411308001116,0.0,0.0016117216117216117,0.0
4.908281569001701,0.0,0.0016117216117216117,0.0
4.9120089410025685,0.0,0.02095238095238095,0.016923076923076923
4.917141573001572,0.0,0.007252747252747252,0.0
4.921061383000051,0.0,0.007252747252747252,0.0
4.924377556002582,0.0,0.007252747252747252,0.0
4.929635799002426,0.0,0.007252747252747252,0.0
4.9318974090019765,0.0,0.007252747252747252,0.0
4.932081794002443,0.0,0.007252747252747252,0.0
4.937717208002141,0.0,0.007252747252747252,0.0
4.938914132999344,0.0,0.007252747252747252,0.0
4.9455451230023755,0.0,0.007252747252747252,0.0
4.949190061000991,0.0,0.012893772893772894,0.03304029304029304
4.949345876000734,0.0,0.012893772893772894,0.03304029304029304
4.956843002000824,0.0,0.014505494505494505,0.010476190476190476
4.960274533001211,0.0,0.014505494505494505,0.010476190476190476
4.961102386001585,0.0,0.014505494505494505,0.010476190476190476
4.962731535000785,0.0,0.014505494505494505,0.010476190476190476
4.966447525999683,0.0,0.014505494505494505,0.010476190476190476
4.971637055001338,0.0,0.007252747252747252,0.1402197802197802
4.975209660002292,0.0,0.007252747252747252,0.1402197802197802
4.979663217000052,0.0,0.007252747252747252,0.1402197802197802
4.979904799001815,0.0,0.007252747252747252,0.1402197802197802
4.985146006001742,0.0,0.007252747252747252,0.1402197802197802
4.992825847002678,0.0,0.03062271062271062,0.05399267399267399
4.9966940990016155,0.0,0.010476190476190476,0.17084249084249084
5.0010852870000235,0.0,0.016117216117216115,0.037875457875457874
5.002880061001633,0.0,0.016117216117216115,0.037875457875457874
5.006901114000357,0.0,0.016117216117216115,0.037875457875457874
5.009539732000121,0.0,0.0,0.0
5.014151660001517,0.0,0.0,0.0
5.0144191430008505,0.0,0.0,0.0
5.019722752000234,0.0,0.0,0.0
5.02206071800174,0.0,0.0,0.0
5.022203267002624,0.0,0.0,0.0
5.027261618000921,0.0,0.0,0.0
5.031057005999173,0.0,0.0,0.0
5.035436480000499,0.0,0.020146520146520144,0.029816849816849816
5.038322566000716,0.0,0.020146520146520144,0.029816849816849816
5.04137142000036,0.0,0.020146520146520144,0.029816849816849816
5.043594901002507,0.0,0.020146520146520144,0.029816849816849816
5.043840045000252,0.0,0.020146520146520144,0.029816849816849816
5.049200763001863,0.0,0.0,0.0008058608058608059
5.052246272000048,0.0,0.007252747252747252,0.004029304029304029
5.0542139780009165,0.0,0.007252747252747252,0.004029304029304029
5.056175301000621,0.0,0.007252747252747252,0.004029304029304029
5.057037130001845,0.0,0.007252747252747252,0.004029304029304029
5.058679622001364,0.0,0.007252747252747252,0.004029304029304029
5.061654076002014,0.0,0.007252747252747252,0.004029304029304029
5.0639313150022645,0.0,0.007252747252747252,0.004029304029304029
5.06418700300128,0.0,0.007252747252747252,0.004029304029304029
5.06956535000063,0.0,0.007252747252747252,0.004029304029304029
5.071147057002236,0.0,0.007252747252747252,0.004029304029304029
5.075216788001853,0.0,0.007252747252747252,0.004029304029304029
5.077945847002411,0.0,0.007252747252747252,0.004029304029304029
5.081397060999734,0.0,0.007252747252747252,0.004029304029304029
5.081573834002484,0.0,0.007252747252747252,0.004029304029304029
5.086268687002303,0.0,0.0,0.03626373626373627
5.086481898000784,0.0,0.007252747252747252,0.008864468864468863
5.091397702999529,0.0,0.007252747252747252,0.008864468864468863
5.0950109280020115,0.0,0.007252747252747252,0.008864468864468863
5.095236755001679,0.0,0.007252747252747252,0.008864468864468863
5.101466735002759,0.0,0.007252747252747252,0.008864468864468863
5.10696189400187,0.0,0.007252747252747252,0.008864468864468863
5.107081942001969,0.0,0.02336996336996337,0.0
5.1162860000004,0.0,0.02336996336996337,0.0
5.126441401000193,0.0,0.017728937728937726,0.04996336996336996
5.132382203002635,0.0,0.017728937728937726,0.04996336996336996
5.141193526000279,0.0,0.017728937728937726,0.04996336996336996
5.14581298900157,0.0,0.017728937728937726,0.04996336996336996
5.151050317999761,0.0,0.017728937728937726,0.04996336996336996
5.158542192999448,0.0,0.017728937728937726,0.04996336996336996
5.165132867001375,0.0,0.028205128205128206,0.0
5.171313697999722,0.0,0.01531135531135531,0.026593406593406595
5.176718456001254,0.0,0.01531135531135531,0.026593406593406595
5.1784509280005295,0.0,0.0,0.010476190476190476
5.182764511999267,0.0,0.0,0.010476190476190476
5.182895860001736,0.0,0.0,0.010476190476190476
5.189181449000898,0.0,0.0,0.010476190476190476
5.1951574129998335,0.0,0.020146520146520144,0.014505494505494505
5.199787401001231,0.0,0.020146520146520144,0.014505494505494505
5.204520477000187,0.0,0.020146520146520144,0.014505494505494505
5.20461429200077,0.0,0.02095238095238095,0.01934065934065934
5.21028046200081,0.0,0.0,0.006446886446886447
5.210448010999244,0.0,0.0,0.006446886446886447
5.220710001001862,0.0,0.0,0.006446886446886447
5.2304901230018,0.0,0.0,0.006446886446886447
5.237168602001475,0.0,0.0,0.006446886446886447
5.241930670999864,0.0,0.0,0.006446886446886447
5.242035052000574,0.0,0.0,0.006446886446886447
5.2473433110026235,0.0,0.0,0.006446886446886447
5.248950065000827,0.0,0.0,0.006446886446886447
5.252689475000807,0.0,0.0,0.006446886446886447
5.2586178189994826,0.0,0.010476190476190476,0.03223443223443223
5.266939174001891,0.0,0.010476190476190476,0.03223443223443223
5.2739017060011975,0.0,0.016923076923076923,0.15472527472527473
5.2789253080009075,0.0,0.0032234432234432234,0.028205128205128206
5.282658708001691,0.0,0.0032234432234432234,0.016923076923076923
5.288093332001154,0.0,0.0032234432234432234,0.016923076923076923
5.288310461000947,0.0,0.012893772893772894,1.9469597069597069
5.2962747490018955,0.0,0.012893772893772894,1.9469597069597069
5.303314870001486,0.0,0.012893772893772894,1.9469597069597069
5.309429766002722,0.0,0.012893772893772894,1.9469597069597069
5.31588130900127,0.0,0.012893772893772894,1.9469597069597069
5.321515401999932,0.0,0.012893772893772894,1.9469597069597069
5.328050644999166,0.0,0.02095238095238095,0.01934065934065934
5.331862621002074,0.0,0.02095238095238095,0.01934065934065934
5.336243212001136,0.0,0.02095238095238095,0.01934065934065934
5.337119661002362,0.0,0.02095238095238095,0.01934065934065934
5.339254712002003,0.0,0.008058608058608058,0.0032234432234432234
5.340046997000172,0.0,0.008058608058608058,0.0032234432234432234
5.342211843002588,0.0,0.008058608058608058,0.0032234432234432234
5.343015734000801,0.0,0.008058608058608058,0.0032234432234432234
5.345131099002174,0.0,0.008058608058608058,0.0032234432234432234
5.346140265999566,0.0,0.008058608058608058,0.0032234432234432234
5.347193186000368,0.0,0.008058608058608058,0.0032234432234432234
5.347426593001728,0.0,0.008058608058608058,0.0032234432234432234
5.352227499002765,0.0,0.008058608058608058,0.0032234432234432234
5.357030479000969,0.0,0.025787545787545788,0.010476190476190476
5.35714094099967,0.0,0.0,0.0
5.361940550999861,0.0,0.0,0.0
5.362093692001508,0.0,0.0,0.0
5.367926863000321,0.0,0.0,0.0
5.373245694001525,0.0,0.00967032967032967,0.18534798534798536
5.376551126999402,0.0,0.00967032967032967,0.18534798534798536
5.37739797100221,0.0,0.00967032967032967,0.18534798534798536
5.379005155002233,0.0,0.0,0.0
5.388476257001457,0.0,0.0,0.0
5.394925974000216,0.0,0.0,0.0
5.398782493000908,0.0,0.0,0.0
5.403311662001215,0.0,0.016923076923076923,0.01934065934065934
5.40361237199977,0.0,0.014505494505494505,0.016117216117216115
5.409986603001016,0.0,0.014505494505494505,0.016117216117216115
5.414022703000228,0.0,0.014505494505494505,0.016117216117216115
5.417788508999365,0.0,0.0,0.0
5.424396974001866,0.0,0.0,0.0
5.429446971000289,0.0,0.00967032967032967,0.024175824175824173
5.43171955300204,0.0,0.00967032967032967,0.024175824175824173
5.431847941999877,0.0,0.0,0.012893772893772894
5.437761641001998,0.0,0.0,0.012893772893772894
5.4471398560017406,0.0,0.0016117216117216117,0.0008058608058608059
5.455523827000434,0.0,0.011282051282051281,0.0
5.460582728999725,0.0,0.011282051282051281,0.0
5.462987951999821,0.0,0.011282051282051281,0.0
5.463101082001231,0.0,0.0,0.0032234432234432234
5.472885913000937,0.0,0.0,0.0032234432234432234
5.479585428001883,0.0,0.0,0.0032234432234432234
5.483312094002031,0.0,0.0,0.0032234432234432234
5.490401204999216,0.0,0.0,0.0032234432234432234
5.4965765080014535,0.0,0.0,0.0032234432234432234
5.501844718000939,0.0,0.0,0.0032234432234432234
5.5027362420005375,0.0,0.0136996336996337,0.0
5.504580387001624,0.0,0.0136996336996337,0.0
5.506915116002347,0.0,0.0016117216117216117,0.01934065934065934
5.507070791001752,0.0,0.0016117216117216117,0.01934065934065934
5.512601603000803,0.0,0.0016117216117216117,0.01934065934065934
5.513405395002337,0.0,0.06849816849816849,0.03545787545787545
5.515895885000646,0.0,0.0008058608058608059,0.0
5.523473720000766,0.0,0.01934065934065934,0.01531135531135531
5.527747529002227,0.0,0.004835164835164835,0.0016117216117216117
5.531284823999158,0.0,0.0,0.16278388278388278
5.538103540002339,0.0,0.0,0.006446886446886447
5.542703078001068,0.0,0.0,0.006446886446886447
5.548020816000644,0.0,0.006446886446886447,0.0
5.551166412002203,0.0,0.006446886446886447,0.0
5.553368460001366,0.0,0.0016117216117216117,0.03948717948717949
5.553627847002645,0.0,0.0016117216117216117,0.03948717948717949
5.561483572000725,0.0,0.0016117216117216117,0.03948717948717949
5.567890696001996,0.0,0.0016117216117216117,0.03948717948717949
5.574377148001076,0.0,0.008058608058608058,0.28769230769230764
5.577556211999763,0.0,0.008058608058608058,0.28769230769230764
5.579118107001705,0.0,0.008058608058608058,0.28769230769230764
5.584314265001012,0.0,0.017728937728937726,0.0
5.587989327999821,0.0,0.017728937728937726,0.0
5.598134079002193,0.0,0.008058608058608058,0.04029304029304029
5.607302465999965,0.0,0.0032234432234432234,0.004835164835164835
5.615297707001446,0.0,0.0032234432234432234,0.004835164835164835
5.6229471290025685,0.0,0.0032234432234432234,0.004835164835164835
5.626760153001669,0.0,0.0032234432234432234,0.004835164835164835
5.630373945001338,0.0,0.0032234432234432234,0.004835164835164835
5.636108990001958,0.0,0.0032234432234432234,0.004835164835164835
5.636228167000809,0.0,0.0032234432234432234,0.004835164835164835
5.644137127001159,0.0,0.007252747252747252,0.004835164835164835
5.648862780002673,0.0,0.007252747252747252,0.004835164835164835
5.648929054001201,0.0,0.00967032967032967,0.0016117216117216117
5.656964338002581,0.0,0.0032234432234432234,0.011282051282051281
5.661441971002205,0.0,0.0032234432234432234,0.0
5.661673572001746,0.0,0.0032234432234432234,0.0
5.666994798000815,0.0,0.0032234432234432234,0.0
5.671861587001331,0.0,0.0032234432234432234,0.0
5.674905570002011,0.0,0.0032234432234432234,0.0
5.677483416999166,0.0,0.0032234432234432234,0.0
5.685173208999913,0.0,0.0032234432234432234,0.0
5.692023916002654,0.0,0.0016117216117216117,0.0
5.69576765900274,0.0,0.0,0.008058608058608058
5.700708570002462,0.0,0.0032234432234432234,0.01531135531135531
5.705551500999718,0.0,0.011282051282051281,0.0
5.710761063000973,0.0,0.011282051282051281,0.0
5.711581417999696,0.0,0.011282051282051281,0.0
5.713157379999757,0.0,0.011282051282051281,0.0
5.717566160001297,0.0,0.011282051282051281,0.0
5.718004185000609,0.0,0.011282051282051281,0.0
5.725929566000559,0.0,0.0,0.007252747252747252
5.730328219000512,0.0,0.0,0.007252747252747252
5.731144645000313,0.0,0.0,0.007252747252747252
5.732664802002546,0.0,0.0,0.007252747252747252
5.738194846999249,0.0,0.0,0.007252747252747252
5.738517485999182,0.0,0.0,0.007252747252747252
5.746089950000169,0.0,0.0,0.0
5.750477341000078,0.0,0.0,0.0
5.753400182002224,0.0,0.0,0.0
5.758373086002393,0.0,0.00967032967032967,0.06608058608058608
5.759997041001043,0.0,0.017728937728937726,0.02336996336996337
5.764478377001069,0.0,0.017728937728937726,0.02336996336996337
5.765386366001621,0.0,0.017728937728937726,0.02336996336996337
5.76627796899993,0.0,0.017728937728937726,0.02336996336996337
5.767972301000555,0.0,0.017728937728937726,0.02336996336996337
5.774734637001529,0.0,0.008864468864468863,0.5197802197802197
5.779290394002601,0.0,0.0,0.025787545787545788
5.7848743249996915,0.0,0.025787545787545788,0.018534798534798533
5.785109293999994,0.0,0.025787545787545788,0.018534798534798533
5.793183670000872,0.0,0.025787545787545788,0.018534798534798533
5.798375382000813,0.0,0.025787545787545788,0.018534798534798533
5.801783703002002,0.0,0.012893772893772894,0.014505494505494505
5.801919644000009,0.0,0.004835164835164835,0.0
5.81055942400053,0.0,0.004835164835164835,0.0
5.81614516099944,0.0,0.004835164835164835,0.0
5.817050921999908,0.0,0.004835164835164835,0.0
5.81882776600105,0.0,0.004835164835164835,0.0
5.822398169002554,0.0,0.0,0.0
5.827095181000914,0.0,0.0,0.0
5.832605087001866,0.0,0.0,0.0
5.834258635000879,0.0,0.0,0.0
5.838558405001095,0.0,0.0,0.0
5.839988532999996,0.0,0.0,0.0
5.8457738860015525,0.0,0.0,0.0
5.84587441000258,0.0,0.0,0.0
5.851261965002777,0.0,0.0,0.0
5.854350395002257,0.0,0.01934065934065934,0.6043956043956044
5.855831609002053,0.0,0.01934065934065934,0.6043956043956044
5.859929196001758,0.0,0.01934065934065934,0.6043956043956044
5.862988665001467,0.0,0.01934065934065934,0.6043956043956044
5.864607823001279,0.0,0.016923076923076923,0.012087912087912087
5.869125936002092,0.0,0.016923076923076923,0.012087912087912087
5.869364100002713,0.0,0.016923076923076923,0.012087912087912087
5.876984518999961,0.0,0.016923076923076923,0.012087912087912087
5.881532319999678,0.0,0.016923076923076923,0.012087912087912087
5.881752598001185,0.0,0.022564102564102562,0.03223443223443223
5.889176877000864,0.0,0.022564102564102562,0.03223443223443223
5.893837457999325,0.0,0.006446886446886447,0.03868131868131868
5.898353570002655,0.0,0.017728937728937726,0.25465201465201465
5.8992160849993525,0.0,0.017728937728937726,0.25465201465201465
5.901429385001393,0.0,0.017728937728937726,0.25465201465201465
5.90234411900019,0.0,0.0008058608058608059,0.0
5.904149207002774,0.0,0.0008058608058608059,0.0
5.907891066999582,0.0,0.0008058608058608059,0.0
5.912395815001219,0.0,0.01531135531135531,3.3
5.912628805999702,0.0,0.01531135531135531,3.3
5.917749678999826,0.0,0.01531135531135531,3.3
5.924350942001183,0.0,0.007252747252747252,0.06446886446886446
5.927354318999278,0.0,0.007252747252747252,0.06446886446886446
5.93032866700014,0.0,0.007252747252747252,0.06446886446886446
5.933337120000942,0.0,0.007252747252747252,0.06446886446886446
5.935601654000493,0.0,0.007252747252747252,0.06446886446886446
5.935696619999362,0.0,0.007252747252747252,0.06446886446886446
5.945368728000176,0.0,0.007252747252747252,0.06446886446886446
5.953551653001341,0.0,0.0032234432234432234,0.0
5.961881409002672,0.0,0.0032234432234432234,0.0
5.968047845999536,0.0,0.0032234432234432234,0.0
5.974621995999769,0.0,0.0032234432234432234,0.0
5.981117068000458,0.0,0.00967032967032967,0.3876190476190476
5.987590889002604,0.0,0.010476190476190476,0.04593406593406593
5.992608948999987,0.0,0.010476190476190476,0.04593406593406593
5.99594745700233,0.0,0.010476190476190476,0.04593406593406593
5.996166264001658,0.0,0.008058608058608058,0.311062271062271
6.00206255699959,0.0,0.008058608058608058,0.311062271062271
6.012366397000733,0.0,0.008058608058608058,0.311062271062271
6.019217029999709,0.0,0.0273992673992674,0.17648351648351646
6.023880320000899,0.0,0.0273992673992674,0.17648351648351646
6.023975644002348,0.0,0.0273992673992674,0.17648351648351646
6.029647921001015,0.0,0.0273992673992674,0.17648351648351646
6.029911047000496,0.0,0.0273992673992674,0.17648351648351646
6.035208814002544,0.0,0.0273992673992674,0.17648351648351646
6.0390081709992955,0.0,0.004029304029304029,0.13941391941391942
6.045217956001579,0.0,0.004029304029304029,0.13941391941391942
6.049191690002772,0.0,0.0,0.012893772893772894
6.052941928999644,0.0,0.0,0.012893772893772894
6.0626147520015365,0.0,0.0,0.012893772893772894
6.069472015002248,0.0,0.0,0.012893772893772894
6.073924813001213,0.0,0.0,0.012893772893772894
6.074090106001677,0.0,0.0,0.012893772893772894
6.079575763000321,0.0,0.0,0.012893772893772894
6.079746413000976,0.0,0.011282051282051281,0.0
6.085052843001904,0.0,0.011282051282051281,0.0
6.086707025002397,0.0,0.012087912087912087,0.004835164835164835
6.092464080000354,0.0,0.012087912087912087,0.004835164835164835
6.096293783000874,0.0,0.012087912087912087,0.004835164835164835
6.100698674999876,0.0,0.012087912087912087,0.004835164835164835
6.101528803999827,0.0,0.012087912087912087,0.004835164835164835
6.105751793002128,0.0,0.012087912087912087,0.004835164835164835
6.105983583001944,0.0,0.012087912087912087,0.004835164835164835
6.111364831001993,0.0,0.012087912087912087,0.004835164835164835
6.112535407002724,0.0,0.020146520146520144,1.066959706959707
6.112638697002694,0.0,0.020146520146520144,1.066959706959707
6.1239397620011005,0.0,0.020146520146520144,1.066959706959707
6.129105328000151,0.0,0.020146520146520144,1.066959706959707
6.133936972000811,0.0,0.020146520146520144,1.066959706959707
6.140976074002538,0.0,0.020146520146520144,1.066959706959707
6.146826176001923,0.0,0.020146520146520144,1.066959706959707
6.153031109999574,0.0,0.020146520146520144,1.066959706959707
6.159621564002009,0.0,0.020146520146520144,1.066959706959707
6.164715177001199,0.0,0.017728937728937726,0.24417582417582417
6.16800741300176,0.0,0.017728937728937726,0.24417582417582417
6.168259605001367,0.0,0.017728937728937726,0.24417582417582417
6.177128060000541,0.0,0.017728937728937726,0.24417582417582417
6.182763827000599,0.0,0.017728937728937726,0.24417582417582417
6.183106969001528,0.0,0.017728937728937726,0.24417582417582417
6.189664203000575,0.0,0.017728937728937726,0.24417582417582417
6.196203653002158,0.0,0.017728937728937726,0.24417582417582417
6.201949259000685,0.0,0.0136996336996337,0.3304029304029304
6.207746763000614,0.0,0.0136996336996337,0.3304029304029304
6.214778860001388,0.0,0.0136996336996337,0.3304029304029304
6.220644607001304,0.0,0.016117216117216115,2.5787545787545785
6.228021164999518,0.0,0.016117216117216115,2.5787545787545785
6.234588736999285,0.0,0.016117216117216115,2.5787545787545785
6.239132552000228,0.0,0.016117216117216115,2.5787545787545785
6.239258932000666,0.0,0.016117216117216115,2.5787545787545785
6.24446761299987,0.0,0.016117216117216115,2.5787545787545785
6.246645997001906,0.0,0.016117216117216115,2.5787545787545785
6.246963572000823,0.0,0.016117216117216115,2.5787545787545785
6.252726295002503,0.0,0.016117216117216115,2.5787545787545785
6.2530611229994975,0.0,0.016117216117216115,2.5787545787545785
6.261722469000233,0.0,0.016117216117216115,2.5787545787545785
6.266941581001447,0.0,0.016117216117216115,2.5787545787545785
6.26872083499984,0.0,0.016117216117216115,2.5787545787545785
6.274389736001467,0.0,0.010476190476190476,2.5787545787545785
6.285154016000888,0.0,0.010476190476190476,2.5787545787545785
6.294200371001352,0.0,0.010476190476190476,2.5787545787545785
6.299590931001148,0.0,0.010476190476190476,2.5787545787545785
6.301396172999375,0.0,0.0016117216117216117,0.03465201465201465
6.304434489000414,0.0,0.0016117216117216117,0.03465201465201465
6.306153949000873,0.0,0.0016117216117216117,0.03465201465201465
6.308871799999906,0.0,0.0016117216117216117,0.03465201465201465
6.313045278002392,0.0,0.0016117216117216117,0.03465201465201465
6.313304835002782,0.0,0.0016117216117216117,0.03465201465201465
6.322290366999368,0.0,0.0016117216117216117,0.03465201465201465
6.328713279999647,0.0,0.0016117216117216117,0.06124542124542124
6.334860656999808,0.0,0.0016117216117216117,0.06124542124542124
6.340162183001667,0.0,0.0016117216117216117,0.06124542124542124
6.340325420002046,0.0,0.0016117216117216117,0.06124542124542124
6.34663459299918,0.0,0.0016117216117216117,0.06124542124542124
6.3512912590013,0.0,0.014505494505494505,0.04593406593406593
6.351518723000481,0.0,0.014505494505494505,0.04593406593406593
6.359239655001147,0.0,0.014505494505494505,0.04593406593406593
6.36614752800233,0.0,0.014505494505494505,0.04593406593406593
6.371796423001797,0.0,0.014505494505494505,0.04593406593406593
6.3787441220010805,0.0,0.014505494505494505,0.04593406593406593
6.382842552000511,0.0,0.025787545787545788,0.025787545787545788
6.384365698999318,0.0,0.025787545787545788,0.025787545787545788
6.38880175200029,0.0,0.025787545787545788,0.025787545787545788
6.3896260900000925,0.0,0.025787545787545788,0.025787545787545788
6.391839072002767,0.0,0.025787545787545788,0.025787545787545788
6.3921268039994175,0.0,0.025787545787545788,0.025787545787545788
6.397325379999529,0.0,0.025787545787545788,0.025787545787545788
6.400400247999642,0.0,0.011282051282051281,0.03868131868131868
6.402734810999391,0.0,0.011282051282051281,0.03868131868131868
6.402948717000982,0.0,0.011282051282051281,0.03868131868131868
6.408852357999422,0.0,0.011282051282051281,0.03868131868131868
6.418804323999211,0.0,0.011282051282051281,0.03868131868131868
6.426843680001184,0.0,0.0032234432234432234,0.253040293040293
6.433059899001819,0.0,0.0032234432234432234,0.253040293040293
6.437995717002195,0.0,0.0032234432234432234,0.253040293040293
6.444110210999497,0.0,0.0032234432234432234,0.253040293040293
6.449067882000236,0.0,0.00967032967032967,0.0
6.451347679001628,0.0,0.00967032967032967,0.0
6.451496252000652,0.0,0.06205128205128205,2.5634432234432234
6.457026920001226,0.0,0.06205128205128205,2.5634432234432234
6.458004055999481,0.0,0.06205128205128205,2.5634432234432234
6.459064042999671,0.0,0.06205128205128205,2.5634432234432234
6.459863234002114,0.0,0.016923076923076923,0.04996336996336996
6.461341743000958,0.0,0.016923076923076923,0.04996336996336996
6.465614365002693,0.0,0.016923076923076923,0.04996336996336996
6.467947193999862,0.0,0.016923076923076923,0.04996336996336996
6.468209795002622,0.0,0.016923076923076923,0.04996336996336996
6.473194820999197,0.0,0.016923076923076923,0.04996336996336996
6.478445607001049,0.0,0.016923076923076923,0.04996336996336996
6.480852992001019,0.0,0.016923076923076923,0.04996336996336996
6.48095625300266,0.0,0.016923076923076923,0.04996336996336996
6.486445712002023,0.0,0.016923076923076923,0.04996336996336996
6.488923795001028,0.0,0.010476190476190476,2.573113553113553
6.4977286070025,0.0,0.0024175824175824176,3.3
6.504122751000978,0.0,0.011282051282051281,2.212087912087912
6.509657073002018,0.0,0.011282051282051281,0.0
6.518032329000562,0.0,0.011282051282051281,0.0
6.526774096000736,0.0,0.018534798534798533,0.13216117216117215
6.535437349000858,0.0,0.008864468864468863,0.014505494505494505
6.543370801002311,0.0,0.03062271062271062,0.8872527472527472
6.549425125002017,0.0,0.010476190476190476,0.1692307692307692
6.553523986000073,0.0,0.010476190476190476,0.1692307692307692
6.556636751000042,0.0,0.010476190476190476,0.1692307692307692
6.558265212999686,0.0,0.010476190476190476,0.1692307692307692
6.561435129002348,0.0,0.010476190476190476,0.1692307692307692
6.564012501999969,0.0,0.010476190476190476,0.1692307692307692
6.569569567000144,0.0,0.010476190476190476,0.1692307692307692
6.570508468001208,0.0,0.008058608058608058,0.9992673992673992
6.5714664370025275,0.0,0.008058608058608058,0.9992673992673992
6.573078548000922,0.0,0.008058608058608058,0.9992673992673992
6.576615353002126,0.0,0.008058608058608058,0.9992673992673992
6.576782615000411,0.0,0.008058608058608058,0.9992673992673992
6.581440285001008,0.0,0.008058608058608058,0.9992673992673992
6.581627375002427,0.0,0.005641025641025641,0.0
6.586337091001042,0.0,0.005641025641025641,0.0
6.5864222920026805,0.0,0.005641025641025641,0.0
6.591133981000894,0.0,0.005641025641025641,0.0
6.595850746001815,0.0,0.012893772893772894,1.1967032967032967
6.596085130000574,0.0,0.004835164835164835,0.14263736263736262
6.600766604002274,0.0,0.004835164835164835,0.14263736263736262
6.600928912001109,0.0,0.004835164835164835,0.14263736263736262
6.6056234759998915,0.0,0.004835164835164835,0.14263736263736262
6.605790224002703,0.0,0.004835164835164835,0.14263736263736262
6.61049980900134,0.0,0.004835164835164835,0.14263736263736262
6.610648283000046,0.0,0.0,2.5763369963369964
6.615333547000773,0.0,0.0,2.5763369963369964
6.615571443002409,0.0,0.02336996336996337,0.6406593406593406
6.620241327000258,0.0,0.02336996336996337,0.6406593406593406
6.621049273002427,0.0,0.02336996336996337,0.6406593406593406
6.623141341002338,0.0,0.02336996336996337,0.6406593406593406
6.624595296001644,0.0,0.02336996336996337,0.6406593406593406
6.628687283002364,0.0,0.02336996336996337,0.6406593406593406
6.631381379000231,0.0,0.02336996336996337,0.6406593406593406
6.635403874999611,0.0,0.02336996336996337,0.6406593406593406
6.638847335001628,0.0,0.0,0.15311355311355312
6.6395613420027075,0.0,0.0,0.15311355311355312
6.641624905001663,0.0,0.0136996336996337,0.0
6.643655799001863,0.0,0.0136996336996337,0.0
6.644461863001197,0.0,0.0136996336996337,0.0
6.646539112000028,0.0,0.0136996336996337,0.0
6.648169379001047,0.0,0.0136996336996337,0.0
6.652120112001285,0.0,0.0136996336996337,0.0
6.6565521150005225,0.0,0.0136996336996337,0.0
6.6573459210012516,0.0,0.0136996336996337,0.0
6.659672039000725,0.0,0.0136996336996337,0.0
6.659749692000332,0.0,0.017728937728937726,0.014505494505494505
6.664872923000075,0.0,0.017728937728937726,0.014505494505494505
6.668668727001204,0.0,0.0016117216117216117,0.0
6.672323065002274,0.0,0.0024175824175824176,2.5723076923076924
6.677427326001634,0.0,0.03465201465201465,1.8567032967032966
6.681249151999509,0.0,0.005641025641025641,0.2651282051282051
6.68574188400089,0.0,0.005641025641025641,0.2651282051282051
6.686507556001743,0.0,0.005641025641025641,0.2651282051282051
6.688046944000234,0.0,0.005641025641025641,0.2651282051282051
6.692343464001169,0.0,0.005641025641025641,0.2651282051282051
6.693896020002285,0.0,0.005641025641025641,0.2651282051282051
6.698449891999189,0.0,0.005641025641025641,0.2651282051282051
6.699301069002104,0.0,0.005641025641025641,0.2651282051282051
6.701460100000986,0.0,0.005641025641025641,0.2651282051282051
6.7022527500012075,0.0,0.005641025641025641,0.2651282051282051
6.704313397000078,0.0,0.005641025641025641,0.2651282051282051
6.7056885290003265,0.0,0.005641025641025641,0.2651282051282051
6.71040067800277,0.0,0.005641025641025641,0.2651282051282051
6.710634507002396,0.0,0.005641025641025641,0.2651282051282051
6.715343156000017,0.0,0.005641025641025641,0.2651282051282051
6.71555943400017,0.0,0.005641025641025641,0.2651282051282051
6.720251790000475,0.0,0.005641025641025641,0.2651282051282051
6.720386428001802,0.0,0.005641025641025641,0.2651282051282051
6.725147504999768,0.0,0.008058608058608058,0.01531135531135531
6.725289620000694,0.0,0.008058608058608058,0.01531135531135531
6.729998314000113,0.0,0.008058608058608058,0.01531135531135531
6.730204813000455,0.0,0.008058608058608058,0.01531135531135531
6.735578430001624,0.0,0.008058608058608058,0.01531135531135531
6.736934133001341,0.0,0.008058608058608058,0.01531135531135531
6.741862227001548,0.0,0.008058608058608058,0.01531135531135531
6.7461122990025615,0.0,0.008058608058608058,0.01531135531135531
6.749067410000862,0.0,0.008058608058608058,0.01531135531135531
6.751287993000005,0.0,0.008058608058608058,0.01531135531135531
6.751455622001231,0.0,0.008058608058608058,0.01531135531135531
6.756620770000154,0.0,0.008058608058608058,0.01531135531135531
6.759727305001434,0.0,0.008058608058608058,0.01531135531135531
6.761956849000853,0.0,0.008058608058608058,0.01531135531135531
6.762793195000995,0.0,0.008058608058608058,0.01531135531135531
6.76430411399997,0.0,0.008058608058608058,0.01531135531135531
6.76831774799939,0.0,0.03223443223443223,0.004835164835164835
6.771752795000793,0.0,0.03223443223443223,0.004835164835164835
6.771939736001514,0.0,0.03223443223443223,0.004835164835164835
6.776742154001113,0.0,0.03223443223443223,0.004835164835164835
6.781455631000426,0.0,0.03223443223443223,0.004835164835164835
6.7862067390015,0.0,0.03223443223443223,0.004835164835164835
6.790928820999397,0.0,0.0,0.02336996336996337
6.791082042000198,0.0,0.0,0.02336996336996337
6.795796051999787,0.0,0.0,0.02336996336996337
6.80064836100064,0.0,0.0,0.02336996336996337
6.8047558489997755,0.0,0.0,0.02336996336996337
6.806857472001866,0.0,0.00967032967032967,0.004835164835164835
6.807747673999984,0.0,0.00967032967032967,0.004835164835164835
6.8091902769992885,0.0,0.0,2.5803663003663004
6.8143071539998346,0.0,0.0,2.5747252747252745
6.819079072000022,0.0,0.0,2.5747252747252745
6.819206131000101,0.0,0.0,2.5747252747252745
6.824263390000851,0.0,0.0,2.5747252747252745
6.827869192002254,0.0,0.0,2.5747252747252745
6.828055549001874,0.0,0.0,2.5747252747252745
6.833253426000738,0.0,0.0,2.5747252747252745
6.836065340001369,0.0,0.0,2.5747252747252745
6.83953165800267,0.0,0.0,2.5747252747252745
6.840249575001508,0.0,0.0,2.5747252747252745
6.842364688000089,0.0,0.0,2.5747252747252745
6.843159587999253,0.0,0.0,2.5747252747252745
6.8452931710016856,0.0,0.0,2.5747252747252745
6.846099540001887,0.0,0.0,2.5747252747252745
6.848281278002105,0.0,0.0,2.5747252747252745
6.849087419999705,0.0,0.0,2.5747252747252745
6.850575898002717,0.0,0.0,2.5747252747252745
6.854643583999859,0.0,0.0,2.5747252747252745
6.857346429002064,0.0,0.02095238095238095,0.21597069597069596
6.862122162001469,0.0,0.02095238095238095,0.21597069597069596
6.862210284001776,0.0,0.0,0.0
6.866879335000704,0.0,0.0,0.0
6.867082378001214,0.0,0.004835164835164835,0.01934065934065934
6.8719453280027665,0.0,0.004835164835164835,0.01934065934065934
6.876672867001616,0.0,0.004835164835164835,0.01934065934065934
6.876741652002238,0.0,0.007252747252747252,0.07413919413919413
6.881395499000064,0.0,0.007252747252747252,0.07413919413919413
6.882175692000601,0.0,0.007252747252747252,0.07413919413919413
6.884226394002326,0.0,0.0,0.012087912087912087
6.886271248000412,0.0,0.0,0.012087912087912087
6.887653142999625,0.0,0.0,0.012087912087912087
6.89221634900241,0.0,0.0136996336996337,2.5755311355311354
6.893048196001473,0.0,0.0136996336996337,2.5755311355311354
6.895237439999619,0.0,0.0136996336996337,2.5755311355311354
6.896010919001128,0.0,0.0136996336996337,2.5755311355311354
6.898115005002182,0.0,0.0136996336996337,2.5755311355311354
6.899523461001081,0.0,0.0136996336996337,2.5755311355311354
6.903653800000029,0.0,0.0136996336996337,2.5755311355311354
6.90712378399985,0.0,0.0136996336996337,2.5755311355311354
6.9078534840009524,0.0,0.01934065934065934,2.5787545787545785
6.909345481002674,0.0,0.01934065934065934,2.5787545787545785
6.914090615999157,0.0,0.01934065934065934,2.5787545787545785
6.914310669999395,0.0,0.01934065934065934,2.5787545787545785
6.918368676000682,0.0,0.01934065934065934,2.5787545787545785
6.9217479360013385,0.0,0.01934065934065934,2.5787545787545785
6.921946345002652,0.0,0.00967032967032967,0.025787545787545788
6.926744828000665,0.0,0.00967032967032967,0.025787545787545788
6.926878624999517,0.0,0.011282051282051281,2.577948717948718
6.93167366200214,0.0,0.011282051282051281,2.577948717948718
6.931853034002415,0.0,0.0,2.5787545787545785
6.936598562999279,0.0,0.0,2.5787545787545785
6.9366946010013635,0.0,0.0,2.5787545787545785
6.941676799000561,0.0,0.0,2.5787545787545785
6.945832675999554,0.0,0.011282051282051281,0.029816849816849816
6.947242116002599,0.0,0.011282051282051281,0.029816849816849816
6.952595017999556,0.0,0.011282051282051281,0.029816849816849816
6.954282067999884,0.0,0.011282051282051281,0.029816849816849816
6.957349293999869,0.0,0.011282051282051281,0.029816849816849816
6.959707734000403,0.0,0.010476190476190476,0.09992673992673992
6.959819932002574,0.0,0.010476190476190476,0.09992673992673992
6.964930271002231,0.0,0.010476190476190476,0.09992673992673992
6.968205471999681,0.0,0.010476190476190476,0.09992673992673992
6.969057974001771,0.0,0.010476190476190476,0.09992673992673992
6.971344694000436,0.0,0.010476190476190476,0.09992673992673992
6.972171851000894,0.0,0.010476190476190476,0.09992673992673992
6.974483329999202,0.0,0.010476190476190476,0.09992673992673992
6.974753415001032,0.0,0.010476190476190476,0.09992673992673992
6.979337911001494,0.0,0.010476190476190476,0.09992673992673992
6.979621118000068,0.0,0.010476190476190476,0.09992673992673992
6.984923256000911,0.0,0.008058608058608058,0.029816849816849816
6.987330405001558,0.0,0.008058608058608058,0.0
6.992561505001504,0.0,0.008058608058608058,0.0
6.994817827002407,0.0,0.0,2.5763369963369964
6.995122275999165,0.0,0.0,2.5763369963369964
7.0002329269991606,0.0,0.0,2.5763369963369964
7.003837880001811,0.0,0.0,2.5763369963369964
7.0082973550015595,0.0,0.0,2.5763369963369964
7.009112084000662,0.0,0.0,2.5763369963369964
7.010676837999199,0.0,0.0,2.5763369963369964
7.015049923000333,0.0,0.0,2.5763369963369964
7.015936456002237,0.0,0.0,2.5763369963369964
7.017509571000119,0.0,0.0,2.5763369963369964
7.021260636000079,0.0,0.0,2.5763369963369964
7.026478706000489,0.0,0.0,2.5763369963369964
7.029585611002403,0.0,0.04673992673992674,0.03223443223443223
7.031159672002104,0.0,0.04673992673992674,0.03223443223443223
7.03559697899982,0.0,0.04673992673992674,0.03223443223443223
7.03640248100055,0.0,0.04673992673992674,0.03223443223443223
7.038640269001917,0.0,0.0,0.09509157509157509
7.039415384999302,0.0,0.0,0.09509157509157509
7.040965422002046,0.0,0.0,0.09509157509157509
7.046172225000191,0.0,0.0,0.09509157509157509
7.0493085109992535,0.0,0.0,0.09509157509157509
7.050797465999494,0.0,0.006446886446886447,2.577948717948718
7.055555482002092,0.0,0.006446886446886447,2.577948717948718
7.055679288001556,0.0,0.006446886446886447,2.577948717948718
7.061037536001095,0.0,0.006446886446886447,2.577948717948718
7.063359718002175,0.0,0.006446886446886447,2.577948717948718
7.063447499000176,0.0,0.006446886446886447,2.577948717948718
7.068564934001188,0.0,0.017728937728937726,0.0
7.072584322002513,0.0,0.0,2.5763369963369964
7.074934358999599,0.0,0.0,2.5763369963369964
7.07509576600205,0.0,0.0,2.5763369963369964
7.080350607000582,0.0,0.0,2.5763369963369964
7.082749929999409,0.0,0.0,2.5763369963369964
7.082857536999654,0.0,0.0,2.5763369963369964
7.088092730002245,0.0,0.0,2.5763369963369964
7.090499312002066,0.0,0.024175824175824173,2.5755311355311354
7.09065158500016,0.0,0.024175824175824173,2.5755311355311354
7.095758138999372,0.0,0.024175824175824173,2.5755311355311354
7.098815270001069,0.0,0.024175824175824173,2.5755311355311354
7.101093313001911,0.0,0.024175824175824173,2.5755311355311354
7.101988326001447,0.0,0.024175824175824173,2.5755311355311354
7.103496766001626,0.0,0.024175824175824173,2.5755311355311354
7.107808185999602,0.0,0.024175824175824173,2.5755311355311354
7.109308352002699,0.0,0.024175824175824173,2.5755311355311354
7.114550050999242,0.0,0.024175824175824173,2.5755311355311354
7.116732690999925,0.0,0.024175824175824173,2.5755311355311354
7.117050074000872,0.0,0.024175824175824173,2.5755311355311354
7.126173529002699,0.0,0.024175824175824173,2.5755311355311354
7.133906433002267,0.0,0.0008058608058608059,0.0008058608058608059
7.1391180909995455,0.0,0.0008058608058608059,0.0008058608058608059
7.141947186002653,0.0,0.0008058608058608059,0.0008058608058608059
7.144783473999269,0.0,0.0008058608058608059,0.0008058608058608059
7.146398283002782,0.0,0.0008058608058608059,0.0008058608058608059
7.1508089269991615,0.0,0.0008058608058608059,0.0008058608058608059
7.1511009669993655,0.0,0.0024175824175824176,2.5755311355311354
7.160054282001511,0.0,0.0024175824175824176,2.5755311355311354
7.166756606002309,0.0,0.0024175824175824176,2.5755311355311354
7.171483493999403,0.0,0.0,0.03868131868131868
7.178576148002321,0.0,0.0,0.03868131868131868
7.185621728000115,0.0,0.0,0.03868131868131868
7.192535548001615,0.0,0.0,0.03868131868131868
7.198559152002417,0.0,0.0,0.03868131868131868
7.202218423000886,0.0,0.0,0.3223443223443223
7.202304001002631,0.0,0.0,0.02498168498168498
7.207389725001121,0.0,0.0,0.02498168498168498
7.211159469999984,0.0,0.0,0.02498168498168498
7.215522341000906,0.0,0.0,0.02498168498168498
7.217007087001548,0.0,0.0,0.02498168498168498
7.221421362999536,0.0,0.0,0.02498168498168498
7.222295482002664,0.0,0.012893772893772894,0.0024175824175824176
7.223829069000203,0.0,0.012893772893772894,0.0024175824175824176
7.227661636999983,0.0,0.012893772893772894,0.0024175824175824176
7.232331282000814,0.0,0.012893772893772894,0.0024175824175824176
7.232435125002667,0.0,0.012893772893772894,0.0024175824175824176
7.238347238999268,0.0,0.012893772893772894,0.0024175824175824176
7.248420408999664,0.0,0.012893772893772894,0.0024175824175824176
7.2560712279992,0.0,0.012893772893772894,0.0024175824175824176
7.261320061999868,0.0,0.014505494505494505,3.3
7.263765373001661,0.0,0.014505494505494505,3.3
7.269401073001063,0.0,0.008058608058608058,0.004029304029304029
7.269592376000219,0.0,0.008058608058608058,0.004029304029304029
7.275107781999395,0.0,0.008058608058608058,0.004029304029304029
7.275283570001193,0.0,0.008058608058608058,0.004029304029304029
7.280737345001398,0.0,0.008058608058608058,0.11443223443223444
7.282213258000411,0.0,0.0016117216117216117,0.025787545787545788
7.286488241999905,0.0,0.0016117216117216117,0.025787545787545788
7.288807994002127,0.0,0.0016117216117216117,0.025787545787545788
7.289033271001244,0.0,0.0016117216117216117,0.025787545787545788
7.294242897001823,0.0,0.0016117216117216117,0.025787545787545788
7.296503923000273,0.0,0.0016117216117216117,0.025787545787545788
7.2966405090010085,0.0,0.0016117216117216117,0.025787545787545788
7.301885643999412,0.0,0.0016117216117216117,0.025787545787545788
7.303575377001835,0.0,0.01934065934065934,0.016923076923076923
7.306592052002088,0.0,0.016117216117216115,0.02095238095238095
7.30984843600163,0.0,0.016117216117216115,0.02095238095238095
7.310667191999528,0.0,0.016117216117216115,0.02095238095238095
7.312216636000812,0.0,0.016117216117216115,0.02095238095238095
7.316715365999698,0.0,0.016117216117216115,0.02095238095238095
7.317046020001726,0.0,0.016117216117216115,0.02095238095238095
7.322163820001151,0.0,0.0,0.0547985347985348
7.32652245600184,0.0,0.0,0.06366300366300366
7.327309868000157,0.0,0.0,0.06366300366300366
7.328844563999155,0.0,0.0,0.06366300366300366
7.3332323800023005,0.0,0.0008058608058608059,3.3
7.335446025001147,0.0,0.0008058608058608059,3.3
7.336258903000271,0.0,0.0008058608058608059,3.3
7.33844106000106,0.0,0.0008058608058608059,3.3
7.338669767999818,0.0,0.0008058608058608059,3.3
7.343795148000936,0.0,0.0008058608058608059,3.3
7.34749876999922,0.0,0.0008058608058608059,3.3
7.352717566001957,0.0,0.0008058608058608059,3.3
7.355805029001203,0.0,0.00967032967032967,2.5755311355311354
7.357420065000042,0.0,0.0,0.23531135531135527
7.361486539000907,0.0,0.0,0.23531135531135527
7.364952856001764,0.0,0.022564102564102562,0.04996336996336996
7.365746578001563,0.0,0.022564102564102562,0.04996336996336996
7.367194784001185,0.0,0.022564102564102562,0.04996336996336996
7.367276083001343,0.0,0.022564102564102562,0.04996336996336996
7.374809249002283,0.0,0.022564102564102562,0.04996336996336996
7.381750814001862,0.0,0.022564102564102562,0.04996336996336996
7.389010456001415,0.0,0.0024175824175824176,0.026593406593406595
7.396051405001344,0.0,0.0024175824175824176,0.026593406593406595
7.400581043002603,0.0,0.0024175824175824176,0.026593406593406595
7.4007668100020965,0.0,0.010476190476190476,0.0
7.406032431001222,0.0,0.010476190476190476,0.0
7.40961027999947,0.0,0.010476190476190476,0.0
7.4097116670018295,0.0,0.010476190476190476,0.0
7.41485078900223,0.0,0.011282051282051281,2.6673992673992672
7.418574220002483,0.0,0.012893772893772894,0.2683516483516483
7.422888609002257,0.0,0.0032234432234432234,0.0
7.424524836002092,0.0,0.0032234432234432234,0.0
7.428231894002238,0.0,0.0032234432234432234,0.0
7.433622324002499,0.0,0.0032234432234432234,0.0
7.436500020001404,0.0,0.0032234432234432234,0.0
7.43859003200123,0.0,0.0032234432234432234,0.0
7.439404360000481,0.0,0.0032234432234432234,0.0
7.440940055999818,0.0,0.0032234432234432234,0.0
7.446151219999592,0.0,0.0032234432234432234,0.0
7.449394424002094,0.0,0.0032234432234432234,0.0
7.450491034000152,0.0,0.0032234432234432234,0.0
7.450688422999519,0.0,0.0032234432234432234,0.0
7.456028124001023,0.0,0.0032234432234432234,0.0
7.459058966000157,0.0,0.018534798534798533,0.07655677655677656
7.4605460750026396,0.0,0.018534798534798533,0.07655677655677656
7.465036501002032,0.0,0.018534798534798533,0.07655677655677656
7.465856562001136,0.0,0.018534798534798533,0.07655677655677656
7.467462716002046,0.0,0.018534798534798533,0.07655677655677656
7.472151221001695,0.0,0.018534798534798533,0.07655677655677656
7.472346892001951,0.0,0.018534798534798533,0.07655677655677656
7.477702419000707,0.0,0.018534798534798533,0.07655677655677656
7.480056898002658,0.0,0.018534798534798533,0.07655677655677656
7.480232018002425,0.0,0.018534798534798533,0.07655677655677656
7.486313012999744,0.0,0.018534798534798533,0.07655677655677656
7.492881501002557,0.0,0.018534798534798533,0.07655677655677656
7.498635764000937,0.0,0.018534798534798533,0.07655677655677656
7.509046598999703,0.0,0.018534798534798533,0.07655677655677656
7.517580774001544,0.0,0.018534798534798533,0.07655677655677656
7.5236666570017405,0.0,0.018534798534798533,0.07655677655677656
7.52886919500088,0.0,0.018534798534798533,0.07655677655677656
7.5317919660010375,0.0,0.010476190476190476,2.5642490842490844
7.533270927000558,0.0,0.010476190476190476,2.5642490842490844
7.541489965002256,0.0,0.010476190476190476,2.5642490842490844
7.548729252001067,0.0,0.012087912087912087,0.014505494505494505
7.552822472000116,0.0,0.012087912087912087,0.014505494505494505
7.555970663001062,0.0,0.012087912087912087,0.014505494505494505
7.55835425800251,0.0,0.012087912087912087,0.014505494505494505
7.558479855000769,0.0,0.012087912087912087,0.014505494505494505
7.563827677000518,0.0,0.012087912087912087,0.014505494505494505
7.566143717001978,0.0,0.0,0.008058608058608058
7.5663152920024,0.0,0.0,0.03142857142857143
7.571399726999516,0.0,0.0,0.03142857142857143
7.575186676000158,0.0,0.0,0.03142857142857143
7.579521544001182,0.0,0.0,0.03142857142857143
7.581019881999964,0.0,0.0,0.03142857142857143
7.5855639389992575,0.0,0.007252747252747252,0.014505494505494505
7.591265184000804,0.0,0.007252747252747252,0.014505494505494505
7.591460512001504,0.0,0.01531135531135531,2.5763369963369964
7.59936203700272,0.0,0.01531135531135531,2.5763369963369964
7.60558130100253,0.0,0.0,0.02175824175824176
7.609575976999622,0.0,0.0,0.02175824175824176
7.613391160000901,0.0,0.0,0.02175824175824176
7.618160846999672,0.0,0.0,0.02175824175824176
7.624255140002788,0.0,0.007252747252747252,0.01934065934065934
7.628205674001947,0.0,0.007252747252747252,0.01934065934065934
7.632900037999207,0.0,0.007252747252747252,0.01934065934065934
7.637801347002096,0.0,0.007252747252747252,0.01934065934065934
7.641281421001622,0.0,0.007252747252747252,0.01934065934065934
7.650185582999256,0.0,0.007252747252747252,0.01934065934065934
7.6549474080020445,0.0,0.007252747252747252,0.01934065934065934
7.659048077999614,0.0,0.007252747252747252,0.01934065934065934
7.661225686002581,0.0,0.007252747252747252,0.01934065934065934
7.662607056001434,0.0,0.007252747252747252,0.01934065934065934
7.667483295001148,0.0,0.007252747252747252,0.01934065934065934
7.672840098999586,0.0,0.007252747252747252,0.01934065934065934
7.6754671599992434,0.0,0.007252747252747252,0.01934065934065934
7.680007568000292,0.0,0.007252747252747252,0.01934065934065934
7.680144754001958,0.0,0.007252747252747252,0.01934065934065934
7.6853726059998735,0.0,0.007252747252747252,0.01934065934065934
7.688520615000016,0.0,0.007252747252747252,0.01934065934065934
7.689300129000912,0.0,0.007252747252747252,0.01934065934065934
7.690846304001752,0.0,0.007252747252747252,0.01934065934065934
7.6946291950007435,0.0,0.007252747252747252,0.01934065934065934
7.699105011000938,0.0,0.007252747252747252,0.01934065934065934
7.699894960001984,0.0,0.007252747252747252,0.01934065934065934
7.701580109001952,0.0,0.007252747252747252,0.01934065934065934
7.704686634999234,0.0,0.0,0.008864468864468863
7.706954282002698,0.0,0.010476190476190476,0.017728937728937726
7.7072068480010785,0.0,0.010476190476190476,0.017728937728937726
7.712440773000708,0.0,0.010476190476190476,0.017728937728937726
7.715603864002333,0.0,0.010476190476190476,0.017728937728937726
7.716471971001738,0.0,0.010476190476190476,0.017728937728937726
7.718039349001629,0.0,0.010476190476190476,0.017728937728937726
7.721815918001084,0.0,0.014505494505494505,0.0547985347985348
7.727074654001626,0.0,0.014505494505494505,0.0547985347985348
7.729248840001674,0.0,0.0016117216117216117,0.0846153846153846
7.730048366000119,0.0,0.0016117216117216117,0.0846153846153846
7.732251780002116,0.0,0.0016117216117216117,0.0846153846153846
7.733104990002175,0.0,0.0016117216117216117,0.0846153846153846
7.735311364001973,0.0,0.0016117216117216117,0.0846153846153846
7.735566167000798,0.0,0.0016117216117216117,0.0846153846153846
7.740618574000109,0.0,0.0016117216117216117,0.0846153846153846
7.74584735100143,0.0,0.0016117216117216117,0.0846153846153846
7.748162495001452,0.0,0.0016117216117216117,0.0846153846153846
7.748968145002436,0.0,0.0016117216117216117,0.0846153846153846
7.7514066959993215,0.0,0.0016117216117216117,0.0846153846153846
7.7559100660000695,0.0,0.0016117216117216117,0.0846153846153846
7.756212414002221,0.0,0.012087912087912087,0.7615384615384615
7.761496639999677,0.0,0.012087912087912087,0.7615384615384615
7.76382107000245,0.0,0.012087912087912087,0.7615384615384615
7.763955616999738,0.0,0.012087912087912087,0.7615384615384615
7.769541611000022,0.0,0.012087912087912087,0.7615384615384615
7.769749947001401,0.0,0.012087912087912087,0.7615384615384615
7.774831372000335,0.0,0.012087912087912087,0.7615384615384615
7.778509752002719,0.0,0.012087912087912087,0.7615384615384615
7.783179713002028,0.0,0.012087912087912087,0.7615384615384615
7.783340707999741,0.0,0.012087912087912087,0.7615384615384615
7.788013339999452,0.0,0.012087912087912087,0.7615384615384615
7.7881164669997816,0.0,0.012087912087912087,0.7615384615384615
7.792822212999454,0.0,0.012087912087912087,0.7615384615384615
7.792929527000524,0.0,0.012087912087912087,0.7615384615384615
7.797811921001994,0.0,0.012087912087912087,0.7615384615384615
7.801900556001783,0.0,0.012087912087912087,0.7615384615384615
7.805344265001622,0.0,0.012087912087912087,0.7615384615384615
7.806163359000493,0.0,0.012087912087912087,0.7615384615384615
7.8083208720017865,0.0,0.012087912087912087,0.7615384615384615
7.8090536480012815,0.0,0.012087912087912087,0.7615384615384615
7.811209523999423,0.0,0.012087912087912087,0.7615384615384615
7.811993765000807,0.0,0.012087912087912087,0.7615384615384615
7.8140257300001394,0.0,0.012087912087912087,0.7615384615384615
7.8160305519995745,0.0,0.012087912087912087,0.7615384615384615
7.816838298000221,0.0,0.012087912087912087,0.7615384615384615
7.818864120999933,0.0,0.012087912087912087,0.7615384615384615
7.8203257090026455,0.0,0.012087912087912087,0.7615384615384615
7.825018039002316,0.0,0.012087912087912087,0.7615384615384615
7.825156421000429,0.0,0.012087912087912087,0.7615384615384615
7.829761487999349,0.0,0.012087912087912087,0.7615384615384615
7.829969367001468,0.0,0.010476190476190476,2.6230769230769226
7.834645975999592,0.0,0.010476190476190476,2.6230769230769226
7.8349039210006595,0.0,0.010476190476190476,2.6230769230769226
7.8395431530007045,0.0,0.010476190476190476,2.6230769230769226
7.839746047000517,0.0,0.014505494505494505,0.02901098901098901
7.844458007002686,0.0,0.014505494505494505,0.02901098901098901
7.8446386989999155,0.0,0.014505494505494505,0.02901098901098901
7.849283744999411,0.0,0.014505494505494505,0.02901098901098901
7.849542104999273,0.0,0.014505494505494505,0.02901098901098901
7.854558078000991,0.0,0.014505494505494505,0.02901098901098901
7.859161322001455,0.0,0.014505494505494505,0.02901098901098901
7.859947392000322,0.0,0.014505494505494505,0.02901098901098901
7.862340026000311,0.0,0.014505494505494505,0.02901098901098901
7.867514795001625,0.0,0.004029304029304029,0.0016117216117216117
7.870525247002661,0.0,0.004029304029304029,0.0016117216117216117
7.873404384001333,0.0,0.004029304029304029,0.0016117216117216117
7.876448193001124,0.0,0.024175824175824173,0.4198534798534798
7.878030307001609,0.0,0.024175824175824173,0.4198534798534798
7.882490462001442,0.0,0.024175824175824173,0.4198534798534798
7.883315813000081,0.0,0.024175824175824173,0.4198534798534798
7.885643178000464,0.0,0.024175824175824173,0.4198534798534798
7.885801197000546,0.0,0.024175824175824173,0.4198534798534798
7.890865774999838,0.0,0.024175824175824173,0.4198534798534798
7.894690293000167,0.0,0.024175824175824173,0.4198534798534798
7.898399502002576,0.0,0.016923076923076923,0.051575091575091575
