time,emg1,emg2,emg3
0.03500492500097607,0.0,0.016117216117216115,0.017728937728937726
0.035303013002703665,0.0,0.01934065934065934,0.028205128205128206
0.04582143500010716,0.0,0.01934065934065934,0.028205128205128206
0.05309729900181992,0.0,0.007252747252747252,0.13619047619047617
0.05973570300193387,0.0,0.007252747252747252,0.13619047619047617
0.06659466299970518,0.0,0.007252747252747252,0.13619047619047617
0.07332873800260131,0.0,0.007252747252747252,0.13619047619047617
0.0776671029998397,0.0,0.0,1.6093040293040293
0.07944358000167995,0.0,0.0,1.6093040293040293
0.08210695500019938,0.0,0.0,1.6093040293040293
0.08638479500223184,0.0,0.0,1.6093040293040293
0.08737994900002377,0.0,0.0,1.6093040293040293
0.08836478800003533,0.0,0.0,1.6093040293040293
0.08937266300199553,0.0,0.0,1.6093040293040293
0.09033843600263936,0.0,0.0,1.6093040293040293
0.09063661199979833,0.0,0.0,1.6093040293040293
0.09924917399985134,0.0,0.0,1.6093040293040293
0.10773569400043925,0.0,0.0,1.6093040293040293
0.11503159900166793,0.0,0.0,1.6093040293040293
0.11925684400193859,0.0,0.0,1.6093040293040293
0.12017834899961599,0.0,0.0,0.0
0.12178200299968012,0.0,0.0,0.0
0.12574279000182287,0.0,0.0,0.0
0.12960093100264203,0.0,0.016117216117216115,0.007252747252747252
0.13267375100258505,0.0,0.016117216117216115,0.007252747252747252
0.13427263500125264,0.0,0.016117216117216115,0.007252747252747252
0.1400511230021948,0.0,0.016117216117216115,0.007252747252747252
0.148753700999805,0.0,0.016117216117216115,0.007252747252747252
0.15577966400087462,0.0,0.016117216117216115,0.007252747252747252
0.1588308810023591,0.0,0.0,1.3441758241758242
0.16120323300128803,0.0,0.0,1.3441758241758242
0.16136610400280915,0.0,0.0,1.3441758241758242
0.16689896500247414,0.0,0.0,1.3441758241758242
0.16845535100219422,0.0,0.0,1.3441758241758242
0.17291083700183663,0.0,0.0,1.3441758241758242
0.17316836100144428,0.0,0.0,1.3441758241758242
0.17844446399976732,0.0,0.0,1.3441758241758242
0.18138985900077387,0.0,0.0,0.0
0.18300317200191785,0.0,0.0,0.0
0.18671204299971578,0.0,0.0,0.0
0.19111181200059946,0.0,0.0,0.0
0.19194638800036046,0.0,0.0,0.0
0.1943736760003958,0.0,0.0,0.0
0.1944906400021864,0.0,0.0,0.0
0.19973191800090717,0.0,0.0,0.0
0.20278767900163075,0.0,0.0,0.0
0.20627263400092488,0.0,0.0,0.0
0.20649112799947034,0.0,0.0,0.0
0.21179079099965747,0.0,0.0,0.0
0.213424057001248,0.0,0.0273992673992674,0.024175824175824173
0.2175338830020337,0.0,0.0273992673992674,0.024175824175824173
0.22045263800100656,0.0,0.0273992673992674,0.024175824175824173
0.22384779899948626,0.0,0.0273992673992674,0.024175824175824173
0.23387793800065992,0.0,0.0273992673992674,0.024175824175824173
0.23999626099976012,0.0,0.0016117216117216117,0.0
0.2481672840003739,0.0,0.02175824175824176,0.03868131868131868
0.25512593100211234,0.0,0.0136996336996337,0.0273992673992674
0.26220216900037485,0.0,0.0136996336996337,0.0273992673992674
0.26583817600112525,0.0,0.0136996336996337,0.0273992673992674
0.26606984700265457,0.0,0.0136996336996337,0.0273992673992674
0.2706817840007716,0.0,0.016117216117216115,0.0
0.2709145720000379,0.0,0.033846153846153845,0.03142857142857143
0.27723787700233515,0.0,0.033846153846153845,0.03142857142857143
0.28094978499939316,0.0,0.012893772893772894,0.8195604395604396
0.28550787300264346,0.0,0.012893772893772894,0.8195604395604396
0.2863106410004548,0.0,0.012893772893772894,0.8195604395604396
0.28788704900216544,0.0,0.012893772893772894,0.8195604395604396
0.293614804999379,0.0,0.012893772893772894,0.8195604395604396
0.2997131289994286,0.0,0.004029304029304029,3.3
0.3058468300005188,0.0,0.03142857142857143,0.14989010989010987
0.31258161200094037,0.0,0.03142857142857143,0.14989010989010987
0.31599931700111483,0.0,0.03142857142857143,0.14989010989010987
0.31623723799930303,0.0,0.03142857142857143,0.14989010989010987
0.32133492499997374,0.0,0.03142857142857143,0.14989010989010987
0.3263364360027481,0.0,0.03142857142857143,0.14989010989010987
0.33070040000166046,0.0,0.03142857142857143,0.14989010989010987
0.3309023200017691,0.0,0.00967032967032967,0.0
0.3394619730024715,0.0,0.00967032967032967,0.0
0.34539687600045,0.0,0.00967032967032967,0.0
0.34858535500097787,0.0,0.0,0.03626373626373627
0.3510417880024761,0.0,0.007252747252747252,0.014505494505494505
0.35566391800239217,0.0,0.007252747252747252,0.014505494505494505
0.3559275810002873,0.0,0.007252747252747252,0.014505494505494505
0.36440284399941447,0.0,0.007252747252747252,0.014505494505494505
0.3715982659996371,0.0,0.014505494505494505,0.0
0.38053682400277467,0.0,0.014505494505494505,0.0
0.3867990149992693,0.0,0.014505494505494505,0.0
0.3908234629998333,0.0,0.01934065934065934,0.0136996336996337
0.39490416899934644,0.0,0.01934065934065934,0.0136996336996337
0.39674519099935424,0.0,0.01934065934065934,0.0136996336996337
0.3991621280001709,0.0,0.01934065934065934,0.0136996336996337
0.40475257400248665,0.0,0.017728937728937726,0.0016117216117216117
0.4049533200013684,0.0,0.012893772893772894,0.0
0.41308782000123756,0.0,0.012893772893772894,0.0
0.4179177330006496,0.0,0.012893772893772894,0.0
0.41799446000004536,0.0,0.012893772893772894,0.0
0.42374727000060375,0.0,0.012893772893772894,0.0
0.42393477400037227,0.0,0.016117216117216115,0.020146520146520144
0.4298183280006924,0.0,0.016117216117216115,0.020146520146520144
0.43305108300046413,0.0,0.016117216117216115,0.020146520146520144
0.43390972099950886,0.0,0.016117216117216115,0.020146520146520144
0.4358228430028248,0.0,0.016117216117216115,0.020146520146520144
0.4382300440011022,0.0,0.016117216117216115,0.020146520146520144
0.4384527399997751,0.0,0.016117216117216115,0.020146520146520144
0.44716548600263195,0.0,0.016117216117216115,0.020146520146520144
0.45204620200092904,0.0,0.0,0.0
0.45628853000016534,0.0,0.0,0.0
0.45801687000130187,0.0,0.0,0.0
0.4640261210006429,0.0,0.0,0.0
0.4681891319996794,0.0,0.0,0.0
0.47053808700002264,0.0,0.0,0.0
0.4706714730018575,0.0,0.0,0.0
0.47778953300075955,0.0,0.0,0.0
0.48334573700049077,0.0,0.0,0.0
0.48916872200061334,0.0,0.0,0.0
0.4893503810017137,0.0,0.0,0.0
0.4969502750027459,0.0,0.0,0.0
0.5018303260003449,0.0,0.0,0.0
0.5056437050006934,0.0,0.02095238095238095,0.016923076923076923
0.5113178770006925,0.0,0.02095238095238095,0.016923076923076923
0.5174271390023932,0.0,0.02095238095238095,0.016923076923076923
0.5205397950012411,0.0,0.016923076923076923,0.11926739926739927
0.5229567999995197,0.0,0.016923076923076923,0.11926739926739927
0.5328608390009322,0.0,0.016923076923076923,0.11926739926739927
0.5408002860021952,0.0,0.016923076923076923,0.11926739926739927
0.5465919359994587,0.0,0.016923076923076923,0.11926739926739927
0.5510945410023851,0.0,0.016923076923076923,0.11926739926739927
0.5519388880020415,0.0,0.016923076923076923,0.11926739926739927
0.5536358130011649,0.0,0.016923076923076923,0.11926739926739927
0.558625296001992,0.0,0.016923076923076923,0.11926739926739927
0.5627222200018878,0.0,0.016923076923076923,0.11926739926739927
0.5643273669993505,0.0,0.016923076923076923,0.11926739926739927
0.5682017729996005,0.0,0.0008058608058608059,0.004029304029304029
0.5727466000025743,0.0,0.0008058608058608059,0.004029304029304029
0.582930636999663,0.0,0.029816849816849816,0.024175824175824173
0.5887534989997221,0.0,0.029816849816849816,0.024175824175824173
0.5968759360002878,0.0,0.029816849816849816,0.024175824175824173
0.6025500300020212,0.0,0.0,2.4167765567765565
0.6027587610005867,0.0,0.0136996336996337,0.10073260073260072
0.6099481000019296,0.0,0.0136996336996337,0.10073260073260072
0.6157406660022389,0.0,0.010476190476190476,0.0024175824175824176
0.620297560999461,0.0,0.010476190476190476,0.0024175824175824176
0.6204977160014096,0.0,0.010476190476190476,0.0024175824175824176
0.6284539879998192,0.0,0.010476190476190476,0.0024175824175824176
0.6332003850002366,0.0,0.010476190476190476,0.0024175824175824176
0.6333267720001459,0.0,0.0,2.5642490842490844
0.6387068040021404,0.0,0.0,2.5642490842490844
0.6422584080028173,0.0,0.008058608058608058,2.8986813186813185
0.6495915190025698,0.0,0.0136996336996337,0.01934065934065934
0.6545992930005013,0.0,0.0136996336996337,0.01934065934065934
0.6604928140004631,0.0,0.016117216117216115,3.3
0.6655199600027117,0.0,0.016117216117216115,3.3
0.6671561229995859,0.0,0.016117216117216115,3.3
0.6708992220010259,0.0,0.016117216117216115,3.3
0.6791406080010347,0.0,0.016117216117216115,3.3
0.6847599819993775,0.0,0.016117216117216115,3.3
0.6848692439998558,0.0,0.016117216117216115,3.3
0.6902998950026813,0.0,0.016117216117216115,3.3
0.6928546290000668,0.0,0.016117216117216115,3.3
0.6978340030000254,0.0,0.016117216117216115,3.3
0.7015125409998291,0.0,0.016117216117216115,3.3
0.7059683389998099,0.0,0.016117216117216115,3.3
0.7068985270016128,0.0,0.016117216117216115,3.3
0.7083246490001329,0.0,0.016117216117216115,3.3
0.7174830090007163,0.0,0.016117216117216115,3.3
0.7241831100000127,0.0,0.016117216117216115,3.3
0.7312786469992716,0.0,0.010476190476190476,0.012893772893772894
0.735950985999807,0.0,0.0,0.0
0.7439365150021331,0.0,0.005641025641025641,0.3304029304029304
0.7478669680021994,0.0,0.016117216117216115,0.011282051282051281
0.7511414740001783,0.0,0.016117216117216115,0.011282051282051281
0.7520405300019775,0.0,0.016117216117216115,0.011282051282051281
0.7530883050021657,0.0,0.016117216117216115,0.011282051282051281
0.753315919002489,0.0,0.016117216117216115,0.011282051282051281
0.7613108940022357,0.0,0.016117216117216115,0.011282051282051281
0.7679178600010346,0.0,0.0008058608058608059,0.5004395604395604
0.7731215380008507,0.0,0.0008058608058608059,0.5004395604395604
0.774777451002592,0.0,0.0008058608058608059,0.5004395604395604
0.7810171500022989,0.0,0.0008058608058608059,0.5004395604395604
0.7857204100000672,0.0,0.0008058608058608059,0.5004395604395604
0.7919208700004674,0.0,0.0008058608058608059,0.5004395604395604
0.7963222720027261,0.0,0.0008058608058608059,0.5004395604395604
0.8020664420000685,0.0,0.0008058608058608059,0.5004395604395604
0.8021701880024921,0.0,0.0008058608058608059,0.5004395604395604
0.8094682219998504,0.0,0.0008058608058608059,0.5004395604395604
0.8136780669992731,0.0,0.010476190476190476,0.0016117216117216117
0.8145718400010082,0.0,0.010476190476190476,0.0016117216117216117
0.8169266910008446,0.0,0.010476190476190476,0.0016117216117216117
0.8169992319999437,0.0,0.010476190476190476,0.0016117216117216117
0.8241568859994004,0.0,0.010476190476190476,0.0016117216117216117
0.8307706779996806,0.0,0.0024175824175824176,0.02095238095238095
0.8359831100024167,0.0,0.0,0.0419047619047619
0.8387726770015433,0.0,0.0,0.0419047619047619
0.8417873690013948,0.0,0.0,0.0419047619047619
0.8437691680010175,0.0,0.047545787545787546,0.014505494505494505
0.8454381270021258,0.0,0.047545787545787546,0.014505494505494505
0.8486070550025033,0.0,0.004029304029304029,0.016117216117216115
0.8494738459994551,0.0,0.004029304029304029,0.016117216117216115
0.8511195329992916,0.0,0.012087912087912087,0.010476190476190476
0.8562640180025483,0.0,0.008864468864468863,0.9936263736263735
0.8600524800021958,0.0,0.008864468864468863,0.9936263736263735
0.864264734002063,0.0,0.008864468864468863,0.9936263736263735
0.8652440590012702,0.0,0.008864468864468863,0.9936263736263735
0.8662976859995979,0.0,0.008864468864468863,0.9936263736263735
0.8671871970000211,0.0,0.008864468864468863,0.9936263736263735
0.8688621170003898,0.0,0.008864468864468863,0.9936263736263735
0.8728177939992747,0.0,0.008864468864468863,0.9936263736263735
0.876870902000519,0.0,0.010476190476190476,2.54974358974359
0.8788603339999099,0.0,0.010476190476190476,2.54974358974359
0.8798737850011094,0.0,0.016117216117216115,0.253040293040293
0.8807641250023153,0.0,0.016117216117216115,0.253040293040293
0.8823645090014907,0.0,0.0,0.017728937728937726
0.8870263540011365,0.0,0.0,0.017728937728937726
0.8954384640019271,0.0,0.0,0.017728937728937726
0.8997530710003048,0.0,0.012893772893772894,3.1090109890109887
0.9006839400026365,0.0,0.012893772893772894,3.1090109890109887
0.9023339140003372,0.0,0.012893772893772894,3.1090109890109887
0.9063774829992326,0.0,0.012893772893772894,3.1090109890109887
0.9118151729999227,0.0,0.006446886446886447,0.006446886446886447
0.9120216369992704,0.0,0.006446886446886447,0.006446886446886447
0.9174261760017544,0.0,0.006446886446886447,0.006446886446886447
0.9198195429999032,0.0,0.011282051282051281,0.18454212454212454
0.920015316001809,0.0,0.011282051282051281,0.18454212454212454
0.9281674510020821,0.0,0.011282051282051281,0.18454212454212454
0.9321977639992838,0.0,0.011282051282051281,0.18454212454212454
0.9354214430022694,0.0,0.011282051282051281,0.18454212454212454
0.9378181899992342,0.0,0.011282051282051281,0.18454212454212454
0.9456604260012682,0.0,0.011282051282051281,0.18454212454212454
0.9496681800010265,0.0,0.011282051282051281,0.18454212454212454
0.9526706480028224,0.0,0.011282051282051281,0.18454212454212454
0.9558017599993036,0.0,0.011282051282051281,0.18454212454212454
0.9581509420022485,0.0,0.011282051282051281,0.18454212454212454
0.9583067210005538,0.0,0.011282051282051281,0.18454212454212454
0.9640862490014115,0.0,0.011282051282051281,0.18454212454212454
0.9695336030017643,0.0,0.011282051282051281,0.18454212454212454
0.9704222770014894,0.0,0.011282051282051281,0.18454212454212454
0.9719322480013943,0.0,0.011282051282051281,0.18454212454212454
0.9780855640019581,0.0,0.011282051282051281,0.18454212454212454
0.9812819140024658,0.0,0.011282051282051281,0.18454212454212454
0.9829212950025976,0.0,0.011282051282051281,0.18454212454212454
0.9867824499997369,0.0,0.011282051282051281,0.18454212454212454
0.9920907080013421,0.0,0.014505494505494505,0.0
0.9945277879996866,0.0,0.014505494505494505,0.0
1.0000941159996728,0.0,0.014505494505494505,0.0
1.000228965000133,0.0,0.014505494505494505,0.0
1.0056977029998961,0.0,0.014505494505494505,0.0
1.0097744820013759,0.0,0.006446886446886447,0.0
1.0109362790026353,0.0,0.006446886446886447,0.0
1.0110219929993036,0.0,0.006446886446886447,0.0
1.016717251000955,0.0,0.006446886446886447,0.0
1.0221540570018988,0.0,0.006446886446886447,0.0
1.0230540680022386,0.0,0.006446886446886447,0.0
1.0258019610009796,0.0,0.006446886446886447,0.0
1.0295037260002573,0.0,0.006446886446886447,0.0
1.0349534880006104,0.0,0.006446886446886447,0.0
1.03649511200274,0.0,0.006446886446886447,0.0
1.0442708680020587,0.0,0.006446886446886447,0.0
1.047900658002618,0.0,0.006446886446886447,0.0
1.0479996320027567,0.0,0.006446886446886447,0.0
1.0534655150004255,0.0,0.006446886446886447,0.0
1.0550276400026632,0.0,0.012087912087912087,0.05721611721611722
1.0612817010005529,0.0,0.012087912087912087,0.05721611721611722
1.0645678889995907,0.0,0.0032234432234432234,0.0
1.0661802780014114,0.0,0.0032234432234432234,0.0
1.0693527770017681,0.0,0.0032234432234432234,0.0
1.070240630000626,0.0,0.0032234432234432234,0.0
1.071735453002475,0.0,0.0032234432234432234,0.0
1.0791585730003135,0.0,0.0032234432234432234,0.0
1.084307937999256,0.0,0.0032234432234432234,0.0
1.0883561869995901,0.0,0.017728937728937726,0.029816849816849816
1.0914678709996224,0.0,0.017728937728937726,0.029816849816849816
1.0927338030014653,0.0,0.017728937728937726,0.029816849816849816
1.0929447109992907,0.0,0.017728937728937726,0.029816849816849816
1.0982016289999592,0.0,0.017728937728937726,0.029816849816849816
1.1000496340020618,0.0,0.017728937728937726,0.029816849816849816
1.101776832001633,0.0,0.017728937728937726,0.029816849816849816
1.1057250820012996,0.0,0.017728937728937726,0.029816849816849816
1.109129407999717,0.0,0.017728937728937726,0.029816849816849816
1.1093658300014795,0.0,0.017728937728937726,0.029816849816849816
1.1150172480010951,0.0,0.017728937728937726,0.029816849816849816
1.1151320410026528,0.0,0.01531135531135531,0.047545787545787546
1.1199569100026565,0.0,0.01531135531135531,0.047545787545787546
1.1201252840000961,0.0,0.01531135531135531,0.047545787545787546
1.1252807580021909,0.0,0.01531135531135531,0.047545787545787546
1.128209151000192,0.0,0.01531135531135531,0.047545787545787546
1.130993793001835,0.0,0.011282051282051281,0.014505494505494505
1.1344425000024785,0.0,0.011282051282051281,0.014505494505494505
1.1346064659992408,0.0,0.011282051282051281,0.014505494505494505
1.139831894000963,0.0,0.011282051282051281,0.014505494505494505
1.1420715280000877,0.0,0.010476190476190476,0.0
1.1423258450013236,0.0,0.010476190476190476,0.0
1.1475432900006126,0.0,0.010476190476190476,0.0
1.1503684740018798,0.0,0.010476190476190476,0.0
1.1538580740016187,0.0,0.010476190476190476,0.0
1.1541003880010976,0.0,0.010476190476190476,0.0
1.158954561000428,0.0,0.010476190476190476,0.0
1.1591308770002797,0.0,0.010476190476190476,0.0
1.1664163269997516,0.0,0.008058608058608058,0.0
1.1715840360011498,0.0,0.008058608058608058,0.0
1.1730280770025274,0.0,0.008058608058608058,0.0
1.1798558900009084,0.0,0.011282051282051281,0.614065934065934
1.1836487500004296,0.0,0.011282051282051281,0.614065934065934
1.1873958310025046,0.0,0.011282051282051281,0.614065934065934
1.1960178400004224,0.0,0.011282051282051281,0.614065934065934
1.199841349000053,0.0,0.011282051282051281,0.614065934065934
1.2044518149996293,0.0,0.011282051282051281,0.614065934065934
1.204702464001457,0.0,0.025787545787545788,0.004835164835164835
1.2114028400028474,0.0,0.025787545787545788,0.004835164835164835
1.2153265020024264,0.0,0.025787545787545788,0.004835164835164835
1.219529763002356,0.0,0.02095238095238095,0.8469597069597068
1.221940278999682,0.0,0.02095238095238095,0.8469597069597068
1.2276136960026633,0.0,0.02095238095238095,0.8469597069597068
1.2278283840023505,0.0,0.02095238095238095,0.8469597069597068
1.2330899290027446,0.0,0.02095238095238095,0.8469597069597068
1.2365501780004706,0.0,0.02095238095238095,0.8469597069597068
1.2367238410006394,0.0,0.02095238095238095,0.8469597069597068
1.2422907410000334,0.0,0.016923076923076923,0.048351648351648346
1.2425720550018013,0.0,0.016923076923076923,0.048351648351648346
1.2477870239999902,0.0,0.016923076923076923,0.048351648351648346
1.2502577510022093,0.0,0.006446886446886447,0.017728937728937726
1.2503605130004871,0.0,0.006446886446886447,0.017728937728937726
1.255651957999362,0.0,0.006446886446886447,0.017728937728937726
1.2581226370020886,0.0,0.006446886446886447,0.017728937728937726
1.2637544089993753,0.0,0.006446886446886447,0.017728937728937726
1.2645728220013552,0.0,0.0024175824175824176,0.004029304029304029
1.2667107070010388,0.0,0.0024175824175824176,0.004029304029304029
1.2669908330026374,0.0,0.0024175824175824176,0.004029304029304029
1.2718766409998352,0.0,0.0024175824175824176,0.004029304029304029
1.27629004100163,0.0,0.0024175824175824176,0.004029304029304029
1.2766069509998488,0.0,0.0024175824175824176,0.004029304029304029
1.281975453999621,0.0,0.0024175824175824176,0.004029304029304029
1.2837758790010412,0.0,0.0024175824175824176,0.004029304029304029
1.2870542730015586,0.0,0.0024175824175824176,0.004029304029304029
1.2879206690013234,0.0,0.0024175824175824176,0.004029304029304029
1.2896496790017409,0.0,0.0024175824175824176,0.004029304029304029
1.2927388200005225,0.0,0.0024175824175824176,0.004029304029304029
1.2945069630004582,0.0,0.0024175824175824176,0.004029304029304029
1.297893445000227,0.0,0.0024175824175824176,0.004029304029304029
1.2986804540014418,0.0,0.0024175824175824176,0.004029304029304029
1.3012805020007363,0.0,0.0024175824175824176,0.004029304029304029
1.3065136059994984,0.0,0.0024175824175824176,0.004029304029304029
1.3082087080001656,0.0,0.0024175824175824176,0.004029304029304029
1.3114565050018427,0.0,0.0024175824175824176,0.004029304029304029
1.3116848820027371,0.0,0.0024175824175824176,0.004029304029304029
1.3172295010008384,0.0,0.0024175824175824176,0.004029304029304029
1.3180746360012563,0.0,0.0024175824175824176,0.004029304029304029
1.3190010880025511,0.0,0.0024175824175824176,0.004029304029304029
1.320658882999851,0.0,0.0024175824175824176,0.004029304029304029
1.3246710570019786,0.0,0.0024175824175824176,0.004029304029304029
1.3282556390004174,0.0,0.0024175824175824176,0.004029304029304029
1.3284365040017292,0.0,0.0024175824175824176,0.004029304029304029
1.3333868350018747,0.0,0.0024175824175824176,0.004029304029304029
1.3385344700000132,0.0,0.0024175824175824176,0.004029304029304029
1.341667423999752,0.0,0.025787545787545788,0.028205128205128206
1.3443641699996078,0.0,0.025787545787545788,0.028205128205128206
1.3478333679995558,0.0,0.025787545787545788,0.028205128205128206
1.3479251410026336,0.0,0.025787545787545788,0.028205128205128206
1.353656735002005,0.0,0.0419047619047619,0.033846153846153845
1.3538855070000864,0.0,0.0419047619047619,0.033846153846153845
1.35965436600236,0.0,0.0419047619047619,0.033846153846153845
1.359867574999953,0.0,0.0419047619047619,0.033846153846153845
1.3650354119999975,0.0,0.0419047619047619,0.033846153846153845
1.3682575000020734,0.0,0.0419047619047619,0.033846153846153845
1.3701210590006667,0.0,0.004029304029304029,0.0032234432234432234
1.3717106840013003,0.0,0.004029304029304029,0.0032234432234432234
1.3763644720020238,0.0,0.004029304029304029,0.0032234432234432234
1.3765044350002427,0.0,0.004029304029304029,0.0032234432234432234
1.3823003780016734,0.0,0.004029304029304029,0.0032234432234432234
1.3824398050019227,0.0,0.004029304029304029,0.0032234432234432234
1.3881673680007225,0.0,0.004029304029304029,0.0032234432234432234
1.3882535430020653,0.0,0.004029304029304029,0.0032234432234432234
1.3937573879993579,0.0,0.004029304029304029,0.0032234432234432234
1.3945739209993917,0.0,0.004029304029304029,0.0032234432234432234
1.3963742619998811,0.0,0.004029304029304029,0.0032234432234432234
1.398648153000977,0.0,0.012893772893772894,0.22564102564102564
1.398919264000142,0.0,0.03142857142857143,0.1104029304029304
1.4042478690025746,0.0,0.03142857142857143,0.1104029304029304
1.4060477429993625,0.0,0.03142857142857143,0.1104029304029304
1.4084378320003452,0.0,0.03142857142857143,0.1104029304029304
1.4086022510018665,0.0,0.03142857142857143,0.1104029304029304
1.4142245750008442,0.0,0.03142857142857143,0.1104029304029304
1.4145062499992491,0.0,0.03142857142857143,0.1104029304029304
1.419390093000402,0.0,0.03142857142857143,0.1104029304029304
1.4245992560026934,0.0,0.03142857142857143,0.1104029304029304
1.4278187910022098,0.0,0.03142857142857143,0.1104029304029304
1.4280671070009703,0.0,0.03142857142857143,0.1104029304029304
1.4340364070012583,0.0,0.03142857142857143,0.1104029304029304
1.4390552870027022,0.0,0.03142857142857143,0.1104029304029304
1.4426960150012746,0.0,0.03142857142857143,0.1104029304029304
1.4427566760023183,0.0,0.0032234432234432234,0.0024175824175824176
1.4476530920001096,0.0,0.0032234432234432234,0.0024175824175824176
1.4519233099999838,0.0,0.0032234432234432234,0.0024175824175824176
1.454017134001333,0.0,0.0032234432234432234,0.0024175824175824176
1.4554805219995615,0.0,0.0032234432234432234,0.0024175824175824176
1.4603596119995927,0.0,0.0032234432234432234,0.0024175824175824176
1.4647783020009228,0.0,0.0032234432234432234,0.0024175824175824176
1.4664160380016256,0.0,0.026593406593406595,0.017728937728937726
1.4704128760022286,0.0,0.026593406593406595,0.017728937728937726
1.4738532560004387,0.0,0.026593406593406595,0.017728937728937726
1.4740192470017064,0.0,0.026593406593406595,0.017728937728937726
1.4798328899996704,0.0,0.008058608058608058,2.2354578754578753
1.4799190280027688,0.0,0.008058608058608058,2.2354578754578753
1.4854543690016726,0.0,0.008058608058608058,2.2354578754578753
1.486435237002297,0.0,0.008058608058608058,2.2354578754578753
1.4872898329995223,0.0,0.008058608058608058,2.2354578754578753
1.4889444220025325,0.0,0.008058608058608058,2.2354578754578753
1.4937632920009491,0.0,0.03626373626373627,0.03304029304029304
1.4973287739994703,0.0,0.03626373626373627,0.03304029304029304
1.5023008740026853,0.0,0.03626373626373627,0.03304029304029304
1.505886710001505,0.0,0.03626373626373627,0.03304029304029304
1.5060496639998746,0.0,0.03626373626373627,0.03304029304029304
1.5109686440009682,0.0,0.03626373626373627,0.03304029304029304
1.5158522359997733,0.0,0.03626373626373627,0.03304029304029304
1.5200929689999612,0.0,0.03626373626373627,0.03304029304029304
1.5230223559992737,0.0,0.03626373626373627,0.03304029304029304
1.5259362220022012,0.0,0.03626373626373627,0.03304029304029304
1.5289985599993088,0.0,0.0024175824175824176,0.0016117216117216117
1.5312609300017357,0.0,0.0024175824175824176,0.0016117216117216117
1.5320436920010252,0.0,0.0024175824175824176,0.0016117216117216117
1.5335144950004178,0.0,0.0024175824175824176,0.0016117216117216117
1.538427908999438,0.0,0.0024175824175824176,0.0016117216117216117
1.5432938070007367,0.0,0.007252747252747252,0.4561172161172161
1.547119410999585,0.0,0.0,0.006446886446886447
1.550304080999922,0.0,0.0,0.006446886446886447
1.5513307030014403,0.0,0.028205128205128206,0.022564102564102562
1.5523249780017068,0.0,0.028205128205128206,0.022564102564102562
1.5539849000015238,0.0,0.028205128205128206,0.022564102564102562
1.5571424660010962,0.0,0.028205128205128206,0.022564102564102562
1.5595219630013162,0.0,0.004835164835164835,0.14989010989010987
1.5598079320006946,0.0,0.004835164835164835,0.14989010989010987
1.5645402270019986,0.0,0.004835164835164835,0.14989010989010987
1.5646071760020277,0.0,0.0016117216117216117,0.0
1.570496981999895,0.0,0.0016117216117216117,0.0
1.5756399279998732,0.0,0.0016117216117216117,0.0
1.5786624960019253,0.0,0.0016117216117216117,0.0
1.581036290001066,0.0,0.022564102564102562,0.02498168498168498
1.581171860001632,0.0,0.022564102564102562,0.02498168498168498
1.5863725020026322,0.0,0.022564102564102562,0.02498168498168498
1.5902079770021373,0.0,0.011282051282051281,0.008058608058608058
1.594076628000039,0.0,0.004029304029304029,0.006446886446886447
1.597900902001129,0.0,0.004029304029304029,0.006446886446886447
1.6011151540005812,0.0,0.004029304029304029,0.006446886446886447
1.6027019640023354,0.0,0.004029304029304029,0.006446886446886447
1.6071869789993798,0.0,0.004029304029304029,0.006446886446886447
1.6079719150002347,0.0,0.004029304029304029,0.006446886446886447
1.6095516420027707,0.0,0.004029304029304029,0.006446886446886447
1.6142950089997612,0.0,0.004029304029304029,0.006446886446886447
1.620091376000346,0.0,0.004029304029304029,0.006446886446886447
1.6201964760002738,0.0,0.004029304029304029,0.006446886446886447
1.6256504980010504,0.0,0.004029304029304029,0.006446886446886447
1.6277503260025696,0.0,0.016117216117216115,0.03304029304029304
1.6285862549993908,0.0,0.016117216117216115,0.03304029304029304
1.6307543010007066,0.0,0.016117216117216115,0.03304029304029304
1.6315299560010317,0.0,0.016117216117216115,0.03304029304029304
1.633747387000767,0.0,0.016117216117216115,0.03304029304029304
1.6345857890009938,0.0,0.016117216117216115,0.03304029304029304
1.6367411550018005,0.0,0.016117216117216115,0.03304029304029304
1.6381599190026463,0.0,0.016117216117216115,0.03304029304029304
1.6433933850021276,0.0,0.016117216117216115,0.03304029304029304
1.646677141001419,0.0,0.016117216117216115,0.03304029304029304
1.6475158040011593,0.0,0.016117216117216115,0.03304029304029304
1.6493299630019465,0.0,0.016117216117216115,0.03304029304029304
1.651980424001522,0.0,0.016117216117216115,0.03304029304029304
1.6570396710012574,0.0,0.016117216117216115,0.03304029304029304
1.6603801940000267,0.0,0.016117216117216115,0.03304029304029304
1.6612445099999604,0.0,0.016117216117216115,0.03304029304029304
1.6630728780000936,0.0,0.016117216117216115,0.03304029304029304
1.6665636409998115,0.0,0.004029304029304029,0.012893772893772894
1.6666972960010753,0.0,0.004029304029304029,0.012893772893772894
1.671820122999634,0.0,0.004029304029304029,0.012893772893772894
1.6752062250016024,0.0,0.004029304029304029,0.012893772893772894
1.6754586690003634,0.0,0.004029304029304029,0.012893772893772894
1.681525280000642,0.0,0.004029304029304029,0.012893772893772894
1.6856598039994424,0.0,0.0136996336996337,0.15956043956043955
1.6882192779994512,0.0,0.0136996336996337,0.15956043956043955
1.6931959499997902,0.0,0.0136996336996337,0.15956043956043955
1.6970360080013052,0.0,0.0,0.8671062271062271
1.7012606150019565,0.0,0.0016117216117216117,0.32395604395604394
1.7028140680013166,0.0,0.0016117216117216117,0.32395604395604394
1.7069973540019419,0.0,0.0016117216117216117,0.32395604395604394
1.7092359460002626,0.0,0.0016117216117216117,0.32395604395604394
1.710001742001623,0.0,0.0016117216117216117,0.32395604395604394
1.712100348999229,0.0,0.0016117216117216117,0.32395604395604394
1.7129243840026902,0.0,0.0016117216117216117,0.32395604395604394
1.7150364670014824,0.0,0.0016117216117216117,0.32395604395604394
1.7158198280012584,0.0,0.0016117216117216117,0.32395604395604394
1.717909819999477,0.0,0.011282051282051281,0.365054945054945
1.7193847710004775,0.0,0.011282051282051281,0.365054945054945
1.7254474180008401,0.0,0.011282051282051281,0.365054945054945
1.7297187650001433,0.0,0.0032234432234432234,0.0008058608058608059
1.7322344170024735,0.0,0.0032234432234432234,0.0008058608058608059
1.737252200000512,0.0,0.0016117216117216117,1.5408058608058608
1.7414679460016487,0.0,0.0,0.19824175824175824
1.7424154239997733,0.0,0.0,0.19824175824175824
1.7439937840026687,0.0,0.0,0.19824175824175824
1.7479063140017388,0.0,0.01531135531135531,0.011282051282051281
1.7521137000003364,0.0,0.01531135531135531,0.011282051282051281
1.7545461990011972,0.0,0.01531135531135531,0.011282051282051281
1.7548109820017999,0.0,0.01531135531135531,0.011282051282051281
1.7595927729998948,0.0,0.01531135531135531,0.011282051282051281
1.7653862580009445,0.0,0.01531135531135531,0.011282051282051281
1.765595619002852,0.0,0.01531135531135531,0.011282051282051281
1.770795790002012,0.0,0.0,0.0024175824175824176
1.7733237339998595,0.0,0.0,0.0024175824175824176
1.7791108320016065,0.0,0.0,0.0024175824175824176
1.7791879200012772,0.0,0.007252747252747252,0.43355311355311354
1.7850023700011661,0.0,0.007252747252747252,0.43355311355311354
1.7851477330004855,0.0,0.007252747252747252,0.43355311355311354
1.7913410840010329,0.0,0.007252747252747252,0.43355311355311354
1.7952105479998863,0.0,0.007252747252747252,0.43355311355311354
1.7991317220003111,0.0,0.006446886446886447,1.0395604395604394
1.8037457739992533,0.0,0.006446886446886447,0.4835164835164835
1.8039617340000405,0.0,0.006446886446886447,0.4835164835164835
1.8114640900021186,0.0,0.006446886446886447,0.4835164835164835
1.8165920140017988,0.0,0.0024175824175824176,0.02095238095238095
1.821167668000271,0.0,0.0024175824175824176,0.02095238095238095
1.8213739830025588,0.0,0.026593406593406595,0.0273992673992674
1.8276315660004911,0.0,0.026593406593406595,0.0273992673992674
1.8315913629994611,0.0,0.026593406593406595,0.0273992673992674
1.8347591960009595,0.0,0.0136996336996337,0.012893772893772894
1.836450547001732,0.0,0.010476190476190476,2.577948717948718
1.8398020040003757,0.0,0.010476190476190476,2.577948717948718
1.8407260900021356,0.0,0.010476190476190476,2.577948717948718
1.8423841450021428,0.0,0.010476190476190476,2.577948717948718
1.8457042730005924,0.0,0.0,0.0
1.8458425800017721,0.0,0.0,0.0
1.8515906210013782,0.0,0.0,0.0
1.8569764670028235,0.0,0.0,0.0
1.8587342150021868,0.0,0.0,0.0
1.8627960220001114,0.0,0.0,0.0
1.865206753001985,0.0,0.0,0.0
1.8710719190021337,0.0,0.0,0.0
1.876157795002655,0.0,0.0,0.0
1.8785121700020682,0.0,0.0,0.0
1.8786394810013007,0.0,0.0,0.0
1.8844279120021383,0.0,0.0,0.0
1.8844926160018076,0.0,0.0,0.0
1.8902242430012848,0.0,0.0,0.0
1.890340276000643,0.0,0.03465201465201465,0.07333333333333333
1.896204435000982,0.0,0.03465201465201465,0.07333333333333333
1.896320096002455,0.0,0.004835164835164835,0.41018315018315016
1.902071464999608,0.0,0.004835164835164835,0.03948717948717949
1.9022566260027816,0.0,0.01934065934065934,0.026593406593406595
1.9079491830016195,0.0,0.01934065934065934,0.026593406593406595
1.9082072119999793,0.0,0.01934065934065934,0.026593406593406595
1.913727988001483,0.0,0.01934065934065934,0.026593406593406595
1.9146538140012126,0.0,0.01934065934065934,0.026593406593406595
1.9156667589995777,0.0,0.01934065934065934,0.026593406593406595
1.9165516360008041,0.0,0.01934065934065934,0.026593406593406595
1.9182906960013497,0.0,0.01934065934065934,0.026593406593406595
1.9215800820020377,0.0,0.0008058608058608059,0.01934065934065934
1.9217975720021059,0.0,0.0,0.02336996336996337
1.9277890520024812,0.0,0.0,0.02336996336996337
1.9332516489994305,0.0,0.0,0.02336996336996337
1.9348154210019857,0.0,0.0,0.02336996336996337
1.9392349930021737,0.0,0.0,0.02336996336996337
1.9395278530028008,0.0,0.0,0.02336996336996337
1.9447025070003292,0.0,0.0,0.02336996336996337
1.9476671779993922,0.0,0.008058608058608058,0.0024175824175824176
1.9492555249998986,0.0,0.008058608058608058,0.0024175824175824176
1.9537260710021656,0.0,0.008058608058608058,0.0024175824175824176
1.9553041520011902,0.0,0.008058608058608058,0.0024175824175824176
1.9591795769993041,0.0,0.008058608058608058,0.0024175824175824176
1.9636735530002625,0.0,0.016117216117216115,0.012893772893772894
1.9645299660005549,0.0,0.016117216117216115,0.012893772893772894
1.9661102060017583,0.0,0.016117216117216115,0.012893772893772894
1.969835735999368,0.0,0.016117216117216115,0.012893772893772894
1.975193106001825,0.0,0.016117216117216115,0.012893772893772894
1.9781336699998064,0.0,0.006446886446886447,0.9621978021978022
1.9805408050015103,0.0,0.0008058608058608059,0.09186813186813186
1.9806591289998323,0.0,0.0008058608058608059,0.09186813186813186
1.9859642120027274,0.0,0.0008058608058608059,0.09186813186813186
1.9876959989996976,0.0,0.0008058608058608059,0.09186813186813186
1.990988887999265,0.0,0.0008058608058608059,0.09186813186813186
1.9912079910027387,0.0,0.0008058608058608059,0.09186813186813186
1.9969546140018792,0.0,0.007252747252747252,0.020146520146520144
1.9970663790008985,0.0,0.007252747252747252,0.020146520146520144
2.00272751400189,0.0,0.007252747252747252,0.020146520146520144
2.0035574700013967,0.0,0.028205128205128206,0.0
2.0052649800018116,0.0,0.010476190476190476,0.006446886446886447
2.007868993001466,0.0,0.010476190476190476,0.006446886446886447
2.012685287001659,0.0,0.010476190476190476,0.006446886446886447
2.018145767000533,0.0,0.012893772893772894,0.008058608058608058
2.019058837002376,0.0,0.012893772893772894,0.008058608058608058
2.0199933830008376,0.0,0.012893772893772894,0.008058608058608058
2.0217315610025253,0.0,0.012893772893772894,0.008058608058608058
2.0256693570008792,0.0,0.018534798534798533,0.017728937728937726
2.0297475389998,0.0,0.018534798534798533,0.017728937728937726
2.0314460920017154,0.0,0.018534798534798533,0.017728937728937726
2.034700584001257,0.0,0.018534798534798533,0.017728937728937726
2.0365326130013273,0.0,0.018534798534798533,0.017728937728937726
2.0397056130022975,0.0,0.00967032967032967,0.6027838827838827
2.0406579560003593,0.0,0.00967032967032967,0.6027838827838827
2.041540303001966,0.0,0.00967032967032967,0.6027838827838827
2.0431982800000696,0.0,0.00967032967032967,0.6027838827838827
2.046569237001677,0.0,0.00967032967032967,0.6027838827838827
2.0468352000025334,0.0,0.00967032967032967,0.6027838827838827
2.0524473410005157,0.0,0.00967032967032967,0.6027838827838827
2.0534377389994916,0.0,0.00967032967032967,0.6027838827838827
2.054361433001759,0.0,0.00967032967032967,0.6027838827838827
2.055993750000198,0.0,0.00967032967032967,0.6027838827838827
2.0590913539999747,0.0,0.00967032967032967,0.6027838827838827
2.0621293790027266,0.0,0.00967032967032967,0.6027838827838827
2.065133552001498,0.0,0.00967032967032967,0.6027838827838827
2.067456791999575,0.0,0.012893772893772894,0.02336996336996337
2.067726951001532,0.0,0.012893772893772894,0.02336996336996337
2.0734352479994413,0.0,0.012893772893772894,0.02336996336996337
2.0735701320008957,0.0,0.012893772893772894,0.02336996336996337
2.079329965999932,0.0,0.012893772893772894,0.02336996336996337
2.0848227710011997,0.0,0.0,0.03465201465201465
2.0858059269994556,0.0,0.0,0.03465201465201465
2.0874250779997965,0.0,0.0,0.03465201465201465
2.090575190999516,0.0,0.018534798534798533,0.02095238095238095
2.0921391949996178,0.0,0.018534798534798533,0.02095238095238095
2.0959445150001557,0.0,0.018534798534798533,0.02095238095238095
2.101332911002828,0.0,0.00967032967032967,0.2683516483516483
2.102987641999789,0.0,0.00967032967032967,0.2683516483516483
2.106732659001864,0.0,0.004029304029304029,0.0
2.110681279002165,0.0,0.004029304029304029,0.0
2.1146282000008796,0.0,0.004029304029304029,0.0
2.119492306999746,0.0,0.004029304029304029,0.0
2.123804711001867,0.0,0.00967032967032967,0.9879853479853479
2.1246940230012115,0.0,0.00967032967032967,0.9879853479853479
2.126554770002258,0.0,0.00967032967032967,0.9879853479853479
2.1299740610011213,0.0,0.00967032967032967,0.9879853479853479
2.135779233001813,0.0,0.010476190476190476,0.008058608058608058
2.1414653150022787,0.0,0.010476190476190476,0.008058608058608058
2.147093572999438,0.0,0.010476190476190476,0.008058608058608058
2.1479043680010363,0.0,0.010476190476190476,0.008058608058608058
2.1496361790013907,0.0,0.010476190476190476,0.008058608058608058
2.1533905020005477,0.0,0.010476190476190476,0.008058608058608058
2.1578835110012733,0.0,0.010476190476190476,0.008058608058608058
2.1587263170004007,0.0,0.011282051282051281,0.3158974358974359
2.1602723249998235,0.0,0.011282051282051281,0.3158974358974359
2.1649477840001055,0.0,0.011282051282051281,0.3158974358974359
2.1704358710012457,0.0,0.011282051282051281,0.3158974358974359
2.1719531689996074,0.0,0.02901098901098901,0.022564102564102562
2.1756915190017025,0.0,0.02901098901098901,0.022564102564102562
2.180175744000735,0.0,0.02901098901098901,0.022564102564102562
2.1803679680015193,0.0,0.02901098901098901,0.022564102564102562
2.1856352360009623,0.0,0.02901098901098901,0.022564102564102562
2.188642308999988,0.0,0.02901098901098901,0.022564102564102562
2.1912369950005086,0.0,0.02901098901098901,0.022564102564102562
2.196862422999402,0.0,0.02901098901098901,0.022564102564102562
2.197190947001218,0.0,0.02901098901098901,0.022564102564102562
2.205934932000673,0.0,0.02901098901098901,0.022564102564102562
2.214960442001029,0.0,0.020146520146520144,0.06527472527472526
2.223296084001049,0.0,0.017728937728937726,0.010476190476190476
2.228430491999461,0.0,0.017728937728937726,0.17084249084249084
2.2309219500020845,0.0,0.017728937728937726,0.17084249084249084
2.2310731560028216,0.0,0.017728937728937726,0.17084249084249084
2.2358693620008125,0.0,0.017728937728937726,0.17084249084249084
2.236007163002796,0.0,0.017728937728937726,0.17084249084249084
2.2414952050021384,0.0,0.017728937728937726,0.17084249084249084
2.242423597999732,0.0,0.02901098901098901,0.2643223443223443
2.243333596001321,0.0,0.02901098901098901,0.2643223443223443
2.244226594000793,0.0,0.02901098901098901,0.2643223443223443
2.2457788870015065,0.0,0.02901098901098901,0.2643223443223443
2.2502490480001143,0.0,0.02901098901098901,0.2643223443223443
2.250509656001668,0.0,0.02901098901098901,0.2643223443223443
2.256075948000216,0.0,0.02901098901098901,0.2643223443223443
2.2563251329993363,0.0,0.02901098901098901,0.2643223443223443
2.2617596320014854,0.0,0.02901098901098901,0.2643223443223443
2.262757415002852,0.0,0.02901098901098901,0.2643223443223443
2.2637249910003447,0.0,0.02901098901098901,0.2643223443223443
2.264583037002012,0.0,0.02901098901098901,0.2643223443223443
2.2661697170005937,0.0,0.02901098901098901,0.2643223443223443
2.270710101001896,0.0,0.02901098901098901,0.2643223443223443
2.2709148169997206,0.0,0.02901098901098901,0.2643223443223443
2.2763162730007025,0.0,0.02901098901098901,0.2643223443223443
2.2772304130012344,0.0,0.02901098901098901,0.2643223443223443
2.2787682240013964,0.0,0.02901098901098901,0.2643223443223443
2.283291869000095,0.0,0.02901098901098901,0.2643223443223443
2.283509962999233,0.0,0.02901098901098901,0.2643223443223443
2.2884149710007478,0.0,0.02901098901098901,0.2643223443223443
2.293259209000098,0.0,0.02901098901098901,0.2643223443223443
2.2982327019999502,0.0,0.02901098901098901,0.2643223443223443
2.303184324002359,0.0,0.02901098901098901,0.2643223443223443
2.3073765709996223,0.0,0.02901098901098901,0.2643223443223443
2.310199425002793,0.0,0.02901098901098901,0.2643223443223443
2.3137501380006142,0.0,0.047545787545787546,0.020146520146520144
2.3139976150014263,0.0,0.047545787545787546,0.020146520146520144
2.3188819740025792,0.0,0.047545787545787546,0.020146520146520144
2.323804978001135,0.0,0.047545787545787546,0.020146520146520144
2.328439322001941,0.0,0.014505494505494505,0.0419047619047619
2.328640734001965,0.0,0.0,0.0032234432234432234
2.3339845450027497,0.0,0.0,0.0032234432234432234
2.3355451509996783,0.0,0.0,0.0032234432234432234
2.3399662590018124,0.0,0.0,0.0032234432234432234
2.340732892000233,0.0,0.004029304029304029,0.16036630036630037
2.3428866950016527,0.0,0.004029304029304029,0.16036630036630037
2.344319949999772,0.0,0.004029304029304029,0.16036630036630037
2.3492396799993003,0.0,0.0032234432234432234,0.0
2.35415164799997,0.0,0.0032234432234432234,0.0
2.358189291000599,0.0,0.0032234432234432234,0.0
2.3603617970002233,0.0,0.0032234432234432234,0.0
2.3611132959995302,0.0,0.0032234432234432234,0.0
2.3626060060014424,0.0,0.0032234432234432234,0.0
2.3674458770001365,0.0,0.0032234432234432234,0.0
2.3724651250013267,0.0,0.008864468864468863,0.010476190476190476
2.3766479000005347,0.0,0.008864468864468863,0.010476190476190476
2.379452981000213,0.0,0.008864468864468863,0.010476190476190476
2.383592636000685,0.0,0.008864468864468863,0.010476190476190476
2.3863893910020124,0.0,0.008864468864468863,0.010476190476190476
2.390470169000764,0.0,0.008864468864468863,0.010476190476190476
2.393325305001781,0.0,0.014505494505494505,0.09428571428571428
2.396233999999822,0.0,0.00967032967032967,2.552967032967033
2.399668551999639,0.0,0.00967032967032967,0.7986080586080586
2.400501890002488,0.0,0.00967032967032967,0.7986080586080586
2.40265717100192,0.0,0.00967032967032967,0.7986080586080586
2.403469941000367,0.0,0.00967032967032967,0.7986080586080586
2.405590239999583,0.0,0.00967032967032967,0.7986080586080586
2.4064208300005703,0.0,0.00967032967032967,0.7986080586080586
2.408573422002519,0.0,0.00967032967032967,0.7986080586080586
2.409977261999302,0.0,0.00967032967032967,0.7986080586080586
2.4147557729993423,0.0,0.00967032967032967,0.7986080586080586
2.4196935850013688,0.0,0.0032234432234432234,2.5755311355311354
2.4246153490021243,0.0,0.0,0.190989010989011
2.4287039459995867,0.0,0.0,0.190989010989011
2.432162798999343,0.0,0.0,0.190989010989011
2.4323174279998057,0.0,0.004029304029304029,1.8679853479853479
2.437227140999312,0.0,0.004029304029304029,1.8679853479853479
2.4416014710004674,0.0,0.004029304029304029,1.8679853479853479
2.443188666002243,0.0,0.0,0.0
2.44677759300248,0.0,0.0,0.03304029304029304
2.452072036001482,0.0,0.0,0.03304029304029304
2.454367614001967,0.0,0.0,0.03304029304029304
2.454612649002229,0.0,0.0,0.03304029304029304
2.459760017001827,0.0,0.0,0.03304029304029304
2.4628944890027924,0.0,0.0,0.03304029304029304
2.4643937360015116,0.0,0.0,0.03304029304029304
2.4683300079996116,0.0,0.0,0.03304029304029304
2.4721664630014857,0.0,0.0,0.0
2.4766716090016416,0.0,0.0,0.0
2.476850300001388,0.0,0.0,0.0
2.4824299040010374,0.0,0.0,0.0
2.482563696001307,0.0,0.006446886446886447,0.24336996336996336
2.4878780450017075,0.0,0.006446886446886447,0.24336996336996336
2.489467997002066,0.0,0.006446886446886447,0.24336996336996336
2.493923223002639,0.0,0.006446886446886447,0.24336996336996336
2.494731180002418,0.0,0.006446886446886447,0.24336996336996336
2.496971267002664,0.0,0.006446886446886447,0.24336996336996336
2.497181538001314,0.0,0.006446886446886447,0.24336996336996336
2.502464287001203,0.0,0.006446886446886447,0.24336996336996336
2.506339466002828,0.0,0.0008058608058608059,0.0
2.509632010001951,0.0,0.0008058608058608059,0.0
2.510483406000276,0.0,0.0008058608058608059,0.0
2.5128563250000298,0.0,0.0008058608058608059,0.0
2.5129960760023096,0.0,0.0008058608058608059,0.0
2.518377224001597,0.0,0.0008058608058608059,0.0
2.521322581000277,0.0,0.0008058608058608059,0.0
2.522939958002098,0.0,0.0008058608058608059,0.0
2.5267210510028235,0.0,0.0008058608058608059,0.0
2.5314238230021147,0.0,0.0008058608058608059,0.0
2.5371091650013113,0.0,0.016117216117216115,0.008058608058608058
2.5372669140015205,0.0,0.016117216117216115,0.008058608058608058
2.542524807002337,0.0,0.016117216117216115,0.008058608058608058
2.544784339999751,0.0,0.016117216117216115,0.008058608058608058
2.5450085129996296,0.0,0.016117216117216115,0.008058608058608058
2.5504257659995346,0.0,0.016117216117216115,0.008058608058608058
2.552103532001638,0.0,0.016117216117216115,0.008058608058608058
2.555293792000157,0.0,0.0008058608058608059,3.2411721611721607
2.5570750510014477,0.0,0.0008058608058608059,3.2411721611721607
2.5600865190026525,0.0,0.0,0.19824175824175824
2.561726374002319,0.0,0.0,0.19824175824175824
2.5656563810007356,0.0,0.0,0.19824175824175824
2.569468729001528,0.0,0.0016117216117216117,0.011282051282051281
2.5733276150021993,0.0,0.016923076923076923,0.007252747252747252
2.5772689639998134,0.0,0.016923076923076923,0.007252747252747252
2.5804028599995945,0.0,0.016923076923076923,0.007252747252747252
2.5826829230027215,0.0,0.016923076923076923,0.007252747252747252
2.5828856760017516,0.0,0.016923076923076923,0.007252747252747252
2.588352719001705,0.0,0.016923076923076923,0.007252747252747252
2.588613219999388,0.0,0.016923076923076923,0.007252747252747252
2.5938959430022805,0.0,0.016923076923076923,0.007252747252747252
2.5961360760011303,0.0,0.016923076923076923,0.007252747252747252
2.59625614000106,0.0,0.016923076923076923,0.007252747252747252
2.601541535001161,0.0,0.016923076923076923,0.007252747252747252
2.603091561002657,0.0,0.016923076923076923,0.007252747252747252
2.6071593270025915,0.0,0.016923076923076923,0.007252747252747252
2.608778944999358,0.0,0.011282051282051281,0.0
2.6133898200023395,0.0,0.011282051282051281,0.0
2.613562972001091,0.0,0.011282051282051281,0.0
2.6190707070018107,0.0,0.011282051282051281,0.0
2.6193447490004473,0.0,0.00967032967032967,0.6591941391941392
2.6246549259994936,0.0,0.00967032967032967,0.6591941391941392
2.6271874850026506,0.0,0.00967032967032967,0.6591941391941392
2.6324989730019297,0.0,0.00967032967032967,0.6591941391941392
2.634852134000539,0.0,0.00967032967032967,0.6591941391941392
2.635041032001027,0.0,0.00967032967032967,0.6591941391941392
2.6404075190002914,0.0,0.008864468864468863,1.7342124542124542
2.642958783002541,0.0,0.008864468864468863,1.7342124542124542
2.6476054150007258,0.0,0.008864468864468863,1.7342124542124542
2.6477449529993464,0.0,0.0024175824175824176,0.012087912087912087
2.653280013000767,0.0,0.0024175824175824176,0.012087912087912087
2.6535020920018724,0.0,0.0024175824175824176,0.012087912087912087
2.6589950939996925,0.0,0.0024175824175824176,0.012087912087912087
2.660628192999866,0.0,0.0024175824175824176,0.012087912087912087
2.6643529720022343,0.0,0.008864468864468863,0.0
2.6644474580025417,0.0,0.0032234432234432234,0.012893772893772894
2.6699837209998805,0.0,0.0032234432234432234,0.012893772893772894
2.6701084910018835,0.0,0.004029304029304029,0.03062271062271062
2.6757059690025926,0.0,0.004029304029304029,0.03062271062271062
2.6757933180015243,0.0,0.004029304029304029,0.03062271062271062
2.6812344169993594,0.0,0.004029304029304029,0.03062271062271062
2.681573603000288,0.0,0.0273992673992674,0.12249084249084248
2.6867590330002713,0.0,0.0273992673992674,0.12249084249084248
2.689054220001708,0.0,0.026593406593406595,0.004835164835164835
2.689305099000194,0.0,0.026593406593406595,0.004835164835164835
2.694560129999445,0.0,0.026593406593406595,0.004835164835164835
2.69614396399993,0.0,0.026593406593406595,0.004835164835164835
2.699855512000795,0.0,0.0,3.3
2.7051353290007683,0.0,0.012893772893772894,0.18695970695970696
2.7073846390012477,0.0,0.012893772893772894,0.18695970695970696
2.708174452000094,0.0,0.012893772893772894,0.18695970695970696
2.709685301000718,0.0,0.008058608058608058,0.007252747252747252
2.7141120960004628,0.0,0.008058608058608058,0.007252747252747252
2.7149458670028253,0.0,0.012893772893772894,2.577948717948718
2.716522556002019,0.0,0.008864468864468863,3.3
2.7208987369995157,0.0,0.008864468864468863,3.3
2.7217969670018647,0.0,0.008864468864468863,3.3
2.723371546002454,0.0,0.008864468864468863,3.3
2.7277893600003154,0.0,0.0,0.03868131868131868
2.72865033600101,0.0,0.0,0.03868131868131868
2.730212462000054,0.0,0.0,0.03868131868131868
2.734070767000958,0.0,0.0,0.03868131868131868
2.7375434700006736,0.0,0.0,2.897069597069597
2.7377085740008624,0.0,0.0,2.897069597069597
2.742796902999544,0.0,0.0,2.897069597069597
2.747198674001993,0.0,0.0419047619047619,0.16197802197802197
2.748032814000908,0.0,0.006446886446886447,0.006446886446886447
2.7502760300012596,0.0,0.006446886446886447,0.006446886446886447
2.7504924710010528,0.0,0.006446886446886447,0.006446886446886447
2.755766616002802,0.0,0.006446886446886447,0.006446886446886447
2.75874859599935,0.0,0.006446886446886447,0.006446886446886447
2.7617602440004703,0.0,0.006446886446886447,0.006446886446886447
2.7647184540001035,0.0,0.006446886446886447,0.006446886446886447
2.766986768001516,0.0,0.006446886446886447,0.006446886446886447
2.767771080001694,0.0,0.006446886446886447,0.006446886446886447
2.769988585001556,0.0,0.006446886446886447,0.006446886446886447
2.7701917750018765,0.0,0.006446886446886447,0.006446886446886447
2.7753680150017317,0.0,0.006446886446886447,0.006446886446886447
2.778373986002407,0.0,0.006446886446886447,0.006446886446886447
2.780004660002305,0.0,0.006446886446886447,0.006446886446886447
2.7853754200004914,0.0,0.006446886446886447,0.006446886446886447
2.7856354319992533,0.0,0.006446886446886447,0.006446886446886447
2.796854918000463,0.0,0.006446886446886447,0.006446886446886447
2.8062683240023034,0.0,0.006446886446886447,0.006446886446886447
2.815664707999531,0.0,0.012893772893772894,0.025787545787545788
2.8238132700025744,0.0,0.012893772893772894,0.025787545787545788
2.8309186510014115,0.0,0.012893772893772894,0.025787545787545788
2.8377097049997246,0.0,0.012893772893772894,0.025787545787545788
2.842328697002813,0.0,0.012893772893772894,0.025787545787545788
2.8424627630010946,0.0,0.012893772893772894,0.025787545787545788
2.852330083002016,0.0,0.012893772893772894,0.025787545787545788
2.861023825000302,0.0,0.008058608058608058,0.008058608058608058
2.8674312450020807,0.0,0.0136996336996337,2.7616849816849816
2.8718580120003026,0.0,0.0136996336996337,2.7616849816849816
2.872090584001853,0.0,0.005641025641025641,0.0
2.8826189810024516,0.0,0.0024175824175824176,0.9823443223443222
2.89176777800094,0.0,0.004835164835164835,0.07172161172161172
2.899539078000089,0.0,0.004835164835164835,0.07172161172161172
2.9050868170015747,0.0,0.004835164835164835,0.07172161172161172
2.905214504000469,0.0,0.00967032967032967,0.0024175824175824176
2.9135923530011496,0.0,0.00967032967032967,0.0024175824175824176
2.9192819130003045,0.0,0.00967032967032967,0.0024175824175824176
2.9194054610015883,0.0,0.00967032967032967,0.0024175824175824176
2.9294654600016656,0.0,0.00967032967032967,0.0024175824175824176
2.935261223999987,0.0,0.0024175824175824176,0.022564102564102562
2.9434158229996683,0.0,0.0024175824175824176,0.022564102564102562
2.947399436001433,0.0,0.0024175824175824176,0.022564102564102562
2.9511978209993686,0.0,0.0024175824175824176,0.022564102564102562
2.9589345150016015,0.0,0.0024175824175824176,0.022564102564102562
2.9639200109995727,0.0,0.008864468864468863,0.03062271062271062
2.9669741239995346,0.0,0.008864468864468863,0.03062271062271062
2.968631720999838,0.0,0.008864468864468863,0.03062271062271062
2.972624909001752,0.0,0.008864468864468863,0.03062271062271062
2.9798516600021685,0.0,0.014505494505494505,0.0136996336996337
2.983223827999609,0.0,0.014505494505494505,0.0136996336996337
2.983493591000297,0.0,0.0016117216117216117,0.0024175824175824176
2.990391499002726,0.0,0.0016117216117216117,0.0024175824175824176
2.9953702200000407,0.0,0.0016117216117216117,0.0024175824175824176
2.998473579002166,0.0,0.0016117216117216117,0.0024175824175824176
3.0009633580011723,0.0,0.016117216117216115,0.07816849816849816
3.007553512001323,0.0,0.016117216117216115,0.07816849816849816
3.012341785000899,0.0,0.02175824175824176,0.012893772893772894
3.0178819360007765,0.0,0.02175824175824176,0.012893772893772894
3.019454047000181,0.0,0.02175824175824176,0.012893772893772894
3.024927670001489,0.0,0.02175824175824176,0.012893772893772894
3.0250387550004234,0.0,0.012893772893772894,0.0
3.03024628500134,0.0,0.012893772893772894,0.0
3.0333373009998468,0.0,0.0024175824175824176,0.0
3.0349302489994443,0.0,0.0024175824175824176,0.0
3.0402539520000573,0.0,0.0024175824175824176,0.0
3.041530968999723,0.0,0.0024175824175824176,0.0
3.0417781790019944,0.0,0.0024175824175824176,0.0
3.0486914169996453,0.0,0.0024175824175824176,0.0
3.0535106220013404,0.0,0.0024175824175824176,0.0
3.0579881600024237,0.0,0.0024175824175824176,0.0
3.0591740960007883,0.0,0.0024175824175824176,0.0
3.0593121870006144,0.0,0.0024175824175824176,0.0
3.0665068039998005,0.0,0.0024175824175824176,0.0
3.0709647850017063,0.0,0.0,0.0
3.072165371002484,0.0,0.02095238095238095,0.024175824175824173
3.0725077600000077,0.0,0.02095238095238095,0.024175824175824173
3.079746948002139,0.0,0.02095238095238095,0.024175824175824173
3.083867695000663,0.0,0.02095238095238095,0.024175824175824173
3.086844009001652,0.0,0.02095238095238095,0.024175824175824173
3.090539960001479,0.0,0.004835164835164835,0.005641025641025641
3.0978320649992384,0.0,0.03545787545787545,0.028205128205128206
3.1027174850023584,0.0,0.0024175824175824176,0.04996336996336996
3.1107011690000945,0.0,0.0024175824175824176,0.04996336996336996
3.115069687999494,0.0,0.0024175824175824176,0.04996336996336996
3.1159366490028333,0.0,0.0024175824175824176,0.04996336996336996
3.1182219900001655,0.0,0.0024175824175824176,0.04996336996336996
3.118306833999668,0.0,0.0024175824175824176,0.04996336996336996
3.1253141870001855,0.0,0.0024175824175824176,0.04996336996336996
3.1291701610025484,0.0,0.0024175824175824176,0.04996336996336996
3.1330337380022684,0.0,0.0024175824175824176,0.04996336996336996
3.1370115720019385,0.0,0.026593406593406595,0.12007326007326008
3.1414459610023187,0.0,0.026593406593406595,0.12007326007326008
3.1480184419997386,0.0,0.026593406593406595,0.12007326007326008
3.15189626999927,0.0,0.026593406593406595,0.12007326007326008
3.1563217460025044,0.0,0.026593406593406595,0.12007326007326008
3.1565442530009022,0.0,0.026593406593406595,0.12007326007326008
3.1630307680025,0.0,0.026593406593406595,0.12007326007326008
3.1669183080011862,0.0,0.026593406593406595,0.12007326007326008
3.17156160200102,0.0,0.0,0.0024175824175824176
3.17170988900034,0.0,0.020146520146520144,0.0821978021978022
3.178249071999744,0.0,0.020146520146520144,0.0821978021978022
3.182129676999466,0.0,0.020146520146520144,0.0821978021978022
3.187356833001104,0.0,0.020146520146520144,0.0821978021978022
3.189020822999737,0.0,0.020146520146520144,0.0821978021978022
3.194246857001417,0.0,0.020146520146520144,0.0821978021978022
3.1958719230024144,0.0,0.012893772893772894,0.3755311355311355
3.200568996002403,0.0,0.012893772893772894,0.3755311355311355
3.2055347109999275,0.0,0.0136996336996337,0.025787545787545788
3.2114780520023487,0.0,0.0136996336996337,0.025787545787545788
3.2160420110012637,0.0,0.0419047619047619,0.028205128205128206
3.2161323559994344,0.0,0.0419047619047619,0.028205128205128206
3.2213561169992317,0.0,0.0419047619047619,0.028205128205128206
3.2272902580007212,0.0,0.011282051282051281,0.03545787545787545
3.230603627001983,0.0,0.011282051282051281,0.03545787545787545
3.2314910490022157,0.0,0.011282051282051281,0.03545787545787545
3.233183917000133,0.0,0.011282051282051281,0.03545787545787545
3.2369163460025447,0.0,0.011282051282051281,0.03545787545787545
3.236999343000207,0.0,0.008864468864468863,0.5399267399267399
3.2446166580011777,0.0,0.008864468864468863,0.5399267399267399
3.249263162000716,0.0,0.00967032967032967,0.0
3.2546263080002973,0.0,0.02336996336996337,0.0136996336996337
3.256572944999789,0.0,0.02336996336996337,0.0136996336996337
3.258813188000204,0.0,0.02336996336996337,0.0136996336996337
3.2588846040016506,0.0,0.0,0.06205128205128205
3.2646189440019953,0.0,0.02901098901098901,0.07655677655677656
3.264732871000888,0.0,0.02901098901098901,0.07655677655677656
3.27023729800203,0.0,0.0016117216117216117,0.0
3.2710474420018727,0.0,0.016923076923076923,0.0032234432234432234
3.273948489000759,0.0,0.016923076923076923,0.0032234432234432234
3.2771429189997434,0.0,0.016923076923076923,0.0032234432234432234
3.278010740999889,0.0,0.016923076923076923,0.0032234432234432234
3.279688492999412,0.0,0.016923076923076923,0.0032234432234432234
3.2835682250006357,0.0,0.016923076923076923,0.0032234432234432234
3.2867865010011883,0.0,0.016923076923076923,0.0032234432234432234
3.287640927999746,0.0,0.016923076923076923,0.0032234432234432234
3.2901294700022845,0.0,0.016923076923076923,0.0032234432234432234
3.294686476001516,0.0,0.016923076923076923,0.0032234432234432234
3.29479298500155,0.0,0.09509157509157509,0.03304029304029304
3.2995031400023436,0.0,0.09509157509157509,0.03304029304029304
3.305342561001453,0.0,0.09509157509157509,0.03304029304029304
3.312129907000781,0.0,0.09509157509157509,0.03304029304029304
3.316126333000284,0.0,0.09509157509157509,0.03304029304029304
3.320763170999271,0.0,0.09509157509157509,0.03304029304029304
3.3208833150019927,0.0,0.09509157509157509,0.03304029304029304
3.3285498180011928,0.0,0.09509157509157509,0.03304029304029304
3.333300591002626,0.0,0.09509157509157509,0.03304029304029304
3.3334139409998897,0.0,0.09509157509157509,0.03304029304029304
3.3399457180021273,0.0,0.09509157509157509,0.03304029304029304
3.3444679980020737,0.0,0.09509157509157509,0.03304029304029304
3.344663133000722,0.0,0.09509157509157509,0.03304029304029304
3.350992296000186,0.0,0.09509157509157509,0.03304029304029304
3.3544547029996465,0.0,0.09509157509157509,0.03304029304029304
3.354975195001316,0.0,0.09509157509157509,0.03304029304029304
3.3633135900017805,0.0,0.09509157509157509,0.03304029304029304
3.3698091440019198,0.0,0.0016117216117216117,0.012087912087912087
3.3751735240002745,0.0,0.0016117216117216117,0.012087912087912087
3.3754588219999277,0.0,0.0016117216117216117,0.012087912087912087
3.3840530710003804,0.0,0.0016117216117216117,0.012087912087912087
3.391520438999578,0.0,0.0016117216117216117,0.012087912087912087
3.3954542730025423,0.0,0.008864468864468863,0.006446886446886447
3.3994874730015,0.0,0.0,1.792234432234432
3.402656444999593,0.0,0.0,1.792234432234432
3.403638523999689,0.0,0.0,1.792234432234432
3.404667546001292,0.0,0.0,1.792234432234432
3.4061077299993485,0.0,0.0,1.792234432234432
3.412578993000352,0.0,0.0,1.792234432234432
3.4168065010017017,0.0,0.0136996336996337,0.06769230769230769
3.419096752000769,0.0,0.0136996336996337,0.06769230769230769
3.419350766002026,0.0,0.0136996336996337,0.06769230769230769
3.4274741930021264,0.0,0.0136996336996337,0.06769230769230769
3.4313404929998796,0.0,0.0136996336996337,0.06769230769230769
3.436121938000724,0.0,0.0136996336996337,0.06769230769230769
3.4449141660006717,0.0,0.0136996336996337,0.06769230769230769
3.450607434999256,0.0,0.02095238095238095,0.012893772893772894
3.4550744890002534,0.0,0.02095238095238095,0.012893772893772894
3.4552627299999585,0.0,0.02095238095238095,0.012893772893772894
3.4623942430007446,0.0,0.02095238095238095,0.012893772893772894
3.4672018750025018,0.0,0.02095238095238095,0.012893772893772894
3.4673111560005054,0.0,0.02095238095238095,0.012893772893772894
3.4748136430025625,0.0,0.02095238095238095,0.012893772893772894
3.478868804002559,0.0,0.01934065934065934,0.017728937728937726
3.481218795001041,0.0,0.01934065934065934,0.017728937728937726
3.4813126110020676,0.0,0.01934065934065934,0.017728937728937726
3.4865100660026656,0.0,0.01934065934065934,0.017728937728937726
3.4900539310001477,0.0,0.02336996336996337,0.0032234432234432234
3.4950558010023087,0.0,0.016923076923076923,0.0136996336996337
3.4995365659997333,0.0,0.016117216117216115,0.6664468864468864
3.499810820001585,0.0,0.016117216117216115,0.6664468864468864
3.505324654001015,0.0,0.016117216117216115,0.6664468864468864
3.505675683001755,0.0,0.020146520146520144,0.004835164835164835
3.5118224210018525,0.0,0.020146520146520144,0.004835164835164835
3.5148817410008633,0.0,0.016117216117216115,0.006446886446886447
3.517136763999588,0.0,0.016117216117216115,0.006446886446886447
3.5173655040016456,0.0,0.016117216117216115,0.006446886446886447
3.523891595999885,0.0,0.004029304029304029,0.007252747252747252
3.529558796002675,0.0,0.01531135531135531,0.007252747252747252
3.5351559789996827,0.0,0.01531135531135531,0.007252747252747252
3.5353567359998124,0.0,0.01531135531135531,0.007252747252747252
3.5429096700027003,0.0,0.01531135531135531,0.007252747252747252
3.5467904030010686,0.0,0.01531135531135531,0.007252747252747252
3.5512948030009284,0.0,0.016117216117216115,0.02095238095238095
3.5516451910007163,0.0,0.016117216117216115,0.02095238095238095
3.56112346000009,0.0,0.0,0.018534798534798533
3.567053704002319,0.0,0.0,0.018534798534798533
3.5750046240027586,0.0,0.005641025641025641,0.0
3.5789240230005817,0.0,0.005641025641025641,0.0
3.5819404880021466,0.0,0.005641025641025641,0.0
3.584222554000007,0.0,0.005641025641025641,0.0
3.5844933450025565,0.0,0.005641025641025641,0.0
3.5927961279994634,0.0,0.005641025641025641,0.0
3.5988213810014713,0.0,0.010476190476190476,0.0008058608058608059
3.6019103830003587,0.0,0.008864468864468863,0.05318681318681319
3.604364331000397,0.0,0.008864468864468863,0.05318681318681319
3.6044969409995247,0.0,0.008864468864468863,0.05318681318681319
3.6139569389997632,0.0,0.0,0.0
3.620663895002508,0.0,0.0,0.0
3.628018040002644,0.0,0.0,0.0
3.6318982240009063,0.0,0.0,0.0
3.637377655999444,0.0,0.0,0.0
3.6382956490015204,0.0,0.00967032967032967,0.19824175824175824
3.6392001660024107,0.0,0.00967032967032967,0.19824175824175824
3.6403386120000505,0.0,0.00967032967032967,0.19824175824175824
3.6405853830001433,0.0,0.00967032967032967,0.19824175824175824
3.6459861080002156,0.0,0.00967032967032967,0.19824175824175824
3.6475126010009262,0.0,0.00967032967032967,0.19824175824175824
3.6515417020018504,0.0,0.00967032967032967,0.19824175824175824
3.6568515860017214,0.0,0.00967032967032967,0.19824175824175824
3.659533078000095,0.0,0.005641025641025641,3.1493040293040293
3.6630272469992633,0.0,0.005641025641025641,3.1493040293040293
3.668539795002289,0.0,0.005641025641025641,3.1493040293040293
3.6695610780006973,0.0,0.005641025641025641,3.1493040293040293
3.669865686002595,0.0,0.005641025641025641,3.1493040293040293
3.6794364970010065,0.0,0.005641025641025641,3.1493040293040293
3.6884515000019746,0.0,0.005641025641025641,3.1493040293040293
3.695588171001873,0.0,0.005641025641025641,3.1493040293040293
3.699379649002367,0.0,0.005641025641025641,3.1493040293040293
3.7048647360024916,0.0,0.005641025641025641,3.1493040293040293
3.706698720001441,0.0,0.005641025641025641,3.1493040293040293
3.709935143000621,0.0,0.005641025641025641,3.1493040293040293
3.7107507239998085,0.0,0.005641025641025641,3.1493040293040293
3.712526802002685,0.0,0.014505494505494505,0.008058608058608058
3.715871917000186,0.0,0.014505494505494505,0.008058608058608058
3.715959742999985,0.0,0.014505494505494505,0.008058608058608058
3.721345251000457,0.0,0.014505494505494505,0.008058608058608058
3.723204699999769,0.0,0.014505494505494505,0.008058608058608058
3.7280969519997598,0.0,0.014505494505494505,0.008058608058608058
3.7313835519998975,0.0,0.014505494505494505,0.008058608058608058
3.732234630999301,0.0,0.014505494505494505,0.008058608058608058
3.733844198002771,0.0,0.02095238095238095,0.5479853479853479
3.7382660080002097,0.0,0.02095238095238095,0.5479853479853479
3.740645076999499,0.0,0.02095238095238095,0.5479853479853479
3.747806302002573,0.0,0.0419047619047619,0.03223443223443223
3.7525400380000065,0.0,0.0,0.006446886446886447
3.7526420550020703,0.0,0.0008058608058608059,0.0024175824175824176
3.759283380000852,0.0,0.0008058608058608059,0.0024175824175824176
3.763183064002078,0.0,0.0008058608058608059,0.0024175824175824176
3.768130895001377,0.0,0.0008058608058608059,0.0024175824175824176
3.771508456000447,0.0,0.0008058608058608059,0.0024175824175824176
3.7716593760014803,0.0,0.0008058608058608059,0.0
3.7789700210014416,0.0,0.0008058608058608059,0.0
3.7836684650028474,0.0,0.0008058608058608059,0.0
3.7839209720004874,0.0,0.0008058608058608059,0.0
3.789758121001796,0.0,0.0008058608058608059,0.0
3.7962646930027404,0.0,0.0,0.03465201465201465
3.800070883000444,0.0,0.0,0.03465201465201465
3.8056898009999713,0.0,0.0,0.03465201465201465
3.806049006001558,0.0,0.03465201465201465,0.0273992673992674
3.811720231002255,0.0,0.03465201465201465,0.0273992673992674
3.81702870600202,0.0,0.03465201465201465,0.0273992673992674
3.8193438700000115,0.0,0.03465201465201465,0.0273992673992674
3.8195706290025555,0.0,0.03465201465201465,0.0273992673992674
3.8289353030013444,0.0,0.03465201465201465,0.0273992673992674
3.836189590001595,0.0,0.03465201465201465,0.0273992673992674
3.841085133000888,0.0,0.016923076923076923,0.00967032967032967
3.8472194070018304,0.0,0.016923076923076923,0.00967032967032967
3.850943424000434,0.0,0.005641025641025641,0.005641025641025641
3.859866481001518,0.0,0.005641025641025641,0.005641025641025641
3.865058245999535,0.0,0.004029304029304029,0.0024175824175824176
3.8673384829999122,0.0,0.004029304029304029,0.0024175824175824176
3.8675779740005964,0.0,0.004029304029304029,0.0024175824175824176
3.874794040002598,0.0,0.004029304029304029,0.0024175824175824176
3.8803177640002104,0.0,0.004029304029304029,0.0024175824175824176
3.8846897870025714,0.0,0.004029304029304029,0.0024175824175824176
3.8868873630017333,0.0,0.004029304029304029,0.0024175824175824176
3.8871232450001116,0.0,0.004029304029304029,0.0024175824175824176
3.895272379002563,0.0,0.004029304029304029,0.0024175824175824176
3.899909520001529,0.0,0.004029304029304029,0.0024175824175824176
3.8999990580014128,0.0,0.004029304029304029,0.0024175824175824176
3.9062032610017923,0.0,0.004029304029304029,0.0024175824175824176
3.9108267310002702,0.0,0.012893772893772894,0.0
3.916469791001873,0.0,0.006446886446886447,0.03626373626373627
3.91677269900174,0.0,0.006446886446886447,0.03626373626373627
3.9218923869993887,0.0,0.006446886446886447,0.03626373626373627
3.926273991000926,0.0,0.006446886446886447,0.03626373626373627
3.9263981460026116,0.0,0.006446886446886447,0.03626373626373627
3.9325643070005754,0.0,0.006446886446886447,0.03626373626373627
3.9363746029994218,0.0,0.037875457875457874,0.008058608058608058
3.942852208001568,0.0,0.0,0.5987545787545787
3.9463900049995573,0.0,0.02901098901098901,0.02175824175824176
3.951865260001796,0.0,0.017728937728937726,0.011282051282051281
3.953542750001361,0.0,0.017728937728937726,0.011282051282051281
3.9607945940006175,0.0,0.017728937728937726,0.011282051282051281
3.9663191030012968,0.0,0.017728937728937726,0.011282051282051281
3.975183279999328,0.0,0.017728937728937726,0.011282051282051281
3.9798802540026372,0.0,0.0,0.006446886446886447
3.9799765570023737,0.0,0.0,0.006446886446886447
3.985677533000853,0.0,0.004835164835164835,0.0
3.9858474360007676,0.0,0.010476190476190476,0.0008058608058608059
3.9944585430021107,0.0,0.010476190476190476,0.0008058608058608059
4.000214292002056,0.0,0.010476190476190476,0.0008058608058608059
4.011263231001067,0.0,0.007252747252747252,0.14989010989010987
4.018242501002533,0.0,0.0136996336996337,0.016117216117216115
4.022573293001187,0.0,0.0136996336996337,0.016117216117216115
4.023186455000541,0.0,0.0136996336996337,0.016117216117216115
4.0273966179993295,0.0,0.0136996336996337,0.016117216117216115
4.029559388000052,0.0,0.008058608058608058,0.0
4.029708570000366,0.0,0.008058608058608058,0.0
4.0350159680019715,0.0,0.008058608058608058,0.0
4.036725821002619,0.0,0.006446886446886447,0.03868131868131868
4.040970408001158,0.0,0.006446886446886447,0.03868131868131868
4.042371028001071,0.0,0.006446886446886447,0.03868131868131868
4.046978948001197,0.0,0.004029304029304029,0.0
4.047149182999419,0.0,0.004029304029304029,0.0
4.052512837002723,0.0,0.004029304029304029,0.0
4.054255884002487,0.0,0.004029304029304029,0.0
4.057353857002454,0.0,0.004029304029304029,0.0
4.060258787001658,0.0,0.004029304029304029,0.0
4.061795977002475,0.0,0.008058608058608058,0.004835164835164835
4.065942314002314,0.0,0.008058608058608058,0.004835164835164835
4.069372234000184,0.0,0.008058608058608058,0.004835164835164835
4.069504309001786,0.0,0.008058608058608058,0.004835164835164835
4.077352409000014,0.0,0.008058608058608058,0.004835164835164835
4.081289122001181,0.0,0.008058608058608058,0.004835164835164835
4.084402663000219,0.0,0.016117216117216115,0.020146520146520144
4.08655688699946,0.0,0.005641025641025641,0.0008058608058608059
4.087813336002,0.0,0.005641025641025641,0.0008058608058608059
4.098280320002232,0.0,0.005641025641025641,0.0008058608058608059
4.108439037001517,0.0,0.01531135531135531,0.006446886446886447
4.1129473020009755,0.0,0.01531135531135531,0.006446886446886447
4.1131642750005994,0.0,0.01531135531135531,0.006446886446886447
4.118589771002007,0.0,0.01531135531135531,0.006446886446886447
4.120327341002849,0.0,0.01531135531135531,0.006446886446886447
4.1263133579996065,0.0,0.02901098901098901,0.048351648351648346
4.12951363799948,0.0,0.0,0.0
4.131086642999435,0.0,0.020146520146520144,0.020146520146520144
4.134804997000174,0.0,0.0008058608058608059,0.0
4.1349391090006975,0.0,0.004029304029304029,0.8566300366300367
4.143873218999943,0.0,0.004029304029304029,0.8566300366300367
4.150972924999223,0.0,0.0008058608058608059,0.13699633699633698
4.1566970010026125,0.0,0.0008058608058608059,0.13699633699633698
4.167638204002287,0.0,0.0008058608058608059,0.13699633699633698
4.177635416999692,0.0,0.0008058608058608059,0.13699633699633698
4.1846893500005535,0.0,0.0008058608058608059,0.13699633699633698
4.190590777001489,0.0,0.0008058608058608059,0.13699633699633698
4.199195952001901,0.0,0.0008058608058608059,0.13699633699633698
4.204399561000173,0.0,0.008058608058608058,0.3263736263736263
4.208414829001413,0.0,0.008058608058608058,0.3263736263736263
4.210612713999581,0.0,0.008058608058608058,0.3263736263736263
4.210761480000656,0.0,0.008058608058608058,0.3263736263736263
4.216207510002278,0.0,0.008058608058608058,0.3263736263736263
4.217206907000218,0.0,0.008058608058608058,0.3263736263736263
4.218000802000461,0.0,0.008058608058608058,0.3263736263736263
4.219636950001586,0.0,0.008058608058608058,0.3263736263736263
4.228046135001932,0.0,0.008058608058608058,0.3263736263736263
4.232312803000241,0.0,0.008058608058608058,0.3263736263736263
4.233889998002269,0.0,0.008058608058608058,0.3263736263736263
4.2377655420023075,0.0,0.006446886446886447,2.9268864468864466
4.243713241001387,0.0,0.00967032967032967,0.01934065934065934
4.246878133999417,0.0,0.00967032967032967,0.01934065934065934
4.249129288000404,0.0,0.00967032967032967,0.0032234432234432234
4.249447402002261,0.0,0.00967032967032967,0.0032234432234432234
4.255240541002422,0.0,0.00967032967032967,0.0032234432234432234
4.262460555000871,0.0,0.00967032967032967,0.0032234432234432234
4.266898005000257,0.0,0.008058608058608058,0.044322344322344324
4.268504004001443,0.0,0.008058608058608058,0.044322344322344324
4.274117924000166,0.0,0.008058608058608058,0.044322344322344324
4.274255214000732,0.0,0.008058608058608058,0.044322344322344324
4.279767326999718,0.0,0.008058608058608058,0.044322344322344324
4.280010914000741,0.0,0.008058608058608058,0.044322344322344324
4.2852589530011755,0.0,0.008058608058608058,0.044322344322344324
4.289720409000438,0.0,0.008058608058608058,0.044322344322344324
4.289897793001728,0.0,0.008058608058608058,0.044322344322344324
4.295764127000439,0.0,0.008058608058608058,0.044322344322344324
4.300181916001748,0.0,0.008058608058608058,0.044322344322344324
4.300492476002546,0.0,0.008058608058608058,0.044322344322344324
4.305051043000276,0.0,0.008058608058608058,0.044322344322344324
4.306344250999246,0.0,0.008058608058608058,0.044322344322344324
4.3128184100023645,0.0,0.008058608058608058,0.044322344322344324
4.316617743999814,0.0,0.008058608058608058,0.044322344322344324
4.321933272000024,0.0,0.008058608058608058,0.044322344322344324
4.3264305039992905,0.0,0.008058608058608058,0.044322344322344324
4.330933288001688,0.0,0.008058608058608058,0.044322344322344324
4.331062982000731,0.0,0.011282051282051281,0.008058608058608058
4.336488523000298,0.0,0.011282051282051281,0.008058608058608058
4.338480581001932,0.0,0.011282051282051281,0.008058608058608058
4.3408971630015,0.0,0.011282051282051281,0.008058608058608058
4.3410429720024695,0.0,0.011282051282051281,0.008058608058608058
4.346850305999396,0.0,0.011282051282051281,0.008058608058608058
4.352282809002645,0.0,0.0032234432234432234,0.014505494505494505
4.354057479002222,0.0,0.0032234432234432234,0.014505494505494505
4.357002549000754,0.0,0.0032234432234432234,0.014505494505494505
4.360156497001299,0.0,0.004835164835164835,0.6543589743589743
4.361020485001063,0.0,0.004835164835164835,0.6543589743589743
4.3619472720019985,0.0,0.004835164835164835,0.6543589743589743
4.363502732001507,0.0,0.004835164835164835,0.6543589743589743
4.368013925002742,0.0,0.004835164835164835,0.6543589743589743
4.368270893002773,0.0,0.004835164835164835,0.6543589743589743
4.375704485002643,0.0,0.004835164835164835,0.6543589743589743
4.379662736002501,0.0,0.004835164835164835,0.6543589743589743
4.3838117250015785,0.0,0.004835164835164835,0.6543589743589743
4.386425636999775,0.0,0.004835164835164835,0.6543589743589743
4.39343162500154,0.0,0.004835164835164835,0.6543589743589743
4.397220422000828,0.0,0.018534798534798533,0.0024175824175824176
4.401030233999336,0.0,0.018534798534798533,0.0024175824175824176
4.407218649001152,0.0,0.018534798534798533,0.0024175824175824176
4.415067593999993,0.0,0.018534798534798533,0.0024175824175824176
4.421640992000903,0.0,0.018534798534798533,0.0024175824175824176
4.4270199189995765,0.0,0.018534798534798533,0.0024175824175824176
4.427158366001095,0.0,0.018534798534798533,0.0024175824175824176
4.432557554002415,0.0,0.018534798534798533,0.0024175824175824176
4.4341827370008104,0.0,0.017728937728937726,0.020146520146520144
4.437955844001408,0.0,0.017728937728937726,0.020146520146520144
4.44672514800186,0.0,0.0136996336996337,0.356996336996337
4.453727068001172,0.0,0.0136996336996337,0.356996336996337
4.460112267999648,0.0,0.0032234432234432234,2.6609523809523807
4.464581644002465,0.0,0.0032234432234432234,2.6609523809523807
4.464878093000152,0.0,0.0032234432234432234,2.6609523809523807
4.469997184001841,0.0,0.0032234432234432234,2.6609523809523807
4.4753990579993115,0.0,0.0032234432234432234,2.6609523809523807
4.476338896001835,0.0,0.0032234432234432234,2.6609523809523807
4.477340212000854,0.0,0.0032234432234432234,2.6609523809523807
4.478378064999561,0.0,0.0032234432234432234,2.6609523809523807
4.478602544000751,0.0,0.0032234432234432234,2.6609523809523807
4.484108964999905,0.0,0.0032234432234432234,2.6609523809523807
4.485700350000116,0.0,0.0008058608058608059,0.0
4.491937773000245,0.0,0.0008058608058608059,0.0
4.495084164002037,0.0,0.0008058608058608059,0.0
4.495962471002713,0.0,0.0008058608058608059,0.0
4.497608267000032,0.0,0.0008058608058608059,0.0
4.501601231000677,0.0,0.0008058608058608059,0.0
4.506259579000471,0.0,0.0008058608058608059,0.0
4.5131570379999175,0.0,0.026593406593406595,0.01934065934065934
4.516944137001701,0.0,0.0,0.02175824175824176
4.517024836000928,0.0,0.0,0.02175824175824176
4.523532057999546,0.0,0.0,0.02175824175824176
4.528820963001635,0.0,0.0,0.02175824175824176
4.530659873002151,0.0,0.0136996336996337,0.01531135531135531
4.531522111999948,0.0,0.0136996336996337,0.01531135531135531
4.533123618002719,0.0,0.0136996336996337,0.01531135531135531
4.5381052430020645,0.0,0.0136996336996337,0.01531135531135531
4.5436705150023045,0.0,0.0136996336996337,0.01531135531135531
4.54395725699942,0.0,0.0136996336996337,0.01531135531135531
4.549383562000003,0.0,0.0136996336996337,0.01531135531135531
4.551178420002543,0.0,0.0136996336996337,0.01531135531135531
4.553830785000173,0.0,0.0136996336996337,0.01531135531135531
4.561543892999907,0.0,0.0136996336996337,0.01531135531135531
4.566143634001492,0.0,0.007252747252747252,0.6688644688644688
4.567000307000853,0.0,0.007252747252747252,0.6688644688644688
4.5685505399997055,0.0,0.007252747252747252,0.6688644688644688
4.574428292002267,0.0,0.007252747252747252,0.6688644688644688
4.580821422001463,0.0,0.007252747252747252,0.6688644688644688
4.584626134001155,0.0,0.007252747252747252,0.6688644688644688
4.592418628002633,0.0,0.007252747252747252,0.6688644688644688
4.5974764349994075,0.0,0.007252747252747252,0.6688644688644688
4.6004132449998,0.0,0.0136996336996337,1.3957509157509156
4.602847834001295,0.0,0.0136996336996337,1.3957509157509156
4.603035317999456,0.0,0.0136996336996337,1.3957509157509156
4.610444339999958,0.0,0.0136996336996337,1.3957509157509156
4.614191164000658,0.0,0.0136996336996337,1.3957509157509156
4.618865537999227,0.0,0.0136996336996337,1.3957509157509156
4.619804262001708,0.07575091575091575,0.007252747252747252,0.19824175824175824
4.620116105001216,0.07575091575091575,0.007252747252747252,0.19824175824175824
4.627149977000954,0.07575091575091575,0.007252747252747252,0.19824175824175824
4.633282283000881,0.0,0.008058608058608058,0.01531135531135531
4.6371125700025,0.0,0.008058608058608058,0.01531135531135531
4.643993192999915,0.0,0.008058608058608058,0.16117216117216115
4.6478143770000315,0.0,0.008058608058608058,0.03062271062271062
4.653501832999609,0.0,0.012893772893772894,0.0
4.65364394000062,0.0,0.012893772893772894,0.0
4.661882954002067,0.0,0.012893772893772894,0.0
4.667509741000686,0.0,0.004835164835164835,0.0
4.668324121001206,0.0,0.004835164835164835,0.0
4.670222660002764,0.0,0.004835164835164835,0.0
4.673086583999975,0.0,0.004835164835164835,0.0
4.675959516000148,0.0,0.0,1.0315018315018314
4.67859203700209,0.0,0.0,1.0315018315018314
4.684285233000992,0.0,0.0,1.0315018315018314
4.6843716420007695,0.0,0.0,1.0315018315018314
4.691140538001491,0.0,0.0,1.0315018315018314
4.695600965002086,0.0,0.0,1.0315018315018314
4.696440973999415,0.0,0.0,1.0315018315018314
4.698056033001194,0.0,0.0,1.0315018315018314
4.7012137540004915,0.0,0.0,1.0315018315018314
4.702843172002758,0.0,0.0,1.0315018315018314
4.711977562001266,0.0,0.0,1.0315018315018314
4.715748481001356,0.0,0.012893772893772894,0.004835164835164835
4.721026161001646,0.0,0.012893772893772894,0.004835164835164835
4.724692662999587,0.0,0.00967032967032967,0.22967032967032966
4.729089603002649,0.0,0.00967032967032967,0.22967032967032966
4.730004731001827,0.0,0.00967032967032967,0.22967032967032966
4.731552716002625,0.0,0.00967032967032967,0.22967032967032966
4.735998555999686,0.0,0.00967032967032967,0.22967032967032966
4.736830697002006,0.0,0.0,0.8630769230769231
4.738434729999426,0.0,0.0,0.8630769230769231
4.742958699000155,0.0,0.0,0.8630769230769231
4.743176595002296,0.0,0.0,0.8630769230769231
4.74907294500008,0.0,0.0,0.8630769230769231
4.753483227999823,0.0,0.0,0.8630769230769231
4.7550382490007905,0.0,0.0,0.8630769230769231
4.760718864999944,0.0,0.0,0.8630769230769231
4.76600237400271,0.0,0.0,0.8630769230769231
4.767673804002698,0.0,0.0,0.8630769230769231
4.773757366001519,0.0,0.0,0.8630769230769231
4.777671828000166,0.0,0.0,0.47465201465201456
4.779321771002287,0.0,0.0,0.47465201465201456
4.782435121000162,0.0,0.0,0.47465201465201456
4.785431655000139,0.0,0.0,0.47465201465201456
4.788634327000182,0.0,0.0032234432234432234,0.0
4.788955448999332,0.0,0.006446886446886447,0.0
4.795555699001852,0.0,0.006446886446886447,0.0
4.79860553600156,0.0,0.006446886446886447,0.0
4.801893716001359,0.0,0.006446886446886447,0.0
4.80213224900217,0.0,0.006446886446886447,0.0
4.810307062001812,0.0,0.006446886446886447,0.0
4.8173758310003905,0.0,0.006446886446886447,0.0
4.822488631001761,0.0,0.006446886446886447,0.0
4.827710472000035,0.0,0.006446886446886447,0.0
4.829664860000776,0.0,0.006446886446886447,0.0
4.830685635999544,0.0,0.006446886446886447,0.0
4.831474280999828,0.0,0.006446886446886447,0.004029304029304029
4.833335431001615,0.0,0.006446886446886447,0.004029304029304029
4.834950641001342,0.0,0.006446886446886447,0.004029304029304029
4.838917138000397,0.0,0.0008058608058608059,3.106593406593406
4.845554474999517,0.0,0.0008058608058608059,3.106593406593406
4.849993495001399,0.0,0.0419047619047619,0.1104029304029304
4.8502995039998495,0.0,0.0419047619047619,0.1104029304029304
4.859316627000226,0.0,0.0419047619047619,0.1104029304029304
4.864371601001039,0.0,0.02336996336996337,0.0419047619047619
4.869679380000889,0.0,0.0136996336996337,0.0032234432234432234
4.8722964959997626,0.0,0.0136996336996337,0.0032234432234432234
4.879182393000519,0.0,0.0136996336996337,0.0032234432234432234
4.8846391340011905,0.0,0.0136996336996337,0.0032234432234432234
4.88688561500021,0.0,0.0136996336996337,0.0032234432234432234
4.887006569002551,0.0,0.0136996336996337,0.0032234432234432234
4.893072024002322,0.0,0.0136996336996337,0.0032234432234432234
4.896774425000331,0.0,0.029816849816849816,0.03062271062271062
4.902253591000772,0.0,0.029816849816849816,0.03062271062271062
4.904697743000725,0.0,0.029816849816849816,0.03062271062271062
4.91227255800186,0.0,0.029816849816849816,0.03062271062271062
4.916804005999438,0.0,0.029816849816849816,0.03062271062271062
4.917655331999413,0.0,0.029816849816849816,0.03062271062271062
4.919356652000715,0.0,0.029816849816849816,0.03062271062271062
4.923214574999292,0.0,0.029816849816849816,0.03062271062271062
4.927939566001442,0.0,0.029816849816849816,0.03062271062271062
4.9327515280019725,0.0,0.029816849816849816,0.03062271062271062
4.932985839001049,0.0,0.029816849816849816,0.03062271062271062
4.939206629002001,0.0,0.029816849816849816,0.03062271062271062
4.94579503100249,0.0,0.029816849816849816,0.03062271062271062
4.949150791002467,0.0,0.0,0.01934065934065934
4.9499506460015255,0.0,0.0,0.01934065934065934
4.951580418000958,0.0,0.0,0.01934065934065934
4.956345632999728,0.0,0.0,0.01934065934065934
4.96607793700241,0.0,0.0,0.01934065934065934
4.978347352000128,0.0,0.0,0.01934065934065934
4.987702727001306,0.0,0.0032234432234432234,0.01531135531135531
4.997989747000247,0.0,0.0032234432234432234,0.01531135531135531
5.00724805900245,0.0,0.0032234432234432234,0.01531135531135531
5.014712136002345,0.0,0.0032234432234432234,0.01531135531135531
5.020824838000408,0.0,0.0032234432234432234,0.01531135531135531
5.0263322810023965,0.0,0.008864468864468863,0.03706959706959707
5.026665178000258,0.0,0.008864468864468863,0.03706959706959707
5.032513548001589,0.0,0.008864468864468863,0.03706959706959707
5.041963133000536,0.0,0.008864468864468863,0.03706959706959707
5.047837255002378,0.0,0.008864468864468863,0.03706959706959707
5.058133284001087,0.0,0.008864468864468863,0.03706959706959707
5.0647631240026385,0.0,0.0,0.02336996336996337
5.071007403999829,0.0,0.0,0.02336996336996337
5.077257881999685,0.0,0.0032234432234432234,0.008058608058608058
5.081522003001737,0.0,0.0008058608058608059,1.6512087912087912
5.082525345002068,0.0,0.0008058608058608059,1.6512087912087912
5.083346518000326,0.0,0.0008058608058608059,1.6512087912087912
5.085169422000035,0.0,0.0008058608058608059,1.6512087912087912
5.086904896001215,0.0,0.0008058608058608059,1.6512087912087912
5.092119684002682,0.0,0.004835164835164835,0.0016117216117216117
5.094633444001374,0.0,0.004835164835164835,0.0016117216117216117
5.101322113001515,0.0,0.004835164835164835,0.0016117216117216117
5.108840618999238,0.0,0.004835164835164835,0.0016117216117216117
5.109108425000159,0.0,0.012893772893772894,0.0
5.122683224002685,0.0,0.012893772893772894,0.0
5.136287396002444,0.0,0.0008058608058608059,2.5505494505494504
5.150858701999823,0.0,0.008058608058608058,0.3731135531135531
5.158127634000266,0.0,0.0032234432234432234,0.04593406593406593
5.165968364002765,0.0,0.0032234432234432234,0.04593406593406593
5.171289904999867,0.0,0.0032234432234432234,0.04593406593406593
5.171508768002241,0.0,0.0,0.0
5.177870449002512,0.0,0.005641025641025641,0.025787545787545788
5.182218029000069,0.0,0.004835164835164835,0.5302564102564102
5.183209385999362,0.0,0.0,0.051575091575091575
5.18412602600074,0.0,0.0,0.051575091575091575
5.18502955599979,0.0,0.0,0.051575091575091575
5.186808218000806,0.0,0.0,0.051575091575091575
5.190115172001242,0.0,0.0,0.051575091575091575
5.191023319002852,0.0,0.0,0.051575091575091575
5.191925406001246,0.0,0.0,0.051575091575091575
5.193552835000446,0.0,0.0,0.051575091575091575
5.197462600001018,0.0,0.0,0.051575091575091575
5.203001590001804,0.0,0.0,0.051575091575091575
5.203160552002373,0.0,0.02175824175824176,0.012893772893772894
5.208408509999572,0.0,0.02175824175824176,0.012893772893772894
5.211387316001492,0.0,0.02175824175824176,0.012893772893772894
5.214314562999789,0.0,0.02175824175824176,0.012893772893772894
5.217380057001719,0.0,0.02175824175824176,0.012893772893772894
5.219694701001572,0.0,0.02175824175824176,0.012893772893772894
5.219931800002087,0.0,0.0,0.045128205128205125
5.225228000999778,0.0,0.0,0.045128205128205125
5.227522059001785,0.0,0.03223443223443223,0.033846153846153845
5.227670620002755,0.0,0.03223443223443223,0.033846153846153845
5.233109613000124,0.0,0.03223443223443223,0.033846153846153845
5.234684245999233,0.0,0.0,0.0008058608058608059
5.238420378002047,0.0,0.0,0.0008058608058608059
5.2384956360001524,0.0,0.0,0.0008058608058608059
5.24377275200095,0.0,0.0,0.0008058608058608059
5.24539786600144,0.0,0.0,0.0008058608058608059
5.24949169500178,0.0,0.0016117216117216117,0.011282051282051281
5.254200817002129,0.0,0.0016117216117216117,0.011282051282051281
5.257968502999574,0.0,0.004835164835164835,0.0
5.261867585002619,0.0,0.004835164835164835,0.0
5.264922026999557,0.0,0.004835164835164835,0.0
5.2679342800001905,0.0,0.004835164835164835,0.0
5.271813816001668,0.0,0.004835164835164835,0.0
5.27493761200094,0.0,0.004835164835164835,0.0
5.276636402002623,0.0,0.004835164835164835,0.0
5.280302757000754,0.0,0.004835164835164835,0.0
5.286102499001572,0.0,0.004835164835164835,0.0
5.286167727001157,0.0,0.004835164835164835,0.0
5.291438421001658,0.0,0.004835164835164835,0.0
5.293003168000723,0.0,0.004835164835164835,0.0
5.296671960000822,0.0,0.004835164835164835,0.0
5.303275664002285,0.0,0.004835164835164835,0.0
5.310415760999604,0.0,0.004835164835164835,0.0
5.315643698999338,0.0,0.004835164835164835,0.0
5.317218675001641,0.0,0.0,0.5729670329670329
5.320930535999651,0.0,0.0,0.5729670329670329
5.326161234999745,0.0,0.0,0.5729670329670329
5.327756282000337,0.0,0.008864468864468863,0.004835164835164835
5.3326247750010225,0.0,0.008864468864468863,0.004835164835164835
5.3373532370023895,0.0,0.011282051282051281,0.02095238095238095
5.3429141150008945,0.0,0.0032234432234432234,0.112014652014652
5.343730726999638,0.0,0.0032234432234432234,0.112014652014652
5.346127097000135,0.0,0.0032234432234432234,0.112014652014652
5.351477206000709,0.0,0.02095238095238095,0.014505494505494505
5.3545962250027515,0.0,0.02095238095238095,0.014505494505494505
5.357085542000277,0.0,0.00967032967032967,2.577948717948718
5.36202755100021,0.0,0.00967032967032967,2.577948717948718
5.368846351000684,0.0,0.02095238095238095,0.004029304029304029
5.376376569001877,0.0,0.01934065934065934,0.016923076923076923
5.380851404999703,0.0,0.0,1.7366300366300367
5.3811489030013036,0.0,0.0,0.1926007326007326
5.389771441001358,0.0,0.0,0.1926007326007326
5.396178912000323,0.0,0.0,0.1926007326007326
5.402020205001463,0.0,0.0,0.1926007326007326
5.4094440000008035,0.0,0.0016117216117216117,0.1643956043956044
5.413692687001458,0.0,0.014505494505494505,0.011282051282051281
5.415299328000401,0.0,0.014505494505494505,0.011282051282051281
5.4184438820011565,0.0,0.014505494505494505,0.011282051282051281
5.421145918000548,0.0,0.014505494505494505,0.011282051282051281
5.428518682001595,0.0,0.014505494505494505,0.011282051282051281
5.433369144000608,0.0,0.014505494505494505,0.011282051282051281
5.4399537720019,0.0,0.014505494505494505,0.011282051282051281
5.445918770001299,0.0,0.008058608058608058,0.04996336996336996
5.4490876980016765,0.0,0.008058608058608058,0.04996336996336996
5.450678004002839,0.0,0.004835164835164835,0.0008058608058608059
5.4576309740004945,0.0,0.02901098901098901,0.02095238095238095
5.463673125999776,0.0,0.02901098901098901,0.02095238095238095
5.467964579002,0.0,0.016117216117216115,0.007252747252747252
5.468191601001308,0.0,0.016117216117216115,0.007252747252747252
5.479522229001304,0.0,0.016117216117216115,0.007252747252747252
5.486451664000924,0.0,0.016117216117216115,0.007252747252747252
5.492883754999639,0.0,0.016117216117216115,0.007252747252747252
5.496035427000606,0.0,0.016117216117216115,0.007252747252747252
5.497606544002338,0.0,0.016117216117216115,0.007252747252747252
5.502318402999663,0.0,0.016117216117216115,0.007252747252747252
5.509211099000822,0.0,0.016117216117216115,0.007252747252747252
5.513010869999562,0.0,0.016117216117216115,0.007252747252747252
5.517230620000191,0.0,0.016117216117216115,0.007252747252747252
5.519518124001479,0.0,0.016117216117216115,0.007252747252747252
5.519665632000397,0.0,0.016117216117216115,0.007252747252747252
5.528748248001648,0.0,0.016117216117216115,0.007252747252747252
5.533667089999653,0.0,0.016117216117216115,0.007252747252747252
5.539694974999293,0.0,0.014505494505494505,0.051575091575091575
5.54387799700271,0.0,0.0,0.0016117216117216117
5.544752649999282,0.0,0.0,0.0016117216117216117
5.547093612000026,0.0,0.0,0.0016117216117216117
5.547238417999324,0.0,0.0,0.0016117216117216117
5.552996971000539,0.0,0.0,0.0016117216117216117
5.560683263000101,0.0,0.012893772893772894,0.0273992673992674
5.5645739840001625,0.0,0.012893772893772894,0.0273992673992674
5.569190968002658,0.0,0.012893772893772894,0.0273992673992674
5.569341382000857,0.0,0.012893772893772894,0.0273992673992674
5.577377620000334,0.0,0.012893772893772894,0.0273992673992674
5.581224272002146,0.0,0.014505494505494505,2.7334798534798534
5.585640720000811,0.0,0.014505494505494505,2.7334798534798534
5.587321549999615,0.0,0.014505494505494505,2.7334798534798534
5.590772771000047,0.0,0.00967032967032967,0.01934065934065934
5.591023839002446,0.0,0.029816849816849816,0.025787545787545788
5.597655222001777,0.0,0.029816849816849816,0.025787545787545788
5.602835890000279,0.0,0.029816849816849816,0.025787545787545788
5.603756420001446,0.0,0.029816849816849816,0.025787545787545788
5.605340546000662,0.0,0.029816849816849816,0.025787545787545788
5.6097865240008105,0.0,0.029816849816849816,0.025787545787545788
5.610052857002302,0.0,0.0,0.0
5.616854687999876,0.0,0.0,0.0
5.6235085430016625,0.0,0.0,0.0
5.626838951000536,0.0,0.02498168498168498,0.008864468864468863
5.627019326002483,0.0,0.0016117216117216117,0.0
5.63248922099956,0.0,0.0016117216117216117,0.0
5.632695234002313,0.0,0.0016117216117216117,0.0
5.638067496001895,0.0,0.0016117216117216117,0.0
5.640135754001676,0.0,0.006446886446886447,1.3997802197802196
5.643502218001231,0.0,0.0136996336996337,0.24578754578754577
5.653202203000546,0.0,0.0136996336996337,0.24578754578754577
5.660442397002043,0.0,0.03304029304029304,0.0032234432234432234
5.664217238001584,0.0,0.03304029304029304,0.0032234432234432234
5.668789535000542,0.0,0.03304029304029304,0.0032234432234432234
5.668868124001165,0.0,0.012893772893772894,0.014505494505494505
5.6779820150004525,0.0,0.012893772893772894,0.014505494505494505
5.6832664940011455,0.0,0.012893772893772894,0.014505494505494505
5.686727437001537,0.0,0.012893772893772894,0.014505494505494505
5.693883943000401,0.0,0.012893772893772894,0.014505494505494505
5.697691086999839,0.0,0.012893772893772894,0.014505494505494505
5.702163449001091,0.0,0.012893772893772894,0.014505494505494505
5.705285157000617,0.0,0.012893772893772894,0.014505494505494505
5.705599474000337,0.0,0.012893772893772894,0.014505494505494505
5.712185763000889,0.0,0.012893772893772894,0.014505494505494505
5.716087073000381,0.0,0.012893772893772894,0.014505494505494505
5.721060842999577,0.0,0.006446886446886447,0.3199267399267399
5.727823962002731,0.0,0.006446886446886447,0.3199267399267399
5.73170638600277,0.0,0.006446886446886447,0.3199267399267399
5.736175236001145,0.0,0.006446886446886447,0.3199267399267399
5.736371816001338,0.0,0.006446886446886447,0.3199267399267399
5.7422777870015125,0.0,0.006446886446886447,0.6720879120879121
5.7424178309993295,0.0,0.02175824175824176,0.09106227106227105
5.746955918002641,0.0,0.02175824175824176,0.09106227106227105
5.747217019001255,0.0,0.02175824175824176,0.09106227106227105
5.752655333002622,0.0,0.02175824175824176,0.09106227106227105
5.755231748000369,0.0,0.0,0.0016117216117216117
5.760915290000412,0.0,0.0,0.0016117216117216117
5.761051591001888,0.0,0.0,0.0016117216117216117
5.7661777720022656,0.0,0.0,0.0016117216117216117
5.769199397000193,0.0,0.0,0.0016117216117216117
5.771348854999815,0.0,0.0,0.0016117216117216117
5.77171058300155,0.0,0.0,0.0016117216117216117
5.780072192999796,0.0,0.0,0.0016117216117216117
5.784716926002147,0.0,0.014505494505494505,3.096117216117216
5.784813475002011,0.0,0.014505494505494505,3.096117216117216
5.791388402001758,0.0,0.014505494505494505,3.096117216117216
5.795717622000666,0.0,0.0136996336996337,0.0032234432234432234
5.796035916999244,0.0,0.024175824175824173,2.332967032967033
5.8020140750013525,0.0,0.024175824175824173,2.332967032967033
5.806848038002499,0.0,0.024175824175824173,2.332967032967033
5.811666336001508,0.0,0.024175824175824173,2.332967032967033
5.816176456002722,0.0,0.024175824175824173,2.332967032967033
5.816518106999865,0.0,0.024175824175824173,2.332967032967033
5.822097336000297,0.0,0.024175824175824173,2.332967032967033
5.8223834130003524,0.0,0.024175824175824173,2.332967032967033
5.8295395740024105,0.0,0.024175824175824173,2.332967032967033
5.835082338002394,0.0,0.024175824175824173,2.332967032967033
5.835223443002178,0.0,0.024175824175824173,2.332967032967033
5.84389931899932,0.0,0.024175824175824173,2.332967032967033
5.849373831999401,0.0,0.01934065934065934,0.06446886446886446
5.850181860001612,0.0,0.01934065934065934,0.06446886446886446
5.851769224002055,0.0,0.01934065934065934,0.06446886446886446
5.85960195500229,0.0,0.01934065934065934,0.06446886446886446
5.863801524999872,0.0,0.01934065934065934,0.06446886446886446
5.864632730001176,0.0,0.01934065934065934,0.06446886446886446
5.866253875999973,0.0,0.005641025641025641,0.044322344322344324
5.870218276999367,0.0,0.0016117216117216117,0.03142857142857143
5.876066086999344,0.0,0.0016117216117216117,0.03142857142857143
5.881266479002079,0.0,0.0016117216117216117,0.03142857142857143
5.883152179001627,0.0,0.004835164835164835,2.4208058608058605
5.885435916999995,0.0,0.012893772893772894,0.09267399267399268
5.885601504000078,0.0,0.012893772893772894,0.09267399267399268
5.891912374001549,0.0,0.012893772893772894,0.09267399267399268
5.895773856002052,0.0,0.012893772893772894,0.09267399267399268
5.901203036002698,0.0,0.0,2.5787545787545785
5.902065210000728,0.0,0.0,2.5787545787545785
5.903622910002014,0.0,0.0,2.5787545787545785
5.909798947999661,0.0,0.0,2.5787545787545785
5.912860071999603,0.0,0.0,2.5787545787545785
5.915108319000865,0.0,0.0,2.5787545787545785
5.915961599999719,0.0,0.007252747252747252,3.3
5.9175568589998875,0.0,0.007252747252747252,3.3
5.923671551001462,0.0,0.007252747252747252,3.3
5.927542810000887,0.0,0.007252747252747252,3.3
5.932706627001608,0.0,0.007252747252747252,3.3
5.9349352850003925,0.0,0.007252747252747252,3.3
5.93512046899923,0.0,0.007252747252747252,3.3
5.941831323001679,0.0,0.007252747252747252,3.3
5.945624481002596,0.0,0.0,1.0258608058608059
5.950859541000682,0.0,0.0,0.012893772893772894
5.953802717001963,0.0,0.016923076923076923,0.014505494505494505
5.957719521000399,0.0,0.0024175824175824176,0.03868131868131868
5.96229285300069,0.0,0.0,1.0967765567765566
5.97028053500253,0.0,0.012893772893772894,0.07978021978021978
5.976083467001445,0.0,0.018534798534798533,0.02336996336996337
5.981216186999518,0.0,0.022564102564102562,0.03706959706959707
5.983547051000642,0.0,0.022564102564102562,0.03706959706959707
5.983784181000374,0.0,0.022564102564102562,0.03706959706959707
5.993128411999351,0.0,0.022564102564102562,0.03706959706959707
5.998104632002651,0.0,0.022564102564102562,0.03706959706959707
6.001233873001183,0.0,0.03062271062271062,2.5787545787545785
6.0034978770017915,0.0,0.03062271062271062,2.5787545787545785
6.003765841000131,0.0,0.03062271062271062,2.5787545787545785
6.01008333199934,0.0,0.03062271062271062,2.5787545787545785
6.013863250002032,0.0,0.03062271062271062,2.5787545787545785
6.019905960001779,0.0,0.03062271062271062,2.5787545787545785
6.026259540001774,0.0,0.03062271062271062,2.5787545787545785
6.029576550001366,0.0,0.03062271062271062,2.5787545787545785
6.030544519002433,0.0,0.008058608058608058,0.0
6.031434407999768,0.0,0.008058608058608058,0.0
6.032981767002639,0.0,0.008058608058608058,0.0
6.039154518999567,0.0,0.008058608058608058,0.0
6.042965095002728,0.0,0.008058608058608058,0.0
6.047552522002661,0.0,0.008058608058608058,0.0
6.047648661002313,0.0,0.008058608058608058,0.0
6.053507128999627,0.0,0.008058608058608058,0.0
6.0611961760005215,0.0,0.008058608058608058,0.0
6.065719614001864,0.0,0.010476190476190476,0.32395604395604394
6.066543687000376,0.0,0.010476190476190476,0.32395604395604394
6.068089364001935,0.0,0.017728937728937726,0.0016117216117216117
6.074765291999938,0.0,0.017728937728937726,0.0016117216117216117
6.078385103999608,0.0,0.028205128205128206,2.677069597069597
6.078471062002791,0.0,0.028205128205128206,2.677069597069597
6.084394588000578,0.0,0.028205128205128206,2.677069597069597
6.095181962002243,0.0,0.028205128205128206,2.677069597069597
6.101040166002349,0.0,0.016923076923076923,0.01934065934065934
6.101205887000106,0.0,0.0032234432234432234,1.1693040293040293
6.10901290000038,0.0,0.0032234432234432234,1.1693040293040293
6.113865646002523,0.0,0.00967032967032967,0.01934065934065934
6.113965799002472,0.0,0.0016117216117216117,2.913186813186813
6.12027400900115,0.0,0.0016117216117216117,2.913186813186813
6.129527569002676,0.0,0.0016117216117216117,2.913186813186813
6.135508252002182,0.0,0.0016117216117216117,2.913186813186813
6.143555075999757,0.0,0.0016117216117216117,2.913186813186813
6.14813408000191,0.0,0.008058608058608058,3.1887912087912085
6.154113896001945,0.0,0.0008058608058608059,0.006446886446886447
6.1542013739999675,0.0,0.0008058608058608059,0.006446886446886447
6.160485170999891,0.0,0.0008058608058608059,0.006446886446886447
6.164274991999264,0.0,0.0008058608058608059,0.006446886446886447
6.168845782001881,0.0,0.0008058608058608059,0.006446886446886447
6.1690543290023925,0.0,0.0008058608058608059,0.006446886446886447
6.1760111630028405,0.0,0.0008058608058608059,0.006446886446886447
6.1792667400004575,0.0,0.0008058608058608059,0.006446886446886447
6.180119107000792,0.0,0.0008058608058608059,0.006446886446886447
6.181614452001668,0.0,0.0008058608058608059,0.006446886446886447
6.186693278999883,0.0,0.0008058608058608059,0.006446886446886447
6.190321377001965,0.0,0.0008058608058608059,0.006446886446886447
6.195273131001159,0.0,0.0008058608058608059,0.006446886446886447
6.199468754999543,0.0,0.010476190476190476,0.020146520146520144
6.202221489002113,0.0,0.010476190476190476,0.020146520146520144
6.205730736000987,0.0,0.010476190476190476,0.020146520146520144
6.206471751000208,0.0,0.010476190476190476,0.020146520146520144
6.208573010000691,0.0,0.010476190476190476,0.020146520146520144
6.20945407399995,0.0,0.010476190476190476,0.020146520146520144
6.210972995999327,0.0,0.010476190476190476,0.02095238095238095
6.215860268999677,0.0,0.010476190476190476,0.02095238095238095
6.220703941002284,0.0,0.010476190476190476,0.02095238095238095
6.220865098999639,0.0,0.03948717948717949,1.8913553113553112
6.225786071001494,0.0,0.00967032967032967,0.5375091575091575
6.232295183999668,0.0,0.004835164835164835,0.21274725274725276
6.240880482000648,0.0,0.004835164835164835,0.21274725274725276
6.24489332200028,0.0,0.004835164835164835,0.21274725274725276
6.248071885001991,0.0,0.004835164835164835,0.21274725274725276
6.25049278699953,0.0,0.007252747252747252,0.0
6.259414480002306,0.0,0.007252747252747252,0.0
6.264273262000643,0.0,0.007252747252747252,0.0
6.2697392020018015,0.0,0.007252747252747252,0.0
6.2711835949994565,0.0,0.007252747252747252,0.0
6.277761428002123,0.0,0.007252747252747252,0.0
6.281660378001106,0.0,0.00967032967032967,1.8325274725274725
6.286173276999762,0.0,0.00967032967032967,1.8325274725274725
6.286471637002251,0.0,0.00967032967032967,1.8325274725274725
6.293164817001525,0.0,0.00967032967032967,1.8325274725274725
6.2972348100011,0.0,0.004835164835164835,0.011282051282051281
6.299529629999597,0.0,0.004835164835164835,0.011282051282051281
6.299693963999744,0.0,0.004835164835164835,0.011282051282051281
6.305213367999386,0.0,0.004835164835164835,0.011282051282051281
6.305551639001351,0.0,0.004835164835164835,0.011282051282051281
6.310441450001235,0.0,0.004835164835164835,0.011282051282051281
6.3151666470002965,0.0,0.004835164835164835,0.011282051282051281
6.320187977002206,0.0,0.004835164835164835,0.011282051282051281
6.323672689002706,0.0,0.01531135531135531,2.6609523809523807
6.324425040002097,0.0,0.008058608058608058,0.32798534798534795
6.326677371002006,0.0,0.008058608058608058,0.32798534798534795
6.326935954002693,0.0,0.008058608058608058,0.32798534798534795
6.331860962000064,0.0,0.008058608058608058,0.32798534798534795
6.336731146999227,0.0,0.008058608058608058,0.32798534798534795
6.341771940002218,0.0,0.008058608058608058,0.32798534798534795
6.34534202299983,0.0,0.008058608058608058,0.32798534798534795
6.345477630002279,0.0,0.008058608058608058,0.32798534798534795
6.35104880200015,0.0,0.008058608058608058,0.32798534798534795
6.351801509001234,0.0,0.0,0.0136996336996337
6.353963718000159,0.0,0.0,0.0136996336996337
6.354736058001436,0.0,0.0,0.0136996336996337
6.356901580002159,0.0,0.0,0.0136996336996337
6.357160179999482,0.0,0.0,0.0136996336996337
6.362117576001765,0.0,0.0,0.0136996336996337
6.366950732000987,0.0,0.0,0.0136996336996337
6.370589305002795,0.0,0.0,0.0136996336996337
6.375572643999476,0.0,0.0,0.0136996336996337
6.3796840620016155,0.0,0.0,0.0136996336996337
6.382521495001129,0.0,0.0,0.0136996336996337
6.386718696001481,0.0,0.004835164835164835,0.21355311355311357
6.389111775002675,0.0,0.014505494505494505,0.037875457875457874
6.389291150000645,0.0,0.0,0.0273992673992674
6.394973647002189,0.0,0.0,0.0273992673992674
6.400454307000473,0.0,0.0,0.0273992673992674
6.401330998000049,0.0,0.011282051282051281,2.3007326007326006
6.402259173002676,0.0,0.011282051282051281,2.3007326007326006
6.403822972999478,0.0,0.011282051282051281,2.3007326007326006
6.40772902900062,0.0,0.011282051282051281,2.3007326007326006
6.411508649001917,0.0,0.011282051282051281,2.3007326007326006
6.415765166002529,0.0,0.011282051282051281,2.3007326007326006
6.417915575002553,0.0,0.02336996336996337,2.5787545787545785
6.418693139999959,0.0,0.02336996336996337,2.5787545787545785
6.420846304001316,0.0,0.02336996336996337,2.5787545787545785
6.421597643002315,0.0,0.02336996336996337,2.5787545787545785
6.423885195999901,0.0,0.02336996336996337,2.5787545787545785
6.4240437200023734,0.0,0.02336996336996337,2.5787545787545785
6.42879901500055,0.0,0.02336996336996337,2.5787545787545785
6.429002023000066,0.0,0.0016117216117216117,0.04029304029304029
6.433897979000903,0.0,0.0016117216117216117,0.04029304029304029
6.438930804000847,0.0,0.025787545787545788,0.014505494505494505
6.443210915000236,0.0,0.025787545787545788,0.014505494505494505
6.444730987001094,0.0,0.025787545787545788,0.014505494505494505
6.449015975002112,0.0,0.014505494505494505,0.03062271062271062
6.451202075000765,0.0,0.014505494505494505,0.03062271062271062
6.4515020700018795,0.0,0.014505494505494505,0.03062271062271062
6.456606161002128,0.0,0.014505494505494505,0.03062271062271062
6.460147877001873,0.0,0.014505494505494505,0.03062271062271062
6.46034309800234,0.0,0.014505494505494505,0.03062271062271062
6.465347334000398,0.0,0.014505494505494505,0.03062271062271062
6.471528416001092,0.0,0.014505494505494505,0.03062271062271062
6.475370875999943,0.0,0.018534798534798533,0.017728937728937726
6.479982225999265,0.0,0.00967032967032967,2.573919413919414
6.4801663940015715,0.0,0.0,3.3
6.485484159002226,0.0,0.0,3.3
6.488344759000029,0.0,0.0,0.0024175824175824176
6.49185361399941,0.0,0.0,0.0024175824175824176
6.491945477999252,0.0,0.0,0.0024175824175824176
6.496908048000478,0.0,0.0,0.0024175824175824176
6.500385016002838,0.0,0.0,0.0024175824175824176
6.50061567100056,0.0,0.0,0.0024175824175824176
6.505506995999895,0.0,0.0,0.0024175824175824176
6.510372045999247,0.0,0.0,0.0024175824175824176
6.515306913999666,0.0,0.0,0.0024175824175824176
6.51927509700181,0.0,0.0,0.0024175824175824176
6.522390422000171,0.0,0.0,0.0024175824175824176
6.524707726002816,0.0,0.0,0.0024175824175824176
6.524842438000633,0.0,0.0,0.0024175824175824176
6.530749855002796,0.0,0.0,0.0024175824175824176
6.536027420999744,0.0,0.16117216117216115,0.007252747252747252
6.538283014000626,0.0,0.16117216117216115,0.007252747252747252
6.538506993001647,0.0,0.16117216117216115,0.007252747252747252
6.543785391000711,0.0,0.16117216117216115,0.007252747252747252
6.545917680999992,0.0,0.16117216117216115,0.007252747252747252
6.546726610002224,0.0,0.16117216117216115,0.007252747252747252
6.54888470700098,0.0,0.16117216117216115,0.007252747252747252
6.550302435000049,0.0,0.16117216117216115,0.007252747252747252
6.555207340999914,0.0,0.16117216117216115,0.007252747252747252
6.56007298500117,0.0,0.008864468864468863,1.1265934065934065
6.565008036999643,0.0,0.008864468864468863,1.1265934065934065
6.569197750999592,0.0,0.008864468864468863,1.1265934065934065
6.572046499000862,0.0,0.008864468864468863,1.1265934065934065
6.57616379600222,0.0,0.008864468864468863,1.1265934065934065
6.578982386999996,0.0,0.00967032967032967,2.5755311355311354
6.582449068999267,0.0,0.00967032967032967,2.5755311355311354
6.582746795000276,0.0,0.00967032967032967,2.5755311355311354
6.587727217000065,0.0,0.00967032967032967,2.5755311355311354
6.591892555999948,0.0,0.0,0.00967032967032967
6.594717855001363,0.0,0.004029304029304029,0.016117216117216115
6.598153789000207,0.0,0.008864468864468863,1.4223443223443224
6.598376469999494,0.0,0.008864468864468863,1.4223443223443224
6.603243723002379,0.0,0.008864468864468863,1.4223443223443224
6.608107412001118,0.0,0.008864468864468863,1.4223443223443224
6.613038376002805,0.0,0.008864468864468863,1.4223443223443224
6.617927221999707,0.0,0.008864468864468863,1.4223443223443224
6.618011588001536,0.0,0.008864468864468863,1.4223443223443224
6.622881588002201,0.0,0.008864468864468863,1.4223443223443224
6.6277338530017005,0.0,0.008864468864468863,1.4223443223443224
6.627873702000215,0.0,0.014505494505494505,0.02095238095238095
6.63262887000019,0.0,0.014505494505494505,0.02095238095238095
6.632840317000955,0.0,0.014505494505494505,0.02095238095238095
6.637726553002722,0.0,0.014505494505494505,0.02095238095238095
6.6378024040022865,0.0,0.014505494505494505,0.02095238095238095
6.642752496001776,0.0,0.014505494505494505,0.02095238095238095
6.648254383002495,0.0,0.014505494505494505,0.02095238095238095
6.649831041999278,0.0,0.014505494505494505,0.02095238095238095
6.65428924400112,0.0,0.014505494505494505,0.02095238095238095
6.655825215002551,0.0,0.014505494505494505,0.02095238095238095
6.660335622000275,0.0,0.014505494505494505,0.02095238095238095
6.660578227001679,0.0,0.014505494505494505,0.02095238095238095
6.665774922999844,0.0,0.014505494505494505,0.02095238095238095
6.668215351000981,0.0,0.014505494505494505,0.02095238095238095
6.668293533999531,0.0,0.014505494505494505,0.02095238095238095
6.6737464489997365,0.0,0.014505494505494505,0.02095238095238095
6.675246533999598,0.0,0.0,0.0016117216117216117
6.679589276001934,0.0,0.0,0.0016117216117216117
6.681717624000157,0.0,0.0,0.0016117216117216117
6.683235311000317,0.0,0.0,0.0016117216117216117
6.687470849999954,0.0,0.0136996336996337,0.07172161172161172
6.688949089999369,0.0,0.005641025641025641,0.0
6.693164207001246,0.0,0.005641025641025641,0.0
6.695931625999947,0.0,0.005641025641025641,0.0
6.699362072002259,0.0,0.005641025641025641,0.0
6.699603580000257,0.0,0.005641025641025641,0.0
6.704525619999913,0.0,0.005641025641025641,0.0
6.710058254000614,0.0,0.005641025641025641,0.0
6.711062458001834,0.0,0.017728937728937726,0.03706959706959707
6.711919085999398,0.0,0.017728937728937726,0.03706959706959707
6.713626189000934,0.0,0.017728937728937726,0.03706959706959707
6.716586523001752,0.0,0.017728937728937726,0.03706959706959707
6.719730349999736,0.0,0.017728937728937726,0.03706959706959707
6.722011289002694,0.0,0.017728937728937726,0.03706959706959707
6.722116590000951,0.0,0.017728937728937726,0.03706959706959707
6.727636483999959,0.0,0.018534798534798533,0.2909157509157509
6.728444448999653,0.0,0.018534798534798533,0.2909157509157509
6.730084116999933,0.0,0.018534798534798533,0.2909157509157509
6.734674707000522,0.0,0.018534798534798533,0.2909157509157509
6.73550395699931,0.0,0.02336996336996337,2.5755311355311354
6.737258602002839,0.0,0.02336996336996337,2.5755311355311354
6.740365678000671,0.0,0.004029304029304029,2.5561904761904763
6.742746624000574,0.0,0.004029304029304029,2.5561904761904763
6.7430743430013536,0.0,0.01934065934065934,0.6358241758241758
6.747585412002081,0.0,0.01934065934065934,0.6358241758241758
6.748392227000295,0.0,0.01934065934065934,0.6358241758241758
6.749978685002134,0.0,0.01934065934065934,0.6358241758241758
6.754635749002773,0.0,0.01934065934065934,0.6358241758241758
6.754745284000819,0.0,0.004835164835164835,0.0008058608058608059
6.760355089001678,0.0,0.004835164835164835,0.0008058608058608059
6.760655919999408,0.0,0.004835164835164835,0.0008058608058608059
6.7660357679997105,0.0,0.004835164835164835,0.0008058608058608059
6.767669231001491,0.0,0.004835164835164835,0.0008058608058608059
6.7715446740003244,0.0,0.004835164835164835,0.0008058608058608059
6.774620661999506,0.0,0.004835164835164835,0.0008058608058608059
6.7770296490016335,0.0,0.004835164835164835,0.0008058608058608059
6.782301703002304,0.0,0.004835164835164835,0.0008058608058608059
6.783855038000183,0.0,0.007252747252747252,0.3771428571428571
6.787476788002095,0.0,0.007252747252747252,0.3771428571428571
6.792670851002185,0.0,0.007252747252747252,0.3771428571428571
6.795504869001888,0.0,0.007252747252747252,0.3771428571428571
6.798995266002748,0.0,0.011282051282051281,2.5755311355311354
6.799217772000702,0.0,0.011282051282051281,2.5755311355311354
6.80401424700176,0.0,0.011282051282051281,2.5755311355311354
6.804167836002307,0.0,0.011282051282051281,2.5755311355311354
6.809356959001889,0.0,0.011282051282051281,2.5755311355311354
6.812539315000322,0.0,0.011282051282051281,2.5755311355311354
6.814084371999343,0.0,0.011282051282051281,2.5755311355311354
6.818505283001286,0.0,0.011282051282051281,2.5755311355311354
6.81941382900186,0.0,0.017728937728937726,2.577142857142857
6.8210187629993015,0.0,0.017728937728937726,2.577142857142857
6.824920471000951,0.0,0.017728937728937726,2.577142857142857
6.828663837000931,0.0,0.017728937728937726,2.577142857142857
6.8339860590022,0.0,0.017728937728937726,2.577142857142857
6.836375401002442,0.0,0.0136996336996337,0.0136996336996337
6.836576384001091,0.0,0.0136996336996337,0.0136996336996337
6.84189040199999,0.0,0.0136996336996337,0.0136996336996337
6.8441345390019706,0.0,0.0136996336996337,0.0136996336996337
6.844367064000835,0.0,0.0136996336996337,0.0136996336996337
6.849600722001924,0.0,0.0136996336996337,0.0136996336996337
6.8531023989999085,0.0,0.0136996336996337,0.0136996336996337
6.8533662619993265,0.0,0.0136996336996337,0.0136996336996337
6.8582306429998425,0.0,0.0136996336996337,0.0136996336996337
6.8632362710013695,0.0,0.0136996336996337,0.0136996336996337
6.866688431000512,0.0,0.0136996336996337,0.0136996336996337
6.867423554002016,0.0,0.0,0.008058608058608058
6.869575532000454,0.0,0.0,0.008058608058608058
6.869797060000565,0.0,0.0,0.008058608058608058
6.87543935299982,0.0,0.0,0.008058608058608058
6.875670372999593,0.0,0.0,0.008058608058608058
6.88090972700229,0.0,0.0,0.008058608058608058
6.88406787400163,0.0,0.016117216117216115,1.4908424908424909
6.884952935000911,0.0,0.016117216117216115,1.4908424908424909
6.886638751999271,0.0,0.016117216117216115,1.4908424908424909
6.890461448001588,0.0,0.016117216117216115,1.4908424908424909
6.894991296001535,0.0,0.0,0.0
6.895098737000808,0.0,0.0,0.0
6.900803668002482,0.0,0.008058608058608058,2.5787545787545785
6.900917536000634,0.0,0.0032234432234432234,3.3
6.906269402999897,0.0,0.0032234432234432234,3.3
6.907703744000173,0.0,0.0032234432234432234,3.3
6.912650577000022,0.0,0.0032234432234432234,3.3
6.916801145001955,0.0,0.0032234432234432234,3.3
6.918993336999847,0.0,0.0,2.5787545787545785
6.9197866690010414,0.0,0.0,2.5787545787545785
6.92191064600047,0.0,0.0,2.5787545787545785
6.923380862001068,0.0,0.0,2.5787545787545785
6.928347452001617,0.0,0.0,2.5787545787545785
6.932967419001216,0.0,0.0,2.5787545787545785
6.933243655999831,0.0,0.0,2.5787545787545785
6.938645673002611,0.0,0.0,2.5787545787545785
6.940183451002667,0.0,0.0,2.5787545787545785
6.943992663000245,0.0,0.0,2.5787545787545785
6.948431286000414,0.0,0.0,2.5787545787545785
6.950686759999371,0.0,0.0,2.5787545787545785
6.950867142000789,0.0,0.0,2.5787545787545785
6.956042380999861,0.0,0.0,2.5787545787545785
6.959230576001573,0.0,0.0,2.5787545787545785
6.960835383000813,0.0,0.016923076923076923,3.3
6.9653743369999574,0.0,0.026593406593406595,1.0008791208791208
6.966982502002793,0.0,0.026593406593406595,1.0008791208791208
6.9708495340019,0.0,0.026593406593406595,1.0008791208791208
6.975372379001783,0.0,0.026593406593406595,1.0008791208791208
6.976332810001622,0.0,0.026593406593406595,1.0008791208791208
6.976607815002353,0.0,0.026593406593406595,1.0008791208791208
6.981988384999568,0.0,0.026593406593406595,1.0008791208791208
6.984215437001694,0.0,0.026593406593406595,1.0008791208791208
6.984467310001492,0.0,0.026593406593406595,1.0008791208791208
6.989611512999545,0.0,0.026593406593406595,1.0008791208791208
6.992488485000649,0.0,0.026593406593406595,1.0008791208791208
6.995281731000432,0.0,0.026593406593406595,1.0008791208791208
6.998878050002531,0.0,0.026593406593406595,1.0008791208791208
6.9991652480021,0.0,0.026593406593406595,1.0008791208791208
7.003953436000302,0.0,0.026593406593406595,1.0008791208791208
7.004077876001247,0.0,0.004835164835164835,0.26754578754578756
7.0088123669993365,0.0,0.004835164835164835,0.26754578754578756
7.009099587001401,0.0,0.004835164835164835,0.26754578754578756
7.013932347999798,0.0,0.004835164835164835,0.26754578754578756
7.014008096000907,0.0,0.02095238095238095,0.024175824175824173
7.018867950999265,0.0,0.02095238095238095,0.024175824175824173
7.023686163000093,0.0,0.02095238095238095,0.024175824175824173
7.023756938000588,0.0,0.02095238095238095,0.024175824175824173
7.029358470001171,0.0,0.02095238095238095,0.024175824175824173
7.029513233999751,0.0,0.02095238095238095,0.024175824175824173
7.034966232000443,0.0,0.02095238095238095,0.024175824175824173
7.035843533001753,0.0,0.02095238095238095,0.024175824175824173
7.037487498000701,0.0,0.02095238095238095,0.024175824175824173
7.042041279000841,0.0,0.02095238095238095,0.024175824175824173
7.04216743500001,0.0,0.0024175824175824176,1.257142857142857
7.047143708001386,0.0,0.0024175824175824176,1.257142857142857
7.050645228002395,0.0,0.0024175824175824176,1.257142857142857
7.0508787729995674,0.0,0.026593406593406595,0.014505494505494505
7.055844230999355,0.0,0.026593406593406595,0.014505494505494505
7.0607639830013795,0.0,0.026593406593406595,0.014505494505494505
7.066325912001048,0.0,0.026593406593406595,0.014505494505494505
7.066659686999628,0.0,0.026593406593406595,0.014505494505494505
7.071342598999763,0.0,0.011282051282051281,0.0419047619047619
7.071518395001476,0.0,0.011282051282051281,0.0419047619047619
7.077095783002733,0.0,0.011282051282051281,0.0419047619047619
7.077269763001823,0.0,0.011282051282051281,0.0419047619047619
7.0828555330008385,0.0,0.011282051282051281,0.0419047619047619
7.083645337999769,0.0,0.011282051282051281,0.0419047619047619
7.085241163000319,0.0,0.005641025641025641,0.03706959706959707
7.089184997999837,0.0,0.005641025641025641,0.03706959706959707
7.093066859000828,0.0,0.005641025641025641,0.03706959706959707
7.0960710310027935,0.0,0.004029304029304029,0.0
7.097668251000869,0.0,0.004029304029304029,0.0
7.102281583000149,0.0,0.004029304029304029,0.0
7.1025334280020616,0.0,0.004029304029304029,0.0
7.107872503002,0.0,0.004029304029304029,0.0
7.109614029999648,0.0,0.011282051282051281,0.01934065934065934
7.112636326000938,0.0,0.011282051282051281,0.01934065934065934
7.115624238002056,0.0,0.011282051282051281,0.01934065934065934
7.118040507000842,0.0,0.011282051282051281,0.01934065934065934
7.1181602880024,0.0,0.011282051282051281,0.01934065934065934
7.123760833001143,0.0,0.011282051282051281,0.01934065934065934
7.123988376999478,0.0,0.011282051282051281,0.01934065934065934
7.129268826000043,0.0,0.011282051282051281,0.01934065934065934
7.131766765000066,0.0,0.011282051282051281,0.01934065934065934
7.131871773999592,0.0,0.0,0.0
7.137435295000614,0.0,0.0,0.0
7.137678991002758,0.0,0.006446886446886447,2.5763369963369964
7.1432044050015975,0.0,0.006446886446886447,2.5763369963369964
7.144105321000097,0.0,0.016117216117216115,0.253040293040293
7.145818804001465,0.0,0.016117216117216115,0.253040293040293
7.148885197999334,0.0,0.016117216117216115,0.253040293040293
7.1511634580019745,0.0,0.016117216117216115,0.253040293040293
7.151371601001301,0.0,0.016117216117216115,0.253040293040293
7.1570142390010005,0.0,0.016117216117216115,0.253040293040293
7.157253290999506,0.0,0.018534798534798533,2.5787545787545785
7.1624746400011645,0.0,0.022564102564102562,2.573113553113553
7.1654987969996,0.0,0.022564102564102562,2.573113553113553
7.167854762999923,0.0,0.022564102564102562,2.573113553113553
7.168070728999737,0.0,0.022564102564102562,2.573113553113553
7.173411259002023,0.0,0.022564102564102562,2.573113553113553
7.175757880999299,0.0,0.029816849816849816,0.024175824175824173
7.175975198999367,0.0,0.029816849816849816,0.024175824175824173
7.181186980000348,0.0,0.029816849816849816,0.024175824175824173
7.184933470001852,0.0,0.03223443223443223,1.4795604395604396
7.1902321859997755,0.0,0.03223443223443223,1.4795604395604396
7.192675164002139,0.0,0.03223443223443223,1.4795604395604396
7.198010853000596,0.0,0.008058608058608058,0.02901098901098901
7.201935733999562,0.0,0.008058608058608058,0.02901098901098901
7.205839108999498,0.0,0.008058608058608058,0.02901098901098901
7.209658506002597,0.0,0.025787545787545788,0.028205128205128206
7.214344377000089,0.0,0.025787545787545788,0.028205128205128206
7.214507756001694,0.0,0.025787545787545788,0.028205128205128206
7.2201116800024465,0.0,0.025787545787545788,0.028205128205128206
7.220342740001797,0.0,0.025787545787545788,0.028205128205128206
7.226195989002008,0.0,0.025787545787545788,0.028205128205128206
7.226273902000685,0.0,0.020146520146520144,0.25787545787545785
7.231504658000631,0.0,0.020146520146520144,0.25787545787545785
7.233856295002624,0.0,0.020146520146520144,0.25787545787545785
7.2340640100010205,0.0,0.020146520146520144,0.25787545787545785
7.239297576001263,0.0,0.020146520146520144,0.25787545787545785
7.2423897970002145,0.0,0.020146520146520144,2.5755311355311354
7.244029092002165,0.0,0.020146520146520144,2.5755311355311354
7.247829883002851,0.0,0.020146520146520144,2.5755311355311354
7.253214309999748,0.0,0.020146520146520144,2.5755311355311354
7.254958343000908,0.0,0.02095238095238095,0.03545787545787545
7.258142982002028,0.0,0.02095238095238095,0.03545787545787545
7.259827216999838,0.0,0.02095238095238095,0.03545787545787545
7.262973845001397,0.0,0.02095238095238095,0.03545787545787545
7.264536644001055,0.0,0.008058608058608058,0.32153846153846155
7.26911156999995,0.0,0.010476190476190476,0.03626373626373627
7.269511047001288,0.0,0.010476190476190476,0.03626373626373627
