time,emg1,emg2,emg3
0.028993192998314044,0.0,0.007252747252747252,0.0
0.029402767999272328,0.0,0.007252747252747252,0.0
0.046818867998808855,0.0,0.02336996336996337,0.0
0.05976876699787681,0.0,0.008058608058608058,0.044322344322344324
0.07230027300101938,0.0,0.00967032967032967,0.005641025641025641
0.07952889899752336,0.0,0.00967032967032967,0.005641025641025641
0.08652201500080992,0.0,0.00967032967032967,0.005641025641025641
0.09103426799993031,0.0,0.00967032967032967,0.005641025641025641
0.0912471400006325,0.0,0.00967032967032967,0.005641025641025641
0.09849414699783665,0.0,0.00967032967032967,0.005641025641025641
0.10523120499783545,0.0,0.012893772893772894,0.0
0.11185751999801141,0.0,0.012893772893772894,0.0
0.11744884899962926,0.0,0.012893772893772894,0.0
0.1285515370000212,0.0,0.012893772893772894,0.0
0.13811096900099074,0.0,0.0,0.014505494505494505
0.14644154000052367,0.0,0.0,0.014505494505494505
0.15469152799778385,0.0,0.0,0.014505494505494505
0.15982612199877622,0.0,0.0,0.014505494505494505
0.16210210400095093,0.0,0.0,0.014505494505494505
0.1622995039979287,0.0,0.0,0.014505494505494505
0.1675229489992489,0.0,0.0032234432234432234,0.0
0.17131037400031346,0.0,0.004835164835164835,0.006446886446886447
0.17611674900035723,0.0,0.004835164835164835,0.006446886446886447
0.181342465999478,0.0,0.004835164835164835,0.006446886446886447
0.18497263199969893,0.0,0.004835164835164835,0.006446886446886447
0.1902142869985255,0.0,0.0,0.007252747252747252
0.19248195699765347,0.0,0.0,0.007252747252747252
0.19267483200019342,0.0,0.0,0.007252747252747252
0.19785315799890668,0.0,0.0,0.007252747252747252
0.20096221299900208,0.0,0.0,0.007252747252747252
0.20188103599866736,0.0,0.0,0.007252747252747252
0.20271422199948574,0.0,0.0,0.007252747252747252
0.2042809609993128,0.0,0.0,0.007252747252747252
0.20805117000054452,0.0,0.0,0.007252747252747252
0.21439192599791568,0.0,0.0,0.007252747252747252
0.21886006999920937,0.0,0.0,0.007252747252747252
0.21897882299890625,0.0,0.0024175824175824176,0.006446886446886447
0.2301028910005698,0.0,0.0024175824175824176,0.006446886446886447
0.2302503799983242,0.0,0.0024175824175824176,0.006446886446886447
0.2404212759975053,0.0,0.0024175824175824176,0.006446886446886447
0.24736259799828986,0.0,0.005641025641025641,0.0
0.2506878919994051,0.0,0.012893772893772894,0.0
0.2515890100003162,0.0,0.012893772893772894,0.0
0.2525097170000663,0.0,0.012893772893772894,0.0
0.2554540880009881,0.0,0.012893772893772894,0.0
0.25834569599828683,0.0,0.012893772893772894,0.0
0.2619650230008119,0.0,0.012893772893772894,0.0
0.26689081199947395,0.0,0.012893772893772894,0.0
0.27005505099805305,0.0,0.012893772893772894,0.0
0.2722092679978232,0.0,0.006446886446886447,0.0
0.27257849399757106,0.0,0.006446886446886447,0.0
0.27878664399759145,0.0,0.006446886446886447,0.0
0.2827605279999261,0.0,0.0,0.0
0.2858446099999128,0.0,0.0,0.0
0.29118609500073944,0.0,0.0,0.0
0.2913863739995577,0.0,0.0,0.0
0.29765519200009294,0.0,0.0,0.0
0.3015836289996514,0.0,0.0,0.0
0.3066834229975939,0.0,0.012893772893772894,0.010476190476190476
0.3121457339984772,0.0,0.012893772893772894,0.010476190476190476
0.31231332400057,0.0,0.012893772893772894,0.010476190476190476
0.31806104600036633,0.0,0.017728937728937726,0.02095238095238095
0.32731832599893096,0.0,0.0,0.016923076923076923
0.3329444490009337,0.0,0.0,0.016923076923076923
0.3330168920001597,0.0,0.0,0.016923076923076923
0.3417635039986635,0.0,0.0,0.016923076923076923
0.34832720899794367,0.0,0.0,0.016923076923076923
0.3544169439992402,0.0,0.0,0.016923076923076923
0.3586402729997644,0.0,0.0,0.016923076923076923
0.35955895599909127,0.0,0.0,0.016923076923076923
0.36126008599967463,0.0,0.0,0.016923076923076923
0.3644361789993127,0.0,0.0,0.016923076923076923
0.3661089089982852,0.0,0.0,0.016923076923076923
0.36972997799966834,0.0,0.0,0.016923076923076923
0.37893566899947473,0.0,0.0,0.016923076923076923
0.3865423169991118,0.0,0.0,0.016923076923076923
0.3941316780001216,0.0,0.0,0.016923076923076923
0.3992897179996362,0.0,0.0,0.016923076923076923
0.40094485499867005,0.0,0.0,0.016923076923076923
0.4078174440001021,0.0,0.0,0.016923076923076923
0.4121884609994595,0.0,0.0,0.016923076923076923
0.4139053350008908,0.0,0.004835164835164835,0.033846153846153845
0.4179213259994867,0.0,0.004835164835164835,0.033846153846153845
0.4220985100000689,0.0,0.004835164835164835,0.033846153846153845
0.4233544630005781,0.0,0.004835164835164835,0.033846153846153845
0.429276734997984,0.0,0.004835164835164835,0.033846153846153845
0.4340506230000756,0.0,0.004835164835164835,0.033846153846153845
0.44033408999894164,0.0,0.004835164835164835,0.033846153846153845
0.4437315840004885,0.0,0.004835164835164835,0.033846153846153845
0.4439602179991198,0.0,0.0,0.0
0.449746612997842,0.0,0.0,0.0
0.44989758799783885,0.0,0.0,0.0
0.4568610169990279,0.0,0.0,0.0
0.4618316890009737,0.0,0.0,0.0
0.4657730969993281,0.0,0.008058608058608058,0.018534798534798533
0.4691262950000237,0.0,0.008058608058608058,0.018534798534798533
0.4706852829986019,0.0,0.0,0.020146520146520144
0.47658699399835314,0.0,0.0,0.020146520146520144
0.4803482419993088,0.0,0.0,0.020146520146520144
0.4849900900007924,0.0,0.0,0.020146520146520144
0.4850639989999763,0.0,0.0,0.020146520146520144
0.4929152660006366,0.0,0.0,0.020146520146520144
0.49705573900064337,0.0,0.0,0.020146520146520144
0.4987039059997187,0.0,0.0,0.020146520146520144
0.5018271259978064,0.0,0.006446886446886447,0.0032234432234432234
0.503793425999902,0.0,0.0,0.0556043956043956
0.5051283859975229,0.0,0.0,0.0556043956043956
0.5052008569982718,0.0,0.0,0.0556043956043956
0.5119969799998216,0.0,0.0,0.0556043956043956
0.5159995479989448,0.0,0.0,0.0556043956043956
0.5190914129998419,0.0,0.0,0.0556043956043956
0.5244328789995052,0.0,0.0,0.0556043956043956
0.5255856309995579,0.0,0.0,0.0556043956043956
0.531334554998466,0.0,0.005641025641025641,0.0
0.5376769840004272,0.0,0.02095238095238095,0.0
0.5417825139993511,0.0,0.0,0.0419047619047619
0.544305073999567,0.0,0.0,0.0419047619047619
0.5498941490004654,0.0,0.0,0.0419047619047619
0.5500458919996163,0.0,0.0,0.0419047619047619
0.5588039200010826,0.0,0.0,0.0419047619047619
0.5655124469994917,0.0,0.0,0.0419047619047619
0.5718354339987854,0.0,0.0,0.0419047619047619
0.5767555009988428,0.0,0.006446886446886447,0.005641025641025641
0.5792438139978913,0.0,0.0,0.0
0.5838308040001721,0.0,0.0,0.0
0.584020595997572,0.0,0.014505494505494505,0.0032234432234432234
0.5933321909978986,0.0,0.014505494505494505,0.0032234432234432234
0.5996316239979933,0.0,0.014505494505494505,0.0032234432234432234
0.6045677510010137,0.0,0.014505494505494505,0.0032234432234432234
0.6121574339995277,0.0,0.016117216117216115,0.09912087912087912
0.6168758319981862,0.0,0.004835164835164835,0.011282051282051281
0.6169567369979632,0.0,0.011282051282051281,0.004835164835164835
0.6257996329986781,0.0,0.011282051282051281,0.004835164835164835
0.6311243769996508,0.0,0.011282051282051281,0.004835164835164835
0.6314326409992645,0.0,0.011282051282051281,0.004835164835164835
0.6407938390002528,0.0,0.011282051282051281,0.004835164835164835
0.6482503129991528,0.0,0.011282051282051281,0.004835164835164835
0.6560512199976074,0.0,0.0,0.02336996336996337
0.661668879998615,0.0,0.0,0.02336996336996337
0.666286276999017,0.0,0.0,0.02336996336996337
0.6735283210000489,0.0,0.006446886446886447,0.008058608058608058
0.6782473050006956,0.0,0.006446886446886447,0.008058608058608058
0.6783943890004593,0.0,0.006446886446886447,0.008058608058608058
0.6839640270009113,0.0,0.006446886446886447,0.008058608058608058
0.684071382998809,0.0,0.006446886446886447,0.008058608058608058
0.6938323909998871,0.0,0.012893772893772894,0.03545787545787545
0.699380383000971,0.0,0.012893772893772894,0.03545787545787545
0.7002013669989537,0.0,0.01531135531135531,0.006446886446886447
0.7019066169996222,0.0,0.010476190476190476,0.012893772893772894
0.7082832380001491,0.0,0.010476190476190476,0.012893772893772894
0.7120226879997062,0.0,0.016117216117216115,0.025787545787545788
0.7167328319992521,0.0,0.016117216117216115,0.025787545787545788
0.7168137909975485,0.0,0.0,0.0
0.7248585070010449,0.0,0.0024175824175824176,0.0
0.7299351580004441,0.0,0.008058608058608058,0.0
0.7323649770005431,0.0,0.008058608058608058,0.0
0.7380436639978143,0.0,0.008058608058608058,0.0
0.7381613879988436,0.0,0.0,0.029816849816849816
0.7447207869990962,0.0,0.0,0.029816849816849816
0.7487798649999604,0.0,0.004835164835164835,0.0
0.7526911389977613,0.0,0.004835164835164835,0.0
0.7573763830005191,0.0,0.005641025641025641,0.0
0.7629949000001943,0.0,0.005641025641025641,0.012087912087912087
0.7744820330008224,0.0,0.005641025641025641,0.012087912087912087
0.7809042859989859,0.0,0.005641025641025641,0.012087912087912087
0.7860737800001516,0.0,0.005641025641025641,0.012087912087912087
0.7912701249988459,0.0,0.016117216117216115,0.025787545787545788
0.7915940359998785,0.0,0.008864468864468863,0.012087912087912087
0.7964763720010524,0.0,0.008864468864468863,0.012087912087912087
0.7965573769979528,0.0,0.04996336996336996,0.02336996336996337
0.8023473159992136,0.0,0.04996336996336996,0.02336996336996337
0.8087817720006569,0.0,0.04996336996336996,0.02336996336996337
0.8123489079989668,0.0,0.04996336996336996,0.02336996336996337
0.8124396019993583,0.0,0.04996336996336996,0.02336996336996337
0.8179376250009227,0.0,0.04996336996336996,0.02336996336996337
0.8195751269995526,0.0,0.04996336996336996,0.02336996336996337
0.8251765319982951,0.0,0.0,0.01934065934065934
0.8308497699981672,0.0,0.0,0.01934065934065934
0.8310162529996887,0.0,0.0,0.01934065934065934
0.8356828249998216,0.0,0.014505494505494505,0.08703296703296703
0.8358415820002847,0.0,0.0,0.02175824175824176
0.8455628789997718,0.0,0.0,0.02175824175824176
0.8508503749981173,0.0,0.0,0.02175824175824176
0.8563367299975653,0.0,0.006446886446886447,0.00967032967032967
0.8659408329986036,0.0,0.006446886446886447,0.00967032967032967
0.8764451099996222,0.0,0.0024175824175824176,0.02498168498168498
0.8831918840005528,0.0,0.0024175824175824176,0.02498168498168498
0.8893092920006893,0.0,0.0,0.0
0.8941530099982629,0.0,0.0,0.0
0.8981205739983125,0.0,0.0016117216117216117,0.02175824175824176
0.9012555129993416,0.0,0.0016117216117216117,0.02175824175824176
0.9021045989975391,0.0,0.0016117216117216117,0.02175824175824176
0.9044459399992775,0.0,0.0016117216117216117,0.02175824175824176
0.9138342849983019,0.0,0.0016117216117216117,0.02175824175824176
0.9197764929995174,0.0,0.0016117216117216117,0.02175824175824176
0.9199229660007404,0.0,0.0024175824175824176,0.0136996336996337
0.9300036079985148,0.0,0.0024175824175824176,0.0136996336996337
0.9383457379990432,0.0,0.0032234432234432234,0.004835164835164835
0.943070995999733,0.0,0.0032234432234432234,0.004835164835164835
0.9431613960005052,0.0,0.0032234432234432234,0.004835164835164835
0.9486948890007625,0.0,0.0,0.0
0.948950211997726,0.0,0.0,0.0
0.9565678609978931,0.0,0.0,0.0
0.9609280389995547,0.0,0.0,0.0
0.9610771519983246,0.0,0.0,0.0
0.9665163419995224,0.0,0.0,0.0
0.9680978549986321,0.0,0.03223443223443223,0.03304029304029304
0.9764329129975522,0.0,0.03223443223443223,0.03304029304029304
0.9829922569988412,0.0,0.0,0.017728937728937726
0.9878091020000284,0.0,0.004029304029304029,0.017728937728937726
0.9928544459980913,0.0,0.004029304029304029,0.017728937728937726
0.9959785549981461,0.0,0.004029304029304029,0.017728937728937726
0.9975818950006214,0.0,0.004029304029304029,0.017728937728937726
1.001447743998142,0.0,0.004029304029304029,0.017728937728937726
1.006461703000241,0.0,0.004029304029304029,0.017728937728937726
1.010219193998637,0.0,0.016117216117216115,0.007252747252747252
1.0148886520000815,0.0,0.016117216117216115,0.007252747252747252
1.0150541080001858,0.0,0.016117216117216115,0.007252747252747252
1.0208786349976435,0.0,0.016117216117216115,0.007252747252747252
1.0274332759981917,0.0,0.016117216117216115,0.007252747252747252
1.0313005030002387,0.0,0.0136996336996337,0.04029304029304029
1.0360827670010622,0.0,0.0136996336996337,0.04029304029304029
1.043400776998169,0.0,0.0136996336996337,0.04029304029304029
1.048236538998026,0.0,0.0136996336996337,0.04029304029304029
1.0483232650003629,0.0,0.0136996336996337,0.04029304029304029
1.0547052289985004,0.0,0.0136996336996337,0.04029304029304029
1.0605576429989014,0.0,0.0136996336996337,0.04029304029304029
1.0637996779987589,0.0,0.007252747252747252,0.01934065934065934
1.0654756049989373,0.0,0.007252747252747252,0.01934065934065934
1.0694706489994132,0.0,0.007252747252747252,0.01934065934065934
1.0754646319983294,0.0,0.007252747252747252,0.01934065934065934
1.080479522999667,0.0,0.0273992673992674,0.025787545787545788
1.0844081239993102,0.0,0.0273992673992674,0.025787545787545788
1.0880213409982389,0.0,0.0273992673992674,0.025787545787545788
1.092644708998705,0.0,0.0273992673992674,0.025787545787545788
1.092768698999862,0.0,0.0273992673992674,0.025787545787545788
1.0984625700002653,0.0,0.0273992673992674,0.025787545787545788
1.098706538999977,0.0,0.0024175824175824176,0.0016117216117216117
1.1046721569982765,0.0,0.0024175824175824176,0.0016117216117216117
1.1106198839988792,0.0,0.0024175824175824176,0.0016117216117216117
1.1107696459985164,0.0,0.0024175824175824176,0.0016117216117216117
1.116017878997809,0.0,0.0024175824175824176,0.0016117216117216117
1.118325592000474,0.0,0.0024175824175824176,0.0016117216117216117
1.1184521989998757,0.0,0.0024175824175824176,0.0016117216117216117
1.123714306999318,0.0,0.0024175824175824176,0.0016117216117216117
1.1273606389986526,0.0,0.011282051282051281,0.018534798534798533
1.1325524569983827,0.0,0.011282051282051281,0.018534798534798533
1.1362858619977487,0.0,0.011282051282051281,0.018534798534798533
1.1410696130005817,0.0,0.011282051282051281,0.018534798534798533
1.1412601339980029,0.0,0.011282051282051281,0.018534798534798533
1.1464986219980347,0.0,0.011282051282051281,0.018534798534798533
1.1494169190009416,0.0,0.011282051282051281,0.018534798534798533
1.1524618299990834,0.0,0.011282051282051281,0.018534798534798533
1.1554175759993086,0.0,0.0,0.004029304029304029
1.1577381639981468,0.0,0.024175824175824173,0.008058608058608058
1.1579541829996742,0.0,0.007252747252747252,0.014505494505494505
1.1675912979990244,0.0,0.007252747252747252,0.014505494505494505
1.1767737139998644,0.0,0.007252747252747252,0.014505494505494505
1.1816467280004872,0.0,0.007252747252747252,0.014505494505494505
1.1818216319989006,0.0,0.007252747252747252,0.014505494505494505
1.1915819319983711,0.0,0.007252747252747252,0.014505494505494505
1.1963919879999594,0.0,0.0136996336996337,0.020146520146520144
1.19650834499771,0.0,0.0136996336996337,0.020146520146520144
1.2053017289981653,0.0,0.0136996336996337,0.020146520146520144
1.2124912079998467,0.0,0.0136996336996337,0.020146520146520144
1.2179051069979323,0.0,0.006446886446886447,0.0
1.2188245979996282,0.0,0.007252747252747252,0.0032234432234432234
1.219773361000989,0.0,0.007252747252747252,0.0032234432234432234
1.2213982889988984,0.0,0.007252747252747252,0.0032234432234432234
1.2253768619993934,0.0,0.007252747252747252,0.0032234432234432234
1.2284928529988974,0.0,0.007252747252747252,0.0032234432234432234
1.2299731239982066,0.0,0.007252747252747252,0.0032234432234432234
1.2365550350004924,0.0,0.007252747252747252,0.0032234432234432234
1.2416416099986236,0.0,0.007252747252747252,0.0032234432234432234
1.2454004579994944,0.0,0.007252747252747252,0.0032234432234432234
1.2535852809996868,0.0,0.007252747252747252,0.0032234432234432234
1.2608097919983265,0.0,0.008058608058608058,0.0032234432234432234
1.2679637820001517,0.0,0.008058608058608058,0.0032234432234432234
1.2746412769993185,0.0,0.006446886446886447,0.06366300366300366
1.277614894999715,0.0,0.006446886446886447,0.06366300366300366
1.2812836449993483,0.0,0.006446886446886447,0.06366300366300366
1.2857070729987754,0.0,0.006446886446886447,0.06366300366300366
1.2866079720006383,0.0,0.006446886446886447,0.06366300366300366
1.2881938430000446,0.0,0.011282051282051281,0.008058608058608058
1.2932898769977328,0.0,0.0008058608058608059,0.0016117216117216117
1.2964375919982558,0.0,0.0008058608058608059,0.0016117216117216117
1.2980416669997794,0.0,0.0008058608058608059,0.0016117216117216117
1.302541294000548,0.0,0.0008058608058608059,0.0016117216117216117
1.3026892589987256,0.0,0.0008058608058608059,0.0016117216117216117
1.3079789559997153,0.0,0.0,0.0
1.3102132749991142,0.0,0.0,0.0
1.3103524979997019,0.0,0.0,0.0
1.3167188970001007,0.0,0.0,0.0
1.321868512997753,0.0,0.006446886446886447,0.005641025641025641
1.3253735129983397,0.0,0.006446886446886447,0.005641025641025641
1.3349827239981096,0.0,0.006446886446886447,0.005641025641025641
1.3403268049987673,0.0,0.006446886446886447,0.005641025641025641
1.3419298759981757,0.0,0.006446886446886447,0.005641025641025641
1.3458037700002023,0.0,0.006446886446886447,0.005641025641025641
1.3488439319989993,0.0,0.0,0.012893772893772894
1.35179964100098,0.0,0.0,0.012893772893772894
1.3541185959984432,0.0,0.0,0.012893772893772894
1.354358284999762,0.0,0.0016117216117216117,0.012893772893772894
1.3595222529984312,0.0,0.0016117216117216117,0.012893772893772894
1.3632439530010743,0.0,0.0016117216117216117,0.012893772893772894
1.367665281999507,0.0,0.0016117216117216117,0.012893772893772894
1.3679547120009374,0.0,0.0016117216117216117,0.012893772893772894
1.3734706549985276,0.0,0.0016117216117216117,0.012893772893772894
1.3742920029981178,0.0,0.0,0.016117216117216115
1.3768954900006065,0.0,0.0,0.016117216117216115
1.381937079000636,0.0,0.0,0.016117216117216115
1.3848728489974746,0.0,0.0,0.016117216117216115
1.3871435500004736,0.0,0.0,0.016117216117216115
1.3879329669980507,0.0,0.0,0.016117216117216115
1.3894988639985968,0.0,0.0,0.016117216117216115
1.3932531030004611,0.0,0.0,0.016117216117216115
1.4008509659979609,0.0,0.0,0.016117216117216115
1.4080761889999849,0.0,0.0,0.016117216117216115
1.4131302440000582,0.0,0.0,0.016117216117216115
1.4166922420008632,0.0,0.0,0.016117216117216115
1.4232219529985741,0.0,0.0,0.016117216117216115
1.4286710159976792,0.0,0.0,0.016117216117216115
1.4389595319989894,0.0,0.0,0.016117216117216115
1.4461316619999707,0.0,0.0,0.016117216117216115
1.4505332070002623,0.0,0.0016117216117216117,0.025787545787545788
1.4508442289989034,0.0,0.0016117216117216117,0.025787545787545788
1.460915630999807,0.0,0.0016117216117216117,0.025787545787545788
1.4698137659979693,0.0,0.0016117216117216117,0.025787545787545788
1.4752336319979804,0.0,0.0016117216117216117,0.025787545787545788
1.475405678000243,0.0,0.00967032967032967,0.0
1.4811674859993218,0.0,0.00967032967032967,0.0
1.4812512889984646,0.0,0.00967032967032967,0.0
1.4864469280000776,0.0,0.004835164835164835,0.004029304029304029
1.488698529999965,0.0,0.004835164835164835,0.004029304029304029
1.4889485059975414,0.0,0.004835164835164835,0.004029304029304029
1.4943313779986056,0.0,0.004835164835164835,0.004029304029304029
1.4959545669989893,0.0,0.004835164835164835,0.004029304029304029
1.499698838997574,0.0,0.004835164835164835,0.004029304029304029
1.504081691000465,0.0,0.004835164835164835,0.004029304029304029
1.5048675159996492,0.0,0.006446886446886447,0.008058608058608058
1.5064138060006371,0.0,0.006446886446886447,0.008058608058608058
1.5108801839996886,0.0,0.006446886446886447,0.008058608058608058
1.5118691579991719,0.0,0.006446886446886447,0.008058608058608058
1.5126746559981257,0.0,0.006446886446886447,0.008058608058608058
1.5142869519986561,0.0,0.006446886446886447,0.008058608058608058
1.5188838219983154,0.0,0.006446886446886447,0.008058608058608058
1.519037212998228,0.0,0.006446886446886447,0.008058608058608058
1.5243494540009124,0.0,0.006446886446886447,0.008058608058608058
1.5266691030010406,0.0,0.00967032967032967,0.0
1.5268199860001914,0.0,0.00967032967032967,0.0
1.532245457998215,0.0,0.00967032967032967,0.0
1.5331772089994047,0.0,0.00967032967032967,0.0
1.534887894998974,0.0,0.014505494505494505,0.029816849816849816
1.538525608000782,0.0,0.014505494505494505,0.029816849816849816
1.5437151119986083,0.0,0.014505494505494505,0.029816849816849816
1.5467058089998318,0.0,0.014505494505494505,0.029816849816849816
1.5490465789989685,0.0,0.014505494505494505,0.029816849816849816
1.5491818259979482,0.0,0.014505494505494505,0.029816849816849816
1.5545539060003648,0.0,0.014505494505494505,0.029816849816849816
1.5567740999977104,0.0,0.014505494505494505,0.029816849816849816
1.5570183039999392,0.0,0.014505494505494505,0.029816849816849816
1.5619965129990305,0.0,0.014505494505494505,0.029816849816849816
1.5695193280007516,0.0,0.014505494505494505,0.029816849816849816
1.576273904000118,0.0,0.012893772893772894,0.0032234432234432234
1.581415571999969,0.0,0.012893772893772894,0.0032234432234432234
1.5827862509977422,0.0,0.012893772893772894,0.0032234432234432234
1.5904562809992058,0.0,0.012893772893772894,0.0032234432234432234
1.5974022199989122,0.0,0.012893772893772894,0.0032234432234432234
1.6028785620001145,0.0,0.012893772893772894,0.0032234432234432234
1.6030047189997276,0.0,0.012893772893772894,0.0032234432234432234
1.6117784079979174,0.0,0.012893772893772894,0.0032234432234432234
1.620684536999761,0.0,0.012893772893772894,0.0032234432234432234
1.6259606929997972,0.0,0.004835164835164835,0.03223443223443223
1.6274821139995765,0.0,0.008058608058608058,0.02095238095238095
1.632319180000195,0.0,0.008058608058608058,0.02095238095238095
1.6324088129986194,0.0,0.008058608058608058,0.02095238095238095
1.6373090499982936,0.0,0.01934065934065934,0.004029304029304029
1.6408480419995612,0.0,0.0032234432234432234,0.011282051282051281
1.6410080940004264,0.0,0.0032234432234432234,0.011282051282051281
1.6458396749985695,0.0,0.0032234432234432234,0.011282051282051281
1.6458943260004162,0.0,0.0,0.004029304029304029
1.6506895960010297,0.0,0.0,0.004029304029304029
1.6508085909990768,0.0,0.0,0.004029304029304029
1.655759584999032,0.0,0.0,0.004029304029304029
1.6558919700000843,0.0,0.0,0.004029304029304029
1.660767658999248,0.0,0.0,0.004029304029304029
1.6651863839979342,0.0,0.0,0.004029304029304029
1.6673768709988508,0.0,0.0,0.004029304029304029
1.667605801998434,0.0,0.0,0.004029304029304029
1.6728835770009027,0.0,0.0,0.004029304029304029
1.6753884509998898,0.0,0.005641025641025641,0.0
1.67981090000103,0.0,0.005641025641025641,0.0
1.6800627329976123,0.0,0.005641025641025641,0.0
1.685401146998629,0.0,0.005641025641025641,0.0
1.6876943780007423,0.0,0.005641025641025641,0.0
1.6878967359989474,0.0,0.005641025641025641,0.0
1.6930135059992608,0.0,0.005641025641025641,0.0
1.696333453997795,0.0,0.005641025641025641,0.0
1.6965550710010575,0.0,0.005641025641025641,0.0
1.7020235349991708,0.0,0.005641025641025641,0.0
1.7028279129990551,0.0,0.005641025641025641,0.0
1.7043971169987344,0.0,0.005641025641025641,0.0
1.7080689529975643,0.0,0.005641025641025641,0.0
1.7136459709981864,0.0,0.005641025641025641,0.0
1.7139968049996241,0.0,0.005641025641025641,0.0
1.7234354930005793,0.0,0.005641025641025641,0.0
1.7318530609991285,0.0,0.005641025641025641,0.0
1.737493202999758,0.0,0.0136996336996337,0.0
1.7376677369975368,0.0,0.0136996336996337,0.0
1.7451506689976668,0.0,0.0136996336996337,0.0
1.7521006329989177,0.0,0.0136996336996337,0.0
1.756061691998184,0.0,0.0136996336996337,0.0
1.7613152909980272,0.0,0.0136996336996337,0.0
1.762681412998063,0.0,0.0136996336996337,0.0
1.7703334569996514,0.0,0.0136996336996337,0.0
1.7765433050008141,0.0,0.004835164835164835,0.0
1.7823898649985495,0.0,0.004835164835164835,0.0
1.7857173679985863,0.0,0.004835164835164835,0.0
1.786611888997868,0.0,0.004835164835164835,0.0
1.7881856649983092,0.0,0.004835164835164835,0.0
1.7924931210000068,0.0,0.004835164835164835,0.0
1.7939725169999292,0.0,0.03304029304029304,0.006446886446886447
1.7992300429978059,0.0,0.005641025641025641,0.025787545787545788
1.8010440750003909,0.0,0.011282051282051281,0.007252747252747252
1.8035363029994187,0.0,0.011282051282051281,0.007252747252747252
1.8079197480001312,0.0,0.011282051282051281,0.007252747252747252
1.8087080949990195,0.0,0.006446886446886447,0.01531135531135531
1.810229963000893,0.0,0.006446886446886447,0.01531135531135531
1.8147444909991464,0.0,0.006446886446886447,0.01531135531135531
1.815069747997768,0.0,0.006446886446886447,0.01531135531135531
1.8203199339986895,0.0,0.006446886446886447,0.01531135531135531
1.8224289030004002,0.0,0.006446886446886447,0.01531135531135531
1.823255336999864,0.0,0.006446886446886447,0.01531135531135531
1.8253260220008087,0.0,0.006446886446886447,0.01531135531135531
1.826777309001045,0.0,0.006446886446886447,0.01531135531135531
1.8315591389982728,0.0,0.006446886446886447,0.01531135531135531
1.8317065089977405,0.0,0.0032234432234432234,0.008864468864468863
1.836576554000203,0.0,0.0032234432234432234,0.008864468864468863
1.8407211349986028,0.0,0.0032234432234432234,0.008864468864468863
1.843420386998332,0.0,0.014505494505494505,0.008058608058608058
1.847528958998737,0.0,0.0,0.0
1.8508725829997275,0.0,0.0,0.0
1.8510909440010437,0.0,0.0,0.0
1.855820319000486,0.0,0.0,0.0
1.855949000997498,0.0,0.0,0.0
1.8606797239990556,0.0,0.0,0.0
1.8609460229999968,0.0,0.0,0.0
1.8657893079980568,0.0,0.0,0.0
1.8704914640002244,0.0,0.0,0.0
1.8706065389997093,0.0,0.0,0.0
1.8760762899983092,0.0,0.0,0.0
1.8775561939983163,0.0,0.0,0.0
1.8816021870006807,0.0,0.0,0.0
1.8843246699980227,0.0,0.09106227106227105,0.016923076923076923
1.8884068129991647,0.0,0.09106227106227105,0.016923076923076923
1.8911615959987103,0.0,0.09106227106227105,0.016923076923076923
1.8954074489993218,0.0,0.09106227106227105,0.016923076923076923
1.8969494359989767,0.0,0.017728937728937726,0.016117216117216115
1.900440338999033,0.0,0.017728937728937726,0.016117216117216115
1.9012576259992784,0.0,0.017728937728937726,0.016117216117216115
1.903314593997493,0.0,0.017728937728937726,0.016117216117216115
1.9047255010009394,0.0,0.017728937728937726,0.016117216117216115
1.9095692009977938,0.0,0.017728937728937726,0.016117216117216115
1.9098137820001284,0.0,0.008864468864468863,0.0
1.91469946199868,0.0,0.008864468864468863,0.0
1.9189485259994399,0.0,0.007252747252747252,0.010476190476190476
1.9218154589980259,0.0,0.007252747252747252,0.010476190476190476
1.9259021249999932,0.0,0.007252747252747252,0.010476190476190476
1.9287272159999702,0.0,0.007252747252747252,0.010476190476190476
1.9327955259977898,0.0,0.007252747252747252,0.010476190476190476
1.9349275099993974,0.0,0.012893772893772894,0.0
1.9363197999991826,0.0,0.012893772893772894,0.0
1.9411105979997956,0.0,0.007252747252747252,0.0
1.9458555700002762,0.0,0.007252747252747252,0.0
1.9459545259996958,0.0,0.011282051282051281,0.0
1.9506516180008475,0.0,0.011282051282051281,0.0
1.9508086149980954,0.0,0.0,0.0
1.9556079569993017,0.0,0.0,0.0
1.9558124030008912,0.0,0.0,0.02095238095238095
1.9605590159990243,0.0,0.0,0.02095238095238095
1.9606331909999426,0.0,0.0,0.02095238095238095
1.9653780570006347,0.0,0.0,0.02095238095238095
1.965647461998742,0.0,0.0,0.02095238095238095
1.9703544740004872,0.0,0.0,0.02095238095238095
1.970417238000664,0.0,0.0136996336996337,0.0
1.9751919320005982,0.0,0.0136996336996337,0.0
1.9753736019993084,0.0,0.0136996336996337,0.0
1.980187768000178,0.0,0.0136996336996337,0.0
1.9802645220006525,0.0,0.0136996336996337,0.0
1.9850716490000195,0.0,0.0136996336996337,0.0
1.9852886160006165,0.0,0.0,0.024175824175824173
1.9900902119989041,0.0,0.0,0.024175824175824173
1.9953579020002508,0.0,0.0,0.024175824175824173
1.9995233900008316,0.0,0.0,0.02175824175824176
1.9998105949998717,0.0,0.0,0.02175824175824176
2.008697896999365,0.0,0.0,0.02175824175824176
2.014670238997496,0.0,0.0016117216117216117,0.012893772893772894
2.0197215259977384,0.0,0.06366300366300366,0.020146520146520144
2.0230821830009518,0.0,0.0,0.014505494505494505
2.0240064559984603,0.0,0.0,0.014505494505494505
2.025711742000567,0.0,0.0,0.014505494505494505
2.0299677139992127,0.0,0.0,0.014505494505494505
2.0302040239985217,0.0,0.011282051282051281,0.0
2.03547039499972,0.0,0.011282051282051281,0.0
2.038049962000514,0.0,0.0,0.0
2.043402357998275,0.0,0.0,0.0
2.04573353899832,0.0,0.0,0.0
2.0458968749990163,0.0,0.0,0.0
2.0511434100008046,0.0,0.0,0.0
2.053548325999145,0.0,0.0,0.0
2.0588158539976575,0.0,0.0,0.0
2.0610032029981085,0.0,0.0,0.0
2.0618042349997268,0.0,0.007252747252747252,0.0008058608058608059
2.064014010000392,0.0,0.007252747252747252,0.0008058608058608059
2.0642488439989393,0.0,0.007252747252747252,0.0008058608058608059
2.0704938849994505,0.0,0.007252747252747252,0.0008058608058608059
2.075556127998425,0.0,0.007252747252747252,0.0008058608058608059
2.0798174919982557,0.0,0.008864468864468863,0.020146520146520144
2.0800810539985832,0.0,0.0032234432234432234,0.0
2.0896088810004585,0.0,0.0032234432234432234,0.0
2.0968240709989914,0.0,0.0032234432234432234,0.004835164835164835
2.1019207419994927,0.0,0.0,0.03223443223443223
2.1059319119995052,0.0,0.0,0.03223443223443223
2.1088996719990973,0.0,0.0,0.03223443223443223
2.111909934999858,0.0,0.0,0.03223443223443223
2.114241232000495,0.0,0.0,0.03223443223443223
2.1143050020000373,0.0,0.0,0.03223443223443223
2.1194269219995476,0.0,0.0,0.03223443223443223
2.121793586000422,0.0,0.0,0.0
2.1220187219987565,0.0,0.0,0.0
2.12732195100034,0.0,0.0,0.0
2.129744297999423,0.0,0.0,0.0
2.135211521999736,0.0,0.0,0.0
2.1360148780004238,0.0,0.0,0.0
2.1376187919995573,0.0,0.0,0.0
2.1412888199993176,0.0,0.0,0.0
2.1465957350010285,0.0,0.0,0.0
2.148255288000655,0.0,0.004029304029304029,0.0032234432234432234
2.151884604998486,0.0,0.004029304029304029,0.0032234432234432234
2.151947571001074,0.0,0.004029304029304029,0.0032234432234432234
2.1571114430007583,0.0,0.004029304029304029,0.0032234432234432234
2.1609005549980793,0.0,0.004029304029304029,0.0032234432234432234
2.165442768000503,0.0,0.004029304029304029,0.0
2.1655574459982745,0.0,0.004029304029304029,0.0
2.171849320999172,0.0,0.004029304029304029,0.0
2.1755713829988963,0.0,0.004029304029304029,0.0
2.1800341679991107,0.0,0.004029304029304029,0.0
2.180243860999326,0.0,0.004029304029304029,0.0
2.185471922999568,0.0,0.004029304029304029,0.0
2.187703554998734,0.0,0.0032234432234432234,0.0
2.187947628000984,0.0,0.0032234432234432234,0.0
2.1930673329989077,0.0,0.0032234432234432234,0.0
2.1976940969980205,0.0,0.0032234432234432234,0.0
2.203001978999964,0.0,0.0032234432234432234,0.0
2.206633312998747,0.0,0.0032234432234432234,0.0
2.211774149000121,0.0,0.0032234432234432234,0.0
2.214772929000901,0.0,0.0032234432234432234,0.0
2.217068293997727,0.0,0.0032234432234432234,0.0
2.217241816997557,0.0,0.0032234432234432234,0.0
2.2226833649983746,0.0,0.0032234432234432234,0.0
2.2236062720003247,0.0,0.0032234432234432234,0.0
2.225111597999785,0.0,0.0032234432234432234,0.0
2.228869811999175,0.0,0.0032234432234432234,0.0
2.2289885559985123,0.0,0.0032234432234432234,0.0
2.2344349339982728,0.0,0.0032234432234432234,0.0
2.2346655430010287,0.0,0.0,0.04351648351648352
2.239740961998905,0.0,0.0,0.04351648351648352
2.244270544997562,0.0,0.004835164835164835,0.0
2.2444025179975142,0.0,0.004835164835164835,0.0
2.249761273000331,0.0,0.004835164835164835,0.0
2.2506294649974734,0.0,0.004835164835164835,0.0
2.2522051249979995,0.0,0.004835164835164835,0.0
2.2573607320009614,0.0,0.004835164835164835,0.0
2.26035369300007,0.0,0.006446886446886447,0.007252747252747252
2.262581794999278,0.0,0.006446886446886447,0.007252747252747252
2.263364583999646,0.0,0.006446886446886447,0.007252747252747252
2.2655757350003114,0.0,0.006446886446886447,0.007252747252747252
2.2657612779985357,0.0,0.006446886446886447,0.007252747252747252
2.2711065859984956,0.0,0.006446886446886447,0.007252747252747252
2.273428239997884,0.0,0.006446886446886447,0.007252747252747252
2.2787893610002357,0.0,0.006446886446886447,0.007252747252747252
2.281941833000019,0.0,0.006446886446886447,0.007252747252747252
2.282761793998361,0.0,0.006446886446886447,0.007252747252747252
2.2843785059994843,0.0,0.006446886446886447,0.007252747252747252
2.2882463009991625,0.0,0.006446886446886447,0.007252747252747252
2.29192519299977,0.0,0.006446886446886447,0.007252747252747252
2.292062858999998,0.0,0.006446886446886447,0.007252747252747252
2.2975216119994,0.0,0.006446886446886447,0.007252747252747252
2.29913968999972,0.0,0.0,0.0
2.303030545997899,0.0,0.0,0.0
2.3061010819983494,0.0,0.0,0.0
2.307760698000493,0.0,0.0,0.0
2.3108702290010115,0.0,0.0,0.0
2.3139210579975042,0.0,0.0,0.0
2.3170555579999927,0.0,0.0,0.0
2.31871958299962,0.0,0.0,0.0
2.3224443449980754,0.0,0.0,0.0
2.3225040289980825,0.0,0.0,0.0
2.327652678999584,0.0,0.0,0.0
2.3309042119981314,0.0,0.0032234432234432234,0.0
2.3324464020006417,0.0,0.0032234432234432234,0.0
2.3363733859987406,0.0,0.0032234432234432234,0.0
2.3394622419982625,0.0,0.0032234432234432234,0.0
2.3416569889996026,0.0,0.0032234432234432234,0.0
2.3419509259983897,0.0,0.0032234432234432234,0.0
2.3471906859995215,0.0,0.0032234432234432234,0.0
2.3502648969988513,0.0,0.0032234432234432234,0.0
2.3526520539999183,0.0,0.0016117216117216117,0.0
2.3527177440009837,0.0,0.0,0.02095238095238095
2.357996230999561,0.0,0.0,0.02095238095238095
2.3596459820000746,0.0,0.0024175824175824176,0.0
2.363280625999323,0.0,0.0024175824175824176,0.0
2.367995943997812,0.0,0.0024175824175824176,0.0
2.368111478001083,0.0,0.0024175824175824176,0.0
2.377823852999427,0.0,0.0024175824175824176,0.0
2.384990727998229,0.0,0.012087912087912087,0.011282051282051281
2.3886542260006536,0.0,0.012087912087912087,0.011282051282051281
2.3965690830009407,0.0,0.012087912087912087,0.011282051282051281
2.4038901700005226,0.0,0.024175824175824173,0.011282051282051281
2.40875608299757,0.0,0.024175824175824173,0.011282051282051281
2.413477410998894,0.0,0.024175824175824173,0.011282051282051281
2.4197935609990964,0.0,0.024175824175824173,0.011282051282051281
2.424254633999226,0.0,0.024175824175824173,0.011282051282051281
2.424435167999036,0.0,0.024175824175824173,0.011282051282051281
2.4332723369989253,0.0,0.024175824175824173,0.011282051282051281
2.4394313169977977,0.0,0.006446886446886447,0.0
2.443657423998957,0.0,0.006446886446886447,0.0
2.4457471999994596,0.0,0.006446886446886447,0.0
2.4471554289993946,0.0,0.006446886446886447,0.0
2.4554567449995375,0.0,0.004835164835164835,0.02498168498168498
2.4606652519978525,0.0,0.007252747252747252,0.0032234432234432234
2.4616763459998765,0.0,0.007252747252747252,0.0032234432234432234
2.46305112799746,0.0,0.007252747252747252,0.0032234432234432234
2.472371210998972,0.0,0.005641025641025641,0.0
2.480035336000583,0.0,0.005641025641025641,0.0
2.487316001999716,0.0,0.005641025641025641,0.0
2.491909760999988,0.0,0.005641025641025641,0.0
2.497626788997877,0.0,0.005641025641025641,0.0
2.497698389001016,0.0,0.005641025641025641,0.0
2.5019104249986412,0.0,0.005641025641025641,0.0
2.5046354539990716,0.0,0.005641025641025641,0.0
2.5087818129977677,0.0,0.005641025641025641,0.0
2.5109889519990247,0.0,0.008058608058608058,0.0
2.511787044000812,0.0,0.008058608058608058,0.0
2.5132554400006484,0.0,0.008058608058608058,0.0
2.5173692319986003,0.0,0.0032234432234432234,0.0032234432234432234
2.519481614999677,0.0,0.0032234432234432234,0.0032234432234432234
2.5208627069987415,0.0,0.0032234432234432234,0.0032234432234432234
2.520944301999407,0.0,0.0032234432234432234,0.0032234432234432234
2.525626763999753,0.0,0.0032234432234432234,0.0032234432234432234
2.52575362999778,0.0,0.0032234432234432234,0.0032234432234432234
2.530664160000015,0.0,0.0032234432234432234,0.0032234432234432234
2.5347990759983077,0.0,0.0,0.006446886446886447
2.5369214460006333,0.0,0.0,0.006446886446886447
2.537785062999319,0.0,0.0,0.006446886446886447
2.5392584359979082,0.0,0.0,0.006446886446886447
2.543367558999307,0.0,0.0,0.006446886446886447
2.546476339997753,0.0,0.016117216117216115,0.004029304029304029
2.5482425310001418,0.0,0.016117216117216115,0.004029304029304029
2.551312102998054,0.0,0.016117216117216115,0.004029304029304029
2.5533436839978094,0.0,0.006446886446886447,0.012893772893772894
2.5548499850010558,0.0,0.006446886446886447,0.012893772893772894
2.5589503449991753,0.0,0.006446886446886447,0.012893772893772894
2.561728115000733,0.0,0.006446886446886447,0.012893772893772894
2.56523463999838,0.0,0.006446886446886447,0.012893772893772894
2.565340961999027,0.0,0.006446886446886447,0.012893772893772894
2.5701426039995567,0.0,0.0,0.007252747252747252
2.5749104269998497,0.0,0.0,0.03142857142857143
2.5750441329983005,0.0,0.0,0.03142857142857143
2.5798245039986796,0.0,0.0,0.0016117216117216117
2.579944138000428,0.0,0.0,0.0016117216117216117
2.5854282479995163,0.0,0.0,0.0016117216117216117
2.58694404400012,0.0,0.0,0.0016117216117216117
2.5923216410010355,0.0,0.0032234432234432234,0.014505494505494505
2.5931350619976,0.0,0.0032234432234432234,0.014505494505494505
2.5947569239979202,0.0,0.0032234432234432234,0.014505494505494505
2.598226401998545,0.0,0.0032234432234432234,0.014505494505494505
2.5983221249989583,0.0,0.0016117216117216117,0.004029304029304029
2.604132878997916,0.0,0.0016117216117216117,0.004029304029304029
2.60420497800078,0.0,0.0016117216117216117,0.004029304029304029
2.6096297229996708,0.0,0.0016117216117216117,0.004029304029304029
2.6111702829985006,0.0,0.0016117216117216117,0.004029304029304029
2.615098288999434,0.0,0.0,0.00967032967032967
2.61894712999856,0.0,0.0,0.00967032967032967
2.6240124279975134,0.0,0.0,0.00967032967032967
2.627144561000023,0.0,0.0,0.00967032967032967
2.628018699997483,0.0,0.004835164835164835,0.004029304029304029
2.62897307700041,0.0,0.012893772893772894,0.011282051282051281
2.630524484000489,0.0,0.012893772893772894,0.011282051282051281
2.6352993820000847,0.0,0.012893772893772894,0.011282051282051281
2.6399487419985235,0.0,0.012893772893772894,0.011282051282051281
2.6401457669999218,0.0,0.004029304029304029,0.00967032967032967
2.645531080001092,0.0,0.004029304029304029,0.00967032967032967
2.647051215997635,0.0,0.0,0.016117216117216115
2.652728066997952,0.0,0.0,0.016117216117216115
2.652931222000916,0.0,0.0,0.016117216117216115
2.658333675000904,0.0,0.0,0.016117216117216115
2.659090010998625,0.0,0.0,0.016117216117216115
2.6607198109995807,0.0,0.0,0.016117216117216115
2.663910118997592,0.0,0.010476190476190476,0.0
2.6664809249996324,0.0,0.010476190476190476,0.0
2.6705279019988666,0.0,0.010476190476190476,0.0
2.672943892001058,0.0,0.010476190476190476,0.0
2.6730199519988673,0.0,0.010476190476190476,0.0
2.6787107639975147,0.0,0.010476190476190476,0.0
2.67890351999813,0.0,0.010476190476190476,0.0
2.6851046349984244,0.0,0.010476190476190476,0.0
2.6889015619999554,0.0,0.012893772893772894,0.0032234432234432234
2.694050445999892,0.0,0.012893772893772894,0.0032234432234432234
2.697899991999293,0.0,0.012893772893772894,0.0032234432234432234
2.7015265299996827,0.0,0.012893772893772894,0.0032234432234432234
2.705893455000478,0.0,0.012893772893772894,0.0032234432234432234
2.7066705039978842,0.0,0.012893772893772894,0.0032234432234432234
2.708205810999061,0.0,0.012893772893772894,0.0032234432234432234
2.714307424997969,0.0,0.012893772893772894,0.0032234432234432234
2.718704553000862,0.0,0.012893772893772894,0.0032234432234432234
2.7189059800002724,0.0,0.012893772893772894,0.0032234432234432234
2.7241686310007935,0.0,0.012893772893772894,0.0032234432234432234
2.725696194000193,0.0,0.012893772893772894,0.0032234432234432234
2.730410601998301,0.0,0.012893772893772894,0.0032234432234432234
2.7305131619978056,0.0,0.012893772893772894,0.0032234432234432234
2.7361714639991987,0.0,0.0,0.012893772893772894
2.736404399998719,0.0,0.004835164835164835,0.026593406593406595
2.741477102998033,0.0,0.004835164835164835,0.026593406593406595
2.745652297999186,0.0,0.004835164835164835,0.026593406593406595
2.7471502980006335,0.0,0.004835164835164835,0.026593406593406595
2.7525315469974885,0.0,0.004835164835164835,0.026593406593406595
2.753528818000632,0.0,0.0,0.0
2.7544703300009132,0.0,0.0,0.0
2.756047225997463,0.0,0.0,0.0
2.76037155800077,0.0,0.0,0.0
2.761370676998922,0.0,0.0,0.0
2.7622238469994045,0.0,0.0,0.0
2.7637109309980588,0.0,0.0,0.0
2.768350244998146,0.0,0.0,0.0
2.7685579520002648,0.0,0.004029304029304029,0.007252747252747252
2.7737582359986845,0.0,0.004029304029304029,0.007252747252747252
2.776203728000837,0.0,0.004029304029304029,0.007252747252747252
2.781573985997966,0.0,0.004029304029304029,0.007252747252747252
2.783314035998046,0.0,0.004029304029304029,0.007252747252747252
2.787737170998298,0.0,0.004029304029304029,0.007252747252747252
2.7879795099979674,0.0,0.004029304029304029,0.007252747252747252
2.795700527000008,0.0,0.004029304029304029,0.007252747252747252
2.8011210199983907,0.0,0.004029304029304029,0.007252747252747252
2.803341687998909,0.0,0.004029304029304029,0.007252747252747252
2.8041239060003136,0.0,0.004029304029304029,0.007252747252747252
2.8063260550006817,0.0,0.004029304029304029,0.007252747252747252
2.8071193959985976,0.0,0.005641025641025641,0.03062271062271062
2.8086910659985733,0.0,0.005641025641025641,0.03062271062271062
2.812372805998166,0.0,0.005641025641025641,0.03062271062271062
2.817617890999827,0.0,0.005641025641025641,0.03062271062271062
2.819863323999016,0.0,0.0,0.0
2.8200594269983412,0.0,0.0,0.004029304029304029
2.8252482200005034,0.0,0.0,0.004029304029304029
2.828228981998109,0.0,0.0,0.0
2.831233295997663,0.0,0.0032234432234432234,0.0
2.8334673159988597,0.0,0.0032234432234432234,0.0
2.8336092110002937,0.0,0.0032234432234432234,0.0
2.8389557049995346,0.0,0.0032234432234432234,0.0
2.8412693979989854,0.0,0.00967032967032967,0.01934065934065934
2.841403435999382,0.0,0.00967032967032967,0.01934065934065934
2.8466163730008702,0.0,0.00967032967032967,0.01934065934065934
2.8503601310003432,0.0,0.0,0.0
2.8548369079981057,0.0,0.0,0.0
2.8557116000010865,0.0,0.0,0.0
2.8568268249982793,0.0,0.0,0.0
2.8570374629998696,0.0,0.0,0.0
2.862696429998323,0.0,0.0,0.0
2.862958735000575,0.0,0.006446886446886447,0.008058608058608058
2.8706727659991884,0.0,0.006446886446886447,0.008058608058608058
2.8767032499999914,0.0,0.012893772893772894,0.0
2.8804882990007172,0.0,0.012893772893772894,0.0
2.8860272909987543,0.0,0.0,0.01934065934065934
2.886323402999551,0.0,0.0,0.01934065934065934
2.8923998509999365,0.0,0.0,0.01934065934065934
2.8966693519978435,0.0,0.011282051282051281,0.012087912087912087
2.8984402349997254,0.0,0.011282051282051281,0.012087912087912087
2.9016773709990957,0.0,0.011282051282051281,0.012087912087912087
2.902862662998814,0.0,0.004029304029304029,0.033846153846153845
2.9031161179991614,0.0,0.004029304029304029,0.033846153846153845
2.910657476997585,0.0,0.004029304029304029,0.033846153846153845
2.915224180000223,0.0,0.004029304029304029,0.033846153846153845
2.9153712219995214,0.0,0.004029304029304029,0.033846153846153845
2.923755068000901,0.0,0.004029304029304029,0.033846153846153845
2.9281257759976143,0.0,0.004029304029304029,0.033846153846153845
2.928936430998874,0.0,0.004029304029304029,0.033846153846153845
2.9305121680008597,0.0,0.004029304029304029,0.033846153846153845
2.934946057997877,0.0,0.004029304029304029,0.033846153846153845
2.93594996200045,0.0,0.0016117216117216117,0.022564102564102562
2.936586580999574,0.0,0.0016117216117216117,0.022564102564102562
2.940288639998471,0.0,0.0,0.004835164835164835
2.9450093539999216,0.0,0.011282051282051281,0.004835164835164835
2.945073409999168,0.0,0.011282051282051281,0.004835164835164835
2.950289377000445,0.0,0.011282051282051281,0.004835164835164835
2.955282109000109,0.0,0.011282051282051281,0.004835164835164835
2.9581605899984424,0.0,0.0032234432234432234,0.0
2.960476161999395,0.0,0.0024175824175824176,0.0
2.960610451998946,0.0,0.0024175824175824176,0.0
2.9659633629999007,0.0,0.0024175824175824176,0.0
2.967718274998333,0.0,0.0,0.0
2.9719973699975526,0.0,0.0,0.0
2.972176101000514,0.0,0.0,0.0
2.9814760650006065,0.0,0.0,0.0
2.9910785339998256,0.0,0.3626373626373626,0.0
2.99731081599748,0.0,0.006446886446886447,0.0
3.0005835960000695,0.0,0.0032234432234432234,0.004029304029304029
3.0013921319987276,0.0,0.012087912087912087,0.004029304029304029
3.005460760999995,0.0,0.012087912087912087,0.004029304029304029
3.007316757000808,0.0,0.012087912087912087,0.004029304029304029
3.0089561229979154,0.0,0.012087912087912087,0.004029304029304029
3.013621416997921,0.0,0.012087912087912087,0.004029304029304029
3.0181988589974935,0.0,0.012087912087912087,0.004029304029304029
3.0184274919993186,0.0,0.012087912087912087,0.004029304029304029
3.025822887997492,0.0,0.012087912087912087,0.004029304029304029
3.0303044190004584,0.0,0.012087912087912087,0.004029304029304029
3.031160665999778,0.0,0.016923076923076923,0.016117216117216115
3.032647354997607,0.0,0.016923076923076923,0.016117216117216115
3.0399821659993904,0.0,0.016923076923076923,0.016117216117216115
3.0450079349975567,0.0,0.0024175824175824176,0.0
3.046551486997487,0.0,0.008058608058608058,0.006446886446886447
3.050975976999325,0.0,0.008058608058608058,0.006446886446886447
3.0518390590004856,0.0,0.008058608058608058,0.006446886446886447
3.055892929998663,0.0,0.017728937728937726,0.028205128205128206
3.056823170998541,0.0,0.017728937728937726,0.028205128205128206
3.0577585110004293,0.0,0.017728937728937726,0.028205128205128206
3.0587075279981946,0.0,0.017728937728937726,0.028205128205128206
3.0603198729986616,0.0,0.017728937728937726,0.028205128205128206
3.0656331700010924,0.0,0.014505494505494505,0.008864468864468863
3.06724425900029,0.0,0.014505494505494505,0.008864468864468863
3.0725183409995225,0.0,0.014505494505494505,0.008864468864468863
3.0743635979997634,0.0,0.014505494505494505,0.008864468864468863
3.0759026239975356,0.0,0.014505494505494505,0.008864468864468863
3.0803690779976023,0.0,0.014505494505494505,0.008864468864468863
3.08612285900017,0.0,0.0,0.0
3.0971715079977002,0.0,0.0,0.0
3.1095105220010737,0.0,0.0024175824175824176,0.004029304029304029
3.1167269500001566,0.0,0.0,0.01934065934065934
3.1259661320000305,0.0,0.0016117216117216117,0.0016117216117216117
3.130276813000819,0.0,0.0016117216117216117,0.0016117216117216117
3.1312641369986522,0.0,0.0016117216117216117,0.0016117216117216117
3.1322625309985597,0.0,0.0016117216117216117,0.0016117216117216117
3.133136732998537,0.0,0.0016117216117216117,0.0016117216117216117
3.135245383000438,0.0,0.0016117216117216117,0.0016117216117216117
3.13695859499785,0.0,0.0016117216117216117,0.0016117216117216117
3.14225169799829,0.0,0.0016117216117216117,0.0016117216117216117
3.1424965309997788,0.0,0.012893772893772894,0.020146520146520144
3.148208934999275,0.0,0.012893772893772894,0.020146520146520144
3.1482773659990926,0.0,0.012893772893772894,0.020146520146520144
3.1556755179990432,0.0,0.012893772893772894,0.020146520146520144
3.159167747999163,0.0,0.02175824175824176,0.025787545787545788
3.159312454998144,0.0,0.02175824175824176,0.025787545787545788
3.1652641619984934,0.0,0.02175824175824176,0.025787545787545788
3.1746769199999108,0.0,0.0016117216117216117,0.0016117216117216117
3.178712118999101,0.0,0.0032234432234432234,0.004029304029304029
3.182457674000034,0.0,0.0032234432234432234,0.004029304029304029
3.1884164629991574,0.0,0.007252747252747252,0.0032234432234432234
3.1952794440003345,0.0,0.007252747252747252,0.012087912087912087
3.2001548719999846,0.0,0.007252747252747252,0.012087912087912087
3.2068969659994764,0.0,0.005641025641025641,0.008058608058608058
3.210691993997898,0.0,0.007252747252747252,0.006446886446886447
3.2143884430006437,0.0,0.007252747252747252,0.006446886446886447
3.218124570998043,0.0,0.007252747252747252,0.006446886446886447
3.2248617119985283,0.0,0.007252747252747252,0.006446886446886447
3.2288511070000823,0.0,0.0,0.01531135531135531
3.2314171830003033,0.0,0.0,0.01531135531135531
3.2373340429985547,0.0,0.0,0.01531135531135531
3.2441061249992345,0.0,0.0,0.01531135531135531
3.248659183998825,0.0,0.0,0.01531135531135531
3.2489613039979304,0.0,0.0,0.01531135531135531
3.257786981997924,0.0,0.0,0.01531135531135531
3.263808315998176,0.0,0.0,0.01531135531135531
3.2723140779999085,0.0,0.0,0.01531135531135531
3.279167967997637,0.0,0.004835164835164835,0.004029304029304029
3.286182882999128,0.0,0.004835164835164835,0.004029304029304029
3.293442865000543,0.0,0.004835164835164835,0.004029304029304029
3.3004867419986113,0.0,0.006446886446886447,0.0136996336996337
3.3073322559976077,0.0,0.006446886446886447,0.0136996336996337
3.311526507997769,0.0,0.006446886446886447,0.0136996336996337
3.314393005999591,0.0,0.006446886446886447,0.0136996336996337
3.317230615997687,0.0,0.006446886446886447,0.0136996336996337
3.323088575998554,0.0,0.006446886446886447,0.0136996336996337
3.3293218949984293,0.0,0.006446886446886447,0.0136996336996337
3.333064383998135,0.0,0.006446886446886447,0.0136996336996337
3.3421188229986,0.0,0.006446886446886447,0.0136996336996337
3.3474354419995507,0.0,0.006446886446886447,0.0136996336996337
3.348302734000754,0.0,0.0,0.025787545787545788
3.349843725998653,0.0,0.0,0.025787545787545788
3.357028430000355,0.0,0.0,0.025787545787545788
3.360294318998058,0.0,0.0,0.025787545787545788
3.361367492998397,0.0,0.0,0.025787545787545788
3.361554860999604,0.0,0.0,0.025787545787545788
3.3663120759993035,0.0,0.0,0.025787545787545788
3.3754315439982747,0.0,0.0,0.025787545787545788
3.3817078059983032,0.0,0.004029304029304029,0.0032234432234432234
3.384761093999259,0.0,0.004029304029304029,0.0032234432234432234
3.3902895379978872,0.0,0.014505494505494505,0.02336996336996337
3.395846368999628,0.0,0.014505494505494505,0.02336996336996337
3.396051327999885,0.0,0.0,0.0032234432234432234
3.4012517890005256,0.0,0.0,0.0032234432234432234
3.40794983899832,0.0,0.0,0.0032234432234432234
3.4111048839986324,0.0,0.0,0.0032234432234432234
3.412957443997584,0.0,0.0,0.0032234432234432234
3.4146366540007875,0.0,0.0,0.0032234432234432234
3.417657126999984,0.0,0.0,0.0032234432234432234
3.42210165600045,0.0,0.0,0.0032234432234432234
3.4222801469986734,0.0,0.0,0.0032234432234432234
3.4289527049986646,0.0,0.0,0.0032234432234432234
3.4334063549977145,0.0,0.0,0.0032234432234432234
3.4344216030003736,0.0,0.0,0.0032234432234432234
3.43527975699908,0.0,0.0,0.0032234432234432234
3.438727143999131,0.0,0.0,0.0032234432234432234
3.443258756000432,0.0,0.0,0.0032234432234432234
3.443507261999912,0.0,0.0,0.0032234432234432234
3.448741788000916,0.0,0.0,0.0032234432234432234
3.4520334389999334,0.0,0.014505494505494505,0.0
3.452491496998846,0.0,0.014505494505494505,0.0
3.4594736420003755,0.0,0.014505494505494505,0.0
3.46335847699811,0.0,0.0,0.03142857142857143
3.468500729999505,0.0,0.0024175824175824176,0.03142857142857143
3.4727546610010904,0.0,0.00967032967032967,0.008864468864468863
3.474590231999173,0.0,0.00967032967032967,0.008864468864468863
3.477010631999292,0.0,0.00967032967032967,0.008864468864468863
3.4771462799981236,0.0,0.00967032967032967,0.008864468864468863
3.4817818560004525,0.0,0.00967032967032967,0.008864468864468863
3.4820836059989233,0.0,0.00967032967032967,0.008864468864468863
3.4896243379989755,0.0,0.00967032967032967,0.008864468864468863
3.495270976000029,0.0,0.00967032967032967,0.008864468864468863
3.5028576539989444,0.0,0.1676190476190476,0.025787545787545788
3.510542430998612,0.0,0.008058608058608058,0.0
3.5150447779997194,0.0,0.008058608058608058,0.0
3.5158616799999436,0.0,0.008058608058608058,0.0
3.5174256290010817,0.0,0.008058608058608058,0.0
3.524441649999062,0.0,0.008058608058608058,0.0
3.5278617269977985,0.0,0.008058608058608058,0.0
3.5281468739995034,0.0,0.0032234432234432234,0.0
3.533778588000132,0.0,0.0032234432234432234,0.0
3.53395247699882,0.0,0.0032234432234432234,0.0
3.541896236998582,0.0,0.0032234432234432234,0.0
3.5468274759987253,0.0,0.0032234432234432234,0.0
3.5517422439988877,0.0,0.0032234432234432234,0.0
3.5571540460005053,0.0,0.005641025641025641,0.02095238095238095
3.5573929860001954,0.0,0.014505494505494505,0.03223443223443223
3.5644764419994317,0.0,0.014505494505494505,0.03223443223443223
3.5685360679999576,0.0,0.004029304029304029,0.0
3.573433092999039,0.0,0.004029304029304029,0.0
3.575968509998347,0.0,0.004029304029304029,0.0
3.5814554789976683,0.0,0.004029304029304029,0.0
3.5830761859979248,0.0,0.004029304029304029,0.0
3.5910526209991076,0.0,0.004029304029304029,0.0
3.595288773998618,0.0,0.004029304029304029,0.0
3.5969849760003854,0.0,0.004029304029304029,0.0
3.5999780370002554,0.0,0.004029304029304029,0.0
3.601901491998433,0.0,0.004029304029304029,0.0
3.606517869000527,0.0,0.004029304029304029,0.0
3.6097321289998945,0.0,0.004029304029304029,0.0
3.610095342999557,0.0,0.004029304029304029,0.0
3.615585681000084,0.0,0.004029304029304029,0.0
3.61642800700065,0.0,0.004029304029304029,0.0
3.6179814530005387,0.0,0.004029304029304029,0.0
3.6260669759976736,0.0,0.004029304029304029,0.0
3.630847394000739,0.0,0.004029304029304029,0.0
3.630950230999588,0.0,0.004029304029304029,0.0
3.637471406000259,0.0,0.004029304029304029,0.0
3.6415919270002632,0.0,0.004029304029304029,0.0
3.643876612997701,0.0,0.0,0.012893772893772894
3.6441435209999327,0.0,0.0,0.012893772893772894
3.649734296999668,0.0,0.0,0.012893772893772894
3.6505368420002924,0.0,0.0,0.012893772893772894
3.6525165519997245,0.0,0.0,0.012893772893772894
3.656440840997675,0.0,0.0,0.012893772893772894
3.658153552998556,0.0,0.0,0.012893772893772894
3.6612786919977225,0.0,0.0,0.012893772893772894
3.663608620998275,0.0,0.0,0.012893772893772894
3.6637076679980964,0.0,0.0,0.0032234432234432234
3.6699482559997705,0.0,0.0,0.0032234432234432234
3.6742570509995858,0.0,0.0,0.0032234432234432234
3.6744957549999526,0.0,0.0,0.0032234432234432234
3.6799317379991408,0.0,0.0,0.0032234432234432234
3.6808064459983143,0.0,0.00967032967032967,0.0
3.682736388000194,0.0,0.00967032967032967,0.0
3.685345180998411,0.0,0.00967032967032967,0.0
3.6946666139992885,0.0,0.00967032967032967,0.0
3.7000320900006045,0.0,0.00967032967032967,0.0
3.7053380249999464,0.0,0.0,0.0
3.7055185030003486,0.0,0.0,0.0
3.711831753000297,0.0,0.0,0.0
3.7156946819995937,0.0,0.0,0.0
3.7233649720001267,0.0,0.07494505494505493,0.010476190476190476
3.7268015970003034,0.0,0.006446886446886447,0.0
3.727014423999208,0.0,0.004029304029304029,0.0024175824175824176
3.7327516580007796,0.0,0.004029304029304029,0.0024175824175824176
3.7329742180008907,0.0,0.004029304029304029,0.0024175824175824176
3.7408285249985056,0.0,0.004029304029304029,0.0024175824175824176
3.74558433600032,0.0,0.004029304029304029,0.0024175824175824176
3.74566051399961,0.0,0.0,0.0
3.7509116170003836,0.0,0.0,0.0
3.753293115998531,0.0,0.0,0.0
3.7534340809979767,0.0,0.0,0.0
3.76052094699844,0.0,0.0,0.0
3.7651155940002354,0.0,0.0,0.0
3.765927163000015,0.0,0.006446886446886447,0.0
3.7689679139984946,0.0,0.006446886446886447,0.0
3.772534068997629,0.0,0.006446886446886447,0.0
3.777286689997709,0.0,0.006446886446886447,0.0
3.7817438259990013,0.0,0.006446886446886447,0.0
3.7820716659989557,0.0,0.011282051282051281,0.0
3.7905735759995878,0.0,0.011282051282051281,0.0
3.794922121000127,0.0,0.011282051282051281,0.0
3.7951406629981648,0.0,0.011282051282051281,0.0
3.800749297999573,0.0,0.011282051282051281,0.0
3.800973149998754,0.0,0.011282051282051281,0.0
3.810141054000269,0.0,0.011282051282051281,0.0
3.815604290997726,0.0,0.011282051282051281,0.0
3.8182520249974914,0.0,0.011282051282051281,0.0
3.824318322000181,0.0,0.0016117216117216117,0.006446886446886447
3.8281454909993045,0.0,0.0016117216117216117,0.006446886446886447
3.831981216000713,0.0,0.0016117216117216117,0.006446886446886447
3.838432009997632,0.0,0.0016117216117216117,0.006446886446886447
3.8445484330004547,0.0,0.004835164835164835,0.028205128205128206
3.850176089999877,0.0,0.0024175824175824176,0.0
3.8575850470006117,0.0,0.0024175824175824176,0.0
3.8622923559996707,0.0,0.0024175824175824176,0.0
3.86240021499907,0.0,0.0024175824175824176,0.0
3.867741877998924,0.0,0.0136996336996337,0.0
3.869527619001019,0.0,0.0136996336996337,0.0
3.8734041019997676,0.0,0.0136996336996337,0.0
3.8766806259991426,0.0,0.0,0.0
3.8769545479990484,0.0,0.0,0.0
3.8824800420006795,0.0,0.0,0.0
3.8832616539984883,0.0,0.0,0.010476190476190476
3.886603812999965,0.0,0.0,0.010476190476190476
3.8934757959978015,0.0,0.0,0.010476190476190476
3.8975166589989385,0.0,0.0,0.010476190476190476
3.899811151000904,0.0,0.0,0.010476190476190476
3.9000708519997715,0.0,0.0,0.010476190476190476
3.907689288000256,0.0,0.0,0.010476190476190476
3.9123639489989728,0.0,0.0,0.010476190476190476
3.9126121119988966,0.0,0.0,0.010476190476190476
3.9181286940001883,0.0,0.0,0.010476190476190476
3.921307548000186,0.0,0.0,0.010476190476190476
3.9215674980005133,0.0,0.0,0.010476190476190476
3.929440918000182,0.0,0.0,0.010476190476190476
3.9373407079983735,0.0,0.0,0.024175824175824173
3.9422860099984973,0.0,0.0,0.024175824175824173
3.944909605997964,0.0,0.0,0.024175824175824173
3.94952435599771,0.0,0.0,0.008058608058608058
3.949617276997742,0.0,0.0016117216117216117,0.025787545787545788
3.957547728998179,0.0,0.0016117216117216117,0.025787545787545788
3.9614909650008485,0.0,0.014505494505494505,0.014505494505494505
3.965615754997998,0.0,0.0032234432234432234,0.03868131868131868
3.9679671109988703,0.0,0.0032234432234432234,0.03868131868131868
3.968099991998315,0.0,0.0032234432234432234,0.03868131868131868
3.9778621879995626,0.0,0.0032234432234432234,0.03868131868131868
3.9828303100002813,0.0,0.006446886446886447,0.0024175824175824176
3.99114066599941,0.0,0.006446886446886447,0.0024175824175824176
3.9951137819989526,0.0,0.006446886446886447,0.0024175824175824176
3.998998554998252,0.0,0.006446886446886447,0.0024175824175824176
4.005031912998675,0.0,0.006446886446886447,0.0024175824175824176
4.010494416997972,0.0,0.0,0.0032234432234432234
4.016126299000462,0.0,0.0,0.004835164835164835
4.016408056999353,0.0,0.0,0.004835164835164835
4.023666285000218,0.0,0.0,0.004835164835164835
4.027471661000163,0.0,0.0,0.004835164835164835
4.0326307699979225,0.0,0.0,0.004835164835164835
4.038616105000983,0.0,0.0,0.004835164835164835
4.042494155000895,0.0,0.0,0.004835164835164835
4.048114736000571,0.0,0.0016117216117216117,0.00967032967032967
4.048244612000417,0.0,0.0,0.0
4.058730223998282,0.0,0.0,0.0
4.064419877999171,0.0,0.0,0.0
4.071390004999557,0.0,0.004029304029304029,0.0
4.075007008999819,0.0,0.004029304029304029,0.0
4.080447266998817,0.0,0.004029304029304029,0.0
4.082000758000504,0.0,0.004029304029304029,0.0
4.089988304000144,0.0,0.004029304029304029,0.0
4.096237188998202,0.0,0.004029304029304029,0.0
4.099461264999263,0.0,0.0032234432234432234,0.0
4.1010187979991315,0.0,0.0032234432234432234,0.0
4.109620148999966,0.0,0.0032234432234432234,0.0
4.115349856998364,0.0,0.0032234432234432234,0.0
4.1155650740001875,0.0,0.004029304029304029,0.017728937728937726
4.124400269000034,0.0,0.004029304029304029,0.017728937728937726
4.128224882999348,0.0,0.016117216117216115,0.018534798534798533
4.132107809000445,0.0,0.016117216117216115,0.018534798534798533
4.139074332000746,0.0,0.004835164835164835,0.0
4.144799345998763,0.0,0.004835164835164835,0.0
4.152049943000748,0.0,0.004835164835164835,0.0
4.15710439599934,0.0,0.004835164835164835,0.0
4.160231607998867,0.0,0.004835164835164835,0.0
4.162104266000824,0.0,0.004835164835164835,0.0
4.164420463999704,0.0,0.004835164835164835,0.0
4.16450526799963,0.0,0.007252747252747252,0.004029304029304029
4.172482529000263,0.0,0.007252747252747252,0.004029304029304029
4.176894366999477,0.0,0.007252747252747252,0.004029304029304029
4.177788288998272,0.0,0.007252747252747252,0.004029304029304029
4.178724166999018,0.0,0.007252747252747252,0.004029304029304029
4.179667108001013,0.0,0.007252747252747252,0.004029304029304029
4.1806429869975545,0.0,0.0,0.0
4.181515719999879,0.0,0.0,0.0
4.183760376999999,0.0,0.0,0.0
4.1839817090003635,0.0,0.0,0.0
4.191408017999493,0.0,0.0,0.0
4.196165188001032,0.0,0.0,0.0
4.196247585998208,0.0,0.0,0.0
4.202633270000661,0.0,0.0,0.0
4.208924660997582,0.0,0.0,0.0
4.212823071000457,0.0,0.0,0.0
4.21918433799874,0.0,0.0,0.0
4.225476940999215,0.0,0.012893772893772894,0.0
4.229525089998788,0.0,0.012893772893772894,0.0
4.23183153699938,0.0,0.005641025641025641,0.01531135531135531
4.232042380001076,0.0,0.005641025641025641,0.01531135531135531
4.240077038000891,0.0,0.005641025641025641,0.01531135531135531
4.247166297998774,0.0,0.005641025641025641,0.01531135531135531
4.250913122999918,0.0,0.005641025641025641,0.01531135531135531
4.258739312997932,0.0,0.005641025641025641,0.01531135531135531
4.264169137000863,0.0,0.0016117216117216117,0.007252747252747252
4.267293240998697,0.0,0.0016117216117216117,0.007252747252747252
4.26826304199858,0.0,0.00967032967032967,0.0
4.269775418997597,0.0,0.00967032967032967,0.0
4.274747068000579,0.0,0.00967032967032967,0.0
4.277991570997983,0.0,0.0032234432234432234,0.028205128205128206
4.278828849997808,0.0,0.0,0.0273992673992674
4.280403115000809,0.0,0.0,0.0273992673992674
4.285057651999523,0.0,0.0,0.0273992673992674
4.2929057519977505,0.0,0.0,0.0273992673992674
4.298599836998619,0.0,0.006446886446886447,0.0
4.298901879999903,0.0,0.006446886446886447,0.0
4.306024281999271,0.0,0.006446886446886447,0.0
4.310172337998665,0.0,0.006446886446886447,0.0
4.312417348999588,0.0,0.006446886446886447,0.0
4.312553920997743,0.0,0.006446886446886447,0.0
4.318333187999087,0.0,0.006446886446886447,0.0
4.318420365998463,0.0,0.006446886446886447,0.0
4.325856078998186,0.0,0.006446886446886447,0.0
4.330362593998871,0.0,0.006446886446886447,0.00967032967032967
4.331884320999961,0.0,0.006446886446886447,0.00967032967032967
4.336249897998641,0.0,0.007252747252747252,0.051575091575091575
4.33649787000104,0.0,0.007252747252747252,0.051575091575091575
4.345268632998341,0.0,0.007252747252747252,0.051575091575091575
4.3537075519998325,0.0,0.007252747252747252,0.051575091575091575
4.358721949000028,0.0,0.007252747252747252,0.051575091575091575
4.36263871600022,0.0,0.007252747252747252,0.051575091575091575
4.366329831998883,0.0,0.007252747252747252,0.051575091575091575
4.366506933998608,0.0,0.01531135531135531,0.0
4.3749105210008565,0.0,0.01531135531135531,0.0
4.379361942999822,0.0,0.0,0.0016117216117216117
4.3802244779981265,0.0,0.0,0.0016117216117216117
4.382484112000384,0.0,0.0,0.0016117216117216117
4.383249383998191,0.0,0.0,0.0016117216117216117
4.386791912998888,0.0,0.0,0.0016117216117216117
4.393044991000352,0.0,0.012893772893772894,0.0
4.396869154999877,0.0,0.012893772893772894,0.0
4.401568254997983,0.0,0.012893772893772894,0.0
4.40920424000069,0.0,0.012893772893772894,0.0
4.413646465000056,0.0,0.0,0.0032234432234432234
4.414657416000409,0.0,0.0,0.0032234432234432234
4.415545836000092,0.0,0.0,0.0032234432234432234
4.417096137000044,0.0,0.0,0.0032234432234432234
4.424025739997887,0.0,0.007252747252747252,0.0
4.427800145000219,0.0,0.0,0.0
4.433041816999321,0.0,0.0,0.0
4.435629700998106,0.0,0.004835164835164835,0.24175824175824176
4.443573991000449,0.0,0.004835164835164835,0.24175824175824176
4.4476242380005715,0.0,0.004835164835164835,0.24175824175824176
4.4514635169980465,0.0,0.004835164835164835,0.24175824175824176
4.45971465600087,0.0,0.004835164835164835,0.24175824175824176
4.46389106100105,0.0,0.004835164835164835,0.24175824175824176
4.466257752999809,0.0,0.004835164835164835,0.24175824175824176
4.466471152998565,0.0,0.004835164835164835,0.24175824175824176
4.4751925179989485,0.0,0.004835164835164835,0.24175824175824176
4.480029510999884,0.0,0.004835164835164835,0.24175824175824176
4.484551923000254,0.0,0.020146520146520144,0.0016117216117216117
4.484785175998695,0.0,0.020146520146520144,0.0016117216117216117
4.4953978230005305,0.0,0.020146520146520144,0.0016117216117216117
4.50150980699982,0.0,0.004835164835164835,0.006446886446886447
4.508921813998313,0.0,0.004835164835164835,0.006446886446886447
4.5135561089991825,0.0,0.004835164835164835,0.006446886446886447
4.519699011998455,0.0,0.004835164835164835,0.006446886446886447
4.526305462000892,0.0,0.004835164835164835,0.006446886446886447
4.530018133998965,0.0,0.004835164835164835,0.006446886446886447
4.535649936999107,0.0,0.0,0.008864468864468863
4.535954896000476,0.0,0.0,0.008864468864468863
4.543323312998837,0.0,0.0,0.008864468864468863
4.548167809000006,0.0,0.0,0.008864468864468863
4.554932636998274,0.0,0.004835164835164835,0.0
4.56089914399854,0.0,0.0136996336996337,0.02095238095238095
4.564007678000053,0.0,0.0136996336996337,0.02095238095238095
4.5656543980003335,0.0,0.0136996336996337,0.02095238095238095
4.571080695001001,0.0,0.0136996336996337,0.02095238095238095
4.571283520999714,0.0,0.004029304029304029,0.0
4.579067722999753,0.0,0.004029304029304029,0.0
4.5843665819993475,0.0,0.016923076923076923,0.03545787545787545
4.586633832997904,0.0,0.016923076923076923,0.03545787545787545
4.5868125169981795,0.0,0.016923076923076923,0.03545787545787545
4.595488392998959,0.0,0.016923076923076923,0.03545787545787545
4.595645404999232,0.0,0.0,0.008058608058608058
4.601320757999929,0.0,0.0,0.008058608058608058
4.603025852000428,0.0,0.0,0.008058608058608058
4.607578733000992,0.0,0.0,0.008058608058608058
4.6123235169980035,0.0,0.0024175824175824176,0.004835164835164835
4.622061403999396,0.0,0.0,0.011282051282051281
4.627868758998375,0.0,0.006446886446886447,0.0024175824175824176
4.6279525850004575,0.0,0.006446886446886447,0.0024175824175824176
4.633252121999249,0.0,0.006446886446886447,0.0024175824175824176
4.636333634000039,0.0,0.006446886446886447,0.0024175824175824176
4.637899242999993,0.0,0.006446886446886447,0.0024175824175824176
4.641519633998541,0.0,0.006446886446886447,0.0024175824175824176
4.645469385999604,0.0,0.005641025641025641,0.0016117216117216117
4.649221374998888,0.0,0.0,0.0
4.6568890339985956,0.0,0.0,0.0
4.660694086000149,0.0,0.0,0.0
4.665929519000201,0.0,0.0,0.0
4.668462617999467,0.0,0.0,0.0
4.675163492000138,0.0,0.0,0.0
4.6795550959977845,0.0,0.0,0.0
4.680377669999871,0.0,0.0,0.0
4.682957697998063,0.0,0.0,0.0
4.690313573999447,0.0,0.0,0.0
4.6941903269980685,0.0,0.0,0.0
4.698821353998937,0.0,0.0,0.0008058608058608059
4.6989511030005815,0.0,0.0,0.0008058608058608059
4.707374470999639,0.0,0.0,0.0008058608058608059
4.711231466000754,0.0,0.0,0.0008058608058608059
4.715653033999843,0.0,0.0,0.0008058608058608059
4.71645160999833,0.0,0.0,0.0008058608058608059
4.718105381998612,0.0,0.0,0.0008058608058608059
4.72480156399979,0.0,0.0,0.0008058608058608059
4.728955118000158,0.0,0.0,0.0008058608058608059
4.731342064998898,0.0,0.0,0.0008058608058608059
4.740020884000842,0.0,0.0,0.0008058608058608059
4.747111161999783,0.0,0.0,0.0008058608058608059
4.7539345099976344,0.0,0.008058608058608058,0.0024175824175824176
4.7601591759994335,0.0,0.008058608058608058,0.0024175824175824176
4.763488725999196,0.0,0.008058608058608058,0.0024175824175824176
4.763716834000661,0.0,0.008058608058608058,0.0024175824175824176
4.7715305969977635,0.0,0.0032234432234432234,0.0032234432234432234
4.775203869998222,0.0,0.006446886446886447,0.0
4.779872507999244,0.0,0.006446886446886447,0.0
4.780034688999876,0.0,0.006446886446886447,0.0
4.786435318997974,0.0,0.006446886446886447,0.0
4.792051921998791,0.0,0.006446886446886447,0.0
4.792174657999567,0.0,0.0024175824175824176,0.05802197802197802
4.7994272020005155,0.0,0.0024175824175824176,0.05802197802197802
4.807165690999682,0.0,0.0024175824175824176,0.011282051282051281
4.811087899000995,0.0,0.0024175824175824176,0.011282051282051281
4.814900058998319,0.0,0.0024175824175824176,0.011282051282051281
4.818250681000791,0.0,0.0024175824175824176,0.011282051282051281
4.8186534119995486,0.0,0.0024175824175824176,0.011282051282051281
4.82692319600028,0.0,0.0024175824175824176,0.011282051282051281
4.830712520000816,0.0,0.0,0.016923076923076923
4.837533900998096,0.0,0.008058608058608058,0.0
4.841088982000656,0.0,0.0016117216117216117,0.09267399267399268
4.8463305639998,0.0,0.0016117216117216117,0.09267399267399268
4.849372389999189,0.0,0.0016117216117216117,0.09267399267399268
4.8523735310009215,0.0,0.0016117216117216117,0.09267399267399268
4.8554774500007625,0.0,0.0016117216117216117,0.09267399267399268
4.8557275909988675,0.0,0.0016117216117216117,0.09267399267399268
4.865487169998232,0.0,0.0016117216117216117,0.09267399267399268
4.872963876998256,0.0,0.0,0.022564102564102562
4.8790669169975445,0.0,0.0,0.022564102564102562
4.883207426999434,0.0,0.0,0.022564102564102562
4.886690135997924,0.0,0.0,0.022564102564102562
4.893313868000405,0.0,0.0,0.022564102564102562
4.897221969000384,0.0,0.004029304029304029,0.006446886446886447
4.90146316100072,0.0,0.004029304029304029,0.006446886446886447
4.90458104299978,0.0,0.004029304029304029,0.006446886446886447
4.904955363999761,0.0,0.004029304029304029,0.006446886446886447
4.910177305999241,0.0,0.004029304029304029,0.006446886446886447
4.913166254998941,0.0,0.004029304029304029,0.006446886446886447
4.915394093997747,0.0,0.004029304029304029,0.006446886446886447
4.915558410997619,0.0,0.004029304029304029,0.006446886446886447
4.926069689998258,0.0,0.004029304029304029,0.006446886446886447
4.9356008319991815,0.0,0.004029304029304029,0.006446886446886447
4.9415408770000795,0.0,0.005641025641025641,0.0
4.945500331999938,0.0,0.0,0.006446886446886447
4.950103896000655,0.0,0.0,0.006446886446886447
4.9602961060008965,0.0,0.011282051282051281,0.03062271062271062
4.965025543999218,0.0,0.012893772893772894,0.006446886446886447
4.965206600998499,0.0,0.012893772893772894,0.006446886446886447
4.972773342000437,0.0,0.012893772893772894,0.006446886446886447
4.976762120997591,0.0,0.012893772893772894,0.006446886446886447
4.980127316001017,0.0,0.012893772893772894,0.006446886446886447
4.980279913997947,0.0,0.012893772893772894,0.006446886446886447
4.992327526000736,0.0,0.012893772893772894,0.006446886446886447
5.0043271680006,0.0,0.006446886446886447,0.0
5.028178312997625,0.0,0.007252747252747252,0.03142857142857143
5.02850860900071,0.0,0.007252747252747252,0.03142857142857143
5.035554142999899,0.0,0.007252747252747252,0.03142857142857143
5.043625497997709,0.0,0.007252747252747252,0.03142857142857143
5.054141648997756,0.0,0.0136996336996337,0.00967032967032967
5.060025938000763,0.0,0.004835164835164835,0.0
5.0653315109993855,0.0,0.004835164835164835,0.0
5.067123149998224,0.0,0.005641025641025641,0.004835164835164835
5.070333820000087,0.0,0.005641025641025641,0.004835164835164835
5.070469315000082,0.0,0.006446886446886447,0.0
5.076669655998558,0.0,0.006446886446886447,0.0
5.080732694998005,0.0,0.006446886446886447,0.0
5.083985100998689,0.0,0.006446886446886447,0.0
5.084830662999593,0.0,0.006446886446886447,0.0
5.086466444998223,0.0,0.006446886446886447,0.0
5.089691302000574,0.0,0.006446886446886447,0.0
5.09050924300027,0.0,0.006446886446886447,0.0
5.092807000997709,0.0,0.006446886446886447,0.0
5.092951357997663,0.0,0.006446886446886447,0.0
5.09835803399983,0.0,0.006446886446886447,0.0
5.099863904000813,0.0,0.006446886446886447,0.0
5.104402238001057,0.0,0.006446886446886447,0.0
5.104693992998364,0.0,0.006446886446886447,0.0
5.109958937999181,0.0,0.006446886446886447,0.0
5.11172737599918,0.0,0.0032234432234432234,0.022564102564102562
5.114828087000205,0.0,0.0032234432234432234,0.022564102564102562
5.117107592999673,0.0,0.0032234432234432234,0.022564102564102562
5.117277343000751,0.0,0.012893772893772894,0.006446886446886447
5.122698841998499,0.0,0.012893772893772894,0.006446886446886447
5.124189821999607,0.0,0.012087912087912087,0.0
5.129746519000037,0.0,0.012087912087912087,0.0
5.129977885997505,0.0,0.012087912087912087,0.0
5.13531996799793,0.0,0.012087912087912087,0.0
5.138635281000461,0.0,0.012087912087912087,0.0
5.144149559997459,0.0,0.0,0.0
5.145116675997997,0.0,0.0,0.0
5.145354469997983,0.0,0.0,0.0
5.151167882999289,0.0,0.0,0.0
5.157427958998596,0.0,0.004029304029304029,0.0016117216117216117
5.161538430998917,0.0,0.004029304029304029,0.0016117216117216117
5.163108819000627,0.0,0.004029304029304029,0.0016117216117216117
5.169636845999776,0.0,0.004029304029304029,0.0016117216117216117
5.175623374998395,0.0,0.008864468864468863,0.0
5.181445292000717,0.0,0.008864468864468863,0.0
5.187650436000695,0.0,0.006446886446886447,0.006446886446886447
5.192564806999144,0.0,0.006446886446886447,0.006446886446886447
5.198775993998424,0.0,0.006446886446886447,0.006446886446886447
5.203448704000039,0.0,0.0,0.0273992673992674
5.210385454000061,0.0,0.0,0.08139194139194139
5.214342143000977,0.0,0.0,0.08139194139194139
5.220932745000027,0.0,0.0,0.08139194139194139
5.226163641000312,0.0,0.0,0.08139194139194139
5.2264158639991365,0.0,0.0,0.08139194139194139
5.235770547998982,0.0,0.0,0.08139194139194139
5.243922476998705,0.0,0.014505494505494505,0.03304029304029304
5.251018290000502,0.0,0.014505494505494505,0.03304029304029304
5.256669120997685,0.0,0.0,0.02336996336996337
5.265558677998342,0.0,0.006446886446886447,0.0
5.272362056999555,0.0,0.016117216117216115,0.0
5.2778288859990425,0.0,0.016117216117216115,0.0
5.278009729998303,0.0,0.016117216117216115,0.0
5.287685033999878,0.0,0.016117216117216115,0.0
5.29622884499986,0.0,0.016117216117216115,0.0
5.303124124999158,0.0,0.016117216117216115,0.0
5.307974215000286,0.0,0.016117216117216115,0.0
5.314611466998031,0.0,0.016117216117216115,0.0
5.319689563999418,0.0,0.008058608058608058,0.0
5.323524117000488,0.0,0.008058608058608058,0.0
5.32614346599803,0.0,0.008058608058608058,0.0
5.333569125999929,0.0,0.008058608058608058,0.0
5.339436819998809,0.0,0.008058608058608058,0.0
5.343917513000633,0.0,0.008058608058608058,0.0
5.34415533399806,0.0,0.008058608058608058,0.0
5.349420824000845,0.0,0.006446886446886447,0.0
5.351814503999776,0.0,0.006446886446886447,0.0
5.352065342998685,0.0,0.006446886446886447,0.0
5.357198165998852,0.0,0.006446886446886447,0.0
5.360967724998773,0.0,0.006446886446886447,0.0
5.3654821349991835,0.0,0.006446886446886447,0.0
5.365603628000827,0.0,0.006446886446886447,0.0
5.370845212997665,0.0,0.006446886446886447,0.0
5.373123340999882,0.0,0.012893772893772894,0.0
5.373258699000871,0.0,0.012893772893772894,0.0
5.378469301998848,0.0,0.012893772893772894,0.0
5.3814581359984,0.0,0.012893772893772894,0.0
5.383936727997934,0.0,0.016117216117216115,0.029816849816849816
5.390326984997955,0.0,0.016117216117216115,0.029816849816849816
5.395135676997597,0.0,0.016117216117216115,0.029816849816849816
5.403335307000816,0.0,0.016117216117216115,0.029816849816849816
5.410242066998762,0.0,0.016117216117216115,0.029816849816849816
5.415875183000026,0.0,0.016117216117216115,0.029816849816849816
5.423729973997979,0.0,0.016117216117216115,0.029816849816849816
5.428529278000497,0.0,0.016117216117216115,0.029816849816849816
5.434124882998731,0.0,0.008864468864468863,0.0
5.435336712998833,0.0,0.008864468864468863,0.0
5.442616666998219,0.0,0.008864468864468863,0.0
5.447141290998843,0.0,0.008864468864468863,0.0
5.448069064997981,0.0,0.005641025641025641,0.0032234432234432234
5.4492116599976725,0.0,0.005641025641025641,0.0032234432234432234
5.449417874999199,0.0,0.005641025641025641,0.0032234432234432234
5.45947139999771,0.0,0.005641025641025641,0.0032234432234432234
5.4642226840005605,0.0,0.004029304029304029,0.02095238095238095
5.464310816998477,0.0,0.004029304029304029,0.02095238095238095
5.475708939000469,0.0,0.004029304029304029,0.02095238095238095
5.483205795997492,0.0,0.004029304029304029,0.02095238095238095
5.490531597999507,0.0,0.004029304029304029,0.02095238095238095
5.495196692998434,0.0,0.004029304029304029,0.02095238095238095
5.495315495998511,0.0,0.004029304029304029,0.02095238095238095
5.503243969000323,0.0,0.004029304029304029,0.02095238095238095
5.51104437200047,0.0,0.004029304029304029,0.02095238095238095
5.51917767499981,0.0,0.004029304029304029,0.02095238095238095
5.525999101999332,0.0,0.004029304029304029,0.02095238095238095
5.529755511000985,0.0,0.007252747252747252,0.00967032967032967
5.5299119999981485,0.0,0.005641025641025641,0.008058608058608058
5.538132662997668,0.0,0.005641025641025641,0.008058608058608058
5.542746684001031,0.0,0.005641025641025641,0.008058608058608058
5.548218813997664,0.0,0.005641025641025641,0.008058608058608058
5.5513037069977145,0.0,0.005641025641025641,0.008058608058608058
5.553387705000205,0.0,0.005641025641025641,0.008058608058608058
5.5545583960010845,0.0,0.005641025641025641,0.008058608058608058
5.560317565999867,0.0,0.005641025641025641,0.008058608058608058
5.560411489997932,0.0,0.005641025641025641,0.008058608058608058
5.5655614499992225,0.0,0.005641025641025641,0.008058608058608058
5.570185668999329,0.0,0.005641025641025641,0.008058608058608058
5.5754113519979,0.0,0.005641025641025641,0.008058608058608058
5.57772549999936,0.0,0.005641025641025641,0.008058608058608058
5.577939487000549,0.0,0.005641025641025641,0.008058608058608058
5.583405855999445,0.0,0.005641025641025641,0.008058608058608058
5.583511818000261,0.0,0.005641025641025641,0.008058608058608058
5.591066081000463,0.0,0.005641025641025641,0.008058608058608058
5.595655655000883,0.0,0.005641025641025641,0.008058608058608058
5.595900464999431,0.0,0.0,0.0
5.601718506000907,0.0,0.0,0.0
5.612278978998802,0.0,0.0,0.0
5.62062946199876,0.0,0.0032234432234432234,0.0
5.6278662999975495,0.0,0.0032234432234432234,0.0
5.631766483998945,0.0,0.0016117216117216117,0.007252747252747252
5.6371446609991835,0.0,0.0016117216117216117,0.007252747252747252
5.637477747000958,0.0,0.0016117216117216117,0.007252747252747252
5.643573198998638,0.0,0.00967032967032967,0.008864468864468863
5.646599416999379,0.0,0.00967032967032967,0.008864468864468863
5.650230286999431,0.0,0.00967032967032967,0.008864468864468863
5.650310141998489,0.0,0.00967032967032967,0.008864468864468863
5.657782289999886,0.0,0.00967032967032967,0.008864468864468863
5.662838568998268,0.0,0.012893772893772894,0.0
5.667050414998812,0.0,0.012893772893772894,0.0
5.669684035998216,0.0,0.0,0.00967032967032967
5.674560708001081,0.0,0.0,0.00967032967032967
5.677596099998482,0.0,0.0,0.00967032967032967
5.6798956179991364,0.0,0.0,0.00967032967032967
5.680046530000254,0.0,0.0,0.00967032967032967
5.687045159000263,0.0,0.0,0.00967032967032967
5.691158061999886,0.0,0.0,0.00967032967032967
5.6934143629987375,0.0,0.0,0.00967032967032967
5.693617166998592,0.0,0.0,0.00967032967032967
5.698872512999515,0.0,0.0,0.00967032967032967
5.701960517999396,0.0,0.0,0.00967032967032967
5.7041259840007115,0.0,0.0,0.00967032967032967
5.705316559000494,0.0,0.0,0.00967032967032967
5.705548131998512,0.0,0.0,0.00967032967032967
5.710288315000071,0.0,0.0,0.00967032967032967
5.71546784200109,0.0,0.0,0.00967032967032967
5.7199544069990225,0.0,0.0016117216117216117,0.008058608058608058
5.720066837999184,0.0,0.0016117216117216117,0.008058608058608058
5.726033658000233,0.0,0.0016117216117216117,0.008058608058608058
5.730064543000481,0.0,0.0016117216117216117,0.008058608058608058
5.732405148999533,0.0,0.0,0.01934065934065934
5.741315061997739,0.0,0.0,0.01934065934065934
5.747404466997978,0.0,0.0,0.01934065934065934
5.7511956809976255,0.0,0.0,0.01934065934065934
5.758714363000763,0.0,0.0,0.01934065934065934
5.764170189999277,0.0,0.00967032967032967,0.0273992673992674
5.766401216998929,0.0,0.00967032967032967,0.0273992673992674
5.766595960998529,0.0,0.00967032967032967,0.0273992673992674
5.77447870800097,0.0,0.00967032967032967,0.0273992673992674
5.778984623000724,0.0,0.00967032967032967,0.0273992673992674
5.779829159000656,0.0,0.00967032967032967,0.0273992673992674
5.781512057998043,0.0,0.00967032967032967,0.0273992673992674
5.784596342000441,0.0,0.00967032967032967,0.0273992673992674
5.789552909998747,0.0,0.00967032967032967,0.0273992673992674
5.79226432699943,0.0,0.0,0.0
5.798543172000791,0.0,0.0,0.0
5.804309749997628,0.0,0.0,0.0
5.80440591200022,0.0,0.011282051282051281,0.0
5.809984257000906,0.0,0.011282051282051281,0.0
5.8115501739994215,0.0,0.011282051282051281,0.0
5.81641516399759,0.0,0.011282051282051281,0.0
5.8243133569994825,0.0,0.012893772893772894,0.00967032967032967
5.830008279997855,0.0,0.012893772893772894,0.00967032967032967
5.839615324999613,0.0,0.006446886446886447,0.0
5.844216580000648,0.0,0.006446886446886447,0.0
5.845113290997688,0.0,0.006446886446886447,0.0
5.845390632999624,0.0,0.006446886446886447,0.0
5.851266611000028,0.0,0.006446886446886447,0.0
5.858870030999242,0.0,0.006446886446886447,0.0
5.863351725998655,0.0,0.006446886446886447,0.0
5.863509370999964,0.0,0.006446886446886447,0.0
5.870418869999412,0.0,0.006446886446886447,0.0
5.8750456550005765,0.0,0.012087912087912087,0.0016117216117216117
5.88053242100068,0.0,0.012087912087912087,0.0016117216117216117
5.881436635998398,0.0,0.006446886446886447,0.0
5.8830390100010845,0.0,0.006446886446886447,0.0
5.889183080998919,0.0,0.006446886446886447,0.0
5.892667071999313,0.0,0.005641025641025641,0.0
5.892909479000082,0.0,0.005641025641025641,0.0
5.89834798299853,0.0,0.004029304029304029,0.004029304029304029
5.899906320999435,0.0,0.00967032967032967,0.0701098901098901
5.908959411997785,0.0,0.00967032967032967,0.0701098901098901
5.914544153998577,0.0,0.0,0.0024175824175824176
5.925737392000883,0.0,0.0,0.0024175824175824176
5.933495155997662,0.0,0.007252747252747252,0.0016117216117216117
5.941607462998945,0.0,0.006446886446886447,0.005641025641025641
5.9489360859988665,0.0,0.0136996336996337,0.0016117216117216117
5.955514190998656,0.0,0.005641025641025641,0.01531135531135531
5.960920247998729,0.0,0.0,0.0
5.961067169999296,0.0,0.0,0.0
5.966339776998211,0.0,0.0,0.0
5.969165149999753,0.0,0.0,0.0
5.973136854998302,0.0,0.0032234432234432234,0.008058608058608058
5.976204721999238,0.0,0.0032234432234432234,0.008058608058608058
5.977795808998053,0.0,0.0032234432234432234,0.008058608058608058
5.98158448599861,0.0,0.0032234432234432234,0.008058608058608058
5.988857255997573,0.0,0.0032234432234432234,0.008058608058608058
5.992701987997862,0.0,0.0032234432234432234,0.008058608058608058
5.9966628389993275,0.0,0.0032234432234432234,0.008058608058608058
6.000451011997939,0.0,0.0032234432234432234,0.008058608058608058
6.006714453000313,0.0,0.0032234432234432234,0.008058608058608058
6.012463340997783,0.0,0.0032234432234432234,0.008058608058608058
6.018401789999189,0.0,0.0032234432234432234,0.008058608058608058
6.023633779997908,0.0,0.0032234432234432234,0.008058608058608058
6.02510594100022,0.0,0.0032234432234432234,0.008058608058608058
6.029579788999399,0.0,0.0032234432234432234,0.008058608058608058
6.029768443000648,0.0,0.0032234432234432234,0.008058608058608058
6.035553588997573,0.0,0.0032234432234432234,0.008058608058608058
6.0422258819999115,0.0,0.016923076923076923,0.0
6.046003684998141,0.0,0.016923076923076923,0.0
6.050571878000483,0.0,0.016923076923076923,0.0
6.050863976997789,0.0,0.016923076923076923,0.0
6.057679343997734,0.0,0.016923076923076923,0.0
6.062433461000182,0.0,0.016923076923076923,0.0
6.062504784000339,0.0,0.0,0.0032234432234432234
6.069287220998376,0.0,0.0,0.0032234432234432234
6.073945887997979,0.0,0.0,0.0032234432234432234
6.079348552997544,0.0,0.0032234432234432234,0.03304029304029304
6.080834558000788,0.0,0.0032234432234432234,0.03304029304029304
6.088783008999599,0.0,0.0032234432234432234,0.03304029304029304
6.095409531000769,0.0,0.0032234432234432234,0.03304029304029304
6.099194259000797,0.0,0.006446886446886447,0.051575091575091575
6.106761705999816,0.0,0.006446886446886447,0.051575091575091575
6.110794166997948,0.0,0.006446886446886447,0.051575091575091575
6.115300114997808,0.0,0.006446886446886447,0.051575091575091575
6.116093144999468,0.0,0.0008058608058608059,0.02336996336996337
6.120056650997867,0.0,0.0008058608058608059,0.02336996336996337
6.124296391000826,0.0,0.0008058608058608059,0.02336996336996337
6.124561847998848,0.0,0.0,0.0016117216117216117
6.130680345999281,0.0,0.0,0.0016117216117216117
6.136468655000499,0.0,0.0,0.0016117216117216117
6.142511776000902,0.0,0.0,0.0016117216117216117
6.147852103000332,0.0,0.0,0.0016117216117216117
6.149414704999799,0.0,0.0,0.0016117216117216117
6.156090729000425,0.0,0.0,0.0016117216117216117
6.161901180999848,0.0,0.0,0.0016117216117216117
6.169668366997939,0.0,0.0,0.0016117216117216117
6.173843759999727,0.0,0.0,0.0016117216117216117
6.175435248998838,0.0,0.0,0.0016117216117216117
6.178554146998067,0.0,0.0,0.0016117216117216117
6.180164807999972,0.0,0.0,0.0016117216117216117
6.185221691997867,0.0,0.0,0.0016117216117216117
6.189861114999076,0.0,0.0,0.0016117216117216117
6.194531806999294,0.0,0.0,0.0016117216117216117
6.199669020999863,0.0,0.0016117216117216117,0.03062271062271062
6.202603901998373,0.0,0.1523076923076923,0.006446886446886447
6.205525713998213,0.0,0.1523076923076923,0.006446886446886447
6.208671319000132,0.0,0.1523076923076923,0.006446886446886447
6.210892852999677,0.0,0.1523076923076923,0.006446886446886447
6.211742758998298,0.0,0.1523076923076923,0.006446886446886447
6.213362753998808,0.0,0.1523076923076923,0.006446886446886447
6.217093203998957,0.0,0.1523076923076923,0.006446886446886447
6.222337666000385,0.0,0.017728937728937726,0.012893772893772894
6.224692881998635,0.0,0.01531135531135531,0.0
6.2248219110006175,0.0,0.01531135531135531,0.0
6.230196644999523,0.0,0.01531135531135531,0.0
6.23179113399965,0.0,0.006446886446886447,0.014505494505494505
6.2349546539990115,0.0,0.006446886446886447,0.014505494505494505
6.235814894000214,0.0,0.006446886446886447,0.014505494505494505
6.238021496999863,0.0,0.006446886446886447,0.014505494505494505
6.238816077999218,0.0,0.006446886446886447,0.014505494505494505
6.24036342600084,0.0,0.006446886446886447,0.014505494505494505
6.244858972000657,0.0,0.007252747252747252,0.0
6.245664931000647,0.0,0.007252747252747252,0.0
6.247895161999622,0.0,0.007252747252747252,0.0
6.2480761730003,0.0,0.007252747252747252,0.0
6.258494547997543,0.0,0.007252747252747252,0.0
6.267083577000449,0.0,0.004029304029304029,0.00967032967032967
6.273913585999253,0.0,0.0273992673992674,0.0
6.2770901399999275,0.0,0.01934065934065934,0.0
6.279252068998176,0.0,0.01934065934065934,0.0
6.279457112999808,0.0,0.01934065934065934,0.0
6.285444696000923,0.0,0.01934065934065934,0.0
6.291752213001018,0.0,0.01934065934065934,0.0
6.295877652999479,0.0,0.01934065934065934,0.0
6.301796440999169,0.0,0.004029304029304029,0.016117216117216115
6.3056237339988,0.0,0.004029304029304029,0.016117216117216115
6.308072596999409,0.0,0.004029304029304029,0.016117216117216115
6.313399071997992,0.0,0.004029304029304029,0.016117216117216115
6.315797080998891,0.0,0.024175824175824173,0.0
6.315985596000246,0.0,0.024175824175824173,0.0
6.325558730997727,0.0,0.024175824175824173,0.0
6.333502615998441,0.0,0.024175824175824173,0.0
6.339082750997477,0.0,0.024175824175824173,0.0
6.339358135999646,0.0,0.024175824175824173,0.0
6.345870150998962,0.0,0.024175824175824173,0.0
6.3501750719988195,0.0,0.024175824175824173,0.0
6.351106649999565,0.0,0.024175824175824173,0.0
6.352225744998577,0.0,0.024175824175824173,0.0
6.352446402997884,0.0,0.024175824175824173,0.0
6.361111243997584,0.0,0.024175824175824173,0.0
6.369739727997512,0.0,0.008864468864468863,0.048351648351648346
6.378668065000966,0.0,0.008864468864468863,0.048351648351648346
6.385368155999458,0.0,0.0,0.011282051282051281
6.390705751000496,0.0,0.0,0.011282051282051281
6.391009143997508,0.0,0.0,0.011282051282051281
6.400355515997944,0.0,0.0,0.011282051282051281
6.408736573997885,0.0,0.0,0.011282051282051281
6.415491330997611,0.0,0.006446886446886447,0.0016117216117216117
6.419419407000532,0.0,0.006446886446886447,0.0016117216117216117
6.4248005310000735,0.0,0.006446886446886447,0.0016117216117216117
6.42499024800054,0.0,0.006446886446886447,0.0016117216117216117
6.4350344039994525,0.0,0.006446886446886447,0.0016117216117216117
6.44172280299972,0.0,0.006446886446886447,0.0016117216117216117
6.445451153998874,0.0,0.006446886446886447,0.0016117216117216117
6.451066998997703,0.0,0.006446886446886447,0.0016117216117216117
6.4512242620003235,0.0,0.004029304029304029,0.0
6.460202856000251,0.0,0.004029304029304029,0.0
6.467069297999842,0.0,0.0032234432234432234,0.045128205128205125
6.47286648500085,0.0,0.011282051282051281,0.004835164835164835
6.479521430999739,0.0,0.0,0.004835164835164835
6.4846596979987225,0.0,0.0,0.004835164835164835
6.485985265000636,0.0,0.0,0.004835164835164835
6.486104933999741,0.0,0.0,0.004835164835164835
6.49335436399997,0.0,0.0,0.004835164835164835
6.498072030997719,0.0,0.0,0.004835164835164835
6.503929734000849,0.0,0.006446886446886447,0.011282051282051281
6.514001778999955,0.0,0.006446886446886447,0.011282051282051281
6.522170575000928,0.0,0.010476190476190476,0.10717948717948718
6.528861873997812,0.0,0.010476190476190476,0.10717948717948718
6.534147054000641,0.0,0.0,0.0
6.535470348997478,0.0,0.006446886446886447,0.012893772893772894
6.545309716999327,0.0,0.006446886446886447,0.012893772893772894
6.553573997000058,0.0,0.0,0.011282051282051281
6.55915507499958,0.0,0.0,0.011282051282051281
6.559299259999534,0.0,0.0,0.0136996336996337
6.568396660997678,0.0,0.0,0.0136996336996337
6.575421378998726,0.0,0.0,0.0136996336996337
6.580452932998014,0.0,0.0,0.014505494505494505
6.584150316000887,0.0,0.0,0.014505494505494505
6.590454715998931,0.0,0.0,0.014505494505494505
6.596723988997837,0.0,0.0,0.014505494505494505
6.602861260998907,0.0,0.0,0.014505494505494505
6.607569055999193,0.0,0.0,0.014505494505494505
6.615233730000909,0.0,0.0,0.014505494505494505
6.622003082000447,0.0,0.0,0.014505494505494505
6.626534431998152,0.0,0.0,0.014505494505494505
6.626655440999457,0.0,0.0,0.014505494505494505
6.636130285998661,0.0,0.0,0.014505494505494505
6.643808330998581,0.0,0.008058608058608058,0.8816117216117215
6.650276009997469,0.0,0.008058608058608058,0.8816117216117215
6.655241648997617,0.0,0.008058608058608058,0.8816117216117215
6.659375446000922,0.0,0.008058608058608058,0.8816117216117215
6.660550997999962,0.0,0.008058608058608058,0.8816117216117215
6.6608565599999565,0.0,0.008058608058608058,0.8816117216117215
6.668855703999725,0.0,0.008058608058608058,0.8816117216117215
6.675175787000626,0.0,0.008058608058608058,0.8816117216117215
6.6806468939976185,0.0,0.008058608058608058,0.8816117216117215
6.680903352000314,0.0,0.008058608058608058,0.8816117216117215
6.688633524998295,0.0,0.008058608058608058,0.8816117216117215
6.695883430998947,0.0,0.008058608058608058,0.8816117216117215
6.700552377998974,0.0,0.008058608058608058,0.8816117216117215
6.708839208000427,0.0,0.008058608058608058,0.8816117216117215
6.716019015999336,0.0,0.008058608058608058,0.8816117216117215
6.721290137000324,0.0,0.0032234432234432234,0.967032967032967
6.722726773998147,0.0,0.0,0.029816849816849816
6.731137259997922,0.0,0.008864468864468863,0.012893772893772894
6.73594436699932,0.0,0.004835164835164835,0.025787545787545788
6.741864388997783,0.0,0.004835164835164835,0.025787545787545788
6.746759427998768,0.0,0.004835164835164835,0.025787545787545788
6.751485832999606,0.0,0.004835164835164835,0.025787545787545788
6.754303466997953,0.0,0.004835164835164835,0.025787545787545788
6.757804199998645,0.0,0.0,2.5561904761904763
6.7580295449988625,0.0,0.0,2.5561904761904763
6.762842821997765,0.0,0.0,2.5561904761904763
6.767610107999644,0.0,0.011282051282051281,0.083003663003663
6.767774626998289,0.0,0.011282051282051281,0.083003663003663
6.772606464001001,0.0,0.006446886446886447,0.0016117216117216117
6.77730196199991,0.0,0.005641025641025641,0.0
6.777401438997913,0.0,0.005641025641025641,0.0
6.782142440999451,0.0,0.005641025641025641,0.0
6.782202390000748,0.0,0.010476190476190476,0.0016117216117216117
6.786934309999197,0.0,0.010476190476190476,0.0016117216117216117
6.787094482999237,0.0,0.0016117216117216117,0.01934065934065934
6.791886410999723,0.0,0.0016117216117216117,0.01934065934065934
6.791957564000768,0.0,0.0016117216117216117,0.01934065934065934
6.796807329999865,0.0,0.0016117216117216117,0.01934065934065934
6.805505663000076,0.0,0.0016117216117216117,0.01934065934065934
6.810804876000475,0.0,0.005641025641025641,0.0
6.812142545000825,0.0,0.004835164835164835,0.016117216117216115
6.82038132299931,0.0,0.004835164835164835,0.016117216117216115
6.825554043000011,0.0,0.004835164835164835,0.016117216117216115
6.828779474999465,0.0,0.0,0.0
6.829104123000434,0.0,0.0,0.0
6.837832498000353,0.0,0.0,0.0
6.845787681999354,0.0,0.0,0.0
6.850922933997936,0.0,0.0,0.0
6.854299712998909,0.0,0.0,0.0
6.862769720999495,0.0,0.0,0.16036630036630037
6.8674303560001135,0.0,0.017728937728937726,0.006446886446886447
6.867583590999857,0.0,0.006446886446886447,0.0
6.875395752998884,0.0,0.006446886446886447,0.0
6.882569900000817,0.0,0.0419047619047619,0.0
6.88950885399754,0.0,0.0016117216117216117,0.0
6.895685728999524,0.0,0.006446886446886447,0.006446886446886447
6.899900170999899,0.0,0.006446886446886447,0.006446886446886447
6.901311418998375,0.0,0.006446886446886447,0.006446886446886447
6.9091283429988835,0.0,0.006446886446886447,0.006446886446886447
6.915297775998624,0.0,0.004029304029304029,0.0008058608058608059
6.920354566998867,0.0,0.004029304029304029,0.0008058608058608059
6.923901800000749,0.0,0.004029304029304029,0.0008058608058608059
6.933555906998663,0.0,0.004029304029304029,0.0008058608058608059
6.940527827999176,0.0,0.008058608058608058,0.0
6.944453833999432,0.0,0.07897435897435898,0.026593406593406595
6.9504398700009915,0.0,0.07897435897435898,0.026593406593406595
6.955980130998796,0.0,0.07897435897435898,0.026593406593406595
6.956092484000692,0.0,0.0,0.008058608058608058
6.963805620998755,0.0,0.0,0.008058608058608058
6.969292497000424,0.0,0.0,0.008058608058608058
6.9694453080010135,0.0,0.0,0.008058608058608058
6.97841298899948,0.0,0.0,0.008058608058608058
6.986795148000965,0.0,0.0,0.008058608058608058
6.992974872999184,0.0,0.007252747252747252,0.06446886446886446
6.9986779909995676,0.0,0.0024175824175824176,0.020146520146520144
7.005113357998198,0.0,0.0,0.018534798534798533
7.01061822200063,0.0,0.0032234432234432234,0.033846153846153845
7.020531669997581,0.0,0.0032234432234432234,0.033846153846153845
7.0281865500001,0.0,0.0032234432234432234,0.033846153846153845
7.0353379669977585,0.0,0.0032234432234432234,0.033846153846153845
7.039673223000136,0.0,0.024175824175824173,0.0
7.041190399999323,0.0,0.024175824175824173,0.0
7.048340845998609,0.0,0.024175824175824173,0.0
7.055494935000752,0.0,0.024175824175824173,0.0
7.060637447997578,0.0,0.024175824175824173,0.0
7.063013137998496,0.0,0.024175824175824173,0.0
7.071602764997806,0.0,0.024175824175824173,0.0
7.0787986619980074,0.0,0.024175824175824173,0.0
7.083177996999439,0.0,0.007252747252747252,1.2474725274725273
7.083429982998496,0.0,0.007252747252747252,1.2474725274725273
7.09241955899779,0.0,0.028205128205128206,0.008058608058608058
7.09900573699997,0.0,0.028205128205128206,0.008058608058608058
7.102753503000713,0.0,0.028205128205128206,0.008058608058608058
7.106522637001035,0.0,0.011282051282051281,0.0
7.110339982998994,0.0,0.011282051282051281,0.0
7.115055484999175,0.0,0.011282051282051281,0.0
7.115149786000984,0.0,0.011282051282051281,0.0
7.12052187199879,0.0,0.011282051282051281,0.0
7.122113731998979,0.0,0.011282051282051281,0.0
7.125838762000058,0.0,0.011282051282051281,0.0
7.132162573998357,0.0,0.011282051282051281,0.0
7.137203618000058,0.0,0.017728937728937726,0.008058608058608058
7.139297075998911,0.0,0.017728937728937726,0.008058608058608058
7.140638879998733,0.0,0.017728937728937726,0.008058608058608058
7.14861859300072,0.0,0.017728937728937726,0.008058608058608058
7.153897242998937,0.0,0.017728937728937726,0.008058608058608058
7.157307068999216,0.0,0.006446886446886447,0.016117216117216115
7.165060979998088,0.0,0.006446886446886447,0.016117216117216115
7.170017093998467,0.0,0.006446886446886447,0.016117216117216115
7.176735159999225,0.0,0.006446886446886447,0.016117216117216115
7.181574581998575,0.0,0.006446886446886447,0.016117216117216115
7.188942625998607,0.0,0.006446886446886447,0.016117216117216115
7.194219368000631,0.0,0.0008058608058608059,0.011282051282051281
7.1944391959987115,0.0,0.006446886446886447,0.0
7.202602687000763,0.0,0.006446886446886447,0.0
7.208632904999831,0.0,0.006446886446886447,0.0
7.212546786999155,0.0,0.006446886446886447,0.0
7.219446972998412,0.0,0.0136996336996337,0.00967032967032967
7.224770303997502,0.0,0.0024175824175824176,0.017728937728937726
7.225002155999391,0.0,0.008058608058608058,0.0
7.233523648999835,0.0,0.008058608058608058,0.0
7.2387903689996165,0.0,0.008058608058608058,0.0
7.24021641699801,0.0,0.008058608058608058,0.0
7.247802202000457,0.0,0.03545787545787545,0.012893772893772894
7.2548151509981835,0.0,0.03545787545787545,0.012893772893772894
7.259697493998829,0.0,0.03545787545787545,0.012893772893772894
7.266254561000096,0.0,0.0024175824175824176,0.012087912087912087
7.271185157998843,0.0,0.0024175824175824176,0.012087912087912087
7.2746449389997,0.0,0.0024175824175824176,0.012087912087912087
7.282737870998972,0.0,0.0016117216117216117,0.047545787545787546
7.289307078001002,0.0,0.014505494505494505,0.012893772893772894
7.294753515998309,0.0,0.014505494505494505,0.012893772893772894
7.295034241000394,0.0,0.014505494505494505,0.012893772893772894
7.3023421929974575,0.0,0.014505494505494505,0.012893772893772894
7.307391116999497,0.0,0.005641025641025641,0.025787545787545788
7.31158508199951,0.0,0.005641025641025641,0.025787545787545788
7.313121839000814,0.0,0.005641025641025641,0.025787545787545788
7.317824825000571,0.0,0.005641025641025641,0.025787545787545788
7.317937858999358,0.0,0.005641025641025641,0.025787545787545788
7.323635918997752,0.0,0.005641025641025641,0.025787545787545788
7.329372094998689,0.0,0.005641025641025641,0.025787545787545788
7.329459020998911,0.0,0.005641025641025641,0.025787545787545788
7.334231192999141,0.0,0.004029304029304029,0.025787545787545788
7.3344828259978385,0.0,0.004029304029304029,0.025787545787545788
7.3393114780010364,0.0,0.004029304029304029,0.025787545787545788
7.343409781999071,0.0,0.010476190476190476,0.0
7.34681071399973,0.0,0.010476190476190476,0.0
7.347024513997894,0.0,0.0032234432234432234,0.0008058608058608059
7.351847586000076,0.0,0.0032234432234432234,0.0008058608058608059
7.356611094997788,0.0,0.0032234432234432234,0.03868131868131868
7.361405383999227,0.0,0.006446886446886447,0.014505494505494505
7.361633175998577,0.0,0.006446886446886447,0.0
7.366328239997529,0.0,0.006446886446886447,0.0
7.366453827999067,0.0,0.0032234432234432234,0.0
7.371265998001036,0.0,0.0032234432234432234,0.0
7.3759181940004055,0.0,0.008058608058608058,0.0
7.376061479000782,0.0,0.008058608058608058,0.0
7.38114134299758,0.0,0.008058608058608058,0.0
7.385064825997688,0.0,0.008058608058608058,0.0
7.387792192999768,0.0,0.008058608058608058,0.0
7.391898367997783,0.0,0.008058608058608058,0.0
7.394685601000674,0.0,0.008058608058608058,0.0
7.398111299000448,0.0,0.008058608058608058,0.0
7.398912497999845,0.0,0.008058608058608058,0.0
7.401244521999615,0.0,0.0,0.029816849816849816
7.401499488998525,0.0,0.0,0.029816849816849816
7.407281836000038,0.0,0.0,0.029816849816849816
7.407453109000926,0.0,0.006446886446886447,0.004029304029304029
7.415873513000406,0.0,0.006446886446886447,0.004029304029304029
7.423682717999327,0.0,0.006446886446886447,0.004029304029304029
7.430548633998114,0.0,0.00967032967032967,0.0
7.4368487280007685,0.0,0.00967032967032967,0.0
7.441168364999612,0.0,0.00967032967032967,0.0
7.441400216997863,0.0,0.00967032967032967,0.0
7.450142998000956,0.0,0.00967032967032967,0.0
7.458454105999408,0.0,0.014505494505494505,0.02095238095238095
7.466894262001006,0.0,0.014505494505494505,0.02095238095238095
7.47437157999957,0.0,0.014505494505494505,0.02095238095238095
7.482279045998439,0.0,0.0136996336996337,0.004835164835164835
7.489185007998458,0.0,0.010476190476190476,0.018534798534798533
7.493832496998948,0.0,0.010476190476190476,0.018534798534798533
7.499831290999282,0.0,0.05721611721611722,0.02901098901098901
7.5050267269980395,0.0,0.012893772893772894,0.0032234432234432234
7.507418589997542,0.0,0.006446886446886447,0.0136996336996337
7.5126615980007045,0.0,0.006446886446886447,0.0136996336996337
7.51440146099776,0.0,0.008058608058608058,0.012087912087912087
7.518260332999489,0.0,0.008058608058608058,0.012087912087912087
7.521882639997784,0.0,0.008058608058608058,0.012087912087912087
7.527087084999948,0.0,0.008058608058608058,0.012087912087912087
7.529468730997905,0.0,0.012087912087912087,0.0016117216117216117
7.529611416000989,0.0,0.012087912087912087,0.0016117216117216117
7.5352861329993175,0.0,0.012087912087912087,0.0016117216117216117
7.535427946997515,0.0,0.0,0.05802197802197802
7.545109645998309,0.0,0.0,0.05802197802197802
7.552842856999632,0.0,0.0,0.05802197802197802
7.558880607997708,0.0,0.017728937728937726,0.0032234432234432234
7.5637452410010155,0.0,0.017728937728937726,0.0032234432234432234
7.569607636000001,0.0,0.017728937728937726,0.0032234432234432234
7.5759513409975625,0.0,0.017728937728937726,0.0032234432234432234
7.580789435000042,0.0,0.017728937728937726,0.0032234432234432234
7.584886147000361,0.0,0.017728937728937726,0.0032234432234432234
7.5886583299979975,0.0,0.0016117216117216117,0.0
7.591174952998699,0.0,0.0016117216117216117,0.0
7.599179054999695,0.0,0.0016117216117216117,0.0
7.605563409997558,0.0,0.0016117216117216117,0.0
7.610515167998528,0.0,0.0016117216117216117,0.0
7.616606634997879,0.0,0.0016117216117216117,0.0
7.622830547999911,0.0,0.0016117216117216117,0.0
7.627708639000048,0.0,0.0016117216117216117,0.0
7.632589793000079,0.0,0.0016117216117216117,0.0
7.635239274000924,0.0,0.012893772893772894,0.008058608058608058
7.640644340997824,0.0,0.012893772893772894,0.008058608058608058
7.640802433998033,0.0,0.012893772893772894,0.008058608058608058
7.648845989999245,0.0,0.012893772893772894,0.008058608058608058
7.655496041999868,0.0,0.012893772893772894,0.008058608058608058
7.661254036000173,0.0,0.004835164835164835,0.16117216117216115
7.667238047997671,0.0,0.004835164835164835,0.16117216117216115
7.672909132998029,0.0,0.014505494505494505,0.0
7.679924246000155,0.0,0.0032234432234432234,0.0547985347985348
7.687098997997964,0.0,0.0032234432234432234,0.0547985347985348
7.691777210999135,0.0,0.0693040293040293,0.0
7.701981152000371,0.0,0.006446886446886447,0.0
7.710420477000298,0.0,0.006446886446886447,0.0
7.71615733499857,0.0,0.006446886446886447,0.0
7.723290609999822,0.0,0.1095970695970696,0.04673992673992674
7.728034960000514,0.0,0.024175824175824173,0.008058608058608058
7.733557008999924,0.0,0.024175824175824173,0.008058608058608058
7.733742443997471,0.0,0.0024175824175824176,0.0
7.739582710000832,0.0,0.0024175824175824176,0.0
7.7444295589994,0.0,0.0032234432234432234,0.0
7.751999629999773,0.0,0.0032234432234432234,0.0
7.757288224998774,0.0,0.0032234432234432234,0.006446886446886447
7.759700291000627,0.0,0.0032234432234432234,0.006446886446886447
7.769168636998074,0.0,0.0032234432234432234,0.006446886446886447
7.777757428000768,0.0,0.0,0.0
7.7839840819979145,0.0,0.0,0.0
7.789570704997459,0.0,0.0,0.0
7.799223252000957,0.0,0.0,0.0
7.809989989000314,0.0,0.0,0.0
7.819307275000028,0.0,0.0,0.0
7.825873675999901,0.0,0.0,0.0
7.830054819998622,0.0,0.0,0.0
7.832282830000622,0.0,0.0,0.0
7.8324469109975325,0.0,0.005641025641025641,0.028205128205128206
7.839413052999589,0.0,0.005641025641025641,0.028205128205128206
7.843139381999208,0.0,0.0,0.0
7.851144602998829,0.0,0.0,0.0
7.8566759069981345,0.0,0.0,0.0
7.856939528999646,0.0,0.0,0.0
7.8644577779996325,0.0,0.0,0.0
7.871809647000191,0.0,0.0,0.0
7.879211740997562,0.0,0.0136996336996337,0.0
7.884731313999509,0.0,0.0136996336996337,0.0
7.89099648499905,0.0,0.0136996336996337,0.0
7.8945230940007605,0.0,0.0136996336996337,0.0
7.895251021000149,0.0,0.0136996336996337,0.0
7.897357832000125,0.0,0.0136996336996337,0.0
7.898750393000228,0.0,0.0136996336996337,0.0
7.903757199997926,0.0,0.0136996336996337,0.0
7.908006270998158,0.0,0.0136996336996337,0.0
7.9096302979996835,0.0,0.0136996336996337,0.0
7.912945101998048,0.0,0.0136996336996337,0.0
7.914680491998297,0.0,0.0136996336996337,0.0
7.917126256998017,0.0,0.0136996336996337,0.0
7.92317656600062,0.0,0.0032234432234432234,0.2345054945054945
7.930756261001079,0.0,0.0032234432234432234,0.2345054945054945
7.938943757999368,0.0,0.0032234432234432234,0.2345054945054945
7.945659859000443,0.0,0.012893772893772894,0.3876190476190476
7.950202682997769,0.0,0.012893772893772894,0.3876190476190476
7.950343141998019,0.0,0.016117216117216115,0.004029304029304029
7.959967307000625,0.0,0.016117216117216115,0.004029304029304029
7.968820860998676,0.0,0.016117216117216115,0.004029304029304029
7.978251418000582,0.0,0.016117216117216115,0.004029304029304029
7.984778169000492,0.0,0.010476190476190476,0.0
7.989121384998725,0.0,0.016117216117216115,0.0
7.989401643997553,0.0,0.0008058608058608059,0.02336996336996337
7.999344492000091,0.0,0.0008058608058608059,0.02336996336996337
8.006793273998483,0.0,0.0008058608058608059,0.02336996336996337
8.013444610998704,0.0,0.0008058608058608059,0.02336996336996337
8.018187032997957,0.0,0.004029304029304029,0.008864468864468863
8.02570704000027,0.0,0.06285714285714286,0.012087912087912087
8.032923247999861,0.0,0.004029304029304029,0.008058608058608058
8.040064831999189,0.0,0.004835164835164835,0.0
8.046977137000795,0.0,0.004835164835164835,0.0
8.052547504998074,0.0,0.005641025641025641,0.0
8.052699536998261,0.0,0.005641025641025641,0.0
8.06334254399917,0.0,0.005641025641025641,0.0
8.071221053000045,0.0,0.005641025641025641,0.0
8.078180574997532,0.0,0.005641025641025641,0.0
8.082692944997689,0.0,0.00967032967032967,2.561025641025641
8.082881133999763,0.0,0.00967032967032967,2.561025641025641
8.089371794998442,0.0,0.00967032967032967,2.561025641025641
8.094830801997887,0.0,0.00967032967032967,2.561025641025641
8.095068880000326,0.0,0.00967032967032967,2.561025641025641
8.102666582999518,0.0,0.00967032967032967,2.561025641025641
8.110163254998042,0.0,0.0032234432234432234,0.0032234432234432234
8.117170505000104,0.0,0.0032234432234432234,0.0032234432234432234
8.12242754899853,0.0,0.0032234432234432234,0.0032234432234432234
8.12388115900103,0.0,0.0032234432234432234,0.0032234432234432234
8.132209620998765,0.0,0.006446886446886447,0.0
8.139249961997848,0.0,0.006446886446886447,0.0
8.14538165599879,0.0,0.0,0.08864468864468865
8.15152696199948,0.0,0.0,0.08864468864468865
8.156577174999256,0.0,0.011282051282051281,0.0
8.16009741599919,0.0,0.008864468864468863,0.06608058608058608
8.169645879999734,0.0,0.014505494505494505,0.016923076923076923
8.17813155299882,0.0,0.014505494505494505,0.016923076923076923
8.186812365998776,0.0,0.014505494505494505,0.016923076923076923
8.192567149999377,0.0,0.014505494505494505,0.016923076923076923
8.199232008999388,0.0,0.014505494505494505,0.016923076923076923
8.20332546300051,0.0,0.014505494505494505,0.016923076923076923
8.205755089999002,0.0,0.014505494505494505,0.016923076923076923
8.205963501000952,0.0,0.014505494505494505,0.016923076923076923
8.211160808998102,0.0,0.022564102564102562,0.011282051282051281
8.213367910997476,0.0,0.012893772893772894,0.03545787545787545
8.213641719998122,0.0,0.012893772893772894,0.03545787545787545
8.218446361999668,0.0,0.012893772893772894,0.03545787545787545
8.218635721997998,0.0,0.012893772893772894,0.03545787545787545
8.223425504998886,0.0,0.012893772893772894,0.03545787545787545
8.223515831999975,0.0,0.012893772893772894,0.03545787545787545
8.22837362199789,0.0,0.012893772893772894,0.03545787545787545
8.233948748998955,0.0,0.012893772893772894,0.03545787545787545
8.234736439997505,0.0,0.024175824175824173,0.02336996336996337
8.236231430000771,0.0,0.024175824175824173,0.02336996336996337
8.240402152998286,0.0,0.024175824175824173,0.02336996336996337
8.24320740999974,0.0,0.024175824175824173,0.02336996336996337
8.247717026999453,0.0,0.024175824175824173,0.02336996336996337
8.248594414999388,0.0,0.0008058608058608059,0.0
8.249446273999638,0.0,0.0008058608058608059,0.0
8.252258627999254,0.0,0.0008058608058608059,0.0
8.255256989999907,0.0,0.0008058608058608059,0.0
8.257499909999751,0.0,0.0008058608058608059,0.0
8.257714381998085,0.0,0.0008058608058608059,0.0
8.26289390400052,0.0,0.0008058608058608059,0.0
8.265165220000199,0.0,0.0008058608058608059,0.0
8.265355830997578,0.0,0.0008058608058608059,0.0
8.270591067001078,0.0,0.0008058608058608059,0.0
8.272152097000799,0.0,0.004835164835164835,0.004029304029304029
8.276535906999925,0.0,0.004835164835164835,0.004029304029304029
8.277375211000617,0.0,0.004835164835164835,0.004029304029304029
8.279584272000648,0.0,0.004835164835164835,0.004029304029304029
8.27990047899948,0.0,0.004835164835164835,0.004029304029304029
8.285048678000749,0.0,0.004835164835164835,0.004029304029304029
8.28869170300095,0.0,0.004835164835164835,0.004029304029304029
8.293828462999954,0.0,0.004835164835164835,0.004029304029304029
8.296936416998506,0.0,0.0032234432234432234,2.548937728937729
8.299361629000487,0.0,0.0032234432234432234,2.548937728937729
8.305715463000524,0.0,0.0032234432234432234,2.548937728937729
8.309602802000882,0.0,0.0032234432234432234,2.548937728937729
8.314113299999008,0.0,0.026593406593406595,0.03062271062271062
8.314416262001032,0.0,0.026593406593406595,0.03062271062271062
8.319795460000023,0.0,0.026593406593406595,0.03062271062271062
8.321346649998304,0.0,0.026593406593406595,0.03062271062271062
8.325062836000143,0.0,0.026593406593406595,0.03062271062271062
8.325189445000433,0.0,0.026593406593406595,0.03062271062271062
8.330327581999882,0.0,0.026593406593406595,0.03062271062271062
8.334244739999122,0.0,0.026593406593406595,0.03062271062271062
8.338090196000849,0.0,0.026593406593406595,0.03062271062271062
8.343349497998133,0.0,0.026593406593406595,0.03062271062271062
8.34578639299798,0.0,0.026593406593406595,0.03062271062271062
8.35263105299964,0.0,0.026593406593406595,0.03062271062271062
8.358536527997785,0.0,0.011282051282051281,0.006446886446886447
8.362193037999532,0.0,0.011282051282051281,0.006446886446886447
8.366602727001009,0.0,0.010476190476190476,0.0008058608058608059
8.367394254997635,0.0,0.010476190476190476,0.0008058608058608059
8.369601243000943,0.0,0.010476190476190476,0.0008058608058608059
8.370387963997928,0.0,0.010476190476190476,0.0008058608058608059
8.372075044997473,0.0,0.010476190476190476,0.0008058608058608059
8.37641851599983,0.0,0.010476190476190476,0.0008058608058608059
8.377230531998066,0.0,0.010476190476190476,0.0008058608058608059
8.379553000999294,0.0,0.010476190476190476,0.0008058608058608059
8.37979102600002,0.0,0.010476190476190476,0.0008058608058608059
8.385228584000288,0.0,0.03304029304029304,0.016117216117216115
8.386725737000233,0.0,0.03304029304029304,0.016117216117216115
8.39110172599976,0.0,0.03304029304029304,0.016117216117216115
8.392629631998716,0.0,0.03304029304029304,0.016117216117216115
8.396985587998643,0.0,0.03304029304029304,0.016117216117216115
8.399293499998748,0.0,0.03304029304029304,0.016117216117216115
8.399462212000799,0.0,0.03304029304029304,0.016117216117216115
8.405193623999367,0.0,0.03304029304029304,0.016117216117216115
8.405345520000992,0.0,0.03304029304029304,0.016117216117216115
8.411623926000175,0.0,0.03304029304029304,0.016117216117216115
8.41573489000075,0.0,0.0,0.017728937728937726
8.417299788998207,0.0,0.00967032967032967,1.062930402930403
8.42210876199897,0.0,0.00967032967032967,1.062930402930403
8.433320281998022,0.0,0.00967032967032967,1.062930402930403
8.443458988000202,0.0,0.00967032967032967,1.062930402930403
8.448369624999032,0.0,0.00967032967032967,1.062930402930403
8.457175774998177,0.0,0.00967032967032967,1.062930402930403
8.463408173000062,0.0,0.00967032967032967,1.062930402930403
8.46844428300028,0.0,0.00967032967032967,1.062930402930403
8.473338996998791,0.0,0.00967032967032967,1.062930402930403
8.476970740997785,0.0,0.00967032967032967,1.062930402930403
8.48148074799974,0.0,0.00967032967032967,1.062930402930403
8.481762868999795,0.0,0.00967032967032967,1.062930402930403
8.491074337998725,0.0,0.00967032967032967,1.062930402930403
8.495525624999573,0.0,0.0,0.0
8.496376823997707,0.0,0.0,0.0
8.498591732000932,0.0,0.0,0.0
8.499368319000496,0.0,0.0,0.0
8.501388333999785,0.0,0.0,0.0
8.502653087998624,0.0,0.0,0.0
8.51031982099812,0.0,0.0,0.0
8.51484609399995,0.0,0.004029304029304029,0.008058608058608058
8.515635733998351,0.0,0.004029304029304029,0.008058608058608058
8.517490635000286,0.0,0.004029304029304029,0.008058608058608058
8.522153181998874,0.0,0.004029304029304029,0.008058608058608058
8.526295519000996,0.0,0.004029304029304029,0.008058608058608058
8.528622378998989,0.0,0.004029304029304029,0.008058608058608058
8.5289078349997,0.0,0.004029304029304029,0.008058608058608058
8.535721296997508,0.0,0.004029304029304029,0.008058608058608058
8.540593570000055,0.0,0.0,2.553772893772894
8.543714428000385,0.0,0.0136996336996337,0.012893772893772894
8.546222775999922,0.0,0.0136996336996337,0.012893772893772894
8.54631220599913,0.0,0.0136996336996337,0.012893772893772894
8.554246004998276,0.0,0.0136996336996337,0.012893772893772894
8.559679346999474,0.0,0.0136996336996337,0.012893772893772894
8.560546675998921,0.0,0.0,0.9807326007326007
8.56216457499977,0.0,0.0,0.9807326007326007
8.568002722000529,0.0,0.0,0.008864468864468863
8.57414631699794,0.0,0.0,0.008864468864468863
8.57797084000049,0.0,0.0,0.008864468864468863
8.58253708600023,0.0,0.0,0.008864468864468863
8.589223437000328,0.0,0.016923076923076923,0.0
8.593055815999833,0.0,0.016923076923076923,0.0
8.597573921997537,0.0,0.016923076923076923,0.0
8.597742149999249,0.0,0.016923076923076923,0.0
8.604198599998199,0.0,0.016923076923076923,0.0
8.609840996999992,0.0,0.0,0.047545787545787546
8.61612285099909,0.0,0.0,0.047545787545787546
8.621457023000403,0.0,0.0,0.047545787545787546
8.622365053000976,0.0,0.0,0.21032967032967032
8.624025914999947,0.0,0.0,0.21032967032967032
8.628071348997764,0.0,0.0,0.21032967032967032
8.631954597000004,0.0,0.0,0.21032967032967032
8.638515837999876,0.0,0.0,0.21032967032967032
8.642249327000172,0.0,0.0,0.21032967032967032
8.642362708000292,0.0,0.0,0.21032967032967032
8.647527730998263,0.0,0.0,0.21032967032967032
8.653049823999027,0.0,0.0,0.21032967032967032
8.657769843997812,0.0,0.0,0.0
8.658031277998816,0.0,0.0,0.0
8.663554660997761,0.0,0.0,0.0
8.663657041997794,0.0,0.0,0.0
8.670580327998323,0.0,0.0,0.0
8.67556310299915,0.0,0.012893772893772894,0.006446886446886447
8.679451238000183,0.0,0.006446886446886447,0.6769230769230768
8.685053089000576,0.0,0.004835164835164835,0.166007326007326
8.685219150000194,0.0,0.004835164835164835,0.166007326007326
8.692575033001049,0.0,0.004835164835164835,0.166007326007326
8.697338933998253,0.0,0.004835164835164835,0.166007326007326
8.70403924799757,0.0,0.0024175824175824176,1.1362637362637362
8.70726628400007,0.0,0.011282051282051281,0.0
8.70816329399895,0.0,0.011282051282051281,0.0
8.709730688999116,0.0,0.011282051282051281,0.0
8.7141992379984,0.0,0.011282051282051281,0.0
8.715089358000114,0.0,0.011282051282051281,0.0
8.716097055999853,0.0,0.011282051282051281,0.0
8.717647067998769,0.0,0.011282051282051281,0.0
8.722602737998386,0.0,0.011282051282051281,0.0
8.72561294299885,0.0,0.011282051282051281,0.0
8.727198210999632,0.0,0.02175824175824176,0.0
8.732465581000724,0.0,0.02175824175824176,0.0
8.73545988999831,0.0,0.02175824175824176,0.0
8.737844575000054,0.0,0.02175824175824176,0.0
8.743276167999284,0.0,0.02175824175824176,0.0
8.744884004998312,0.0,0.011282051282051281,0.048351648351648346
8.750570071999391,0.0,0.011282051282051281,0.048351648351648346
8.750953234997723,0.0,0.011282051282051281,0.048351648351648346
8.75586784600091,0.0,0.011282051282051281,0.048351648351648346
8.759856781998678,0.0,0.012893772893772894,3.3
8.762937167997734,0.0,0.024175824175824173,0.21194139194139192
8.765248953000992,0.0,0.024175824175824173,0.21194139194139192
8.765427139998792,0.0,0.024175824175824173,0.21194139194139192
8.772930200000701,0.0,0.024175824175824173,0.21194139194139192
8.77744845900088,0.0,0.024175824175824173,0.21194139194139192
8.777675780998834,0.0,0.024175824175824173,0.21194139194139192
8.784909343998152,0.0,0.024175824175824173,0.21194139194139192
8.789339094997558,0.0,0.007252747252747252,0.03304029304029304
8.794773818000976,0.0,0.014505494505494505,0.0016117216117216117
8.797399765000591,0.0,0.014505494505494505,0.0016117216117216117
8.806681771999138,0.0,0.014505494505494505,0.0016117216117216117
8.814214205998724,0.0,0.005641025641025641,0.0
8.81985161600096,0.0,0.005641025641025641,0.0
8.820024557000579,0.0,0.005641025641025641,0.0
8.824572651999915,0.0,0.005641025641025641,0.0
8.82475731500017,0.0,0.005641025641025641,0.0
8.830675748999056,0.0,0.005641025641025641,0.0
8.838146173999121,0.0,0.005641025641025641,0.0
8.842576970000664,0.0,0.005641025641025641,0.0
8.84292021299916,0.0,0.06608058608058608,0.04029304029304029
8.848486360999232,0.0,0.06608058608058608,0.04029304029304029
8.849489241998526,0.0,0.06608058608058608,0.04029304029304029
8.850357584000449,0.0,0.06608058608058608,0.04029304029304029
8.852687567999965,0.0,0.06608058608058608,0.04029304029304029
8.85280633900038,0.0,0.06608058608058608,0.04029304029304029
8.858464888999151,0.0,0.06608058608058608,0.04029304029304029
8.85858016199927,0.0,0.06608058608058608,0.04029304029304029
8.863799681999808,0.0,0.06608058608058608,0.04029304029304029
8.86761468199984,0.0,0.06608058608058608,0.04029304029304029
8.872928319000494,0.0,0.06608058608058608,0.04029304029304029
8.875781679998909,0.0,0.06608058608058608,0.04029304029304029
8.878970080997533,0.0,0.06608058608058608,0.04029304029304029
8.880499160997715,0.0,0.06608058608058608,0.04029304029304029
8.887669067000388,0.0,0.06608058608058608,0.04029304029304029
8.89347140999962,0.0,0.0032234432234432234,0.012087912087912087
8.901553453000815,0.0,0.0032234432234432234,0.012087912087912087
8.906834935998631,0.0,0.0032234432234432234,0.012087912087912087
8.90913857799751,0.0,0.0032234432234432234,0.012087912087912087
8.909258520998264,0.0,0.0032234432234432234,0.012087912087912087
8.914543054997921,0.0,0.0032234432234432234,0.012087912087912087
8.917800348997844,0.0,0.0032234432234432234,0.012087912087912087
8.917976093998732,0.0,0.0032234432234432234,0.012087912087912087
8.924899703997653,0.0,0.0032234432234432234,0.012087912087912087
8.92936199199903,0.0,0.0032234432234432234,0.012087912087912087
8.930900603998452,0.0,0.0032234432234432234,0.012087912087912087
8.938581546000933,0.0,0.0032234432234432234,0.012087912087912087
8.94407079300072,0.0,0.0032234432234432234,0.012087912087912087
8.94416362999982,0.0,0.0032234432234432234,0.012087912087912087
8.949549892000505,0.0,0.0032234432234432234,0.012087912087912087
8.951300818000163,0.0,0.0032234432234432234,0.012087912087912087
8.955476939998334,0.0,0.0032234432234432234,0.012087912087912087
8.95630854999763,0.0,0.0032234432234432234,0.012087912087912087
8.95854803399925,0.0,0.0032234432234432234,0.012087912087912087
8.958766240997647,0.0,0.0032234432234432234,0.012087912087912087
8.964106659997924,0.0,0.0032234432234432234,0.012087912087912087
8.965740633000678,0.0,0.0032234432234432234,0.012087912087912087
8.971155839000858,0.0,0.0032234432234432234,0.012087912087912087
8.971395428998221,0.0,0.0032234432234432234,0.012087912087912087
8.976570060000086,0.0,0.0032234432234432234,0.012087912087912087
8.980028391997621,0.0,0.06205128205128205,0.2949450549450549
8.980346225998801,0.0,0.06205128205128205,0.2949450549450549
8.98787295099828,0.0,0.06205128205128205,0.2949450549450549
8.991235923000204,0.0,0.0136996336996337,0.008058608058608058
8.99145947299985,0.0,0.0136996336996337,0.008058608058608058
8.996083186997566,0.0,0.0136996336996337,0.008058608058608058
8.99627322699962,0.0,0.0,2.76007326007326
9.003762710999581,0.0,0.0,2.76007326007326
9.007443118000083,0.0,0.012893772893772894,0.0
9.012819138999475,0.0,0.004835164835164835,0.007252747252747252
9.014431666997552,0.0,0.004835164835164835,0.007252747252747252
9.020351846000267,0.0,0.004835164835164835,0.007252747252747252
9.023667669000133,0.0,0.004835164835164835,0.007252747252747252
9.024513497999578,0.0,0.004835164835164835,0.007252747252747252
9.026092918000359,0.0,0.004835164835164835,0.007252747252747252
9.030571428000258,0.0,0.03304029304029304,0.011282051282051281
9.030815792000794,0.0,0.03304029304029304,0.011282051282051281
9.038624706998235,0.0,0.03304029304029304,0.011282051282051281
9.043494974001078,0.0,0.007252747252747252,0.06769230769230769
9.047702004998428,0.0,0.007252747252747252,0.06769230769230769
9.05102714199893,0.0,0.007252747252747252,0.06769230769230769
9.057681262998813,0.0,0.007252747252747252,0.06769230769230769
9.061472001998482,0.0,0.007252747252747252,0.06769230769230769
9.065965003999736,0.0,0.007252747252747252,0.06769230769230769
9.067597540997667,0.0,0.0,0.004835164835164835
9.072511201000452,0.0,0.0,0.004835164835164835
9.075516140997934,0.0,0.007252747252747252,0.033846153846153845
9.077904490997753,0.0,0.007252747252747252,0.033846153846153845
