time,emg1,emg2,emg3
0.011510486998304259,0.0,0.008058608058608058,2.5795604395604395
0.03118448600071133,0.0,0.008058608058608058,2.5795604395604395
0.04259861600075965,0.0,0.008058608058608058,2.5795604395604395
0.05746352200003457,0.0,0.008864468864468863,1.8083516483516484
0.057716054001502926,0.0,0.007252747252747252,0.15069597069597068
0.0656633350008633,0.0,0.007252747252747252,0.15069597069597068
0.07227211400095257,0.0,0.004835164835164835,2.5723076923076924
0.07656944499831297,0.0,0.004835164835164835,2.5723076923076924
0.0791600410011597,0.0,0.004029304029304029,0.022564102564102562
0.08442270299929078,0.0,0.007252747252747252,3.3
0.08702801799881854,0.0,0.007252747252747252,3.3
0.09235639400139917,0.0,0.007252747252747252,3.3
0.09499288499864633,0.0,0.007252747252747252,3.3
0.09937343400088139,0.0,0.0016117216117216117,0.01934065934065934
0.10027699200145435,0.0,0.0016117216117216117,0.01934065934065934
0.10123215099883964,0.0,0.008058608058608058,2.5763369963369964
0.10218057800011593,0.0,0.008058608058608058,2.5763369963369964
0.10387306099801208,0.0,0.008058608058608058,2.5763369963369964
0.10721156100044027,0.0,0.0,0.8646886446886447
0.1074826000003668,0.0,0.0,0.8646886446886447
0.1131105899985414,0.0,0.0,0.8646886446886447
0.11327988199991523,0.0,0.0,0.8646886446886447
0.1186582369991811,0.0,0.0,0.8646886446886447
0.12023715900068055,0.0,0.0136996336996337,0.0
0.12401893100104644,0.0,0.0136996336996337,0.0
0.12842485899818712,0.0,0.0136996336996337,0.0
0.12924710500010406,0.0,0.0016117216117216117,0.49076923076923074
0.1314555589997326,0.0,0.0016117216117216117,0.49076923076923074
0.13165862700043363,0.0,0.0016117216117216117,0.49076923076923074
0.13716046300032758,0.0,0.0016117216117216117,0.49076923076923074
0.13883190599881345,0.0,0.0016117216117216117,0.49076923076923074
0.14266901399969356,0.0,0.0016117216117216117,0.49076923076923074
0.14740617999996175,0.0,0.0016117216117216117,0.49076923076923074
0.1586067259995616,0.0,0.0016117216117216117,0.49076923076923074
0.16540206499848864,0.0,0.0016117216117216117,0.49076923076923074
0.16912799599958817,0.0,0.0016117216117216117,0.49076923076923074
0.16921300800095196,0.0,0.0016117216117216117,0.49076923076923074
0.17476099099803832,0.0,0.0016117216117216117,0.49076923076923074
0.17503372599821887,0.0,0.008864468864468863,0.09347985347985348
0.18045829299808247,0.0,0.008864468864468863,0.09347985347985348
0.1845992650014523,0.0,0.008864468864468863,0.09347985347985348
0.18486736900013057,0.0,0.008864468864468863,0.09347985347985348
0.1938019199988048,0.0,0.008864468864468863,0.09347985347985348
0.20071067599928938,0.0,0.008864468864468863,0.09347985347985348
0.20577395299915224,0.0,0.0016117216117216117,2.577142857142857
0.20989585599818383,0.0,0.0,3.3
0.21143814099923475,0.0,0.0024175824175824176,0.2756043956043956
0.21528027200110955,0.0,0.0024175824175824176,0.2756043956043956
0.22268001799966441,0.0,0.008864468864468863,0.02336996336996337
0.2294132349998108,0.0,0.00967032967032967,3.3
0.23559002299953136,0.0,0.004029304029304029,0.8372893772893772
0.24091038600090542,0.0,0.012893772893772894,0.016923076923076923
0.24177836699891486,0.0,0.012893772893772894,0.016923076923076923
0.24338603700016392,0.0,0.012893772893772894,0.016923076923076923
0.24668981599825202,0.0,0.012893772893772894,0.016923076923076923
0.24906455200107303,0.0,0.012893772893772894,0.016923076923076923
0.25649633899956825,0.0,0.012893772893772894,0.016923076923076923
0.2604852020012913,0.0,0.012893772893772894,0.016923076923076923
0.2644443829994998,0.0,0.012893772893772894,0.016923076923076923
0.2687604230013676,0.0,0.012893772893772894,0.016923076923076923
0.26903986500110477,0.0,0.012893772893772894,0.016923076923076923
0.27463728099974105,0.0,0.012893772893772894,0.016923076923076923
0.2755098630004795,0.0,0.012893772893772894,0.016923076923076923
0.2773977010001545,0.0,0.007252747252747252,0.028205128205128206
0.28073157100152457,0.0,0.007252747252747252,0.028205128205128206
0.2809021879984357,0.0,0.007252747252747252,0.028205128205128206
0.2874191679984506,0.0,0.007252747252747252,0.028205128205128206
0.2913415180009906,0.0,0.007252747252747252,0.028205128205128206
0.2959924079987104,0.0,0.007252747252747252,0.028205128205128206
0.29611074200147414,0.0,0.005641025641025641,0.011282051282051281
0.3076060960011091,0.0,0.008864468864468863,2.577948717948718
0.31719382599840173,0.0,0.004835164835164835,3.3
0.32444163499894785,0.0,0.03868131868131868,0.012893772893772894
0.33185021100143786,0.0,0.010476190476190476,2.577948717948718
0.3360445520011126,0.0,0.010476190476190476,2.577948717948718
0.336967839000863,0.0,0.010476190476190476,2.577948717948718
0.33856298699902254,0.0,0.010476190476190476,2.577948717948718
0.34247769200010225,0.0,0.010476190476190476,2.577948717948718
0.3464582499982498,0.0,0.010476190476190476,2.577948717948718
0.35331988300094963,0.0,0.010476190476190476,2.577948717948718
0.3565364909991331,0.0,0.010476190476190476,2.577948717948718
0.3588488679997681,0.0,0.010476190476190476,2.577948717948718
0.3590735610014235,0.0,0.010476190476190476,2.577948717948718
0.36602131700055907,0.0,0.010476190476190476,2.577948717948718
0.3724344549991656,0.0,0.010476190476190476,2.5755311355311354
0.37593703499805997,0.0,0.011282051282051281,0.08783882783882783
0.37606560299900593,0.0,0.011282051282051281,0.08783882783882783
0.3835217129999364,0.0,0.011282051282051281,0.08783882783882783
0.3869849170005182,0.0,0.011282051282051281,0.08783882783882783
0.38719630899868207,0.0,0.011282051282051281,0.08783882783882783
0.39248414800022147,0.0,0.011282051282051281,0.08783882783882783
0.3946799320001446,0.0,0.006446886446886447,0.1805128205128205
0.39492620899909525,0.0,0.006446886446886447,0.1805128205128205
0.4039451200005715,0.0,0.006446886446886447,0.1805128205128205
0.4098410219994548,0.0,0.006446886446886447,0.1805128205128205
0.4099348630006716,0.0,0.0,0.19904761904761903
0.4185601540011703,0.0,0.0,0.19904761904761903
0.4241059519990813,0.0,0.07333333333333333,0.04029304029304029
0.4259007299988298,0.0,0.07333333333333333,0.04029304029304029
0.42961473600007594,0.0,0.07333333333333333,0.04029304029304029
0.43546017200060305,0.0,0.07333333333333333,0.04029304029304029
0.4415154819980671,0.0,0.07333333333333333,0.04029304029304029
0.4448979529988719,0.0,0.07333333333333333,0.04029304029304029
0.4451195430010557,0.0,0.07333333333333333,0.04029304029304029
0.4544968260015594,0.0,0.07333333333333333,0.04029304029304029
0.45965966299991123,0.0,0.07333333333333333,0.04029304029304029
0.4653501979992143,0.0,0.011282051282051281,2.5787545787545785
0.4720468109990179,0.0,0.011282051282051281,2.5787545787545785
0.4761059699994803,0.0,0.00967032967032967,0.6463003663003662
0.47947174799992354,0.0,0.00967032967032967,0.6463003663003662
0.48098051399938413,0.0,0.00967032967032967,0.6463003663003662
0.4861317370014149,0.0,0.00967032967032967,0.6463003663003662
0.4886562130013772,0.0,0.00967032967032967,0.6463003663003662
0.49462507299904246,0.0,0.00967032967032967,0.6463003663003662
0.5009671839980001,0.0,0.00967032967032967,0.6463003663003662
0.5042460529984965,0.0,0.011282051282051281,2.5763369963369964
0.5050950430013472,0.0,0.011282051282051281,2.5763369963369964
0.5066961650009034,0.0,0.011282051282051281,2.5763369963369964
0.5106894329983334,0.0,0.011282051282051281,2.5763369963369964
0.5163518869994732,0.0,0.011282051282051281,2.5763369963369964
0.51645728999938,0.0,0.0016117216117216117,0.04271062271062271
0.5217054530003224,0.0,0.0016117216117216117,0.04271062271062271
0.52409594799974,0.0,0.0016117216117216117,0.04271062271062271
0.5297199739979987,0.0,0.0016117216117216117,0.04271062271062271
0.5314651250009774,0.0,0.0,1.2716483516483517
0.5342619539987936,0.0,0.004835164835164835,0.029816849816849816
0.5367125080010737,0.0,0.004835164835164835,0.029816849816849816
0.5368119470003876,0.0,0.004835164835164835,0.029816849816849816
0.5423200289988017,0.0,0.004835164835164835,0.029816849816849816
0.5431206469984318,0.0,0.0136996336996337,2.5787545787545785
0.5448114149985486,0.0,0.010476190476190476,3.1170695970695967
0.5520906819983793,0.0,0.01531135531135531,1.0814652014652013
0.5579619540003478,0.0,0.01531135531135531,1.0814652014652013
0.5620789269996749,0.0,0.01531135531135531,1.0814652014652013
0.5668175780010642,0.0,0.01531135531135531,1.0814652014652013
0.5709979919993202,0.0,0.008058608058608058,0.3964835164835165
0.5726314669991552,0.0,0.008058608058608058,0.3964835164835165
0.5768655380015844,0.0,0.008058608058608058,0.3964835164835165
0.5817383089997747,0.0,0.008058608058608058,0.3964835164835165
0.584972871998616,0.0,0.03868131868131868,2.5787545787545785
0.5851951029981137,0.0,0.03868131868131868,2.5787545787545785
0.5923722250008723,0.0,0.03868131868131868,2.5787545787545785
0.597173826998187,0.0,0.0,0.0709157509157509
0.6046764550010266,0.0,0.0032234432234432234,2.5763369963369964
0.6093248860015592,0.0,0.006446886446886447,2.5763369963369964
0.6094580429999041,0.0,0.006446886446886447,2.5763369963369964
0.6176671149987669,0.0,0.006446886446886447,2.5763369963369964
0.6234465039997303,0.0,0.006446886446886447,0.016117216117216115
0.6266111920012918,0.0,0.006446886446886447,0.016117216117216115
0.6289390689998982,0.0,0.00967032967032967,0.8429304029304028
0.6291770329989959,0.0,0.00967032967032967,0.8429304029304028
0.6394302029984829,0.0,0.00967032967032967,0.8429304029304028
0.6483355630007281,0.0,0.0,0.047545787545787546
0.6562722640010179,0.0,0.0,0.047545787545787546
0.6620556009984284,0.0,0.0,0.047545787545787546
0.6699009260009916,0.0,0.005641025641025641,2.56989010989011
0.6746155010005168,0.0,0.005641025641025641,2.56989010989011
0.6800487119980971,0.0,0.005641025641025641,2.56989010989011
0.682939214999351,0.0,0.005641025641025641,2.56989010989011
0.6856241159985075,0.0,0.005641025641025641,2.56989010989011
0.6887765169994964,0.0,0.0,1.224102564102564
0.6918485390015121,0.0,0.0,1.224102564102564
0.694177227000182,0.0,0.0,1.224102564102564
0.6943385480008146,0.0,0.0,1.224102564102564
0.704432408001594,0.0,0.0,1.224102564102564
0.7103197639989958,0.0,0.0,1.224102564102564
0.7166638039998361,0.0,0.016117216117216115,0.18534798534798536
0.7201869890013768,0.0,0.016117216117216115,0.18534798534798536
0.7203234699991299,0.0,0.016117216117216115,0.18534798534798536
0.7257020450015261,0.0,0.016117216117216115,0.18534798534798536
0.7286825509982009,0.0,0.0016117216117216117,3.025201465201465
0.7337106019986095,0.0,0.0016117216117216117,3.025201465201465
0.7369954630012217,0.0,0.0016117216117216117,3.025201465201465
0.7371732760002487,0.0,0.0016117216117216117,3.025201465201465
0.7425503580016084,0.0,0.0016117216117216117,3.025201465201465
0.7448103759998048,0.0,0.0016117216117216117,3.025201465201465
0.7449937480014341,0.0,0.0016117216117216117,3.025201465201465
0.7538818510001875,0.0,0.0016117216117216117,3.025201465201465
0.7587112609980977,0.0,0.0016117216117216117,3.025201465201465
0.7643186339992099,0.0,0.0016117216117216117,3.025201465201465
0.7709648439995362,0.0,0.0016117216117216117,3.025201465201465
0.7750183309981367,0.0,0.008058608058608058,0.2079120879120879
0.7780573409982026,0.0,0.008058608058608058,0.2079120879120879
0.7816055229995982,0.0,0.008058608058608058,0.2079120879120879
0.7878141850014799,0.0,0.008058608058608058,0.2079120879120879
0.7910753590003878,0.0,0.008058608058608058,0.2079120879120879
0.7913437009992776,0.0,0.008864468864468863,0.0846153846153846
0.7976749289991858,0.0,0.008864468864468863,0.0846153846153846
0.803684118000092,0.0,0.012893772893772894,0.016923076923076923
0.8068792539997958,0.0,0.012893772893772894,0.016923076923076923
0.8084881219983799,0.0,0.012893772893772894,0.016923076923076923
0.81173767799919,0.0,0.012893772893772894,0.016923076923076923
0.8137845050005126,0.0,0.0,0.03545787545787545
0.8154011189981247,0.0,0.0,0.03545787545787545
0.818570595998608,0.0,0.0,0.03545787545787545
0.8195262769986584,0.0,0.0,0.03545787545787545
0.8204421919981542,0.0,0.0,0.03545787545787545
0.822052233001159,0.0,0.0,0.03545787545787545
0.8265922719983791,0.0,0.0,0.03545787545787545
0.8267733030006639,0.0,0.0,0.03545787545787545
0.8339393470014329,0.0,0.0,0.03545787545787545
0.8384923710000294,0.0,0.0,0.03545787545787545
0.8387562790012453,0.0,0.0,0.03545787545787545
0.8444441669998923,0.0,0.0,0.03545787545787545
0.8445227999982308,0.0,0.0024175824175824176,2.5626373626373624
0.8523182870012533,0.0,0.0024175824175824176,2.5626373626373624
0.8571458309997979,0.0,0.0024175824175824176,2.5626373626373624
0.8626123869980802,0.0,0.0024175824175824176,2.5626373626373624
0.865431237998564,0.0,0.0024175824175824176,2.5626373626373624
0.8682535670013749,0.0,0.007252747252747252,1.6939194139194136
0.8713488860012149,0.0,0.006446886446886447,0.3078388278388278
0.8736761719992501,0.0,0.006446886446886447,0.3078388278388278
0.8739076899983047,0.0,0.006446886446886447,0.3078388278388278
0.8793126009986736,0.0,0.006446886446886447,0.3078388278388278
0.8808432599980733,0.0,0.008058608058608058,0.8276190476190476
0.8861658819987497,0.0,0.008058608058608058,0.8276190476190476
0.8870390369993402,0.0,0.008058608058608058,0.8276190476190476
0.8887089199997718,0.0,0.008058608058608058,0.8276190476190476
0.8925145020002674,0.0,0.008058608058608058,0.8276190476190476
0.8999751570008812,0.0,0.00967032967032967,0.06043956043956044
0.9042099149992282,0.0,0.004835164835164835,2.577142857142857
0.9058186799993564,0.0,0.004835164835164835,2.577142857142857
0.9096773470009794,0.0,0.004835164835164835,2.577142857142857
0.9144101950005279,0.0,0.0,0.9057875457875458
0.9205882429996564,0.0,0.0024175824175824176,0.047545787545787546
0.9246474110004783,0.0,0.0024175824175824176,0.047545787545787546
0.9297677329996077,0.0,0.0024175824175824176,0.047545787545787546
0.9364586080009758,0.0,0.004835164835164835,0.7542857142857142
0.9413272109995887,0.0,0.004835164835164835,0.7542857142857142
0.947845894999773,0.0,0.004835164835164835,0.7542857142857142
0.9545796649981639,0.0,0.004835164835164835,0.7542857142857142
0.9593932819989277,0.0,0.012893772893772894,0.0419047619047619
0.9699309399984486,0.0,0.012893772893772894,0.0419047619047619
0.9762400330000673,0.0,0.0032234432234432234,3.3
0.9807479010014504,0.0,0.0032234432234432234,3.3
0.9811676540011831,0.0,0.0032234432234432234,3.3
0.9867826420013444,0.0,0.0032234432234432234,3.3
0.992051190998609,0.0,0.0,1.5295238095238095
0.9949930299990228,0.0,0.005641025641025641,0.21838827838827837
1.0016813279980852,0.0,0.005641025641025641,0.21838827838827837
1.0056192580013885,0.0,0.005641025641025641,0.21838827838827837
1.0087494110011903,0.0,0.005641025641025641,0.21838827838827837
1.0110811710001144,0.0,0.012087912087912087,0.7156043956043956
1.0112196699992637,0.0,0.012087912087912087,0.7156043956043956
1.0199983339989558,0.0,0.012087912087912087,0.7156043956043956
1.0250706410006387,0.0,0.0,2.5747252747252745
1.0273264210009074,0.0,0.0,2.698827838827839
1.0281304070012993,0.0,0.0,2.698827838827839
1.0302921420006896,0.0,0.0,2.698827838827839
1.0308954620013537,0.0,0.0,2.698827838827839
1.0359688509997795,0.0,0.0,2.698827838827839
1.037605691999488,0.0,0.0,2.698827838827839
1.0408199519988557,0.0,0.0,2.698827838827839
1.041673997999169,0.0,0.0,2.698827838827839
1.0439068179985043,0.0,0.0,2.698827838827839
1.0442053330007184,0.0,0.0,2.698827838827839
1.0533277149988862,0.0,0.0,2.698827838827839
1.0578497579990653,0.0,0.0,2.698827838827839
1.0586617789995216,0.0,0.008058608058608058,3.3
1.0609296639995591,0.0,0.008058608058608058,3.3
1.0611380720001762,0.0,0.008058608058608058,3.3
1.0705540650014882,0.0,0.008058608058608058,3.3
1.0764037459994142,0.0,0.008058608058608058,3.3
1.081399301001511,0.0,0.0024175824175824176,0.028205128205128206
1.0877171110005293,0.0,0.0024175824175824176,0.028205128205128206
1.091468223999982,0.0,0.0024175824175824176,0.028205128205128206
1.0963905130010971,0.0,0.0024175824175824176,0.028205128205128206
1.1051613230010844,0.0,0.0,0.0
1.1104360739991535,0.0,0.014505494505494505,2.577948717948718
1.1142384019985911,0.0,0.012893772893772894,0.07897435897435898
1.1187441330002912,0.0,0.0016117216117216117,0.05882783882783882
1.1189790979988175,0.0,0.0016117216117216117,0.05882783882783882
1.1240082129988878,0.0,0.0016117216117216117,0.05882783882783882
1.1274752140016062,0.0,0.0016117216117216117,0.05882783882783882
1.1276631930013536,0.0,0.0016117216117216117,0.05882783882783882
1.132614629001182,0.0,0.0016117216117216117,0.05882783882783882
1.1374866219994146,0.0,0.0016117216117216117,0.05882783882783882
1.141639209999994,0.0,0.0016117216117216117,0.05882783882783882
1.145048891998158,0.0,0.0016117216117216117,0.05882783882783882
1.1452022129997204,0.0,0.0016117216117216117,0.05882783882783882
1.149852169000951,0.0,0.0016117216117216117,0.05882783882783882
1.1500238519984123,0.0,0.0016117216117216117,0.05882783882783882
1.1548625510004058,0.0,0.0016117216117216117,0.05882783882783882
1.1605121190004866,0.0,0.0016117216117216117,0.05882783882783882
1.160756371999014,0.0,0.0016117216117216117,0.05882783882783882
1.1664132719997724,0.0,0.0016117216117216117,0.05882783882783882
1.1666417169981287,0.0,0.10476190476190475,2.5553846153846154
1.1756446859981224,0.0,0.10476190476190475,2.5553846153846154
1.1839385960010986,0.0,0.006446886446886447,0.12571428571428572
1.1883862879985827,0.0,0.006446886446886447,0.12571428571428572
1.189213886998914,0.0,0.006446886446886447,0.12571428571428572
1.19083156600027,0.0,0.006446886446886447,0.12571428571428572
1.1948628290010674,0.0,0.006446886446886447,0.12571428571428572
1.199605508998502,0.0,0.006446886446886447,0.12571428571428572
1.2042776480011526,0.0,0.012893772893772894,2.5763369963369964
1.2103973109988146,0.0,0.0032234432234432234,2.5763369963369964
1.214634151001519,0.0,0.0,0.04996336996336996
1.2182119870012684,0.0,0.0,0.04996336996336996
1.2211660690009012,0.0,0.0,0.04996336996336996
1.2242767780007853,0.0,0.0,0.04996336996336996
1.2258818080008496,0.0,0.0,0.04996336996336996
1.2306174490004196,0.0,0.0,0.04996336996336996
1.2354698899980576,0.0,0.0,0.04996336996336996
1.240103314998123,0.0,0.008058608058608058,0.020146520146520144
1.2403116509995016,0.0,0.008058608058608058,0.020146520146520144
1.2451168070001586,0.0,0.008058608058608058,0.020146520146520144
1.249816274998011,0.0,0.0008058608058608059,1.4545787545787545
1.2499840470009076,0.0,0.0008058608058608059,1.4545787545787545
1.2549604300002102,0.0,0.0008058608058608059,1.4545787545787545
1.2607775159995072,0.0,0.0008058608058608059,1.4545787545787545
1.268089860001055,0.0,0.0,2.5787545787545785
1.2744668439991074,0.0,0.010476190476190476,2.5787545787545785
1.2806365069991443,0.0,0.007252747252747252,0.09025641025641025
1.2864141030004248,0.0,0.00967032967032967,2.5755311355311354
1.2951625060013612,0.0,0.00967032967032967,2.5755311355311354
1.3023879959982878,0.0,0.00967032967032967,2.5755311355311354
1.3088185989981866,0.0,0.00967032967032967,2.5755311355311354
1.3132476870014216,0.0,0.00967032967032967,2.5755311355311354
1.3135092109987454,0.0,0.006446886446886447,0.06849816849816849
1.3212001889987732,0.0,0.006446886446886447,0.06849816849816849
1.3266429549985332,0.0,0.007252747252747252,2.5755311355311354
1.3269755609981075,0.0,0.007252747252747252,2.5755311355311354
1.334872079998604,0.0,0.007252747252747252,2.5755311355311354
1.3408697129998473,0.0,0.011282051282051281,0.016117216117216115
1.3452296639989072,0.0,0.011282051282051281,0.016117216117216115
1.3455177590003586,0.0,0.011282051282051281,0.016117216117216115
1.3527496349997818,0.0,0.011282051282051281,0.016117216117216115
1.3591577279985358,0.0,0.0008058608058608059,0.1523076923076923
1.3645198330013955,0.0,0.0008058608058608059,0.1523076923076923
1.364810518000013,0.0,0.0008058608058608059,0.1523076923076923
1.373475372998655,0.0,0.0008058608058608059,0.1523076923076923
1.3789738749983371,0.0,0.0008058608058608059,0.1523076923076923
1.379265771000064,0.0,0.0032234432234432234,2.5763369963369964
1.3883665360008308,0.0,0.0032234432234432234,2.5763369963369964
1.395927991001372,0.0,0.00967032967032967,3.3
1.4013800200009427,0.0,0.02095238095238095,1.224102564102564
1.401603710000927,0.0,0.02095238095238095,1.224102564102564
1.4064100450013939,0.0,0.02095238095238095,1.224102564102564
1.4065253689987003,0.0,0.02095238095238095,1.224102564102564
1.4115174360013043,0.0,0.02095238095238095,1.224102564102564
1.4159665039987885,0.0,0.02095238095238095,1.224102564102564
1.4174880489990755,0.0,0.01531135531135531,0.03868131868131868
1.4211662749985408,0.0,0.01531135531135531,0.03868131868131868
1.42126626100071,0.0,0.01531135531135531,0.03868131868131868
1.426380318000156,0.0,0.01531135531135531,0.03868131868131868
1.4293616089998977,0.0,0.01531135531135531,0.03868131868131868
1.4315970140014542,0.0,0.01531135531135531,0.03868131868131868
1.4318123509983707,0.0,0.01531135531135531,0.03868131868131868
1.4368954220008163,0.0,0.01531135531135531,0.03868131868131868
1.4405180799985828,0.0,0.01531135531135531,0.03868131868131868
1.4405932769986975,0.0,0.01531135531135531,0.03868131868131868
1.4463863679993665,0.0,0.01531135531135531,0.03868131868131868
1.4465128810006718,0.0,0.01531135531135531,0.03868131868131868
1.4545804379995388,0.0,0.01531135531135531,0.03868131868131868
1.4592087230012112,0.0,0.005641025641025641,0.0273992673992674
1.4593169209983898,0.0,0.007252747252747252,2.5747252747252745
1.4648229199992784,0.0,0.007252747252747252,2.5747252747252745
1.466380345998914,0.0,0.007252747252747252,2.5747252747252745
1.470741295001062,0.0,0.007252747252747252,2.5747252747252745
1.4722855430009076,0.0,0.007252747252747252,2.5747252747252745
1.476650979999249,0.0,0.006446886446886447,0.0547985347985348
1.4775460999990173,0.0,0.014505494505494505,0.044322344322344324
1.4798472309994395,0.0,0.0,2.5747252747252745
1.4799965550009802,0.0,0.0,2.5747252747252745
1.4878028690000065,0.0,0.0,2.5747252747252745
1.4943153569984133,0.0,0.008864468864468863,0.9904029304029303
1.4983821700006956,0.0,0.008864468864468863,0.9904029304029303
1.500619585000095,0.0,0.008864468864468863,0.9904029304029303
1.5014751720009372,0.0,0.008864468864468863,0.9904029304029303
1.5030291660004877,0.0,0.008864468864468863,0.9904029304029303
1.5073879279989342,0.0,0.008864468864468863,0.9904029304029303
1.5088886410012492,0.0,0.0008058608058608059,1.228131868131868
1.5133356599981198,0.0,0.0008058608058608059,1.228131868131868
1.5143755710014375,0.0,0.0008058608058608059,1.228131868131868
1.5151845379987208,0.0,0.0008058608058608059,1.228131868131868
1.5175430979979865,0.0,0.0008058608058608059,1.228131868131868
1.5176180640009989,0.0,0.010476190476190476,0.0701098901098901
1.5229161009992822,0.0,0.010476190476190476,0.0701098901098901
1.5252143850011635,0.0,0.010476190476190476,0.0701098901098901
1.5255203339984291,0.0,0.010476190476190476,0.0701098901098901
1.5305638819991145,0.0,0.010476190476190476,0.0701098901098901
1.5348626490012975,0.0,0.010476190476190476,0.0701098901098901
1.5371093610010576,0.0,0.010476190476190476,0.0701098901098901
1.5374039150010503,0.0,0.006446886446886447,2.5787545787545785
1.5417364899985841,0.0,0.0008058608058608059,2.5787545787545785
1.5439033769980597,0.0,0.0008058608058608059,2.5787545787545785
1.5441302170002018,0.0,0.0008058608058608059,2.5787545787545785
1.5493251849984517,0.0,0.0008058608058608059,2.5787545787545785
1.552382193000085,0.0,0.0008058608058608059,2.5787545787545785
1.5539135799990618,0.0,0.0032234432234432234,0.0
1.5592209169990383,0.0,0.0032234432234432234,0.0
1.5615399130001606,0.0,0.0032234432234432234,2.577948717948718
1.56164670599901,0.0,0.0032234432234432234,2.577948717948718
1.5667073750009877,0.0,0.0032234432234432234,2.577948717948718
1.5719609510015289,0.0,0.0008058608058608059,2.17018315018315
1.5750583410008403,0.0,0.0008058608058608059,2.17018315018315
1.5759113909989537,0.0,0.0,0.02095238095238095
1.5782260689993564,0.0,0.0,0.02095238095238095
1.5783080729997891,0.0,0.0,0.02095238095238095
1.5842408419994172,0.0,0.0,0.02095238095238095
1.5902326709983754,0.0,0.0,2.5787545787545785
1.5939439110006788,0.0,0.012893772893772894,0.6253479853479853
1.5940191359986784,0.0,0.012893772893772894,0.6253479853479853
1.5993374710014905,0.0,0.012893772893772894,0.6253479853479853
1.6015734389984573,0.0,0.012893772893772894,0.6253479853479853
1.6019972219983174,0.0,0.012893772893772894,0.6253479853479853
1.6070862160013348,0.0,0.012893772893772894,0.6253479853479853
1.6101073419995373,0.0,0.0016117216117216117,2.5594139194139194
1.6123515639992547,0.0,0.0016117216117216117,2.5594139194139194
1.6132661369993002,0.0,0.0016117216117216117,2.5594139194139194
1.614114095998957,0.0,0.0016117216117216117,2.5594139194139194
1.6156857360001595,0.0,0.014505494505494505,0.0
1.62093725700106,0.0,0.014505494505494505,0.0
1.623177413999656,0.0,0.014505494505494505,0.0
1.6234676130006847,0.0,0.014505494505494505,0.0
1.6285564270001487,0.0,0.014505494505494505,0.0
1.6321408389994758,0.0,0.008058608058608058,0.5745787545787545
1.632272409999132,0.0,0.008058608058608058,0.5745787545787545
1.637403845001245,0.0,0.008058608058608058,0.5745787545787545
1.6403678630013019,0.0,0.008058608058608058,0.5745787545787545
1.6432872410005075,0.0,0.008058608058608058,0.5745787545787545
1.645579847998306,0.0,0.004029304029304029,2.5787545787545785
1.645816388001549,0.0,0.004029304029304029,2.5787545787545785
1.650975059998018,0.0,0.004029304029304029,2.5787545787545785
1.654500452998036,0.0,0.004029304029304029,2.5787545787545785
1.654590932001156,0.0,0.004029304029304029,2.5787545787545785
1.661035308999999,0.0,0.004029304029304029,2.5787545787545785
1.6648541419999674,0.0,0.004029304029304029,2.5787545787545785
1.6693728919999558,0.0,0.012893772893772894,2.5755311355311354
1.6696034820015484,0.0,0.012893772893772894,2.5755311355311354
1.674988647999271,0.0,0.012893772893772894,2.5755311355311354
1.6772433359983552,0.0,0.010476190476190476,0.03626373626373627
1.6780762749986025,0.0,0.010476190476190476,0.03626373626373627
1.6802877689988236,0.0,0.010476190476190476,0.03626373626373627
1.680515247000585,0.0,0.010476190476190476,0.03626373626373627
1.6856385669998417,0.0,0.00967032967032967,2.577948717948718
1.6896840849985892,0.0,0.00967032967032967,2.577948717948718
1.6935016450006515,0.0,0.00967032967032967,2.577948717948718
1.6975373220011534,0.0,0.00967032967032967,2.577948717948718
1.7006023869980709,0.0,0.0032234432234432234,2.5787545787545785
1.7028761859983206,0.0,0.0032234432234432234,2.5787545787545785
1.7031144360007602,0.0,0.008864468864468863,2.5787545787545785
1.7086276699992595,0.0,0.008864468864468863,2.5787545787545785
1.7089307729984284,0.0,0.008864468864468863,2.5787545787545785
1.715711958000611,0.0,0.008864468864468863,2.5787545787545785
1.7201502269999764,0.0,0.05721611721611722,0.08864468864468865
1.7209865209988493,0.0,0.05721611721611722,0.08864468864468865
1.72253219599952,0.0,0.05721611721611722,0.08864468864468865
1.7265221960005874,0.0,0.05721611721611722,0.08864468864468865
1.7304391899997427,0.0,0.05721611721611722,0.08864468864468865
1.7343650449984125,0.0,0.05721611721611722,0.08864468864468865
1.738638365000952,0.0,0.05721611721611722,0.08864468864468865
1.7403555439996126,0.0,0.007252747252747252,2.5763369963369964
1.7443711119994987,0.0,0.00967032967032967,2.5763369963369964
1.7466357029989013,0.0,0.010476190476190476,3.3
1.7474942990011186,0.0,0.0,0.971062271062271
1.7489619849984592,0.0,0.0,0.971062271062271
1.75333139400027,0.0,0.0,0.971062271062271
1.7543422199996712,0.0,0.0,0.00967032967032967
1.7551137800001015,0.0,0.0,0.00967032967032967
1.7566633060014283,0.0,0.0,0.00967032967032967
1.7611205940011132,0.0,0.0,0.00967032967032967
1.7612942659980035,0.0,0.0016117216117216117,2.5755311355311354
1.7665377500015893,0.0,0.0016117216117216117,2.5755311355311354
1.7687439789988275,0.0,0.0016117216117216117,2.5755311355311354
1.7695735870001954,0.0,0.0016117216117216117,2.5755311355311354
1.771083780000481,0.0,0.0016117216117216117,2.5755311355311354
1.7754014259990072,0.0,0.0016117216117216117,2.5755311355311354
1.7769444769983238,0.0,0.0016117216117216117,2.5755311355311354
1.7820145090008737,0.0,0.0016117216117216117,2.5755311355311354
1.7853031490012654,0.0,0.0016117216117216117,2.5755311355311354
1.7861292499983392,0.0,0.0016117216117216117,2.5755311355311354
1.7878686289986945,0.0,0.0016117216117216117,2.5755311355311354
1.791678221001348,0.0,0.0016117216117216117,2.5755311355311354
1.795498449999286,0.0,0.0016117216117216117,2.5755311355311354
1.8007124780015147,0.0,0.0016117216117216117,2.5755311355311354
1.8046028239987209,0.0,0.0016117216117216117,3.024395604395604
1.808344788998511,0.0,0.0,2.029157509157509
1.8127669259993127,0.0,0.0,2.029157509157509
1.8136743799987016,0.0,0.0,2.029157509157509
1.8150765700011107,0.0,0.0,2.029157509157509
1.8192008410005656,0.0,0.0,2.029157509157509
1.8220190510000975,0.0,0.0,2.029157509157509
1.8254364319982415,0.0,0.0,2.029157509157509
1.825651752998965,0.0,0.0,2.029157509157509
1.8308891310007311,0.0,0.0,2.029157509157509
1.8346647859980294,0.0,0.0,0.10798534798534798
1.8391986550013826,0.0,0.0,0.10798534798534798
1.83947650600021,0.0,0.004029304029304029,2.781025641025641
1.8447384139981295,0.0,0.004029304029304029,2.781025641025641
1.8486129299999448,0.0,0.004029304029304029,1.93003663003663
1.850917001000198,0.0,0.004029304029304029,1.93003663003663
1.851720317001309,0.0,0.004029304029304029,1.93003663003663
1.8533136070000182,0.0,0.004029304029304029,1.93003663003663
1.8583336980009335,0.0,0.004029304029304029,1.93003663003663
1.8622554979992856,0.0,0.004029304029304029,1.93003663003663
1.8653878500008432,0.0,0.004029304029304029,1.93003663003663
1.8669129509980849,0.0,0.004029304029304029,1.93003663003663
1.8721682940013125,0.0,0.004029304029304029,1.93003663003663
1.8760141230013687,0.0,0.004029304029304029,1.93003663003663
1.879794366999704,0.0,0.004029304029304029,1.93003663003663
1.8842620469986286,0.0,0.004029304029304029,1.93003663003663
1.8845269919984275,0.0,0.004029304029304029,1.93003663003663
1.8897837309996248,0.0,0.004029304029304029,1.93003663003663
1.8921118260004732,0.0,0.0008058608058608059,0.18857142857142856
1.8923596589993394,0.0,0.0008058608058608059,0.18857142857142856
1.8979233950012713,0.0,0.0008058608058608059,0.18857142857142856
1.8989062840009865,0.0,0.0008058608058608059,0.18857142857142856
1.8998266919988964,0.0,0.0008058608058608059,0.18857142857142856
1.9007592300004035,0.0,0.0008058608058608059,0.18857142857142856
1.902269461999822,0.0,0.0008058608058608059,0.18857142857142856
1.907127415001014,0.0,0.0008058608058608059,0.18857142857142856
1.9108025589994213,0.0,0.0008058608058608059,0.18857142857142856
1.916076322999288,0.0,0.0008058608058608059,0.18857142857142856
1.9189997489993402,0.0,0.0008058608058608059,0.18857142857142856
1.9219909950006695,0.0,0.008864468864468863,2.5803663003663004
1.924887413999386,0.0,0.005641025641025641,2.5787545787545785
1.9286914250005793,0.0,0.005641025641025641,2.5787545787545785
1.9338716950005619,0.0,0.005641025641025641,2.5787545787545785
1.9377154239991796,0.0,0.005641025641025641,2.5787545787545785
1.9422310730005847,0.0,0.005641025641025641,2.5787545787545785
1.9424458770008641,0.0,0.005641025641025641,2.5787545787545785
1.9477096070004336,0.0,0.005641025641025641,2.5787545787545785
1.950078455000039,0.0,0.014505494505494505,3.0977289377289376
1.9502228099991044,0.0,0.014505494505494505,3.0977289377289376
1.955255812001269,0.0,0.014505494505494505,3.0977289377289376
1.9592795940006908,0.0,0.010476190476190476,0.03223443223443223
1.9630947789992206,0.0,0.010476190476190476,0.03223443223443223
1.968592468998395,0.0,0.010476190476190476,0.03223443223443223
1.9695182889990974,0.0,0.010476190476190476,0.03223443223443223
1.9703148500011594,0.0,0.010476190476190476,0.03223443223443223
1.9725426149998384,0.0,0.010476190476190476,0.03223443223443223
1.972809368999151,0.0,0.010476190476190476,0.03223443223443223
1.9780228169984184,0.0,0.010476190476190476,0.03223443223443223
1.9802673119993415,0.0,0.010476190476190476,0.03223443223443223
1.9811126999993576,0.0,0.010476190476190476,0.03223443223443223
1.9826183389996004,0.0,0.010476190476190476,0.03223443223443223
1.9871299619990168,0.0,0.010476190476190476,0.03223443223443223
1.988057165999635,0.0,0.010476190476190476,0.03223443223443223
1.989567796998017,0.0,0.010476190476190476,0.03223443223443223
1.994121214000188,0.0,0.010476190476190476,0.03223443223443223
1.9949662239996542,0.0,0.010476190476190476,0.03223443223443223
1.9973166689997015,0.0,0.010476190476190476,0.03223443223443223
1.9975214430014603,0.0,0.010476190476190476,0.03223443223443223
2.001855312999396,0.0,0.010476190476190476,0.03223443223443223
2.0033768079993024,0.0,0.010476190476190476,0.03223443223443223
2.007975360000273,0.0,0.010476190476190476,0.03223443223443223
2.0087763070005167,0.0,0.010476190476190476,0.03223443223443223
2.011127868001495,0.0,0.010476190476190476,0.03223443223443223
2.0112894140002027,0.0,0.010476190476190476,0.03223443223443223
2.016384262999054,0.0,0.010476190476190476,0.03223443223443223
2.0193225459988753,0.0,0.0016117216117216117,0.0419047619047619
2.0226800450000155,0.0,0.0016117216117216117,0.0419047619047619
2.023403953000525,0.0,0.0016117216117216117,2.5763369963369964
2.0254466949991183,0.0,0.0016117216117216117,2.5763369963369964
2.026859740999498,0.0,0.0016117216117216117,2.5763369963369964
2.0320427929982543,0.0,0.0016117216117216117,2.5763369963369964
2.0357543530008115,0.0,0.0016117216117216117,2.5763369963369964
2.0403156920001493,0.0,0.0,0.0419047619047619
2.041189718998794,0.0,0.0,0.0419047619047619
2.0427173989992298,0.0,0.0,0.0419047619047619
2.047194833998219,0.0,0.0,0.0419047619047619
2.047366927999974,0.0,0.0032234432234432234,0.7043223443223443
2.0525852419996227,0.0,0.0032234432234432234,0.7043223443223443
2.0564470130011614,0.0,0.0032234432234432234,0.7043223443223443
2.060270795998804,0.0,0.0,0.026593406593406595
2.064713665000454,0.0,0.0,0.026593406593406595
2.0661905849992763,0.0,0.0,0.026593406593406595
2.070507821998035,0.0,0.0,0.026593406593406595
2.071365921998222,0.0,0.006446886446886447,0.30945054945054945
2.0729034340001817,0.0,0.006446886446886447,0.30945054945054945
2.0775998450008046,0.0,0.006446886446886447,0.30945054945054945
2.077670301998296,0.0,0.006446886446886447,0.30945054945054945
2.082398785998521,0.0,0.006446886446886447,0.30945054945054945
2.0825667009994504,0.0,0.006446886446886447,0.30945054945054945
2.087249077998422,0.0,0.006446886446886447,0.30945054945054945
2.0880054340013885,0.0,0.006446886446886447,0.30945054945054945
2.090128798998194,0.0,0.006446886446886447,0.30945054945054945
2.0909037759993225,0.0,0.006446886446886447,0.30945054945054945
2.092917996000324,0.0,0.006446886446886447,0.30945054945054945
2.0943547079987184,0.0,0.016117216117216115,0.03948717948717949
2.0997294879998663,0.0,0.004835164835164835,0.03223443223443223
2.101985697998316,0.0,0.05802197802197802,2.66014652014652
2.1022701209985826,0.0,0.05802197802197802,2.66014652014652
2.1069198559998767,0.0,0.05802197802197802,2.66014652014652
2.1071822509984486,0.0,0.006446886446886447,1.244249084249084
2.1118163139981334,0.0,0.006446886446886447,1.244249084249084
2.1120524690013553,0.0,0.006446886446886447,1.244249084249084
2.1167711390007753,0.0,0.006446886446886447,1.244249084249084
2.1220246570010204,0.0,0.006446886446886447,1.244249084249084
2.1242632450012024,0.0,0.0,2.5763369963369964
2.124514385999646,0.0,0.0,2.5763369963369964
2.129539813999145,0.0,0.0,2.5763369963369964
2.1338218659984705,0.0,0.016117216117216115,0.11846153846153845
2.135321812998882,0.0,0.016117216117216115,0.11846153846153845
2.139312859999336,0.0,0.006446886446886447,0.03948717948717949
2.143943680999655,0.0,0.010476190476190476,2.577142857142857
2.144656781998492,0.0,0.004835164835164835,2.561831501831502
2.1467501830011315,0.0,0.004835164835164835,2.561831501831502
2.148201441999845,0.0,0.004835164835164835,2.561831501831502
2.1528640590004215,0.0,0.004835164835164835,2.561831501831502
2.1531110440009797,0.0,0.004835164835164835,2.561831501831502
2.1577846180007327,0.0,0.0136996336996337,0.05721611721611722
2.1580019350003568,0.0,0.0136996336996337,0.05721611721611722
2.162626088000252,0.0,0.0136996336996337,0.05721611721611722
2.162919492999208,0.0,0.0136996336996337,0.05721611721611722
2.1676158660011424,0.0,0.0136996336996337,0.05721611721611722
2.1678141090014833,0.0,0.0032234432234432234,3.3
2.1728666269991663,0.0,0.0032234432234432234,3.3
2.1766615659980744,0.0,0.0032234432234432234,3.3
2.1810768370014557,0.0,0.0136996336996337,2.5755311355311354
2.1818764349991397,0.0,0.0136996336996337,2.5755311355311354
2.183420916000614,0.0,0.0136996336996337,2.5755311355311354
2.188579876001313,0.0,0.0136996336996337,2.5755311355311354
2.1916219369995815,0.0,0.0136996336996337,2.5755311355311354
2.1938752620008017,0.0,0.0136996336996337,2.5755311355311354
2.1941257500002393,0.0,0.0136996336996337,2.5755311355311354
2.1995733069998096,0.0,0.012893772893772894,0.007252747252747252
2.200493412998185,0.0,0.012893772893772894,0.007252747252747252
2.2013634510003612,0.0,0.0016117216117216117,2.5787545787545785
2.203513638000004,0.0,0.0016117216117216117,2.5787545787545785
2.203814690001309,0.0,0.0016117216117216117,2.5787545787545785
2.2090694660000736,0.0,0.0016117216117216117,2.5787545787545785
2.2113307760009775,0.0,0.0016117216117216117,1.3868864468864468
2.2114789619990916,0.0,0.00967032967032967,0.06769230769230769
2.216329410999606,0.0,0.00967032967032967,0.06769230769230769
2.216556925999612,0.0,0.00967032967032967,0.06769230769230769
2.221459156000492,0.0,0.007252747252747252,2.5747252747252745
2.2265941250007018,0.0,0.0,2.5787545787545785
2.2302115530001174,0.0,0.0008058608058608059,2.947032967032967
2.2358785069991427,0.0,0.0008058608058608059,2.947032967032967
2.2360349810005573,0.0,0.014505494505494505,0.014505494505494505
2.2414823959989008,0.0,0.006446886446886447,2.5626373626373624
2.242264381999121,0.0,0.0136996336996337,2.5763369963369964
2.244025996998971,0.0,0.0136996336996337,2.5763369963369964
2.247120512998663,0.0,0.0136996336996337,2.5763369963369964
2.2493742129991006,0.0,0.004029304029304029,0.9992673992673992
2.2496439610004018,0.0,0.004029304029304029,0.9992673992673992
2.2553229209988785,0.0,0.004029304029304029,0.9992673992673992
2.256834195999545,0.0,0.004029304029304029,0.9992673992673992
2.2621255539997946,0.0,0.004029304029304029,0.9992673992673992
2.2629801190014405,0.0,0.004029304029304029,0.9992673992673992
2.2645384979987284,0.0,0.004029304029304029,0.9992673992673992
2.268186801000411,0.0,0.004029304029304029,0.9992673992673992
2.2682704590006324,0.0,0.004029304029304029,0.9992673992673992
2.2733585290006886,0.0,0.004029304029304029,0.9992673992673992
2.2769627460002084,0.0,0.004029304029304029,0.9992673992673992
2.282418475999293,0.0,0.004029304029304029,0.9992673992673992
2.283239542000956,0.0,0.004029304029304029,0.9992673992673992
2.2854559869992954,0.0,0.004029304029304029,0.9992673992673992
2.2857646269985707,0.0,0.0,3.3
2.2908917880013178,0.0,0.0,3.3
2.2946659570006886,0.0,0.0,3.3
2.298503255999094,0.0,0.0,3.3
2.3028388370003086,0.0,0.0016117216117216117,0.033846153846153845
2.305272548001085,0.0,0.004835164835164835,2.5666666666666664
2.3054203649990086,0.0,0.004835164835164835,2.5666666666666664
2.310679856000206,0.0,0.004835164835164835,2.5666666666666664
2.313664510998933,0.0,0.0016117216117216117,0.21355311355311357
2.3159199459987576,0.0,0.0016117216117216117,0.21355311355311357
2.316110857998865,0.0,0.008058608058608058,0.012087912087912087
2.321496795000712,0.0,0.008058608058608058,0.012087912087912087
2.3230737689991656,0.0,0.008058608058608058,0.012087912087912087
2.327402887000062,0.0,0.008058608058608058,0.012087912087912087
2.3288950360001763,0.0,0.0032234432234432234,3.3
2.333308400000533,0.0,0.0,0.307032967032967
2.3335414540015336,0.0,0.0,0.307032967032967
2.338569944000483,0.0,0.0,0.307032967032967
2.3386398539987567,0.0,0.0,0.307032967032967
2.343727718998707,0.0,0.0,0.307032967032967
2.3474833219988795,0.0,0.0,0.307032967032967
2.3525536279994412,0.0,0.0,0.307032967032967
2.356226133000746,0.0,0.0136996336996337,0.06769230769230769
2.3607733380013087,0.0,0.014505494505494505,2.577948717948718
2.361623007000162,0.0,0.006446886446886447,2.5755311355311354
2.3632160880006268,0.0,0.006446886446886447,2.5755311355311354
2.3679104000002553,0.0,0.006446886446886447,2.5755311355311354
2.368102386000828,0.0,0.006446886446886447,2.5755311355311354
2.3732592000014847,0.0,0.006446886446886447,2.5755311355311354
2.377001706001465,0.0,0.006446886446886447,2.5755311355311354
2.381323519999569,0.0,0.006446886446886447,2.5755311355311354
2.382820996001101,0.0,0.0016117216117216117,2.5755311355311354
2.3875467680009024,0.0,0.0016117216117216117,2.5755311355311354
2.3928755140004796,0.0,0.0016117216117216117,2.5755311355311354
2.3956021779995353,0.0,0.0016117216117216117,2.5755311355311354
2.3998698010000226,0.0,0.0016117216117216117,2.5755311355311354
2.402606970001216,0.0,0.0016117216117216117,2.5755311355311354
2.4060981900001934,0.0,0.0016117216117216117,2.5755311355311354
2.4062909610001952,0.0,0.0016117216117216117,2.5755311355311354
2.4111483989981934,0.0,0.0016117216117216117,2.5755311355311354
2.411340448001283,0.0,0.0016117216117216117,2.5755311355311354
2.4160372609985643,0.0,0.0,0.07736263736263736
2.416198864000762,0.0,0.0,0.0
2.420974491000379,0.0,0.0,0.0
2.425619721001567,0.0,0.0,0.0
2.4257960299983097,0.0,0.0,0.0
2.4304462319996674,0.0,0.004835164835164835,0.8566300366300367
2.430643654999585,0.0,0.004835164835164835,0.8566300366300367
2.4354808530006267,0.0,0.004835164835164835,0.8566300366300367
2.4401328849999118,0.0,0.0024175824175824176,0.006446886446886447
2.440855714998179,0.0,0.0024175824175824176,0.006446886446886447
2.4429384210015996,0.0,0.0024175824175824176,0.006446886446886447
2.444361547000881,0.0,0.0024175824175824176,0.006446886446886447
2.449114588998782,0.0,0.0024175824175824176,0.006446886446886447
2.44940172600036,0.0,0.0024175824175824176,0.006446886446886447
2.4544346609982313,0.0,0.0024175824175824176,0.006446886446886447
2.457811979998951,0.0,0.0024175824175824176,0.006446886446886447
2.458034786999633,0.0,0.00967032967032967,2.581172161172161
2.4627620989995194,0.0,0.00967032967032967,2.581172161172161
2.462881915998878,0.0,0.00967032967032967,2.581172161172161
2.4676330080001208,0.0,0.00967032967032967,2.581172161172161
2.4724345979993814,0.0,0.00967032967032967,2.581172161172161
2.472602587000438,0.0,0.00967032967032967,2.581172161172161
2.4773055680016114,0.0,0.004835164835164835,0.04673992673992674
2.477460456000699,0.0,0.004835164835164835,0.04673992673992674
2.4821838550014945,0.0,0.004835164835164835,2.5755311355311354
2.482974506001483,0.0,0.004835164835164835,2.5755311355311354
2.4851372679986525,0.0,0.004835164835164835,2.5755311355311354
2.485953270999744,0.0,0.004835164835164835,2.5755311355311354
2.4874530179986323,0.0,0.004835164835164835,2.5755311355311354
2.4915136089985026,0.0,0.004835164835164835,2.5755311355311354
2.494801255001221,0.0,0.004835164835164835,2.5755311355311354
2.4955957579986716,0.0,0.004835164835164835,2.5755311355311354
2.4977804129994183,0.0,0.004835164835164835,2.5755311355311354
2.4985706560000835,0.0,0.004835164835164835,2.5755311355311354
2.500661043999571,0.0,0.004835164835164835,2.5755311355311354
2.502080237998598,0.0,0.004835164835164835,2.5755311355311354
2.5069095449980523,0.0,0.004835164835164835,2.5755311355311354
2.51207957799852,0.0,0.004835164835164835,2.5755311355311354
2.515130643001612,0.0,0.004835164835164835,2.5755311355311354
2.517503956998553,0.0,0.004835164835164835,2.5755311355311354
2.517679289001535,0.0,0.004835164835164835,2.5755311355311354
2.522868151001603,0.0,0.004835164835164835,2.5755311355311354
2.5255976090011245,0.0,0.00967032967032967,2.5763369963369964
2.5295682159994612,0.0,0.00967032967032967,2.5763369963369964
2.532891989998461,0.0,0.00967032967032967,2.5763369963369964
2.534250107000844,0.0,0.00967032967032967,2.5763369963369964
2.5388936839990492,0.0,0.00967032967032967,2.5763369963369964
2.539616358000785,0.0,0.0136996336996337,2.5763369963369964
2.541111460999673,0.0,0.007252747252747252,2.5787545787545785
2.5457060250009818,0.0,0.007252747252747252,2.5787545787545785
2.5459875960004865,0.0,0.0,3.3
2.550652894999075,0.0,0.0,3.3
2.5509009570014314,0.0,0.0,3.3
2.5555437689981773,0.0,0.0,3.3
2.555801029000577,0.0,0.006446886446886447,0.025787545787545788
2.560485444999358,0.0,0.006446886446886447,0.025787545787545788
2.56066417799957,0.0,0.006446886446886447,0.025787545787545788
2.565331234000041,0.0,0.006446886446886447,0.025787545787545788
2.565612709000561,0.0,0.006446886446886447,0.025787545787545788
2.57045215999824,0.0,0.006446886446886447,0.025787545787545788
2.5744851249983185,0.0,0.006446886446886447,0.025787545787545788
2.5771687839987862,0.0,0.005641025641025641,0.04915750915750916
2.5805888670001877,0.0,0.005641025641025641,0.04915750915750916
2.5813932540004316,0.0,0.005641025641025641,0.04915750915750916
2.5834045539995714,0.0,0.005641025641025641,0.04915750915750916
2.5848242430001847,0.0,0.005641025641025641,0.04915750915750916
2.5894868860013958,0.0,0.005641025641025641,0.04915750915750916
2.5896601009990263,0.0,0.005641025641025641,0.04915750915750916
2.5943893900002877,0.0,0.005641025641025641,0.04915750915750916
2.5944772709990502,0.0,0.005641025641025641,0.025787545787545788
2.5996476959990105,0.0,0.005641025641025641,0.025787545787545788
2.6032132590007677,0.0,0.005641025641025641,0.025787545787545788
2.603323792998708,0.0,0.016117216117216115,2.5787545787545785
2.6083621729994775,0.0,0.016117216117216115,2.5787545787545785
2.6120150060014566,0.0,0.0032234432234432234,0.49076923076923074
2.612136856001598,0.0,0.0032234432234432234,0.49076923076923074
2.617259209000622,0.0,0.0024175824175824176,0.03223443223443223
2.620844744000351,0.0,0.0,0.0016117216117216117
2.625914663000003,0.0,0.0,0.0016117216117216117
2.630235783999524,0.0,0.0,0.0016117216117216117
2.631719904999045,0.0,0.0,0.0016117216117216117
2.6360523180010205,0.0,0.0,0.0016117216117216117
2.6368664219990023,0.0,0.0,0.0016117216117216117
2.6384494090016233,0.0,0.0,0.0016117216117216117
2.642711157001031,0.0,0.0,0.0016117216117216117
2.6449922370011336,0.0,0.0,0.0016117216117216117
2.645201489998726,0.0,0.0,0.0016117216117216117
2.6504207930011034,0.0,0.0,0.0016117216117216117
2.6535342349998245,0.0,0.0,0.0016117216117216117
2.6550091589997464,0.0,0.0,0.0016117216117216117
2.659138447001169,0.0,0.0,0.04593406593406593
2.662451347001479,0.0,0.00967032967032967,2.5747252747252745
2.6631754750014807,0.0,0.00967032967032967,2.5747252747252745
2.6652079169980425,0.0,0.00967032967032967,2.5747252747252745
2.666653659998701,0.0,0.0136996336996337,1.7366300366300367
2.671353760000784,0.0,0.0136996336996337,1.7366300366300367
2.6715018739996594,0.0,0.0136996336996337,1.7366300366300367
2.6761243420005485,0.0,0.006446886446886447,0.05963369963369963
2.6763646840008732,0.0,0.006446886446886447,0.05963369963369963
2.681064020998747,0.0,0.006446886446886447,0.05963369963369963
2.6812203359986597,0.0,0.00967032967032967,2.5763369963369964
2.6872188189990993,0.0,0.0,2.5787545787545785
2.6908734179996827,0.0,0.007252747252747252,0.6841758241758242
2.691109717998188,0.0,0.007252747252747252,0.6841758241758242
2.6961747569985164,0.0,0.007252747252747252,0.6841758241758242
2.6998572740012605,0.0,0.007252747252747252,0.6841758241758242
2.7042259279987775,0.0,0.007252747252747252,0.6841758241758242
2.70576458999858,0.0,0.007252747252747252,0.6841758241758242
2.710094244001084,0.0,0.007252747252747252,0.6841758241758242
2.712321407001582,0.0,0.007252747252747252,0.6841758241758242
2.7124639809990185,0.0,0.0,0.051575091575091575
2.717578184998274,0.0,0.0,0.051575091575091575
2.7213344459996733,0.0,0.0032234432234432234,2.5747252747252745
2.7265270089992555,0.0,0.0,2.5763369963369964
2.7289084549993277,0.0,0.0,2.5763369963369964
2.7291172049990564,0.0,0.0,2.5763369963369964
2.7351528420003888,0.0,0.0,2.5763369963369964
2.738850118999835,0.0,0.0,0.17245421245421244
2.738921684998786,0.0,0.0,0.17245421245421244
2.744050295001216,0.0,0.0,0.17245421245421244
2.7478723429994716,0.0,0.0,2.5763369963369964
2.752403177000815,0.0,0.0,2.5763369963369964
2.752674726998521,0.0,0.0,2.5763369963369964
2.7579994660009106,0.0,0.0,2.5763369963369964
2.7604100620010286,0.0,0.0,2.5763369963369964
2.76057610999851,0.0,0.0,2.5763369963369964
2.7650988009991124,0.0,0.0,2.5763369963369964
2.765338968998549,0.0,0.0,2.5763369963369964
2.770001876000606,0.0,0.0,2.5763369963369964
2.7702093920015614,0.0,0.0,2.5763369963369964
2.774793058000796,0.0,0.0,2.5763369963369964
2.7750609739996435,0.0,0.0,2.5763369963369964
2.7800497589996667,0.0,0.0,2.5763369963369964
2.7840950899990276,0.0,0.007252747252747252,2.5755311355311354
2.7911313279983005,0.0,0.007252747252747252,2.5755311355311354
2.7955298829983803,0.0,0.0,0.25142857142857145
2.7956281379993015,0.0,0.0,0.25142857142857145
2.801814974998706,0.0,0.0,0.25142857142857145
2.8059347640009946,0.0,0.0,0.25142857142857145
2.8092864440004632,0.0,0.0,0.25142857142857145
2.8094480619984097,0.0,0.0,0.25142857142857145
2.8152213520006626,0.0,0.0,0.25142857142857145
2.821164105000207,0.0,0.004835164835164835,0.03545787545787545
2.8258704629988642,0.0,0.004835164835164835,0.03545787545787545
2.8318053869988944,0.0,0.00967032967032967,2.56989010989011
2.8364263840012427,0.0,0.011282051282051281,0.05963369963369963
2.8365993369989155,0.0,0.011282051282051281,0.05963369963369963
2.8431735759986623,0.0,0.011282051282051281,0.05963369963369963
2.8474312920006923,0.0,0.011282051282051281,0.05963369963369963
2.849014218998491,0.0,0.011282051282051281,0.05963369963369963
2.853778977998445,0.0,0.011282051282051281,0.05963369963369963
2.8625841210014187,0.0,0.011282051282051281,0.05963369963369963
2.871920139001304,0.0,0.007252747252747252,1.8083516483516484
2.8804817790005472,0.0,0.011282051282051281,0.2175824175824176
2.8868599329980498,0.0,0.011282051282051281,0.2175824175824176
2.890738040998258,0.0,0.011282051282051281,0.2175824175824176
2.8954506539994327,0.0,0.011282051282051281,0.2175824175824176
2.9037711470009526,0.0,0.011282051282051281,0.2175824175824176
2.9105500029982068,0.0,0.0016117216117216117,2.577948717948718
2.9184481669981324,0.0,0.005641025641025641,0.365054945054945
2.9240803659995436,0.0,0.005641025641025641,0.365054945054945
2.924269491999439,0.0,0.005641025641025641,0.365054945054945
2.9299824129993794,0.0,0.005641025641025641,0.365054945054945
2.9301924469982623,0.0,0.005641025641025641,0.365054945054945
2.936361799998849,0.0,0.005641025641025641,0.365054945054945
2.9403354919995763,0.0,0.005641025641025641,0.365054945054945
2.9439387089987576,0.0,0.005641025641025641,0.365054945054945
2.9514403190005396,0.0,0.005641025641025641,0.365054945054945
2.956836402998306,0.0,0.10315018315018315,0.6285714285714284
2.9592166069996892,0.0,0.10315018315018315,0.6285714285714284
2.959303112998896,0.0,0.10315018315018315,0.6285714285714284
2.9671821289994114,0.0,0.10315018315018315,0.6285714285714284
2.9719321240008867,0.0,0.10315018315018315,0.6285714285714284
2.9802969279990066,0.0,0.008864468864468863,0.07978021978021978
2.9890023469997686,0.0,0.0032234432234432234,0.0273992673992674
2.9969400959998893,0.0,0.0032234432234432234,0.0273992673992674
3.0037130540004,0.0,0.0,0.0410989010989011
3.008624073001556,0.0,0.00967032967032967,2.5763369963369964
3.0174154929991346,0.0,0.00967032967032967,2.5763369963369964
3.0234335050008667,0.0,0.00967032967032967,2.5763369963369964
3.0302237149990106,0.0,0.00967032967032967,2.5763369963369964
3.036618398000428,0.0,0.00967032967032967,2.5763369963369964
3.042072789001395,0.0,0.00967032967032967,2.5763369963369964
3.0434822639981576,0.0,0.00967032967032967,2.5763369963369964
3.0519982719997643,0.0,0.011282051282051281,2.1758241758241756
3.058937788999174,0.0,0.011282051282051281,2.1758241758241756
3.064827113001229,0.0,0.011282051282051281,2.1758241758241756
3.0722722969985625,0.0,0.0,3.3
3.080527466998319,0.0,0.0,3.3
3.0881603000016185,0.0,0.0,3.3
3.094325902999117,0.0,0.0,3.3
3.101597454999137,0.0,0.0,3.3
3.1065653799996653,0.0,0.0016117216117216117,1.1749450549450549
3.111557354000979,0.0,0.0016117216117216117,1.1749450549450549
3.118309384000895,0.0,0.0016117216117216117,1.1749450549450549
3.1236473850003676,0.0,0.0016117216117216117,1.1749450549450549
3.1252615849989525,0.0,0.004029304029304029,2.577948717948718
3.132071601001371,0.0,0.004029304029304029,2.577948717948718
3.1382315709997783,0.0,0.004029304029304029,2.577948717948718
3.1438152880000416,0.0,0.004029304029304029,2.577948717948718
3.1439870270005486,0.0,0.004029304029304029,2.577948717948718
3.152180238001165,0.0,0.0,1.0621245421245422
3.1595550429992727,0.0,0.0,1.0621245421245422
3.167609989999619,0.0,0.0,1.0621245421245422
3.1729981249991397,0.0,0.012087912087912087,0.6052014652014651
3.1732805850006116,0.0,0.012087912087912087,0.6052014652014651
3.1824453879999055,0.0,0.012087912087912087,0.6052014652014651
3.1896707870000682,0.0,0.012087912087912087,0.6052014652014651
3.195077168998978,0.0,0.0016117216117216117,0.17003663003663003
3.1953430339999613,0.0,0.0016117216117216117,0.03223443223443223
3.2052922309994756,0.0,0.0016117216117216117,0.03223443223443223
3.2143914959997346,0.0,0.0008058608058608059,2.56989010989011
3.2209285690005345,0.0,0.0,0.03142857142857143
3.2276926439990348,0.0,0.0,0.03142857142857143
3.233768476999103,0.0,0.0,0.03142857142857143
3.2370281990006333,0.0,0.0,0.03142857142857143
3.237264657000196,0.0,0.0,0.03142857142857143
3.243305178999435,0.0,0.004029304029304029,2.5747252747252745
3.2493740879981488,0.0,0.005641025641025641,2.5513553113553114
3.2552184339983796,0.0,0.005641025641025641,2.5513553113553114
3.262924391001434,0.0,0.0,0.016117216117216115
3.2685887349980476,0.0,0.0,0.016117216117216115
3.2751814340008423,0.0,0.0,0.016117216117216115
3.2798952820012346,0.0,0.0,0.016117216117216115
3.2878090039994277,0.0,0.0,0.016117216117216115
3.2966929319991323,0.0,0.0,0.016117216117216115
3.3044501609983854,0.0,0.0,0.016117216117216115
3.3104440169990994,0.0,0.0,0.016117216117216115
3.3183118339984503,0.0,0.0008058608058608059,0.047545787545787546
3.3222932940007013,0.0,0.0008058608058608059,0.047545787545787546
3.3262625169991225,0.0,0.0008058608058608059,0.047545787545787546
3.3302769670008274,0.0,0.00967032967032967,0.5906959706959707
3.333862838000641,0.0,0.00967032967032967,0.5906959706959707
3.3415206350000517,0.0,0.00967032967032967,0.5906959706959707
3.347122778999619,0.0,0.00967032967032967,0.5906959706959707
3.3472297150001395,0.0,0.00967032967032967,0.5906959706959707
3.353108321000036,0.0,0.00967032967032967,0.5906959706959707
3.3531985629997507,0.0,0.00967032967032967,0.5906959706959707
3.358626795001328,0.0,0.00967032967032967,0.5906959706959707
3.360397350999847,0.0,0.00967032967032967,0.5906959706959707
3.3639388629999303,0.0,0.00967032967032967,0.5906959706959707
3.370589785001357,0.0,0.004835164835164835,3.3
3.3759442910013604,0.0,0.006446886446886447,0.06124542124542124
3.3769779639987973,0.0,0.006446886446886447,0.06124542124542124
3.3771581389992207,0.0,0.006446886446886447,0.06124542124542124
3.386513620000187,0.0,0.006446886446886447,0.06124542124542124
3.393829092998203,0.0,0.006446886446886447,0.06124542124542124
3.4008767749983235,0.0,0.006446886446886447,0.06124542124542124
3.4064935140013404,0.0,0.006446886446886447,0.06124542124542124
3.4165469510007824,0.0,0.012893772893772894,3.3
3.4307049210001423,0.0,0.012893772893772894,3.3
3.443923454000469,0.0,0.012893772893772894,3.3
3.4580659509992984,0.0,0.012893772893772894,3.3
3.4583465619980416,0.0,0.012893772893772894,3.3
3.46790266500102,0.0,0.012893772893772894,3.3
3.478080848999525,0.0,0.0,2.577948717948718
3.487687601998914,0.0,0.0,2.577948717948718
3.4964695390008274,0.0,0.0,2.577948717948718
3.5052547810009855,0.0,0.0024175824175824176,0.007252747252747252
3.514406076999876,0.0,0.0024175824175824176,0.007252747252747252
3.523449445998267,0.0,0.0024175824175824176,0.007252747252747252
3.5327313609996054,0.0,0.004029304029304029,3.3
3.539586890001374,0.0,0.006446886446886447,0.06124542124542124
3.5461709139999584,0.0,0.006446886446886447,0.06124542124542124
3.5514360730012413,0.0,0.006446886446886447,0.6390476190476191
3.553023682001367,0.0,0.006446886446886447,0.6390476190476191
3.5582042159985576,0.0,0.0,0.07736263736263736
3.5606740199982596,0.0,0.0,0.07736263736263736
3.560755054000765,0.0,0.0,0.07736263736263736
3.5681330070001422,0.0,0.0,0.07736263736263736
3.5721051590007846,0.0,0.0,0.07736263736263736
3.5760813980014063,0.0,0.0,0.07736263736263736
3.5799786759998824,0.0,0.0,0.07736263736263736
3.5863000329991337,0.0,0.0,0.07736263736263736
3.5927946060000977,0.0,0.0,0.07736263736263736
3.597781768999994,0.0,0.0,0.07736263736263736
3.6039059270005964,0.0,0.0,0.07736263736263736
3.6092964079980447,0.0,0.0,0.07736263736263736
3.610686602998612,0.0,0.0,0.07736263736263736
3.617699465001351,0.0,0.04915750915750916,0.025787545787545788
3.622483505998389,0.0,0.04915750915750916,0.025787545787545788
3.6273552940001537,0.0,0.04915750915750916,0.025787545787545788
3.6328552859995398,0.0,0.01531135531135531,0.20065934065934066
3.6359082529997977,0.0,0.01531135531135531,0.20065934065934066
3.6379282609996153,0.0,0.01531135531135531,0.20065934065934066
3.6388683519980987,0.0,0.01531135531135531,0.20065934065934066
3.6398107720015105,0.0,0.01531135531135531,0.20065934065934066
3.6427859799987345,0.0,0.01531135531135531,0.20065934065934066
3.64444914699925,0.0,0.01531135531135531,0.20065934065934066
3.6504504090007686,0.0,0.01531135531135531,0.20065934065934066
3.653700397000648,0.0,0.01531135531135531,0.20065934065934066
3.6553463919990463,0.0,0.01531135531135531,0.20065934065934066
3.663099590998172,0.0,0.01531135531135531,0.20065934065934066
3.6712410779982747,0.0,0.01531135531135531,0.20065934065934066
3.67627254800027,0.0,0.01531135531135531,0.20065934065934066
3.682300087999465,0.0,0.01531135531135531,0.20065934065934066
3.687360167998122,0.0,0.01531135531135531,0.20065934065934066
3.689851651000936,0.0,0.01531135531135531,0.20065934065934066
3.69998649199988,0.0,0.01531135531135531,0.20065934065934066
3.7066847940004664,0.0,0.0016117216117216117,0.06608058608058608
3.713783446000889,0.0,0.0016117216117216117,0.06608058608058608
3.7199462079988734,0.0,0.007252747252747252,0.12249084249084248
3.724612538000656,0.0,0.00967032967032967,2.5803663003663004
3.7339738340015174,0.0,0.006446886446886447,3.0106959706959704
3.7421622080000816,0.0,0.011282051282051281,0.17164835164835165
3.750091275000159,0.0,0.011282051282051281,0.17164835164835165
3.7570849020012247,0.0,0.0032234432234432234,0.9581684981684981
3.7630653619999066,0.0,0.0008058608058608059,0.0
3.7676215899991803,0.0,0.0008058608058608059,0.0
3.7774971449980512,0.0,0.0008058608058608059,0.0
3.7861196829981054,0.0,0.0008058608058608059,0.0
3.7938315809988126,0.0,0.0032234432234432234,2.577142857142857
3.8008047729999817,0.0,0.0032234432234432234,2.577142857142857
3.8054405389993917,0.0,0.0032234432234432234,2.577142857142857
3.8109964200011746,0.0,0.026593406593406595,3.3
3.81123418900097,0.0,0.026593406593406595,3.3
3.817765244999464,0.0,0.0,0.006446886446886447
3.8232669239987445,0.0,0.006446886446886447,2.577948717948718
3.8234356329994625,0.0,0.008864468864468863,2.56989010989011
3.8286164210003335,0.0,0.008864468864468863,2.56989010989011
3.8329172060002747,0.0,0.012893772893772894,0.166007326007326
3.83448771500116,0.0,0.012893772893772894,0.166007326007326
3.8385667559996364,0.0,0.012893772893772894,0.166007326007326
3.8417420199984917,0.0,0.0016117216117216117,2.1363369963369965
3.844060191000608,0.0,0.0016117216117216117,2.1363369963369965
3.844270666999364,0.0,0.0016117216117216117,2.1363369963369965
3.850221855998825,0.0,0.0016117216117216117,2.1363369963369965
3.854674908998277,0.0,0.012893772893772894,0.051575091575091575
3.8561746049999783,0.0,0.012893772893772894,0.051575091575091575
3.861983834998682,0.0,0.012893772893772894,0.051575091575091575
3.8621101259996067,0.0,0.012893772893772894,0.051575091575091575
3.870055423998565,0.0,0.012893772893772894,0.051575091575091575
3.8773413300004904,0.0,0.0,1.0959706959706959
3.8837043569983507,0.0,0.0,1.0959706959706959
3.8871415089997754,0.0,0.0,1.0959706959706959
3.8873805299990636,0.0,0.0,1.0959706959706959
3.8927239830009057,0.0,0.0,1.0959706959706959
3.898452459998225,0.0,0.0,1.0959706959706959
3.903278961999604,0.0,0.0,1.0959706959706959
3.9076548960001674,0.0,0.012893772893772894,3.3
3.9085312749994046,0.0,0.012893772893772894,3.3
3.9101028719996975,0.0,0.012893772893772894,3.3
3.9178606210007274,0.0,0.012893772893772894,3.3
3.923708667000028,0.0,0.012893772893772894,3.3
3.9335955220012693,0.0,0.012893772893772894,3.3
3.9380058370006736,0.0,0.012893772893772894,3.3
3.939524575998803,0.0,0.012893772893772894,3.3
3.94326222699965,0.0,0.012893772893772894,3.3
3.951776024998253,0.0,0.0,1.4247619047619047
3.956555691998801,0.0,0.0,1.4247619047619047
3.9623562269989634,0.0,0.0,1.4247619047619047
3.9625378630007617,0.0,0.0,1.4247619047619047
3.970812323001155,0.0,0.0,1.4247619047619047
3.9754589830008626,0.0,0.0,1.4247619047619047
3.9757666469995456,0.0,0.0,1.4247619047619047
3.985277021998627,0.0,0.0,1.4247619047619047
3.991528260998166,0.0,0.00967032967032967,2.5723076923076924
3.996850358998927,0.0,0.00967032967032967,2.5723076923076924
4.000012650998542,0.0,0.008864468864468863,0.006446886446886447
4.000254987000517,0.0,0.008864468864468863,0.006446886446886447
4.006306551000307,0.0,0.008864468864468863,0.006446886446886447
4.0100383140015765,0.0,0.008864468864468863,0.006446886446886447
4.010210784999799,0.0,0.008864468864468863,0.006446886446886447
4.018798327000695,0.0,0.008864468864468863,0.006446886446886447
4.0239451179986645,0.0,0.008864468864468863,0.006446886446886447
4.027461098998174,0.0,0.004835164835164835,1.0153846153846153
4.0276441690002684,0.0,0.004835164835164835,1.0153846153846153
4.035270411000965,0.0,0.004835164835164835,1.0153846153846153
4.039642610998271,0.0,0.0,0.0
4.040460156000336,0.0,0.0,0.0
4.042023468999105,0.0,0.0,0.0
4.049602381001023,0.0,0.0,0.0
4.05327434100036,0.0,0.0,0.0
4.058672668998042,0.0,0.0,0.0
4.059632692999003,0.0,0.0,0.0
4.06058209999901,0.0,0.0,0.0
4.0614773759989475,0.0,0.0,0.0
4.063338914998894,0.0,0.0,0.0
4.065978962000372,0.0,0.0,0.0
4.069661387999076,0.0,0.03545787545787545,0.788937728937729
4.074999237000156,0.0,0.03545787545787545,0.788937728937729
4.077924922999955,0.0,0.00967032967032967,0.0
4.080608893000317,0.0,0.00967032967032967,0.0
4.084146231998602,0.0,0.00967032967032967,0.0
4.08936870099933,0.0,0.00967032967032967,0.0
4.092300502001308,0.0,0.004029304029304029,0.0410989010989011
4.096957454999938,0.0,0.004029304029304029,0.0410989010989011
4.105577250000351,0.0,0.004029304029304029,0.0410989010989011
4.112529818001349,0.0,0.004029304029304029,0.0410989010989011
4.118216286999086,0.0,0.0,0.05641025641025641
4.1182920719984395,0.0,0.0,0.05641025641025641
4.123578537000867,0.0,0.0,0.05641025641025641
4.125853968998854,0.0,0.0,0.05641025641025641
4.126039733000653,0.0,0.017728937728937726,0.2562637362637363
4.134056175000296,0.0,0.017728937728937726,0.2562637362637363
4.140899740999885,0.0,0.017728937728937726,0.2562637362637363
4.144086200998572,0.0,0.017728937728937726,0.2562637362637363
4.146777931000543,0.0,0.005641025641025641,3.1404395604395603
4.151498728999286,0.0,0.005641025641025641,3.1404395604395603
4.151627257000655,0.0,0.005641025641025641,3.1404395604395603
4.156698139999207,0.0,0.005641025641025641,3.1404395604395603
4.16106596499958,0.0,0.0,0.03465201465201465
4.161925837001036,0.0,0.0,0.03465201465201465
4.164689705001365,0.0,0.0,0.03465201465201465
4.168443383001431,0.0,0.0,0.03465201465201465
4.172894049999741,0.0,0.0,0.03465201465201465
4.173145713000849,0.0,0.0,0.03465201465201465
4.1784388330015645,0.0,0.0,0.03465201465201465
4.182251209000242,0.0,0.0,0.03465201465201465
4.188900330998877,0.0,0.0,0.03465201465201465
4.193752653998672,0.0,0.0,0.03465201465201465
4.19980875499823,0.0,0.007252747252747252,0.0024175824175824176
4.2036829339995165,0.0,0.0136996336996337,2.5787545787545785
4.207657468999969,0.0,0.0,1.6052747252747253
4.211679593998269,0.0,0.0,1.6052747252747253
4.214930993999587,0.0,0.0,1.6052747252747253
4.2152175459996215,0.0,0.0,1.6052747252747253
4.222948689999612,0.0,0.0,1.6052747252747253
4.227744152998639,0.0,0.0,1.6052747252747253
4.235521221999079,0.0,0.0,1.6052747252747253
4.241891763998865,0.0,0.0,1.6052747252747253
4.24629153099886,0.0,0.0,1.6052747252747253
4.246515066999564,0.0,0.0,0.6591941391941392
4.251340311999229,0.0,0.0,0.6591941391941392
4.251447640999686,0.0,0.0,0.6591941391941392
4.2568905990010535,0.0,0.0,0.6591941391941392
4.259105321998504,0.0,0.0032234432234432234,0.04673992673992674
4.259249680999346,0.0,0.0032234432234432234,0.04673992673992674
4.265970844000549,0.0,0.0032234432234432234,0.04673992673992674
4.27120472399838,0.0,0.017728937728937726,0.8735531135531135
4.27203690800161,0.0,0.004029304029304029,0.014505494505494505
4.2736037590002525,0.0,0.0024175824175824176,0.03062271062271062
4.282392348999565,0.0,0.0024175824175824176,0.03062271062271062
4.288365084001271,0.0,0.0032234432234432234,2.254798534798535
4.292453162001038,0.0,0.005641025641025641,0.4585347985347985
4.295352782999544,0.0,0.005641025641025641,0.4585347985347985
4.299917197000468,0.0,0.005641025641025641,0.4585347985347985
4.305020774998411,0.0,0.005641025641025641,0.4585347985347985
4.308156795999821,0.0,0.005641025641025641,0.4585347985347985
4.310465878999821,0.0,0.005641025641025641,0.4585347985347985
4.310626503000094,0.0,0.005641025641025641,0.4585347985347985
4.318659709999338,0.0,0.005641025641025641,0.4585347985347985
4.323385940999287,0.0,0.005641025641025641,0.4585347985347985
4.327808280999307,0.0,0.0,2.5787545787545785
4.330967562000296,0.0,0.0,2.5787545787545785
4.332173286999023,0.0,0.0,2.5787545787545785
4.338441469000827,0.0,0.0,2.5787545787545785
4.342327546000888,0.0,0.011282051282051281,0.028205128205128206
4.349344300000666,0.0,0.011282051282051281,0.028205128205128206
4.353152727999259,0.0,0.0032234432234432234,1.8736263736263734
4.357936806998623,0.0,0.0032234432234432234,1.8736263736263734
4.364752018998843,0.0,0.0032234432234432234,1.8736263736263734
4.370821153999714,0.0,0.0032234432234432234,1.8736263736263734
4.374727888000052,0.0,0.008864468864468863,0.037875457875457874
4.38616458999968,0.0,0.008058608058608058,0.02175824175824176
4.3964936650008895,0.0,0.0032234432234432234,0.6857875457875457
4.403327813000942,0.0,0.0032234432234432234,0.6857875457875457
4.40745314599917,0.0,0.0032234432234432234,0.6857875457875457
4.409718383998552,0.0,0.0032234432234432234,0.6857875457875457
4.409903455998574,0.0,0.0032234432234432234,0.6857875457875457
4.418571783000516,0.0,0.0032234432234432234,0.6857875457875457
4.4230853629997,0.0,0.0032234432234432234,0.0136996336996337
4.423885765001614,0.0,0.0024175824175824176,3.2927472527472528
4.425420962001226,0.0,0.0024175824175824176,3.2927472527472528
4.432883077999577,0.0,0.0,0.33684981684981685
4.436859336001362,0.0,0.0,0.33684981684981685
4.440501697998116,0.0,0.0,0.33684981684981685
4.447344404001342,0.0,0.0,0.33684981684981685
4.451774717999797,0.0,0.0,0.33684981684981685
4.4520588320010575,0.0,0.0,0.33684981684981685
4.457350335000228,0.0,0.0,0.33684981684981685
4.46035769199807,0.0,0.0,0.33684981684981685
4.464029386999755,0.0,0.0,0.33684981684981685
4.468751363001502,0.0,0.0,0.33684981684981685
4.4741521360010665,0.0,0.0,0.33684981684981685
4.476348662999953,0.0,0.0,0.33684981684981685
4.476599034998799,0.0,0.0,0.33684981684981685
4.486875580998458,0.0,0.0,0.33684981684981685
4.491398570000456,0.0,0.0,0.33684981684981685
4.491672019998077,0.0,0.0,0.33684981684981685
4.500809166998806,0.0,0.0,0.33684981684981685
4.507469036998373,0.0,0.0024175824175824176,2.565860805860806
4.514004742999532,0.0,0.007252747252747252,1.0742124542124543
4.518599456998345,0.0,0.008864468864468863,0.006446886446886447
4.5260966929999995,0.0,0.008864468864468863,0.006446886446886447
4.534925202999148,0.0,0.008864468864468863,0.006446886446886447
4.5422945780010195,0.0,0.016117216117216115,0.012087912087912087
4.551191768001445,0.0,0.004029304029304029,1.775311355311355
4.558161963999737,0.0,0.004029304029304029,1.775311355311355
4.564991156999895,0.0,0.004029304029304029,1.775311355311355
4.57040348100054,0.0,0.004029304029304029,1.775311355311355
4.570544146001339,0.0,0.004835164835164835,0.16842490842490843
4.575910160001513,0.0,0.004835164835164835,0.16842490842490843
4.580137704000663,0.0,0.004835164835164835,0.16842490842490843
4.582924703001481,0.0,0.004835164835164835,0.16842490842490843
4.585355903000163,0.0,0.004835164835164835,0.16842490842490843
4.590437980998104,0.0,0.004835164835164835,0.16842490842490843
4.594905944999482,0.0,0.004835164835164835,0.16842490842490843
4.597169460001169,0.0,0.004835164835164835,0.16842490842490843
4.5972536810004385,0.0,0.004835164835164835,0.16842490842490843
4.604135310000856,0.0,0.004835164835164835,0.16842490842490843
4.608693203001167,0.0,0.004835164835164835,0.16842490842490843
4.60887180699865,0.0,0.0,0.3336263736263736
4.617792379998718,0.0,0.0,0.3336263736263736
4.622358420998353,0.0,0.0,0.3336263736263736
4.623201497000991,0.0,0.0,0.3336263736263736
4.624900789000094,0.0,0.0,2.3756776556776553
4.630228992999037,0.0,0.0,2.3756776556776553
4.630555682000704,0.0,0.0,2.3756776556776553
4.63846003299841,0.0,0.0,2.3756776556776553
4.642892743999255,0.0,0.0,2.3756776556776553
4.644402926998737,0.0,0.012893772893772894,2.5763369963369964
4.653370071999234,0.0,0.012893772893772894,2.5763369963369964
4.657708833001379,0.0,0.012893772893772894,2.5763369963369964
4.659928836998006,0.0,0.012893772893772894,2.5763369963369964
4.660254252998129,0.0,0.006446886446886447,2.5787545787545785
4.6679352300016035,0.0,0.008864468864468863,2.5755311355311354
4.67343928199989,0.0,0.008864468864468863,2.5755311355311354
4.67363497399856,0.0,0.008864468864468863,2.5755311355311354
4.678977493000275,0.0,0.008864468864468863,2.5755311355311354
4.6826575140003115,0.0,0.008864468864468863,2.5755311355311354
4.688364229001309,0.0,0.008864468864468863,2.5755311355311354
4.6928384189995995,0.0,0.008864468864468863,2.5755311355311354
4.694521983001323,0.0,0.008864468864468863,2.5755311355311354
4.698894981000194,0.0,0.008864468864468863,2.5755311355311354
4.699206140998285,0.0,0.008058608058608058,0.03868131868131868
4.7057493350002915,0.0,0.008058608058608058,0.03868131868131868
4.709461554000882,0.0,0.008058608058608058,0.03868131868131868
4.716636446999473,0.0,0.008058608058608058,0.03868131868131868
4.719723237998551,0.0,0.008058608058608058,0.03868131868131868
4.722268344998156,0.0,0.008058608058608058,0.03868131868131868
4.727991289000784,0.0,0.00967032967032967,3.3
4.728078386000561,0.0,0.00967032967032967,3.3
4.738113288000022,0.0,0.00967032967032967,3.3
4.7458923119993415,0.0,0.00967032967032967,3.3
4.752556219998951,0.0,0.016923076923076923,2.5787545787545785
4.7574293760008,0.0,0.005641025641025641,0.06205128205128205
4.7603651419995,0.0,0.005641025641025641,0.06205128205128205
4.765115883998078,0.0,0.005641025641025641,0.06205128205128205
4.771331849999115,0.0,0.005641025641025641,0.06205128205128205
4.7756806280012825,0.0,0.005641025641025641,0.06205128205128205
4.775971058999858,0.0,0.005641025641025641,0.06205128205128205
4.785557560000598,0.0,0.005641025641025641,0.06205128205128205
4.792333760000474,0.0,0.005641025641025641,0.06205128205128205
4.798474543000339,0.0,0.006446886446886447,0.04351648351648352
4.8032708350001485,0.0,0.006446886446886447,0.04351648351648352
4.8105970329997945,0.0,0.012087912087912087,2.5787545787545785
4.817347416999837,0.0,0.012087912087912087,2.5787545787545785
4.822138471998187,0.0,0.012087912087912087,2.5787545787545785
4.826536663000297,0.0,0.012087912087912087,2.5787545787545785
4.8273501559997385,0.0,0.012087912087912087,2.5787545787545785
4.832014641000569,0.0,0.012087912087912087,2.5787545787545785
4.838737935999234,0.0,0.0032234432234432234,0.033846153846153845
4.844466022001143,0.0,0.0032234432234432234,0.033846153846153845
4.85287236899967,0.0,0.0032234432234432234,0.033846153846153845
4.8572592939999595,0.0,0.0032234432234432234,0.033846153846153845
4.8575161609987845,0.0,0.0032234432234432234,0.008864468864468863
4.866799548999552,0.0,0.010476190476190476,2.5747252747252745
4.873804874001507,0.0,0.010476190476190476,2.5747252747252745
4.877111056001013,0.0,0.006446886446886447,0.10073260073260072
4.87959303399839,0.0,0.006446886446886447,0.10073260073260072
4.885942820001219,0.0,0.006446886446886447,0.10073260073260072
4.889655710001534,0.0,0.006446886446886447,0.10073260073260072
4.895734936999361,0.0,0.006446886446886447,0.10073260073260072
4.901934482000797,0.0,0.006446886446886447,0.10073260073260072
4.905760546000238,0.0,0.006446886446886447,0.10073260073260072
4.91041923100056,0.0,0.006446886446886447,0.10073260073260072
4.9105724379987805,0.0,0.006446886446886447,0.028205128205128206
4.917818869998882,0.0,0.006446886446886447,0.028205128205128206
4.922440262998862,0.0,0.03223443223443223,0.03304029304029304
4.922574377000274,0.0,0.03223443223443223,0.03304029304029304
4.928250177999871,0.0,0.03223443223443223,0.03304029304029304
4.9285084399998595,0.0,0.03223443223443223,0.03304029304029304
4.935092750998592,0.0,0.03223443223443223,0.03304029304029304
4.938841233000858,0.0,0.03223443223443223,0.03304029304029304
4.944050680998771,0.0,0.03223443223443223,0.03304029304029304
4.949463467000896,0.0,0.03223443223443223,0.03304029304029304
4.949654755000665,0.0,0.03223443223443223,0.03304029304029304
4.955408834000991,0.0,0.03223443223443223,0.03304029304029304
4.955621782999515,0.0,0.0,0.06285714285714286
4.9617014010000275,0.0,0.0,0.06285714285714286
4.967991384000925,0.0,0.0,0.06285714285714286
4.971917730999849,0.0,0.0,0.7776556776556776
4.9755962419985735,0.0,0.0,0.7776556776556776
4.982379905999551,0.0,0.0,0.7776556776556776
4.987319130999822,0.0,0.0,0.7776556776556776
4.992867767999996,0.0,0.0,0.7776556776556776
4.99306247200002,0.0,0.0016117216117216117,0.0
5.000723934001144,0.0,0.0,0.04271062271062271
5.005282112000714,0.0,0.0,0.04271062271062271
5.005511742001545,0.0,0.0,0.04271062271062271
5.010725995998655,0.0,0.0,0.04271062271062271
5.014829667998129,0.0,0.0032234432234432234,0.0
5.015117137998459,0.0,0.0032234432234432234,0.0
5.021310979998816,0.0,0.0032234432234432234,0.0
5.025487753999187,0.0,0.0032234432234432234,0.0
5.028174464998301,0.0,0.007252747252747252,0.4899633699633699
5.0350955270005215,0.0,0.004029304029304029,0.22725274725274724
5.039507591998699,0.0,0.004029304029304029,0.22725274725274724
5.041152054000122,0.0,0.004029304029304029,0.22725274725274724
5.045082201999321,0.0,0.004029304029304029,0.22725274725274724
5.051747162000538,0.0,0.004029304029304029,0.22725274725274724
5.055579451000085,0.0,0.0,0.22644688644688646
5.0598807470014435,0.0,0.0,0.22644688644688646
5.0622385520000535,0.0,0.0,0.22644688644688646
5.062361363998207,0.0,0.00967032967032967,2.5642490842490844
5.067234777001431,0.0,0.006446886446886447,3.1904029304029304
5.0715316550013085,0.0,0.0,0.14344322344322344
5.073743328001001,0.0,0.0,0.14344322344322344
5.075135888000659,0.0,0.0,0.14344322344322344
5.0794601300003706,0.0,0.0,0.14344322344322344
5.080927398998028,0.0,0.0,0.14344322344322344
5.0856189929982065,0.0,0.0,0.14344322344322344
5.085763904000487,0.0,0.0032234432234432234,3.3
5.090563714999007,0.0,0.0032234432234432234,3.3
5.090760800998396,0.0,0.0032234432234432234,3.3
5.095460054999421,0.0,0.0032234432234432234,3.3
5.0956236839992926,0.0,0.0032234432234432234,3.3
5.100460524001392,0.0,0.0032234432234432234,3.3
5.105501543999708,0.0,0.0032234432234432234,3.3
5.112343798999063,0.0,0.0032234432234432234,3.3
5.117874774001393,0.0,0.0032234432234432234,3.3
5.127828231001331,0.0,0.0032234432234432234,3.3
5.137852120999014,0.0,0.004029304029304029,1.796263736263736
5.147522924999066,0.0,0.004029304029304029,1.796263736263736
5.15367689499908,0.0,0.012893772893772894,2.54974358974359
5.157644151000568,0.0,0.006446886446886447,0.03304029304029304
5.16292416700162,0.0,0.006446886446886447,0.03304029304029304
5.163842415000545,0.0,0.006446886446886447,0.03304029304029304
5.1656134969998675,0.0,0.012893772893772894,3.3
5.168605506998574,0.0,0.012893772893772894,3.3
5.171577208999224,0.0,0.012893772893772894,3.3
5.173922031000984,0.0,0.00967032967032967,0.0419047619047619
5.1741107259986165,0.0,0.00967032967032967,0.0419047619047619
5.179121553999721,0.0,0.00967032967032967,0.0419047619047619
5.182669260000694,0.0,0.00967032967032967,0.0419047619047619
5.182760438001424,0.0,0.00967032967032967,0.0419047619047619
5.187803509001242,0.0,0.00967032967032967,0.0419047619047619
5.192096191000019,0.0,0.00967032967032967,0.0419047619047619
5.193582068000978,0.0,0.004029304029304029,0.06446886446886446
5.197906564000732,0.0,0.004029304029304029,0.06446886446886446
5.198765905999608,0.0,0.004029304029304029,0.06446886446886446
5.200321344000258,0.0,0.004029304029304029,0.06446886446886446
5.204707853998116,0.0,0.004029304029304029,0.06446886446886446
5.206210723998083,0.0,0.00967032967032967,2.548937728937729
5.211239077998471,0.0,0.00967032967032967,2.548937728937729
5.214351885999349,0.0,0.00967032967032967,2.548937728937729
5.216609143000824,0.0,0.00967032967032967,2.548937728937729
5.2168339929994545,0.0,0.011282051282051281,0.012893772893772894
5.222122418999788,0.0,0.011282051282051281,0.012893772893772894
5.22527478900156,0.0,0.0032234432234432234,2.5755311355311354
5.226121578998573,0.0,0.0032234432234432234,2.5755311355311354
5.227820733998669,0.0,0.0032234432234432234,2.5755311355311354
5.231664173999889,0.0,0.0032234432234432234,2.5755311355311354
5.236154131998774,0.0,0.0032234432234432234,2.5755311355311354
5.2369971810003335,0.0,0.0,0.0
5.238695419000578,0.0,0.0,0.0
5.2415698199984035,0.0,0.0,0.0
5.243944431000273,0.0,0.0,0.0
5.244028896999225,0.0,0.005641025641025641,2.5521611721611723
5.249570094998489,0.0,0.005641025641025641,2.5521611721611723
5.2503763169988815,0.0,0.005641025641025641,2.5521611721611723
5.251923214000271,0.0,0.005641025641025641,2.5521611721611723
5.256235540000489,0.0,0.005641025641025641,2.5521611721611723
5.257897095998487,0.0,0.005641025641025641,2.5521611721611723
5.2625098940006865,0.0,0.005641025641025641,2.5521611721611723
5.268345019001572,0.0,0.011282051282051281,3.3
5.273729851000098,0.0,0.011282051282051281,3.3
5.276043171998026,0.0,0.01531135531135531,0.017728937728937726
5.276286625998182,0.0,0.01531135531135531,0.017728937728937726
5.281643933998566,0.0,0.01531135531135531,0.017728937728937726
5.283922917999007,0.0,0.01531135531135531,0.017728937728937726
5.2842465239991725,0.0,0.01531135531135531,0.017728937728937726
5.289008812000247,0.0,0.01531135531135531,0.017728937728937726
5.289146060000348,0.0,0.011282051282051281,0.3586080586080586
5.2936364080014755,0.0,0.011282051282051281,0.3586080586080586
5.294484302001365,0.0,0.011282051282051281,0.3586080586080586
5.295999859001313,0.0,0.011282051282051281,0.3586080586080586
5.300485166000726,0.0,0.011282051282051281,0.3586080586080586
5.300767913999152,0.0,0.011282051282051281,0.3586080586080586
5.305911069001013,0.0,0.011282051282051281,0.3586080586080586
5.308802528001252,0.0,0.011282051282051281,0.3586080586080586
5.3118607770011295,0.0,0.011282051282051281,0.3586080586080586
5.313441018999583,0.0,0.011282051282051281,0.3586080586080586
5.3221422390015505,0.0,0.011282051282051281,0.3586080586080586
5.325870772998314,0.0,0.007252747252747252,0.010476190476190476
5.331099951999931,0.0,0.007252747252747252,0.010476190476190476
5.334826502999931,0.0,0.007252747252747252,0.010476190476190476
5.340001287000632,0.0,0.007252747252747252,0.010476190476190476
5.342244684001344,0.0,0.007252747252747252,0.010476190476190476
5.342415790000814,0.0,0.007252747252747252,0.010476190476190476
5.34759676899921,0.0,0.0,2.5642490842490844
5.350584920000983,0.0,0.0,2.5642490842490844
5.3535388720010815,0.0,0.0,2.5642490842490844
5.356468428999506,0.0,0.0,2.5642490842490844
5.360255911000422,0.0,0.0,2.5642490842490844
5.364837788998557,0.0,0.0,2.5642490842490844
5.365229350998561,0.0,0.0,2.5787545787545785
5.369148896999832,0.0,0.0,2.5787545787545785
5.375799350000307,0.0,0.0,2.5787545787545785
5.379296793998947,0.0,0.0,2.5787545787545785
5.3794849869991594,0.0,0.0008058608058608059,2.5755311355311354
5.388333340000827,0.0,0.0008058608058608059,2.5755311355311354
5.393157924001571,0.0,0.0,2.8366300366300368
5.399158183001418,0.0,0.006446886446886447,0.007252747252747252
5.404343517999223,0.0,0.006446886446886447,0.007252747252747252
5.405194748000213,0.0,0.006446886446886447,0.007252747252747252
5.406761148999067,0.0,0.006446886446886447,0.007252747252747252
5.410624855001515,0.0,0.006446886446886447,0.007252747252747252
5.417974473999493,0.0,0.006446886446886447,0.007252747252747252
5.424759803998313,0.0,0.0,2.5755311355311354
5.431549878998339,0.0,0.0,0.8268131868131867
5.435701729998982,0.0,0.0,0.8268131868131867
5.4382727480006,0.0,0.0,0.8268131868131867
5.448830381999869,0.0,0.0,0.8268131868131867
5.455468814001506,0.0,0.0,0.8268131868131867
5.460764914998435,0.0,0.0,0.8268131868131867
5.464448335998895,0.0,0.0,0.8268131868131867
5.4677265739992436,0.0,0.0,0.8268131868131867
5.467992377998598,0.0,0.0,0.8268131868131867
5.473149181998451,0.0,0.0,0.8268131868131867
5.476728289999301,0.0,0.0,0.8268131868131867
5.476819602001342,0.0,0.0,0.8268131868131867
5.484471326999483,0.0,0.0,0.8268131868131867
5.488110821999726,0.0,0.0008058608058608059,3.3
5.488219303999358,0.0,0.0008058608058608059,3.3
5.493426734999957,0.0,0.0008058608058608059,3.3
5.498761085000297,0.0,0.0008058608058608059,3.3
5.499050973998237,0.0,0.0008058608058608059,3.3
5.504351871000836,0.0,0.0008058608058608059,3.3
5.505139173001226,0.0,0.0,3.0074725274725274
5.507415654999932,0.0,0.0,3.0074725274725274
5.507692825998674,0.0,0.0,3.0074725274725274
5.515467877998162,0.0,0.0,3.0074725274725274
5.521858461001102,0.0,0.0,3.0074725274725274
5.52608190400133,0.0,0.0,3.0074725274725274
5.526941815998725,0.0,0.0,3.0074725274725274
5.532546905000345,0.0,0.0,3.0074725274725274
5.538548906999495,0.0,0.0,3.0074725274725274
5.544340762000502,0.0,0.008864468864468863,2.577142857142857
5.551785707000818,0.0,0.0,3.3
5.557353724998393,0.0,0.0,3.3
5.557538883000234,0.0,0.0,3.3
5.5669228920014575,0.0,0.0,3.3
5.573631830000522,0.0,0.004835164835164835,2.5787545787545785
5.5766312970008585,0.0,0.004835164835164835,2.5787545787545785
5.581480476001161,0.0,0.004835164835164835,2.5787545787545785
5.587336584998411,0.0,0.004835164835164835,2.5787545787545785
5.591694912000094,0.0,0.004835164835164835,2.5787545787545785
5.593285767001362,0.0,0.0008058608058608059,0.0693040293040293
5.599905398001283,0.0,0.0008058608058608059,0.0693040293040293
5.602930845998344,0.0,0.0008058608058608059,2.561025641025641
5.605252164001286,0.0,0.0008058608058608059,2.561025641025641
5.605372376998275,0.0,0.0008058608058608059,2.561025641025641
5.609830075998616,0.0,0.0008058608058608059,2.561025641025641
5.610987561998627,0.0,0.0008058608058608059,2.561025641025641
5.6114296589985315,0.0,0.0008058608058608059,2.561025641025641
5.617969962000643,0.0,0.0008058608058608059,2.561025641025641
5.621875272998295,0.0,0.0008058608058608059,2.561025641025641
5.625683425998432,0.0,0.0008058608058608059,2.561025641025641
5.632892656998592,0.0,0.0008058608058608059,2.561025641025641
5.63603449799848,0.0,0.010476190476190476,0.051575091575091575
5.637579508998897,0.0,0.010476190476190476,0.051575091575091575
5.641587056998105,0.0,0.010476190476190476,0.051575091575091575
5.645754327000759,0.0,0.010476190476190476,0.051575091575091575
5.649114040999848,0.0,0.010476190476190476,0.051575091575091575
5.649317508999957,0.0,0.010476190476190476,0.051575091575091575
5.655277146001026,0.0,0.010476190476190476,0.051575091575091575
5.659253054000146,0.0,0.0032234432234432234,0.01934065934065934
5.663492920000863,0.0,0.0024175824175824176,2.5787545787545785
5.663859174001118,0.0,0.0024175824175824176,2.5787545787545785
5.6688395390010555,0.0,0.0024175824175824176,2.5787545787545785
5.672434092000913,0.0,0.0024175824175824176,2.5787545787545785
5.679625133001537,0.0,0.0016117216117216117,0.0273992673992674
5.685676927998429,0.0,0.0,2.5763369963369964
5.68863750699893,0.0,0.0,2.5763369963369964
5.6917202539989376,0.0,0.0,2.5763369963369964
5.695528011001443,0.0,0.0016117216117216117,0.0556043956043956
5.69999773499876,0.0,0.0016117216117216117,0.03142857142857143
5.700943587999063,0.0,0.0016117216117216117,0.03142857142857143
5.701766596001107,0.0,0.0016117216117216117,0.03142857142857143
5.703969199999847,0.0,0.0016117216117216117,0.03142857142857143
5.7042233079992,0.0,0.0016117216117216117,0.03142857142857143
5.709774431001279,0.0,0.0016117216117216117,0.03142857142857143
5.711487058000785,0.0,0.0016117216117216117,0.03142857142857143
5.71513385399885,0.0,0.0016117216117216117,0.03142857142857143
5.721152964000794,0.0,0.0016117216117216117,0.03142857142857143
5.72545408500082,0.0,0.012087912087912087,2.5787545787545785
5.7271891870004765,0.0,0.012087912087912087,2.5787545787545785
5.734007590999681,0.0,0.012087912087912087,2.5787545787545785
5.737154784001177,0.0,0.012087912087912087,2.5787545787545785
5.7394763299998885,0.0,0.012087912087912087,2.5787545787545785
5.739624687998003,0.0,0.012087912087912087,2.5787545787545785
5.7467490150011145,0.0,0.012087912087912087,2.5787545787545785
5.751309761999437,0.0,0.012087912087912087,2.5787545787545785
5.75146951699935,0.0,0.0,0.020146520146520144
5.756702183000016,0.0,0.0,0.020146520146520144
5.7589376290015935,0.0,0.0,0.020146520146520144
5.759076517999347,0.0,0.0,0.020146520146520144
5.766544258000067,0.0,0.0,0.020146520146520144
5.770454241999687,0.0,0.0,0.020146520146520144
5.774330910000572,0.0,0.0,0.020146520146520144
5.77951801800009,0.0,0.0,0.020146520146520144
5.783357617998263,0.0,0.0,2.581172161172161
5.788660509999318,0.0,0.0016117216117216117,2.577142857142857
5.788975767998636,0.0,0.0016117216117216117,2.577142857142857
5.796352492001461,0.0,0.0016117216117216117,2.577142857142857
5.799751163998735,0.0,0.016117216117216115,0.017728937728937726
5.80002794399843,0.0,0.011282051282051281,2.5763369963369964
5.807238418001361,0.0,0.011282051282051281,2.5763369963369964
5.811790921998181,0.0,0.011282051282051281,2.5763369963369964
5.812104058000841,0.0,0.011282051282051281,2.5763369963369964
5.818349118999322,0.0,0.011282051282051281,2.5763369963369964
5.822030982999422,0.0,0.011282051282051281,2.5763369963369964
5.822224497998832,0.0,0.011282051282051281,2.5763369963369964
5.828807034999045,0.0,0.011282051282051281,2.5763369963369964
5.832827362999524,0.0,0.011282051282051281,2.5763369963369964
5.835252640998078,0.0,0.011282051282051281,2.5763369963369964
5.840591882999433,0.0,0.011282051282051281,2.5763369963369964
5.843151316999865,0.0,0.011282051282051281,2.5763369963369964
5.850993670999742,0.0,0.011282051282051281,2.5763369963369964
5.856337878998602,0.0,0.0,0.42710622710622714
5.858925207998254,0.0,0.0,0.42710622710622714
5.86731015300029,0.0,0.004029304029304029,2.5763369963369964
5.871625487001438,0.0,0.0,2.569084249084249
5.8725134859996615,0.0,0.012087912087912087,0.06043956043956044
5.874882232001255,0.0,0.012087912087912087,0.06043956043956044
5.875062332001107,0.0,0.012087912087912087,0.06043956043956044
5.883574621999287,0.0,0.012087912087912087,0.06043956043956044
5.8882509719987866,0.0,0.0,2.5755311355311354
5.888344675000553,0.0,0.0,2.5755311355311354
5.893737479000265,0.0,0.014505494505494505,0.13296703296703297
5.897587012001168,0.0,0.014505494505494505,0.13296703296703297
5.901195310998446,0.0,0.014505494505494505,0.13296703296703297
5.901326825998694,0.0,0.014505494505494505,2.577948717948718
5.906876454999292,0.0,0.014505494505494505,2.577948717948718
5.907682368000678,0.0,0.0,1.3812454212454213
5.909922784998344,0.0,0.0,1.3812454212454213
5.910138414001267,0.0,0.008864468864468863,0.03706959706959707
5.918191556000238,0.0,0.008864468864468863,0.03706959706959707
5.9231224180002755,0.0,0.008864468864468863,0.03706959706959707
5.928274150999641,0.0,0.008864468864468863,0.03706959706959707
5.932541099999071,0.0,0.006446886446886447,0.3312087912087912
5.932847354000842,0.0,0.006446886446886447,0.3312087912087912
5.938178085998516,0.0,0.006446886446886447,0.3312087912087912
5.939158960998611,0.0,0.004835164835164835,2.5787545787545785
5.940035216000979,0.0,0.004835164835164835,2.5787545787545785
5.9420406659992295,0.0,0.004835164835164835,2.5787545787545785
5.942886851000367,0.0,0.004835164835164835,2.5787545787545785
5.944689141000708,0.0,0.004835164835164835,2.5787545787545785
5.950708427000791,0.0,0.004835164835164835,2.5787545787545785
5.954649892999441,0.0,0.012893772893772894,0.664029304029304
5.957774427999539,0.0,0.012893772893772894,0.664029304029304
5.959378698000364,0.0,0.012893772893772894,0.664029304029304
5.966303037999751,0.0,0.008864468864468863,2.581978021978022
5.9710272470001655,0.0,0.008864468864468863,2.581978021978022
5.976859202000924,0.0,0.0032234432234432234,0.12893772893772892
5.977109535000636,0.0,0.0032234432234432234,0.12893772893772892
5.985361581999314,0.0,0.0032234432234432234,0.12893772893772892
5.989993505998427,0.0,0.0008058608058608059,3.3
5.990320265998889,0.0,0.011282051282051281,0.05641025641025641
5.994290146998537,0.0,0.011282051282051281,0.05641025641025641
5.9987824780000665,0.0,0.0016117216117216117,0.04271062271062271
5.998960780998459,0.0,0.008864468864468863,2.56989010989011
6.003844274000585,0.0,0.008864468864468863,2.56989010989011
6.008306838000863,0.0,0.008864468864468863,2.56989010989011
6.0090842220015475,0.0,0.0016117216117216117,0.1789010989010989
6.010761713001557,0.0,0.0016117216117216117,0.1789010989010989
6.016871477000677,0.0,0.0016117216117216117,0.1789010989010989
6.020179711998935,0.0,0.0016117216117216117,0.1789010989010989
6.021744049998233,0.0,0.0016117216117216117,0.1789010989010989
6.024623471999803,0.0,0.0016117216117216117,0.1789010989010989
6.028181249999761,0.0,0.0,3.3
6.028493916001025,0.0,0.0,3.3
6.035878503000276,0.0,0.0,3.3
6.040355752000323,0.0,0.0,3.3
6.041190132000338,0.0,0.0,3.3
6.043025259998103,0.0,0.0,3.3
6.046394396998949,0.0,0.0,3.3
6.053973966998456,0.0,0.0,3.3
6.059336677000829,0.0,0.0024175824175824176,0.00967032967032967
6.062022711997997,0.0,0.008864468864468863,0.95010989010989
6.066511777000414,0.0,0.0016117216117216117,3.3
6.06661014799829,0.0,0.0016117216117216117,3.3
6.072955011000886,0.0,0.0016117216117216117,3.3
6.076631421001366,0.0,0.0016117216117216117,3.3
6.084026800999709,0.0,0.0016117216117216117,3.3
6.088429780000297,0.0,0.0016117216117216117,3.3
6.089232083999377,0.0,0.0024175824175824176,0.23047619047619047
6.091546913998172,0.0,0.0024175824175824176,0.23047619047619047
6.091677688000345,0.0,0.0024175824175824176,0.23047619047619047
6.099824644999899,0.0,0.0024175824175824176,0.23047619047619047
6.105186802000389,0.0,0.014505494505494505,2.577948717948718
6.106756934001169,0.0,0.014505494505494505,2.577948717948718
6.112100837999606,0.0,0.014505494505494505,2.577948717948718
6.115454975999455,0.0,0.007252747252747252,0.06366300366300366
6.115556483000546,0.0,0.007252747252747252,0.06366300366300366
6.120689323000988,0.0,0.007252747252747252,0.06366300366300366
6.124377393000032,0.0,0.007252747252747252,0.06366300366300366
6.124509016000957,0.0,0.007252747252747252,0.06366300366300366
6.132056528000248,0.0,0.007252747252747252,0.06366300366300366
6.1356564480011,0.0,0.007252747252747252,0.06366300366300366
6.135756339001091,0.0,0.007252747252747252,0.06366300366300366
6.140922407001199,0.0,0.007252747252747252,0.06366300366300366
6.143226660999062,0.0,0.007252747252747252,0.06366300366300366
6.143360123998718,0.0,0.007252747252747252,0.06366300366300366
6.151091978998011,0.0,0.007252747252747252,0.06366300366300366
6.15570777999892,0.0,0.007252747252747252,0.06366300366300366
6.155956167000113,0.0,0.007252747252747252,0.06366300366300366
6.161542729998473,0.0,0.007252747252747252,0.06366300366300366
6.161871782998787,0.0,0.007252747252747252,0.06366300366300366
6.169682053998258,0.0,0.007252747252747252,0.06366300366300366
6.175026807999529,0.0,0.007252747252747252,0.06366300366300366
6.178770711001562,0.0,0.017728937728937726,0.020146520146520144
6.18326610800068,0.0,0.017728937728937726,0.020146520146520144
6.183476494999923,0.0,0.017728937728937726,0.020146520146520144
6.18865765100054,0.0,0.017728937728937726,0.020146520146520144
6.1930529400015075,0.0,0.004835164835164835,0.5737728937728938
6.1945207659991866,0.0,0.008864468864468863,0.07494505494505493
6.198401442001341,0.0,0.008864468864468863,0.07494505494505493
6.202907572998811,0.0,0.008864468864468863,0.012893772893772894
6.2046303220013215,0.0,0.0024175824175824176,2.552967032967033
6.207820905001427,0.0,0.0024175824175824176,2.552967032967033
6.2093020799984515,0.0,0.0,0.5995604395604395
6.213594664000993,0.0,0.0,0.5995604395604395
6.215081744998315,0.0,0.0,0.5995604395604395
6.219354722998105,0.0,0.0,0.5995604395604395
6.2208274789991265,0.0,0.0,0.5995604395604395
6.2258722279984795,0.0,0.0,0.5995604395604395
6.2296587849996286,0.0,0.0,0.5995604395604395
6.233274217000144,0.0,0.0,0.5995604395604395
6.2403350319982565,0.0,0.0,0.5995604395604395
6.244303687999491,0.0,0.0,2.5763369963369964
6.248915181000484,0.0,0.006446886446886447,2.8704761904761904
6.249070625999593,0.0,0.006446886446886447,2.8704761904761904
6.25510988699898,0.0,0.006446886446886447,2.8704761904761904
6.258835528999043,0.0,0.004029304029304029,0.07413919413919413
6.2669993650015385,0.0,0.004029304029304029,0.07413919413919413
6.272583988000406,0.0,0.004029304029304029,0.07413919413919413
6.273405052001181,0.0,0.0,0.05641025641025641
6.275075637000555,0.0,0.007252747252747252,0.04351648351648352
6.279305146999832,0.0,0.007252747252747252,0.04351648351648352
6.281491705998633,0.0,0.007252747252747252,0.04351648351648352
6.281722231000458,0.0,0.007252747252747252,0.04351648351648352
6.286886641999445,0.0,0.007252747252747252,0.04351648351648352
6.29129780799849,0.0,0.0016117216117216117,1.585934065934066
6.2915681330014195,0.0,0.006446886446886447,0.1523076923076923
6.297985090001021,0.0,0.006446886446886447,0.1523076923076923
6.301674520000233,0.0,0.007252747252747252,2.5763369963369964
6.306786858000123,0.0,0.008058608058608058,2.577948717948718
6.310841888000141,0.0,0.008058608058608058,2.577948717948718
6.31428399500146,0.0,0.008058608058608058,2.577948717948718
6.319612545001291,0.0,0.008058608058608058,2.577948717948718
6.32240820700099,0.0,0.007252747252747252,2.5795604395604395
6.32526569699985,0.0,0.0032234432234432234,2.5787545787545785
6.328712670998357,0.0,0.0032234432234432234,2.5787545787545785
6.328961963998154,0.0,0.0032234432234432234,2.5787545787545785
6.333767935000651,0.0,0.0032234432234432234,2.5787545787545785
6.338628172001336,0.0,0.007252747252747252,0.017728937728937726
6.343504129999928,0.0,0.007252747252747252,0.017728937728937726
6.3484198299993295,0.0,0.007252747252747252,0.017728937728937726
6.352482496000448,0.0,0.0032234432234432234,0.3908424908424908
6.355254663998494,0.0,0.0032234432234432234,0.3908424908424908
6.3594239550002385,0.0,0.00967032967032967,0.07252747252747253
6.362246559001505,0.0,0.0,2.577948717948718
6.365686914999969,0.0,0.0,2.5594139194139194
6.366418325000268,0.0,0.0,2.5594139194139194
6.367931377000787,0.0,0.0,2.5594139194139194
6.372095605998766,0.0,0.0,2.5594139194139194
6.374835889000678,0.0,0.0,2.5594139194139194
6.379050927000208,0.0,0.0,2.5594139194139194
6.381176784001582,0.0,0.0,2.5594139194139194
6.382609145999595,0.0,0.0,2.5594139194139194
6.387970769999811,0.0,0.0,2.5594139194139194
6.390576384001179,0.0,0.0,2.5594139194139194
6.395113055998081,0.0,0.0,2.5594139194139194
6.39540380499966,0.0,0.0,2.5594139194139194
6.4000591639996856,0.0,0.0,2.5594139194139194
6.400326789000246,0.0,0.0,2.5594139194139194
6.405472964001092,0.0,0.0,2.5594139194139194
6.409353194001596,0.0,0.0,1.1725274725274726
6.413183283999388,0.0,0.0,1.1725274725274726
6.416916705999029,0.0,0.006446886446886447,0.0
6.421510233998561,0.0,0.006446886446886447,0.0
6.42180252199978,0.0,0.006446886446886447,0.0
6.427074630999414,0.0,0.006446886446886447,0.0
6.428628394998668,0.0,0.006446886446886447,0.0
6.4330277549997845,0.0,0.006446886446886447,0.0
6.433301175999077,0.0,0.006446886446886447,0.0
6.438135256998066,0.0,0.006446886446886447,0.0
6.442297306999535,0.0,0.006446886446886447,0.0
6.4444710079988,0.0,0.006446886446886447,0.0
6.444815160000871,0.0,0.006446886446886447,0.0
6.449602085998777,0.0,0.006446886446886447,0.0
6.4497538290015655,0.0,0.006446886446886447,0.0
6.454717362998053,0.0,0.006446886446886447,0.0
6.4600273100004415,0.0,0.006446886446886447,0.0
6.461564391000138,0.0,0.006446886446886447,0.0
6.465898459999153,0.0,0.0016117216117216117,2.5747252747252745
6.469139744000131,0.0,0.0016117216117216117,2.5747252747252745
6.4699432060006075,0.0,0.0016117216117216117,2.5747252747252745
6.471746676998009,0.0,0.0016117216117216117,2.5747252747252745
6.474895716000901,0.0,0.0016117216117216117,2.5747252747252745
6.476464175000729,0.0,0.0016117216117216117,2.5747252747252745
6.4804632929990476,0.0,0.0016117216117216117,2.5747252747252745
6.483508689998416,0.0,0.0016117216117216117,2.5747252747252745
6.485322950000409,0.0,0.0016117216117216117,2.5747252747252745
6.488389792000817,0.0,0.0016117216117216117,2.5747252747252745
6.489986984001007,0.0,0.0032234432234432234,0.40615384615384614
6.494570319999184,0.0,0.0032234432234432234,0.40615384615384614
6.494928688000073,0.0,0.0032234432234432234,0.40615384615384614
6.500201663999178,0.0,0.0032234432234432234,0.40615384615384614
6.50241433300107,0.0,0.0032234432234432234,0.40615384615384614
6.502665740998054,0.0,0.0032234432234432234,0.40615384615384614
6.508023375998164,0.0,0.0032234432234432234,0.40615384615384614
6.511189837001439,0.0,0.0032234432234432234,0.40615384615384614
6.512713803000224,0.0,0.0032234432234432234,0.40615384615384614
6.516629606998322,0.0,0.0032234432234432234,0.40615384615384614
6.520580938999046,0.0,0.0032234432234432234,0.40615384615384614
6.524425555999187,0.0,0.0032234432234432234,0.40615384615384614
6.529087931001413,0.0,0.0024175824175824176,2.552967032967033
6.5345523489995685,0.0,0.012893772893772894,0.21194139194139192
6.53534246900017,0.0,0.0032234432234432234,0.04029304029304029
6.537604419001582,0.0,0.0032234432234432234,0.04029304029304029
6.537811726000655,0.0,0.0032234432234432234,0.04029304029304029
6.543118607998622,0.0,0.0032234432234432234,0.04029304029304029
6.545367589998932,0.0,0.0032234432234432234,0.04029304029304029
6.545505217000027,0.0,0.0032234432234432234,0.04029304029304029
6.550855314999353,0.0,0.0032234432234432234,0.04029304029304029
6.553238578999299,0.0,0.0,0.07252747252747253
6.558681043999968,0.0,0.0016117216117216117,0.005641025641025641
6.559565408999333,0.0,0.0032234432234432234,2.5505494505494504
6.560491814998386,0.0,0.0032234432234432234,2.5505494505494504
6.562039477001235,0.0,0.0032234432234432234,2.5505494505494504
6.566277859998081,0.0,0.0032234432234432234,2.5505494505494504
6.567748461999145,0.0,0.0032234432234432234,2.5505494505494504
6.572576800001116,0.0,0.0032234432234432234,2.5505494505494504
6.577354189001198,0.0,0.016923076923076923,0.04351648351648352
6.577418608001608,0.0,0.016923076923076923,0.04351648351648352
6.58224798199808,0.0,0.016923076923076923,0.04351648351648352
6.586412769000162,0.0,0.016923076923076923,0.04351648351648352
6.588582127998961,0.0,0.010476190476190476,0.5536263736263736
6.589975377999508,0.0,0.010476190476190476,0.5536263736263736
6.5952701729984256,0.0,0.010476190476190476,0.5536263736263736
6.598229275998165,0.0,0.004835164835164835,0.008864468864468863
6.600466099000187,0.0,0.008864468864468863,2.573113553113553
6.600768557000265,0.0,0.008864468864468863,2.573113553113553
6.6061139429984905,0.0,0.008864468864468863,2.573113553113553
6.607648098000936,0.0,0.008864468864468863,2.573113553113553
6.612095174001297,0.0,0.008864468864468863,2.573113553113553
6.61367942400102,0.0,0.006446886446886447,0.09670329670329669
6.617334188998939,0.0,0.006446886446886447,0.09670329670329669
6.622583987998951,0.0,0.006446886446886447,0.09670329670329669
6.625653433999105,0.0,0.006446886446886447,0.09670329670329669
6.62796701499974,0.0,0.0,1.0943589743589743
6.628217829998903,0.0,0.0,1.0943589743589743
6.633432932001597,0.0,0.0,1.0943589743589743
6.635784936999698,0.0,0.0,1.0943589743589743
6.636017848999472,0.0,0.0,1.0943589743589743
6.641159470000275,0.0,0.0,1.0943589743589743
6.644828327000141,0.0,0.0,1.0943589743589743
6.650331183998787,0.0,0.0032234432234432234,2.557802197802198
6.651139008998143,0.0,0.004835164835164835,0.01531135531135531
6.6533586449986615,0.0,0.004835164835164835,0.01531135531135531
6.65414364499884,0.0,0.004835164835164835,0.01531135531135531
6.656431123999937,0.0,0.004835164835164835,0.01531135531135531
6.656621867998183,0.0,0.004835164835164835,0.01531135531135531
6.661874770001305,0.0,0.004835164835164835,0.01531135531135531
6.664915836001455,0.0,0.0,2.573919413919414
6.66724802400131,0.0,0.0,2.573919413919414
6.667376864999824,0.0,0.0,2.573919413919414
6.672570626000379,0.0,0.017728937728937726,0.27802197802197803
6.675519836000603,0.0,0.017728937728937726,0.27802197802197803
6.677909078000084,0.0,0.017728937728937726,0.27802197802197803
6.6780364269980055,0.0,0.0024175824175824176,2.5755311355311354
6.683371998999064,0.0,0.0032234432234432234,2.556996336996337
6.685597454001254,0.0,0.0032234432234432234,2.556996336996337
6.685883867001394,0.0,0.0032234432234432234,2.556996336996337
6.691333596998447,0.0,0.0032234432234432234,2.556996336996337
6.6922943760000635,0.0,0.0032234432234432234,2.556996336996337
6.6931464379995305,0.0,0.0032234432234432234,2.556996336996337
6.695377432999521,0.0,0.0032234432234432234,2.556996336996337
6.695578579001449,0.0,0.006446886446886447,0.004029304029304029
6.701142876998347,0.0,0.006446886446886447,0.004029304029304029
6.701987342999928,0.0,0.006446886446886447,0.004029304029304029
6.703642108001077,0.0,0.006446886446886447,0.004029304029304029
6.707614899998589,0.0,0.006446886446886447,0.004029304029304029
6.711357960000896,0.0,0.006446886446886447,0.004029304029304029
6.715961943998991,0.0,0.006446886446886447,0.004029304029304029
6.721208852999553,0.0,0.006446886446886447,0.004029304029304029
6.724149110999861,0.0,0.006446886446886447,0.004029304029304029
6.727092697001353,0.0,0.006446886446886447,0.004029304029304029
6.729439015998651,0.0,0.006446886446886447,0.004029304029304029
6.7296342000008735,0.0,0.006446886446886447,0.004029304029304029
6.734889570998348,0.0,0.006446886446886447,0.004029304029304029
6.738157504998526,0.0,0.0008058608058608059,0.03545787545787545
6.739644073000818,0.0,0.0008058608058608059,0.03545787545787545
6.744333219001419,0.0,0.0008058608058608059,0.03545787545787545
6.744449057001475,0.0,0.0,2.5755311355311354
6.7500232470010815,0.0,0.0,2.5755311355311354
6.7515939619988785,0.0,0.0,2.5755311355311354
6.755994595001539,0.0,0.0,2.5755311355311354
6.75751328700062,0.0,0.0,2.5755311355311354
6.76123376599935,0.0,0.0,2.5755311355311354
6.76135122100095,0.0,0.0,2.5755311355311354
6.766599440998107,0.0,0.0,2.5755311355311354
6.769539392000297,0.0,0.0,2.5755311355311354
6.771806493998156,0.0,0.0,2.5755311355311354
6.772099518999312,0.0,0.0,2.5755311355311354
6.777305005998642,0.0,0.0,2.5755311355311354
6.779591924001579,0.0,0.0,2.5755311355311354
6.779819624000083,0.0,0.0,2.5755311355311354
6.785167944999557,0.0,0.0,2.5755311355311354
6.787647236000339,0.0,0.0,2.5755311355311354
6.79220895799881,0.0,0.012893772893772894,0.20307692307692307
6.792376099998364,0.0,0.012893772893772894,0.20307692307692307
6.797836295998422,0.0,0.012893772893772894,0.20307692307692307
6.7986243900013505,0.0,0.012893772893772894,0.20307692307692307
6.800163760999567,0.0,0.0016117216117216117,2.581172161172161
6.805165103000036,0.0,0.0016117216117216117,2.581172161172161
6.808842518999882,0.0,0.014505494505494505,1.0452014652014652
6.813971714000218,0.0,0.014505494505494505,1.0452014652014652
6.817412008000247,0.0,0.014505494505494505,1.0452014652014652
6.817618403998495,0.0,0.0032234432234432234,0.0136996336996337
6.822462787000404,0.0,0.0032234432234432234,0.0136996336996337
6.8273773479995725,0.0,0.0032234432234432234,0.0136996336996337
6.831420018999779,0.0,0.0032234432234432234,0.0136996336996337
6.834154623000359,0.0,0.006446886446886447,0.19663003663003664
6.8382934059991385,0.0,0.006446886446886447,0.19663003663003664
6.841022538999823,0.0,0.006446886446886447,0.19663003663003664
6.845087519999652,0.0,0.014505494505494505,2.577142857142857
6.848674507000396,0.0,0.014505494505494505,2.577142857142857
6.84876911199899,0.0,0.014505494505494505,2.577142857142857
6.853957921000983,0.0,0.014505494505494505,2.577142857142857
6.857889651000733,0.0,0.014505494505494505,2.577142857142857
6.860941713999637,0.0,0.014505494505494505,2.577142857142857
6.8632100819995685,0.0,0.0016117216117216117,2.5755311355311354
6.863458348001586,0.0,0.0016117216117216117,2.5755311355311354
6.868741103000502,0.0,0.0016117216117216117,2.5755311355311354
6.871865886998421,0.0,0.0016117216117216117,2.5755311355311354
6.873459411999647,0.0,0.0016117216117216117,2.5755311355311354
6.8772411799982365,0.0,0.0016117216117216117,2.5755311355311354
6.882702192000579,0.0,0.0016117216117216117,2.5755311355311354
6.884339349999209,0.0,0.0016117216117216117,2.5755311355311354
6.888122844000463,0.0,0.0016117216117216117,2.5755311355311354
6.892577685001015,0.0,0.0016117216117216117,2.5755311355311354
6.892930081998202,0.0,0.0016117216117216117,2.5755311355311354
6.898377352001262,0.0,0.0016117216117216117,2.5755311355311354
6.899211698000727,0.0,0.0016117216117216117,2.5755311355311354
6.900825763001194,0.0,0.0016117216117216117,2.5755311355311354
6.905480408000585,0.0,0.0016117216117216117,2.5755311355311354
6.91030438999951,0.0,0.0016117216117216117,2.5755311355311354
6.910493876999681,0.0,0.0016117216117216117,2.5755311355311354
6.9152714619995095,0.0,0.0016117216117216117,2.5755311355311354
6.920126279001124,0.0,0.0016117216117216117,2.5755311355311354
6.924989300001471,0.0,0.005641025641025641,2.581172161172161
6.930212603001564,0.0,0.005641025641025641,2.581172161172161
6.934252638999169,0.0,0.005641025641025641,2.581172161172161
6.936483689998568,0.0,0.005641025641025641,2.581172161172161
6.93667907499912,0.0,0.005641025641025641,2.581172161172161
6.94218079699931,0.0,0.005641025641025641,2.581172161172161
6.943010024999239,0.0,0.005641025641025641,2.581172161172161
6.9445903439991525,0.0,0.005641025641025641,2.581172161172161
6.949055752000277,0.0,0.005641025641025641,2.581172161172161
6.950643174001016,0.0,0.0,0.5213919413919413
6.9550664739981585,0.0,0.0,0.5213919413919413
6.9559334039986425,0.0,0.0,0.5213919413919413
6.958157237000705,0.0,0.0,0.5213919413919413
6.958933744001115,0.0,0.0,0.5213919413919413
6.960496922998573,0.0,0.0,0.5213919413919413
6.96416316199975,0.0,0.0,0.5213919413919413
6.964288914001372,0.0,0.0,0.5213919413919413
6.969401066999126,0.0,0.0,0.5213919413919413
6.973211160999199,0.0,0.0,0.5213919413919413
6.977806442999281,0.0,0.0,0.5213919413919413
6.978017681998608,0.0,0.0,0.5213919413919413
6.983491517999937,0.0,0.0,0.5213919413919413
6.984409110998968,0.0,0.0,0.5213919413919413
6.986481526000716,0.0,0.0,0.5213919413919413
6.986842801998137,0.0,0.0,0.5213919413919413
6.9916012860012415,0.0,0.0,0.5213919413919413
6.991759071999695,0.0,0.0,0.5213919413919413
6.996736450000753,0.0,0.0,0.5213919413919413
7.00151491699944,0.0,0.0,0.5213919413919413
7.001674456998444,0.0,0.0,0.5213919413919413
7.00663754299967,0.0,0.0,0.5213919413919413
7.0116126610009815,0.0,0.0,0.5213919413919413
7.016447794998385,0.0,0.0,0.5213919413919413
7.016513155998837,0.0,0.0032234432234432234,0.011282051282051281
7.02145019100135,0.0,0.0032234432234432234,0.011282051282051281
7.024864407001587,0.0,0.0032234432234432234,0.011282051282051281
7.025089544000366,0.0,0.006446886446886447,2.8873992673992674
7.0298495259994525,0.0,0.008058608058608058,1.3828571428571428
7.030014297000889,0.0,0.0136996336996337,0.37875457875457874
7.034929499001009,0.0,0.0136996336996337,0.37875457875457874
7.039372651001031,0.0,0.0136996336996337,0.37875457875457874
7.039679946999968,0.0,0.0136996336996337,0.37875457875457874
7.044983727999352,0.0,0.0136996336996337,0.37875457875457874
7.0472321919987735,0.0,0.0136996336996337,0.37875457875457874
7.047375990001456,0.0,0.0136996336996337,0.37875457875457874
7.052668733998871,0.0,0.0136996336996337,0.37875457875457874
7.055099458000768,0.0,0.005641025641025641,0.0
7.060453950998635,0.0,0.005641025641025641,0.0
7.062064698999166,0.0,0.005641025641025641,0.0
7.065870221998921,0.0,0.005641025641025641,0.0
7.071271828001045,0.0,0.004835164835164835,0.5576556776556777
7.0728953139987425,0.0,0.004835164835164835,0.5576556776556777
7.076522433999344,0.0,0.004835164835164835,0.5576556776556777
7.0821220299985725,0.0,0.004835164835164835,0.5576556776556777
7.0824399150005775,0.0,0.004835164835164835,0.5576556776556777
7.087226233998081,0.0,0.004835164835164835,0.5576556776556777
7.092395179999585,0.0,0.004835164835164835,0.5576556776556777
7.095391799000936,0.0,0.00967032967032967,0.044322344322344324
7.098297824999463,0.0,0.00967032967032967,0.044322344322344324
7.10200483600056,0.0,0.00967032967032967,0.044322344322344324
7.107492765000643,0.0,0.012893772893772894,2.5787545787545785
7.1077702670008875,0.0,0.012893772893772894,2.5787545787545785
7.112507670000923,0.0,0.012893772893772894,2.5787545787545785
7.112659301001258,0.0,0.012893772893772894,2.5787545787545785
7.1176455300010275,0.0,0.012893772893772894,2.5787545787545785
7.121128833001421,0.0,0.0032234432234432234,0.014505494505494505
7.121203220998723,0.0,0.0032234432234432234,0.014505494505494505
7.126109681998059,0.0,0.0032234432234432234,0.014505494505494505
7.130174191999686,0.0,0.006446886446886447,0.796996336996337
7.132296258001588,0.0,0.006446886446886447,0.796996336996337
7.133689105998201,0.0,0.006446886446886447,0.796996336996337
7.138535131998651,0.0,0.006446886446886447,0.796996336996337
7.138682343000255,0.0,0.006446886446886447,0.796996336996337
7.143444888999511,0.0,0.006446886446886447,0.796996336996337
7.14352087899897,0.0,0.004029304029304029,2.5787545787545785
7.148311306998949,0.0,0.004029304029304029,2.302344322344322
7.153069046999008,0.0,0.004029304029304029,2.302344322344322
7.153212130000611,0.0,0.004029304029304029,2.302344322344322
7.158039771999029,0.0,0.004029304029304029,2.302344322344322
7.1581410889994,0.0,0.00967032967032967,2.5787545787545785
7.1629769380015205,0.0,0.00967032967032967,2.5787545787545785
7.163093205999758,0.0,0.00967032967032967,2.5787545787545785
7.167853528000705,0.0,0.0008058608058608059,3.3
7.167923872999381,0.0,0.0008058608058608059,3.3
7.172737461998622,0.0,0.0008058608058608059,3.3
7.172839333998127,0.0,0.0008058608058608059,3.3
7.177622905001044,0.0,0.0008058608058608059,3.3
7.1825254510004015,0.0,0.01531135531135531,2.5723076923076924
7.187306871001056,0.0,0.018534798534798533,2.557802197802198
7.1874011299987615,0.0,0.018534798534798533,2.557802197802198
7.192185077001341,0.0,0.018534798534798533,2.557802197802198
7.192326550000871,0.0,0.018534798534798533,2.557802197802198
7.197144731999288,0.0,0.008058608058608058,0.022564102564102562
7.197213306000776,0.0,0.008058608058608058,0.022564102564102562
7.2020436970015,0.0,0.008058608058608058,0.022564102564102562
7.202116419000959,0.0,0.008058608058608058,0.022564102564102562
7.20756950500072,0.0,0.008058608058608058,0.022564102564102562
7.209956250000687,0.0,0.008058608058608058,0.022564102564102562
7.215516914999171,0.0,0.008058608058608058,0.022564102564102562
7.217250865000096,0.0,0.008058608058608058,0.022564102564102562
7.2204704450014106,0.0,0.008058608058608058,0.022564102564102562
7.222067539998534,0.0,0.007252747252747252,2.5763369963369964
7.226654002999567,0.0,0.006446886446886447,2.5787545787545785
7.22682207500111,0.0,0.006446886446886447,2.5787545787545785
7.232193406998704,0.0,0.006446886446886447,2.5787545787545785
7.233725123998738,0.0,0.006446886446886447,2.5787545787545785
7.2382399779999105,0.0,0.006446886446886447,2.5787545787545785
7.238376945999335,0.0,0.006446886446886447,2.5787545787545785
7.244039797998994,0.0,0.0016117216117216117,2.5626373626373624
7.244167524000659,0.0,0.0016117216117216117,2.5626373626373624
7.24908022100135,0.0,0.0016117216117216117,2.5626373626373624
7.254619090999768,0.0,0.0016117216117216117,2.5626373626373624
7.254879846001131,0.0,0.0032234432234432234,0.03948717948717949
7.260282572999131,0.0,0.0032234432234432234,0.03948717948717949
7.261672431999614,0.0,0.0032234432234432234,0.03948717948717949
7.266530116998183,0.0,0.0032234432234432234,0.03948717948717949
7.266609968999546,0.0,0.0032234432234432234,0.03948717948717949
7.271417193998786,0.0,0.0032234432234432234,0.03948717948717949
7.275609356998757,0.0,0.0032234432234432234,0.03948717948717949
7.277662218999467,0.0,0.0032234432234432234,0.026593406593406595
7.2790823049981555,0.0,0.0032234432234432234,0.026593406593406595
7.283931507998204,0.0,0.0032234432234432234,0.026593406593406595
7.2839963320002425,0.0,0.0032234432234432234,0.026593406593406595
7.2888018769990595,0.0,0.0032234432234432234,0.026593406593406595
7.293560228998103,0.0,0.0032234432234432234,0.026593406593406595
7.293668286998582,0.0,0.0032234432234432234,0.026593406593406595
7.298516799000936,0.0,0.0032234432234432234,0.026593406593406595
7.303256712999428,0.0,0.0032234432234432234,0.026593406593406595
7.3089057830002275,0.0,0.006446886446886447,2.557802197802198
7.309116453001479,0.0,0.008864468864468863,0.3795604395604395
7.314575402000628,0.0,0.008864468864468863,0.3795604395604395
7.316365048998705,0.0,0.008864468864468863,0.3795604395604395
7.318660709999676,0.0,0.008864468864468863,0.3795604395604395
7.318885546999809,0.0,0.008864468864468863,0.3795604395604395
7.324282976998802,0.0,0.008864468864468863,0.3795604395604395
7.325127916999918,0.0,0.008864468864468863,0.3795604395604395
7.326700102999894,0.0,0.008864468864468863,0.3795604395604395
7.331351501998142,0.0,0.008864468864468863,0.3795604395604395
7.331466576000821,0.0,0.004835164835164835,0.17003663003663003
7.337025155000447,0.0,0.004835164835164835,0.17003663003663003
7.337856517999171,0.0,0.004835164835164835,0.17003663003663003
7.339466419998644,0.0,0.014505494505494505,2.5763369963369964
7.343039650000719,0.0,0.014505494505494505,2.5763369963369964
7.343229212001461,0.0,0.014505494505494505,2.5763369963369964
7.34828412600109,0.0,0.025787545787545788,1.8567032967032966
7.352388013998279,0.0,0.025787545787545788,1.8567032967032966
7.355442150001181,0.0,0.025787545787545788,1.8567032967032966
7.357664980998379,0.0,0.025787545787545788,1.8567032967032966
7.357889934999548,0.0,0.025787545787545788,1.8567032967032966
7.363114809999388,0.0,0.025787545787545788,1.8567032967032966
7.3655247790011344,0.0,0.025787545787545788,1.8567032967032966
7.365605826998944,0.0,0.025787545787545788,1.8567032967032966
7.371089174001099,0.0,0.025787545787545788,1.8567032967032966
7.3727470689991605,0.0,0.025787545787545788,1.8567032967032966
7.376421707998816,0.0,0.025787545787545788,1.8567032967032966
7.382144454000809,0.0,0.014505494505494505,2.5787545787545785
7.382349733998126,0.0,0.0,2.5763369963369964
7.387875412998255,0.0,0.0,2.5763369963369964
7.38959938699918,0.0,0.0016117216117216117,1.6608791208791207
7.393354981999437,0.0,0.0016117216117216117,1.6608791208791207
7.398058064998622,0.0,0.0016117216117216117,1.6608791208791207
7.398275913998077,0.0,0.0016117216117216117,1.6608791208791207
7.403492711000581,0.0,0.0016117216117216117,1.6608791208791207
7.40586712699951,0.0,0.010476190476190476,2.5763369963369964
7.406074081998668,0.0,0.010476190476190476,2.5763369963369964
7.41148401999817,0.0,0.010476190476190476,2.5763369963369964
7.4132116840009985,0.0,0.010476190476190476,2.5763369963369964
7.416998325999884,0.0,0.010476190476190476,2.5763369963369964
7.4214944490013295,0.0,0.010476190476190476,2.5763369963369964
7.421774541999184,0.0,0.010476190476190476,2.5763369963369964
7.427142150998407,0.0,0.010476190476190476,2.5763369963369964
7.428840280001168,0.0,0.010476190476190476,2.5763369963369964
7.432559853001294,0.0,0.010476190476190476,2.5763369963369964
7.437173808000807,0.0,0.010476190476190476,2.5763369963369964
7.437404502998106,0.0,0.004835164835164835,0.9863736263736262
7.4419204299993,0.0,0.0,2.5787545787545785
7.442177245000494,0.0,0.0,2.5787545787545785
7.447448058999726,0.0,0.0,2.5787545787545785
7.449549176999426,0.0,0.0,2.5787545787545785
7.450991435998731,0.0,0.008058608058608058,0.08139194139194139
7.455300705998525,0.0,0.008058608058608058,0.08139194139194139
7.456888968001294,0.0,0.008058608058608058,0.08139194139194139
7.461379478998424,0.0,0.008058608058608058,0.08139194139194139
7.46219733199905,0.0,0.008058608058608058,0.08139194139194139
7.463760474998708,0.0,0.008058608058608058,0.08139194139194139
7.468408763001207,0.0,0.008058608058608058,0.08139194139194139
7.46866842199961,0.0,0.008058608058608058,0.08139194139194139
7.474108435999369,0.0,0.008058608058608058,0.08139194139194139
7.47494470699894,0.0,0.008058608058608058,0.08139194139194139
7.476520388998324,0.0,0.008058608058608058,0.08139194139194139
7.480306107001525,0.0,0.008058608058608058,0.08139194139194139
7.484727909999492,0.0,0.008058608058608058,0.08139194139194139
7.485597123999469,0.0,0.008058608058608058,0.08139194139194139
7.487153824000416,0.0,0.008058608058608058,0.08139194139194139
7.491592547001346,0.0,0.006446886446886447,0.45772893772893775
7.491900126999099,0.0,0.006446886446886447,0.45772893772893775
7.497116639999149,0.0,0.006446886446886447,0.45772893772893775
7.500169384999026,0.0,0.006446886446886447,0.45772893772893775
7.501648885001487,0.0,0.006446886446886447,0.45772893772893775
7.506702815000608,0.0,0.006446886446886447,0.45772893772893775
7.512270278999495,0.0,0.006446886446886447,0.45772893772893775
7.5124620249989675,0.0,0.0,0.033846153846153845
7.518019319999439,0.0,0.0,0.033846153846153845
7.51825185800044,0.0,0.0,0.0
7.523803469000995,0.0,0.0,0.0
7.523947547000716,0.0,0.0,0.0
7.5288248649994785,0.0,0.0,0.0
7.533718016999046,0.0,0.0,0.0
7.53379989899986,0.0,0.0,0.0
7.538683365000907,0.0,0.0,0.0
7.54289750099997,0.0,0.0,0.0
7.544975477001572,0.0,0.0032234432234432234,3.3
7.545793271998264,0.0,0.0032234432234432234,3.3
7.547947792998457,0.0,0.00967032967032967,0.5568498168498168
7.548683171000448,0.0,0.00967032967032967,0.5568498168498168
7.550746144999721,0.0,0.00967032967032967,0.5568498168498168
7.552214628998627,0.0,0.00967032967032967,0.5568498168498168
7.556348073001573,0.0,0.00967032967032967,0.5568498168498168
7.559143009999389,0.0,0.0,2.557802197802198
7.562586479998572,0.0,0.0,2.557802197802198
7.562815672998113,0.0,0.0,2.557802197802198
7.567741038998065,0.0,0.0,2.557802197802198
7.5734033590015315,0.0,0.0,2.557802197802198
7.573554870999942,0.0,0.0032234432234432234,0.0
7.578783075001411,0.0,0.0032234432234432234,0.0
7.582128453999758,0.0,0.004029304029304029,2.5787545787545785
7.582950416999665,0.0,0.004029304029304029,2.5787545787545785
7.585020959999383,0.0,0.004029304029304029,2.5787545787545785
7.585319895999419,0.0,0.004029304029304029,2.5787545787545785
7.589463524000166,0.0,0.004029304029304029,2.5787545787545785
7.592264415001409,0.0,0.0032234432234432234,0.008058608058608058
7.596466045000852,0.0,0.0032234432234432234,0.008058608058608058
