time,emg1,emg2,emg3
0.001281621000089217,1.382051282051282,0.6317948717948718,3.3
0.01142138900468126,1.382051282051282,0.6317948717948718,3.3
0.032463495001138654,1.382051282051282,0.6317948717948718,3.3
0.06108322200452676,0.1104029304029304,0.22805860805860806,0.8324542124542124
0.08950759200524772,0.1104029304029304,0.22805860805860806,0.8324542124542124
0.09006504500575829,0.1104029304029304,0.22805860805860806,0.8324542124542124
0.10213664200273342,0.1104029304029304,0.22805860805860806,0.8324542124542124
0.1181937880028272,0.1104029304029304,0.22805860805860806,0.8324542124542124
0.13871177400142187,0.5568498168498168,0.5737728937728938,3.004249084249084
0.1578051040050923,0.5568498168498168,0.5737728937728938,3.004249084249084
0.1703347120055696,0.27399267399267396,0.10315018315018315,1.3538461538461537
0.18017592800606508,0.08783882783882783,0.10637362637362638,1.0814652014652013
0.18930268400436034,0.08783882783882783,0.10637362637362638,1.0814652014652013
0.19773281400557607,0.08783882783882783,0.10637362637362638,1.0814652014652013
0.2058602230026736,0.08783882783882783,0.10637362637362638,1.0814652014652013
0.21239235500252107,0.08783882783882783,0.10637362637362638,1.0814652014652013
0.21754917500220472,0.08783882783882783,0.10637362637362638,1.0814652014652013
0.22011605800071266,0.6068131868131869,0.23934065934065935,0.45772893772893775
0.22659723900142126,0.6068131868131869,0.23934065934065935,0.45772893772893775
0.23178825300419703,0.02336996336996337,0.10315018315018315,0.8977289377289376
0.2344360190036241,0.02336996336996337,0.10315018315018315,0.8977289377289376
0.24214868200215278,0.02336996336996337,0.10315018315018315,0.8977289377289376
0.2486926520068664,0.02336996336996337,0.10315018315018315,0.8977289377289376
0.2538463560049422,0.02336996336996337,0.10315018315018315,0.8977289377289376
0.256533367006341,0.02336996336996337,0.10315018315018315,0.8977289377289376
0.26175998800317757,0.02336996336996337,0.10315018315018315,0.8977289377289376
0.2643630730017321,0.02336996336996337,0.10315018315018315,0.8977289377289376
0.27216358100122306,0.02336996336996337,0.10315018315018315,0.8977289377289376
0.2797846770044998,0.13538461538461538,0.36666666666666664,2.3877655677655674
0.2888034840070759,0.13538461538461538,0.36666666666666664,2.3877655677655674
0.2952120960035245,0.13538461538461538,0.36666666666666664,2.3877655677655674
0.30028369500359986,0.21516483516483517,0.28124542124542123,0.9678388278388278
0.3028868239998701,1.0935531135531134,0.6092307692307692,1.2378021978021978
0.3093831600053818,1.0935531135531134,0.6092307692307692,1.2378021978021978
0.3144187470024917,0.8469597069597068,1.0137728937728938,0.767985347985348
0.3194346590025816,0.12732600732600732,0.26673992673992675,0.8566300366300367
0.3231458470036159,0.12732600732600732,0.26673992673992675,0.8566300366300367
0.3282863210042706,0.12732600732600732,0.26673992673992675,0.8566300366300367
0.33195072400121717,0.12732600732600732,0.26673992673992675,0.8566300366300367
0.33723985500546405,0.12732600732600732,0.26673992673992675,0.8566300366300367
0.33978723200561944,0.12732600732600732,0.26673992673992675,0.8566300366300367
0.34633908700197935,0.12732600732600732,0.26673992673992675,0.8566300366300367
0.3515010240007541,0.12732600732600732,0.26673992673992675,0.8566300366300367
0.3541830470057903,0.7695970695970695,0.5068864468864469,1.4304029304029304
0.3596851520051132,0.7695970695970695,0.5068864468864469,1.4304029304029304
0.35994870400463697,0.7695970695970695,0.5068864468864469,1.4304029304029304
0.3679876720052562,0.7695970695970695,0.5068864468864469,1.4304029304029304
0.3752025930007221,0.7695970695970695,0.5068864468864469,1.4304029304029304
0.38364665300468914,0.7695970695970695,0.5068864468864469,1.4304029304029304
0.391781512000307,0.7695970695970695,0.5068864468864469,1.4304029304029304
0.40410738400532864,0.7695970695970695,0.5068864468864469,1.4304029304029304
0.4173048170050606,0.9807326007326007,0.6680586080586081,3.3
0.4302185780034051,0.9807326007326007,0.6680586080586081,3.3
0.43841275200247765,1.5263003663003663,1.0194139194139193,0.9202930402930403
0.44678916400152957,1.5263003663003663,1.0194139194139193,0.9202930402930403
0.4521830730009242,0.19018315018315018,0.07655677655677656,1.3046886446886445
0.4525500340023427,0.19018315018315018,0.07655677655677656,1.3046886446886445
0.4621330400041188,0.19018315018315018,0.07655677655677656,1.3046886446886445
0.469064292999974,0.19018315018315018,0.07655677655677656,1.3046886446886445
0.4742554990007193,0.19018315018315018,0.07655677655677656,1.3046886446886445
0.4800641890033148,0.19018315018315018,0.07655677655677656,1.3046886446886445
0.48680307100585196,0.19018315018315018,0.07655677655677656,1.3046886446886445
0.49209989200608106,0.19018315018315018,0.07655677655677656,1.3046886446886445
0.4937874710012693,0.19018315018315018,0.07655677655677656,1.3046886446886445
0.5002613180040498,0.19018315018315018,0.07655677655677656,1.3046886446886445
0.5053314760007197,0.19018315018315018,0.07655677655677656,1.3046886446886445
0.5099312520032981,1.7237362637362637,0.9347985347985347,3.2709890109890107
0.5204371760046342,1.7237362637362637,0.9347985347985347,3.2709890109890107
0.5342589920037426,1.7237362637362637,0.9347985347985347,3.2709890109890107
0.5481489210069412,1.7237362637362637,0.9347985347985347,3.2709890109890107
0.5613007250067312,1.7237362637362637,0.9347985347985347,3.2709890109890107
0.5716340460057836,1.7237362637362637,0.9347985347985347,3.2709890109890107
0.5840300530035165,1.7237362637362637,0.9347985347985347,3.2709890109890107
0.5918490500043845,1.7237362637362637,0.9347985347985347,3.2709890109890107
0.600716425004066,1.7237362637362637,0.9347985347985347,3.2709890109890107
0.6093253880026168,1.7237362637362637,0.9347985347985347,3.2709890109890107
0.6221609560016077,1.7237362637362637,0.9347985347985347,3.2709890109890107
0.6340275870024925,1.7237362637362637,0.9347985347985347,3.2709890109890107
0.6458869680063799,1.7237362637362637,0.9347985347985347,3.2709890109890107
0.6618893230042886,1.7237362637362637,0.9347985347985347,3.2709890109890107
0.6725978090034914,1.7237362637362637,0.9347985347985347,3.2709890109890107
0.6835778439999558,1.7237362637362637,0.9347985347985347,3.2709890109890107
0.6946115870014182,1.0306959706959706,0.6479120879120879,3.3
0.7124214480063529,1.0306959706959706,0.6479120879120879,3.3
0.730159562001063,1.0306959706959706,0.6479120879120879,3.3
0.7306904650031356,1.0306959706959706,0.6479120879120879,3.3
0.7376942520058947,1.0306959706959706,0.6479120879120879,3.3
0.7446995020000031,1.0306959706959706,0.6479120879120879,3.3
0.7501291640001,1.0306959706959706,0.6479120879120879,3.3
0.7505384989999584,1.0306959706959706,0.6479120879120879,3.3
0.7592064270065748,1.0306959706959706,0.6479120879120879,3.3
0.7681366180040641,1.05003663003663,0.6720879120879121,3.3
0.777254984001047,1.05003663003663,0.6720879120879121,3.3
0.7859657270018943,0.971062271062271,0.6406593406593406,1.523882783882784
0.7974567790006404,0.01531135531135531,0.3336263736263736,1.8373626373626373
0.8107977860054234,0.01531135531135531,0.3336263736263736,1.8373626373626373
0.8248456320070545,0.01531135531135531,0.3336263736263736,1.8373626373626373
0.8355670380042284,0.01531135531135531,0.3336263736263736,1.8373626373626373
0.8468837540058303,0.01531135531135531,0.3336263736263736,1.8373626373626373
0.8557928470036131,0.01531135531135531,0.3336263736263736,1.8373626373626373
0.8675848680068157,0.506080586080586,0.5995604395604395,0.31509157509157504
0.8792570410005283,1.083076923076923,0.6132600732600733,1.2450549450549449
0.8891902850009501,1.083076923076923,0.6132600732600733,1.2450549450549449
0.9021179010014748,1.083076923076923,0.6132600732600733,1.2450549450549449
0.918030410000938,1.083076923076923,0.6132600732600733,1.2450549450549449
0.9354901450060424,1.083076923076923,0.6132600732600733,1.2450549450549449
0.9516210700021475,1.083076923076923,0.6132600732600733,1.2450549450549449
0.9662651540056686,1.083076923076923,0.6132600732600733,1.2450549450549449
0.9821197620040039,1.083076923076923,0.6132600732600733,1.2450549450549449
0.9959582299998146,1.083076923076923,0.6132600732600733,1.2450549450549449
1.004448351006431,1.083076923076923,0.6132600732600733,1.2450549450549449
1.0163864420028403,1.083076923076923,0.6132600732600733,1.2450549450549449
1.0252227910023066,1.083076923076923,0.6132600732600733,1.2450549450549449
1.0334812630026136,0.5326739926739926,0.10315018315018315,1.448131868131868
1.0414694790015346,0.22644688644688646,0.30542124542124544,0.9235164835164835
1.0505168270028662,0.22644688644688646,0.30542124542124544,0.9235164835164835
1.059296847000951,0.6761172161172161,0.4520879120879121,1.3747985347985348
1.0669882760048495,0.6761172161172161,0.4520879120879121,1.3747985347985348
1.0735302330067498,0.6761172161172161,0.4520879120879121,1.3747985347985348
1.0801584030050435,0.6761172161172161,0.4520879120879121,1.3747985347985348
1.0852822450033273,0.2175824175824176,0.24417582417582417,1.0693772893772893
1.0879004010057542,1.6093040293040293,0.8711355311355311,3.3
1.0975822730033542,1.6093040293040293,0.8711355311355311,3.3
1.1042981070058886,1.6093040293040293,0.8711355311355311,3.3
1.1112659920036094,1.6093040293040293,0.8711355311355311,3.3
1.1185901790013304,0.5544322344322344,0.40937728937728934,0.18373626373626373
1.1290715690047364,0.5544322344322344,0.40937728937728934,0.18373626373626373
1.1420841890067095,0.5544322344322344,0.40937728937728934,0.18373626373626373
1.1556486830013455,0.5544322344322344,0.40937728937728934,0.18373626373626373
1.1690525190060725,0.5544322344322344,0.40937728937728934,0.18373626373626373
1.1693040360041778,0.25787545787545785,0.0846153846153846,1.3433699633699634
1.178500067006098,0.25787545787545785,0.0846153846153846,1.3433699633699634
1.185099813999841,0.25787545787545785,0.0846153846153846,1.3433699633699634
1.1903349810017971,0.25787545787545785,0.0846153846153846,1.3433699633699634
1.194225561004714,0.25787545787545785,0.0846153846153846,1.3433699633699634
1.198423157002253,0.4827106227106227,0.4424175824175824,1.1419047619047618
1.199778726004297,0.0,0.25384615384615383,1.5456410256410256
1.2077122230039095,0.0,0.25384615384615383,1.5456410256410256
1.21550875200046,1.0387545787545787,0.5753846153846153,1.842197802197802
1.2220465160062304,1.0387545787545787,0.5753846153846153,1.842197802197802
1.2297969550054404,0.10798534798534798,0.19663003663003664,1.4070329670329669
1.2369002920022467,0.10798534798534798,0.19663003663003664,1.4070329670329669
1.2452593880007043,0.10798534798534798,0.19663003663003664,1.4070329670329669
1.2510481150020496,1.4755311355311356,0.9283516483516483,0.788937728937729
1.2573799900055747,1.4755311355311356,0.9283516483516483,0.788937728937729
1.2642738990034559,1.4755311355311356,0.9283516483516483,0.788937728937729
1.269433116001892,1.4755311355311356,0.9283516483516483,0.788937728937729
1.273368799003947,0.5657142857142857,0.7204395604395604,0.4424175824175824
1.2781248800019966,1.1580219780219778,0.6833699633699634,1.4956776556776556
1.2820990380059811,1.224908424908425,0.5544322344322344,2.5473260073260073
1.2858734920009738,1.224908424908425,0.5544322344322344,2.5473260073260073
1.2911813340033405,1.224908424908425,0.5544322344322344,2.5473260073260073
1.2916223320062272,1.224908424908425,0.5544322344322344,2.5473260073260073
1.2985968850043719,1.224908424908425,0.5544322344322344,2.5473260073260073
1.3050402880035108,1.224908424908425,0.5544322344322344,2.5473260073260073
1.3102442380040884,0.16278388278388278,0.18695970695970696,0.9726739926739927
1.3128963640047004,1.0008791208791208,0.7905494505494506,3.3
1.318003154003236,1.0008791208791208,0.7905494505494506,3.3
1.3217219670041231,1.0008791208791208,0.7905494505494506,3.3
1.3268089960038196,1.0008791208791208,0.7905494505494506,3.3
1.3306213880059659,1.0008791208791208,0.7905494505494506,3.3
1.3370988450042205,1.0008791208791208,0.7905494505494506,3.3
1.3463555770067615,0.19179487179487179,0.2208058608058608,1.1644688644688646
1.3531086550065083,1.5335531135531135,0.9992673992673992,0.8904761904761904
1.3582966410031077,0.8364835164835164,0.971062271062271,0.8445421245421244
1.3616815650020726,0.9307692307692307,0.40534798534798533,0.09992673992673992
1.3694949650016497,0.9307692307692307,0.40534798534798533,0.09992673992673992
1.3758638580038678,0.9307692307692307,0.40534798534798533,0.09992673992673992
1.3808575030052452,0.9307692307692307,0.40534798534798533,0.09992673992673992
1.3858433020068333,0.9307692307692307,0.40534798534798533,0.09992673992673992
1.3908344900046359,0.9307692307692307,0.40534798534798533,0.09992673992673992
1.394571499004087,0.7357509157509158,0.9065934065934066,0.5769963369963369
1.399542173006921,0.7357509157509158,0.9065934065934066,0.5769963369963369
1.404514370005927,0.7357509157509158,0.9065934065934066,0.5769963369963369
1.4094412060003378,0.7357509157509158,0.9065934065934066,0.5769963369963369
1.4157290930015733,0.7357509157509158,0.9065934065934066,0.5769963369963369
1.4204610390006565,0.7357509157509158,0.9065934065934066,0.5769963369963369
1.4276895670045633,0.7357509157509158,0.9065934065934066,0.5769963369963369
1.4337150090068462,0.7357509157509158,0.9065934065934066,0.5769963369963369
1.4384906470004353,0.7357509157509158,0.9065934065934066,0.5769963369963369
1.4445008220063755,1.506153846153846,0.9791208791208791,0.9356043956043956
1.4505547000007937,1.506153846153846,0.9791208791208791,0.9356043956043956
1.455389347000164,1.506153846153846,0.9791208791208791,0.9356043956043956
1.4614253670006292,1.506153846153846,0.9791208791208791,0.9356043956043956
1.4674325209998642,0.9605860805860806,0.43032967032967034,0.12087912087912088
1.4748666820014478,0.9605860805860806,0.43032967032967034,0.12087912087912088
1.4809078200050863,0.9605860805860806,0.43032967032967034,0.12087912087912088
1.4869302430015523,0.9605860805860806,0.43032967032967034,0.12087912087912088
1.4916829580033664,0.9605860805860806,0.43032967032967034,0.12087912087912088
1.5004457220056793,0.9605860805860806,0.43032967032967034,0.12087912087912088
1.5081538830054342,0.9605860805860806,0.43032967032967034,0.12087912087912088
1.5144663610044518,0.9605860805860806,0.43032967032967034,0.12087912087912088
1.519269989003078,0.1643956043956044,0.25465201465201465,0.9315750915750916
1.5277407440007664,0.1643956043956044,0.25465201465201465,0.9315750915750916
1.5351015600026585,0.1643956043956044,0.25465201465201465,0.9315750915750916
1.5412907680001808,0.1643956043956044,0.25465201465201465,0.9315750915750916
1.5461100560060004,0.1643956043956044,0.25465201465201465,0.9315750915750916
1.5522073270039982,0.1643956043956044,0.25465201465201465,0.9315750915750916
1.5581301570055075,1.2176556776556777,0.7059340659340658,1.5134065934065932
1.5641737969999667,1.2176556776556777,0.7059340659340658,1.5134065934065932
1.5703209990024334,0.05963369963369963,0.15794871794871795,0.8864468864468864
1.576291351004329,0.8316483516483516,1.02021978021978,0.7776556776556776
1.581130792001204,0.8316483516483516,1.02021978021978,0.7776556776556776
1.5885655300007784,0.8316483516483516,1.02021978021978,0.7776556776556776
1.5947868160001235,0.8316483516483516,1.02021978021978,0.7776556776556776
1.5997227740008384,0.4819047619047619,0.4005128205128205,1.211208791208791
1.6058272390000639,0.0,0.3376556776556776,2.025934065934066
1.6106936880023568,0.09912087912087912,0.0975091575091575,1.1096703296703296
1.6179492410010425,0.8066666666666666,1.0194139194139193,0.6116483516483516
1.6241467320069205,0.8066666666666666,1.0194139194139193,0.6116483516483516
1.629099927005882,0.1571428571428571,0.10315018315018315,1.216849816849817
1.6353704330031178,0.5721611721611721,0.630989010989011,0.29655677655677654
1.6403886700063595,0.5858608058608058,0.4416117216117216,1.2917948717948717
1.646503465002752,0.5858608058608058,0.4416117216117216,1.2917948717948717
1.6513493640013621,0.0,0.07978021978021978,0.9517216117216116
1.657453619001899,0.0,0.07978021978021978,0.9517216117216116
1.662293719004083,0.0,0.07978021978021978,0.9517216117216116
1.6684555800020462,1.2232967032967033,0.5866666666666667,0.5479853479853479
1.673401100000774,1.2232967032967033,0.5866666666666667,0.5479853479853479
1.6782733630025177,0.4827106227106227,0.46014652014652013,1.1773626373626374
1.685655390007014,0.5044688644688645,0.3158974358974359,1.3796336996336995
1.6920280480044312,0.5044688644688645,0.3158974358974359,1.3796336996336995
1.6968094420008129,0.5044688644688645,0.3158974358974359,1.3796336996336995
1.704189681004209,0.5044688644688645,0.3158974358974359,1.3796336996336995
1.7104243020003196,0.6882051282051282,0.2248351648351648,0.3763369963369963
1.7153684830045677,0.8235897435897436,1.008131868131868,0.9065934065934066
1.7215310020037577,1.1644688644688646,0.747032967032967,3.3
1.7265062380029121,1.1644688644688646,0.747032967032967,3.3
1.7314214460056974,1.1644688644688646,0.747032967032967,3.3
1.7363844030041946,0.7776556776556776,0.9243223443223443,0.6801465201465201
1.7412512990049436,0.7776556776556776,0.9243223443223443,0.6801465201465201
1.7472488380008144,0.7776556776556776,0.9243223443223443,0.6801465201465201
1.7521134720009286,0.15069597069597068,0.0838095238095238,1.2450549450549449
1.7583212590034236,0.15069597069597068,0.0838095238095238,1.2450549450549449
1.7632367100013653,0.15069597069597068,0.0838095238095238,1.2450549450549449
1.770699680004327,0.15069597069597068,0.0838095238095238,1.2450549450549449
1.7769303000022774,0.772014652014652,0.942051282051282,0.5552380952380952
1.781845012003032,0.19824175824175824,0.3287912087912088,0.9331868131868131
1.786660383004346,0.19824175824175824,0.3287912087912088,0.9331868131868131
1.7939910050045,0.0,0.10315018315018315,0.8574358974358974
1.8001132770004915,0.5310622710622711,0.2957509157509157,1.4618315018315018
1.8061644900008105,0.6003663003663003,0.11443223443223444,1.5730402930402931
1.8110214280022774,0.6003663003663003,0.11443223443223444,1.5730402930402931
1.817137101003027,0.6003663003663003,0.11443223443223444,1.5730402930402931
1.822113039001124,0.0,0.36747252747252745,1.9574358974358974
1.82686741600628,0.0,0.36747252747252745,1.9574358974358974
1.8341585290036164,0.025787545787545788,0.40776556776556777,2.2999267399267396
1.8403196770013892,0.025787545787545788,0.40776556776556777,2.2999267399267396
1.8451526700009708,0.025787545787545788,0.40776556776556777,2.2999267399267396
1.85110105300555,0.025787545787545788,0.40776556776556777,2.2999267399267396
1.855925837000541,0.025787545787545788,0.40776556776556777,2.2999267399267396
1.8630987260039547,0.51010989010989,0.4254945054945055,1.2426373626373626
1.869347257001209,0.51010989010989,0.4254945054945055,1.2426373626373626
1.874344182004279,1.070989010989011,0.7623443223443224,3.3
1.8791316140050185,1.070989010989011,0.7623443223443224,3.3
1.8853505780061823,1.070989010989011,0.7623443223443224,3.3
1.8902589670033194,1.070989010989011,0.7623443223443224,3.3
1.8964651800051797,1.070989010989011,0.7623443223443224,3.3
1.9014058880056837,0.17648351648351646,0.2836630036630036,0.9025641025641026
1.9062597670053947,0.17648351648351646,0.2836630036630036,0.9025641025641026
1.9137171320035122,0.0556043956043956,0.3723076923076923,1.9501831501831501
1.9198188420050428,0.0556043956043956,0.3723076923076923,1.9501831501831501
1.9258322860041517,0.0556043956043956,0.3723076923076923,1.9501831501831501
1.9307664250009111,0.0556043956043956,0.3723076923076923,1.9501831501831501
1.9369952070046565,0.0556043956043956,0.3723076923076923,1.9501831501831501
1.9419416710006772,0.0556043956043956,0.3723076923076923,1.9501831501831501
1.948035544002778,0.0556043956043956,0.3723076923076923,1.9501831501831501
1.9529624230053741,0.0556043956043956,0.3723076923076923,1.9501831501831501
1.9590829240041785,0.0556043956043956,0.3723076923076923,1.9501831501831501
1.9640722620024462,0.02336996336996337,0.4158241758241758,2.270915750915751
1.968857845000457,0.8405128205128204,0.18534798534798536,1.5996336996336995
1.9750779570022132,0.8405128205128204,0.18534798534798536,1.5996336996336995
1.9799435080058174,0.8405128205128204,0.18534798534798536,1.5996336996336995
1.987320226005977,0.8405128205128204,0.18534798534798536,1.5996336996336995
1.9935210260009626,0.8405128205128204,0.18534798534798536,1.5996336996336995
1.9984186890069395,0.8405128205128204,0.18534798534798536,1.5996336996336995
2.0046108100068523,0.8405128205128204,0.18534798534798536,1.5996336996336995
2.009484259004239,0.8405128205128204,0.18534798534798536,1.5996336996336995
2.014343311006087,0.8405128205128204,0.18534798534798536,1.5996336996336995
2.021697814001527,0.8405128205128204,0.18534798534798536,1.5996336996336995
2.0278937420007423,0.8405128205128204,0.18534798534798536,1.5996336996336995
2.0326790450053522,0.8405128205128204,0.18534798534798536,1.5996336996336995
2.0399958190027974,0.419047619047619,0.38036630036630037,1.1644688644688646
2.046240972005762,1.0016849816849815,0.46175824175824176,2.182271062271062
2.0511074740061304,1.5528937728937728,0.8727472527472527,3.3
2.056089272002282,1.5528937728937728,0.8727472527472527,3.3
2.0597250550054014,0.9065934065934066,0.6906227106227106,3.3
2.0671634770042147,0.9065934065934066,0.6906227106227106,3.3
2.073493183001119,0.9065934065934066,0.6906227106227106,3.3
2.0783606140030315,0.9065934065934066,0.6906227106227106,3.3
2.0845385550055653,0.9065934065934066,0.6906227106227106,3.3
2.0894322780004586,0.0032234432234432234,0.09186813186813186,0.8526007326007327
2.095554257000913,0.0032234432234432234,0.09186813186813186,0.8526007326007327
2.100429077006993,0.0032234432234432234,0.09186813186813186,0.8526007326007327
2.106502699003613,0.0032234432234432234,0.09186813186813186,0.8526007326007327
2.1114584220049437,0.0032234432234432234,0.09186813186813186,0.8526007326007327
2.1163538280015928,0.0032234432234432234,0.09186813186813186,0.8526007326007327
2.122402000000875,0.0032234432234432234,0.09186813186813186,0.8526007326007327
2.1272985420000623,0.3843956043956044,0.083003663003663,1.473113553113553
2.1335066050014575,0.3843956043956044,0.083003663003663,1.473113553113553
2.138429881000775,0.3843956043956044,0.083003663003663,1.473113553113553
2.1433765290057636,0.3843956043956044,0.083003663003663,1.473113553113553
2.149574017006671,0.3843956043956044,0.083003663003663,1.473113553113553
2.1545426370066707,0.3843956043956044,0.083003663003663,1.473113553113553
2.160790337002254,0.3843956043956044,0.083003663003663,1.473113553113553
2.165720446006162,0.3843956043956044,0.083003663003663,1.473113553113553
2.1706382440024754,0.3843956043956044,0.083003663003663,1.473113553113553
2.175507715001004,0.3843956043956044,0.083003663003663,1.473113553113553
2.181758714999887,0.3843956043956044,0.083003663003663,1.473113553113553
2.1866927170049166,0.3843956043956044,0.083003663003663,1.473113553113553
2.1927897410059813,0.0032234432234432234,0.09106227106227105,0.8848351648351648
2.197706274004304,0.0032234432234432234,0.09106227106227105,0.8848351648351648
2.203859484005079,0.016923076923076923,0.4126007326007326,2.2564102564102564
2.2087792520032963,0.016923076923076923,0.4126007326007326,2.2564102564102564
2.214848598006938,0.016923076923076923,0.4126007326007326,2.2564102564102564
2.219766996000544,0.016923076923076923,0.4126007326007326,2.2564102564102564
2.2259535530029098,1.3256410256410256,0.8936996336996336,1.2893772893772892
2.230826609003998,1.3256410256410256,0.8936996336996336,1.2893772893772892
2.235795633001544,1.3256410256410256,0.8936996336996336,1.2893772893772892
2.239545051001187,1.3256410256410256,0.8936996336996336,1.2893772893772892
2.245599003006646,0.7583150183150182,0.16842490842490843,1.6117216117216115
2.2504909390045214,0.7583150183150182,0.16842490842490843,1.6117216117216115
2.2566847570051323,0.7583150183150182,0.16842490842490843,1.6117216117216115
2.2616455720053636,0.06043956043956044,0.23208791208791207,0.7978021978021977
2.266346591000911,0.06043956043956044,0.23208791208791207,0.7978021978021977
2.2738536660035606,0.06043956043956044,0.23208791208791207,0.7978021978021977
2.280042164005863,0.06043956043956044,0.23208791208791207,0.7978021978021977
2.2849864160016296,0.06043956043956044,0.23208791208791207,0.7978021978021977
2.2912420440043206,0.4045421245421245,0.08139194139194139,1.4666666666666666
2.2961156440069317,0.4045421245421245,0.08139194139194139,1.4666666666666666
2.302282530006778,0.10315018315018315,0.25142857142857145,0.801025641025641
2.3071453340016888,0.10315018315018315,0.25142857142857145,0.801025641025641
2.3119925760038313,0.10315018315018315,0.25142857142857145,0.801025641025641
2.3195210930061876,0.10315018315018315,0.25142857142857145,0.801025641025641
2.3258752660040045,0.10315018315018315,0.25142857142857145,0.801025641025641
2.330744812003104,0.10315018315018315,0.25142857142857145,0.801025641025641
2.3369607650020043,0.10315018315018315,0.25142857142857145,0.801025641025641
2.3418475040016347,0.10315018315018315,0.25142857142857145,0.801025641025641
2.3481382220052183,0.2095238095238095,0.10073260073260072,1.2982417582417582
2.353190577006899,0.2095238095238095,0.10073260073260072,1.2982417582417582
2.3569647910044296,0.2095238095238095,0.10073260073260072,1.2982417582417582
2.3643447380018188,0.2095238095238095,0.10073260073260072,1.2982417582417582
2.370674986006634,0.49479853479853475,0.09347985347985348,1.4505494505494505
2.3756171820059535,0.49479853479853475,0.09347985347985348,1.4505494505494505
2.379297339000914,0.49479853479853475,0.09347985347985348,1.4505494505494505
2.3879828070057556,0.49479853479853475,0.09347985347985348,1.4505494505494505
2.3954716520020156,0.49479853479853475,0.09347985347985348,1.4505494505494505
2.401663010001357,1.0387545787545787,0.6245421245421244,1.3393406593406594
2.4065303780007525,0.9726739926739927,0.37150183150183147,1.4336263736263737
2.4127260760069476,0.018534798534798533,0.1265201465201465,0.8445421245421244
2.417612622004526,0.8332600732600732,1.0975824175824174,0.850989010989011
2.422604853003577,0.8332600732600732,1.0975824175824174,0.850989010989011
2.4263553630007664,0.8332600732600732,1.0975824175824174,0.850989010989011
2.4327327060018433,0.8332600732600732,1.0975824175824174,0.850989010989011
2.4377700580007513,0.8332600732600732,1.0975824175824174,0.850989010989011
2.441480674002378,0.8332600732600732,1.0975824175824174,0.850989010989011
2.4490724290008075,0.8332600732600732,1.0975824175824174,0.850989010989011
2.455376514000818,0.8332600732600732,1.0975824175824174,0.850989010989011
2.460305403001257,0.06124542124542124,0.23047619047619047,0.7832967032967032
2.4664522260063677,0.06124542124542124,0.23047619047619047,0.7832967032967032
2.471425215000636,0.06124542124542124,0.23047619047619047,0.7832967032967032
2.4763103290024446,0.06124542124542124,0.23047619047619047,0.7832967032967032
2.4812764340022113,0.06124542124542124,0.23047619047619047,0.7832967032967032
2.486246555003163,0.32073260073260074,0.1386080586080586,0.9605860805860806
2.491272586004925,0.0,0.08945054945054945,0.850989010989011
2.4961653480058885,0.0,0.08945054945054945,0.850989010989011
2.501115273000323,0.0,0.08945054945054945,0.850989010989011
2.504740229000163,0.0,0.08945054945054945,0.850989010989011
2.5109044580021873,0.0,0.08945054945054945,0.850989010989011
2.515679916999943,0.0,0.08945054945054945,0.850989010989011
2.523036916005367,0.0,0.08945054945054945,0.850989010989011
2.529194673006714,0.0,0.08945054945054945,0.850989010989011
2.5340938630033634,1.6834432234432233,0.8880586080586079,3.3
2.5390707200058387,1.6834432234432233,0.8880586080586079,3.3
2.543950503000815,1.070989010989011,0.7236630036630036,3.3
2.550193229006254,1.070989010989011,0.7236630036630036,3.3
2.5550893540057587,0.08783882783882783,0.4021245421245421,2.4506227106227105
2.5599396800025715,0.08783882783882783,0.4021245421245421,2.4506227106227105
2.5647938160036574,1.514212454212454,0.8977289377289376,0.8775824175824175
2.571006711004884,1.514212454212454,0.8977289377289376,0.8775824175824175
2.576000160006515,1.514212454212454,0.8977289377289376,0.8775824175824175
2.5796947080016253,1.514212454212454,0.8977289377289376,0.8775824175824175
2.588346727003227,1.514212454212454,0.8977289377289376,0.8775824175824175
2.5958120900031645,1.514212454212454,0.8977289377289376,0.8775824175824175
2.6020188580005197,1.514212454212454,0.8977289377289376,0.8775824175824175
2.6070332930030418,1.1709157509157508,0.726080586080586,1.3538461538461537
2.610701355006313,0.026593406593406595,0.083003663003663,1.0403663003663002
2.6180518270048196,0.026593406593406595,0.083003663003663,1.0403663003663002
2.6242697310008225,0.026593406593406595,0.083003663003663,1.0403663003663002
2.629155521004577,0.026593406593406595,0.083003663003663,1.0403663003663002
2.635322159003408,0.8308424908424907,1.0016849816849815,0.6406593406593406
2.6402324730006512,0.8308424908424907,1.0016849816849815,0.6406593406593406
2.64631102700514,0.8308424908424907,1.0016849816849815,0.6406593406593406
2.6512201120058307,0.8308424908424907,1.0016849816849815,0.6406593406593406
2.657314727002813,0.9082051282051282,0.6084249084249085,1.4747252747252748
2.6622060280060396,0.9082051282051282,0.6084249084249085,1.4747252747252748
2.6684180020019994,0.32717948717948714,0.09428571428571428,1.4062271062271061
2.6733789940044517,0.04029304029304029,0.34813186813186814,2.025128205128205
2.6784453770014807,0.469010989010989,0.4416117216117216,1.2104029304029302
2.6833242650027387,0.469010989010989,0.4416117216117216,1.2104029304029302
2.689454346000275,0.303003663003663,0.10637362637362638,1.3836630036630035
2.6943124450044706,0.303003663003663,0.10637362637362638,1.3836630036630035
2.7016277040020213,0.3586080586080586,0.3642490842490842,1.099194139194139
2.7078226700032246,0.3586080586080586,0.3642490842490842,1.099194139194139
2.7126699410000583,0.3586080586080586,0.3642490842490842,1.099194139194139
2.720023622001463,0.3586080586080586,0.3642490842490842,1.099194139194139
2.725959598006739,0.3586080586080586,0.3642490842490842,1.099194139194139
2.730772731003526,0.3586080586080586,0.3642490842490842,1.099194139194139
2.7379927780057187,0.7454212454212454,0.8953113553113552,1.0387545787545787
2.7440598150060396,0.7454212454212454,0.8953113553113552,1.0387545787545787
2.7488781150022987,1.54,0.9541391941391941,0.9879853479853479
2.754985701001715,1.54,0.9541391941391941,0.9879853479853479
2.7598472890022094,1.54,0.9541391941391941,0.9879853479853479
2.767126892002125,1.0774358974358973,0.5431501831501832,1.3522344322344322
2.773377634002827,1.0774358974358973,0.5431501831501832,1.3522344322344322
2.778277060002438,0.801025641025641,0.6527472527472526,1.2265201465201465
2.7858734040055424,0.801025641025641,0.6527472527472526,1.2265201465201465
2.7921135180004057,0.09992673992673992,0.09428571428571428,1.129010989010989
2.7971802669999306,0.09992673992673992,0.09428571428571428,1.129010989010989
2.800889238002128,0.5721611721611721,0.6253479853479853,3.2508424908424907
2.8071831820052466,0.5721611721611721,0.6253479853479853,3.2508424908424907
2.81202689800557,0.07252747252747253,0.3424908424908425,1.9654945054945054
2.816845770001237,0.07252747252747253,0.3424908424908425,1.9654945054945054
2.8254082260027644,0.07252747252747253,0.3424908424908425,1.9654945054945054
2.832834348002507,0.07252747252747253,0.3424908424908425,1.9654945054945054
2.8390126040030736,0.07252747252747253,0.3424908424908425,1.9654945054945054
2.843865476002975,0.0,0.4424175824175824,2.4038827838827834
2.8499863800025196,0.3457142857142857,0.0838095238095238,1.4368498168498167
2.854885810003907,0.5794139194139193,0.6334065934065934,0.24336996336996336
2.864869044002262,0.9541391941391941,0.6189010989010989,1.5045421245421244
2.8735255950014107,0.17084249084249084,0.5310622710622711,2.717362637362637
2.8808990670004277,0.17084249084249084,0.5310622710622711,2.717362637362637
2.8870962430009968,0.17084249084249084,0.5310622710622711,2.717362637362637
2.8920261550010764,0.17084249084249084,0.5310622710622711,2.717362637362637
2.896902444001171,0.17084249084249084,0.5310622710622711,2.717362637362637
2.9041887520070304,0.1386080586080586,0.27399267399267396,0.8582417582417583
2.9103020280017518,0.1386080586080586,0.27399267399267396,0.8582417582417583
2.9150732000052813,0.1386080586080586,0.27399267399267396,0.8582417582417583
2.922218954001437,0.3642490842490842,0.36747252747252745,1.124981684981685
2.9281634250000934,0.3642490842490842,0.36747252747252745,1.124981684981685
2.934376102006354,0.3642490842490842,0.36747252747252745,1.124981684981685
2.9397497460013255,0.3642490842490842,0.36747252747252745,1.124981684981685
2.940053025005909,0.3642490842490842,0.36747252747252745,1.124981684981685
2.950979263005138,0.3642490842490842,0.36747252747252745,1.124981684981685
2.959542769000109,0.03545787545787545,0.09589743589743589,1.0266666666666666
2.9668132000006153,0.03545787545787545,0.09589743589743589,1.0266666666666666
2.972994561001542,0.03545787545787545,0.09589743589743589,1.0266666666666666
2.981436042005953,0.6269597069597069,0.523003663003663,1.3143589743589743
2.9912524280007347,0.6269597069597069,0.523003663003663,1.3143589743589743
3.0037228310029604,1.4167032967032966,0.7252747252747253,2.448205128205128
3.0187299690005602,1.4167032967032966,0.7252747252747253,2.448205128205128
3.036177587004204,1.4167032967032966,0.7252747252747253,2.448205128205128
3.0365831780000008,1.4167032967032966,0.7252747252747253,2.448205128205128
3.0487839780034847,1.4167032967032966,0.7252747252747253,2.448205128205128
3.0629651290000766,1.4167032967032966,0.7252747252747253,2.448205128205128
3.072268175004865,1.4167032967032966,0.7252747252747253,2.448205128205128
3.0829262510014814,1.4167032967032966,0.7252747252747253,2.448205128205128
3.0946308500060695,1.4167032967032966,0.7252747252747253,2.448205128205128
3.1031738850069814,1.4167032967032966,0.7252747252747253,2.448205128205128
3.109369792000507,1.4167032967032966,0.7252747252747253,2.448205128205128
3.1178655330004403,1.6584615384615384,0.9323809523809523,3.3
3.1257354610061157,1.1902564102564102,0.7816849816849816,3.3
3.132032274006633,1.1902564102564102,0.7816849816849816,3.3
3.1387263540018466,1.1902564102564102,0.7816849816849816,3.3
3.1450653670035535,1.1902564102564102,0.7816849816849816,3.3
3.1513779460001388,1.1902564102564102,0.7816849816849816,3.3
3.157631295005558,1.1902564102564102,0.7816849816849816,3.3
3.164264564002224,0.5544322344322344,0.4512820512820513,1.261172161172161
3.1708145900047384,0.5544322344322344,0.4512820512820513,1.261172161172161
3.176133129003574,0.7397802197802198,0.8824175824175824,1.0621245421245422
3.177694499005156,0.42468864468864465,0.3852014652014652,1.1612454212454213
3.1842161060048966,0.42468864468864465,0.3852014652014652,1.1612454212454213
3.189333465001255,1.3272527472527473,1.0153846153846153,1.191062271062271
3.192513695001253,1.3272527472527473,1.0153846153846153,1.191062271062271
3.192831735002983,1.3272527472527473,1.0153846153846153,1.191062271062271
3.2009801720050746,1.3272527472527473,1.0153846153846153,1.191062271062271
3.209794022004644,1.3272527472527473,1.0153846153846153,1.191062271062271
3.217658936002408,0.23853479853479853,0.11765567765567764,1.3312820512820513
3.22423663000518,0.23853479853479853,0.11765567765567764,1.3312820512820513
3.230436380006722,0.8308424908424907,0.19904761904761903,1.5802930402930402
3.23574193600507,0.518974358974359,0.6108424908424909,0.32476190476190475
3.237148321000859,0.518974358974359,0.6108424908424909,0.32476190476190475
3.2478452610012027,0.518974358974359,0.6108424908424909,0.32476190476190475
3.254819641006179,0.518974358974359,0.6108424908424909,0.32476190476190475
3.262392174001434,0.518974358974359,0.6108424908424909,0.32476190476190475
3.267567773000337,0.518974358974359,0.6108424908424909,0.32476190476190475
3.270135869002843,0.518974358974359,0.6108424908424909,0.32476190476190475
3.279695677003474,0.518974358974359,0.6108424908424909,0.32476190476190475
3.2861752750031883,0.09106227106227105,0.25465201465201465,0.834065934065934
3.2922923540027114,0.7921611721611721,0.7035164835164834,3.3
3.2991710230053286,0.7921611721611721,0.7035164835164834,3.3
3.3081396380002843,0.7921611721611721,0.7035164835164834,3.3
3.3176321760038263,0.1539194139194139,0.10315018315018315,1.244249084249084
3.3286083610000787,0.1539194139194139,0.10315018315018315,1.244249084249084
3.3414753200049745,0.7147985347985348,0.9017582417582416,0.4593406593406593
3.3498477850007475,0.7147985347985348,0.9017582417582416,0.4593406593406593
3.3614007780051907,0.7147985347985348,0.9017582417582416,0.4593406593406593
3.369259528000839,0.6632234432234432,0.5302564102564102,1.3715750915750915
3.3773712160036666,0.21597069597069596,0.1265201465201465,1.2861538461538462
3.384450490004383,0.4859340659340659,0.4126007326007326,1.224102564102564
3.3895163370034425,0.4859340659340659,0.4126007326007326,1.224102564102564
3.3962882440027897,0.4859340659340659,0.4126007326007326,1.224102564102564
3.401425868003571,0.4859340659340659,0.4126007326007326,1.224102564102564
3.4051734100066824,0.4859340659340659,0.4126007326007326,1.224102564102564
3.414922062002006,1.68021978021978,0.9041758241758242,3.0695238095238095
3.423600828005874,1.68021978021978,0.9041758241758242,3.0695238095238095
3.430885059002321,0.12329670329670328,0.23047619047619047,1.4545787545787545
3.437424176001514,0.12329670329670328,0.23047619047619047,1.4545787545787545
3.444464138003241,0.12329670329670328,0.23047619047619047,1.4545787545787545
3.4512214610003866,0.12007326007326008,0.10798534798534798,1.1813919413919414
3.45626888100378,0.5858608058608058,0.34007326007326005,0.2328937728937729
3.463974340003915,0.5858608058608058,0.34007326007326005,0.2328937728937729
3.470644967004773,0.5858608058608058,0.34007326007326005,0.2328937728937729
3.479021242004819,1.211208791208791,0.8679120879120878,3.3
3.4877379730023677,1.211208791208791,0.8679120879120878,3.3
3.497141335006745,0.2909157509157509,0.09509157509157509,1.3796336996336995
3.5041833330033114,0.2909157509157509,0.09509157509157509,1.3796336996336995
3.510923380999884,0.2909157509157509,0.09509157509157509,1.3796336996336995
3.520125156006543,0.2909157509157509,0.09509157509157509,1.3796336996336995
3.529372590004641,0.713992673992674,0.1523076923076923,1.556117216117216
3.5373537650011713,0.5238095238095237,0.10637362637362638,1.506959706959707
3.5464458340065903,0.5238095238095237,0.10637362637362638,1.506959706959707
3.5534109580039512,0.5238095238095237,0.10637362637362638,1.506959706959707
3.5600385120051214,0.5238095238095237,0.10637362637362638,1.506959706959707
3.5643533220063546,0.10476190476190475,0.25465201465201465,0.8920879120879119
3.5657336550066248,0.10476190476190475,0.25465201465201465,0.8920879120879119
3.578612672004965,0.10476190476190475,0.25465201465201465,0.8920879120879119
3.5871772280006553,0.805054945054945,0.9799267399267398,0.8147252747252747
3.5978364020047593,0.805054945054945,0.9799267399267398,0.8147252747252747
3.6055315360063105,0.805054945054945,0.9799267399267398,0.8147252747252747
3.615890366003441,0.805054945054945,0.9799267399267398,0.8147252747252747
3.627206182005466,0.805054945054945,0.9799267399267398,0.8147252747252747
3.635211012006039,1.0395604395604394,0.4810989010989011,1.3578754578754577
3.6422497410021606,1.0395604395604394,0.4810989010989011,1.3578754578754577
3.6477281370025594,1.0395604395604394,0.4810989010989011,1.3578754578754577
3.6479344840045087,0.06366300366300366,0.11604395604395604,1.0371428571428571
3.6557620230014436,0.06366300366300366,0.11604395604395604,1.0371428571428571
3.663128244006657,0.7164102564102564,0.5689377289377289,1.3804395604395605
3.6695699360061553,0.7164102564102564,0.5689377289377289,1.3804395604395605
3.675105298003473,0.7164102564102564,0.5689377289377289,1.3804395604395605
3.684692285001802,0.7164102564102564,0.5689377289377289,1.3804395604395605
3.693250762000389,0.7164102564102564,0.5689377289377289,1.3804395604395605
3.7002671850059414,0.06285714285714286,0.39487179487179486,1.9961172161172158
3.7053819870052394,0.06285714285714286,0.39487179487179486,1.9961172161172158
3.709888844001398,0.06285714285714286,0.39487179487179486,1.9961172161172158
3.7205542830051854,0.6334065934065934,0.36827838827838827,0.22725274725274724
3.7304330650003976,0.6334065934065934,0.36827838827838827,0.22725274725274724
3.738189510004304,0.6334065934065934,0.36827838827838827,0.22725274725274724
3.7459753670045757,0.6334065934065934,0.36827838827838827,0.22725274725274724
3.7523280280001927,0.6334065934065934,0.36827838827838827,0.22725274725274724
3.7574622870015446,0.6334065934065934,0.36827838827838827,0.22725274725274724
3.762392238000757,0.6334065934065934,0.36827838827838827,0.22725274725274724
3.766178199002752,0.6334065934065934,0.36827838827838827,0.22725274725274724
3.7714187260062317,0.6334065934065934,0.36827838827838827,0.22725274725274724
3.774303622005391,0.6334065934065934,0.36827838827838827,0.22725274725274724
3.778690043000097,0.7365567765567765,0.5495970695970696,1.4062271062271061
3.7788998820033157,0.7365567765567765,0.5495970695970696,1.4062271062271061
3.786715483001899,0.7365567765567765,0.5495970695970696,1.4062271062271061
3.794269563004491,0.7365567765567765,0.5495970695970696,1.4062271062271061
3.800435612000001,0.7365567765567765,0.5495970695970696,1.4062271062271061
3.8068856180034345,0.7365567765567765,0.5495970695970696,1.4062271062271061
3.813890611003444,0.7365567765567765,0.5495970695970696,1.4062271062271061
3.819035057000292,0.7365567765567765,0.5495970695970696,1.4062271062271061
3.8216362180028227,1.0653479853479852,0.4722344322344322,0.11684981684981684
3.8323561670040363,1.0653479853479852,0.4722344322344322,0.11684981684981684
3.8407332810020307,1.0653479853479852,0.4722344322344322,0.11684981684981684
3.848361449003278,1.0653479853479852,0.4722344322344322,0.11684981684981684
3.8549079180011177,1.0653479853479852,0.4722344322344322,0.11684981684981684
3.8606789460027358,0.7365567765567765,0.5632967032967032,1.4287912087912087
3.868766023006174,0.7365567765567765,0.5632967032967032,1.4287912087912087
3.87703142400278,1.6012454212454212,0.9476923076923076,3.3
3.883491448999848,1.17010989010989,0.6906227106227106,1.518241758241758
3.888550229006796,0.48754578754578753,0.09186813186813186,1.5214652014652015
3.896276020001096,0.48754578754578753,0.09186813186813186,1.5214652014652015
3.9044920330052264,0.48754578754578753,0.09186813186813186,1.5214652014652015
3.9110878160063294,0.48754578754578753,0.09186813186813186,1.5214652014652015
3.916385958000319,0.776043956043956,0.942051282051282,0.48432234432234433
3.9224191540051834,0.776043956043956,0.942051282051282,0.48432234432234433
3.928142712000408,0.776043956043956,0.942051282051282,0.48432234432234433
3.9349986650049686,0.06285714285714286,0.30622710622710625,1.6697435897435895
3.9400879260065267,0.06285714285714286,0.30622710622710625,1.6697435897435895
3.945013414006098,0.06285714285714286,0.30622710622710625,1.6697435897435895
3.9475895630021114,0.06849816849816849,0.1555311355311355,0.909010989010989
3.95387005500379,0.06849816849816849,0.1555311355311355,0.909010989010989
3.9614045260022976,0.06849816849816849,0.1555311355311355,0.909010989010989
3.9664667190008913,1.4207326007326007,0.6833699633699634,3.3
3.9690596910004388,1.4207326007326007,0.6833699633699634,3.3
3.977915927003778,1.4207326007326007,0.6833699633699634,3.3
3.984407594005461,1.4207326007326007,0.6833699633699634,3.3
3.990028969004925,1.4207326007326007,0.6833699633699634,3.3
3.9901881060068263,0.5681318681318681,0.5657142857142857,0.21677655677655677
4.004665013002523,0.5681318681318681,0.5657142857142857,0.21677655677655677
4.02117913600523,0.5681318681318681,0.5657142857142857,0.21677655677655677
4.03734245000669,0.8268131868131867,1.0403663003663002,0.5600732600732601
4.052205929001502,0.8268131868131867,1.0403663003663002,0.5600732600732601
4.052503984006762,0.8268131868131867,1.0403663003663002,0.5600732600732601
4.061818329006201,0.8268131868131867,1.0403663003663002,0.5600732600732601
4.07343597500585,0.8268131868131867,1.0403663003663002,0.5600732600732601
4.086171485003433,0.8268131868131867,1.0403663003663002,0.5600732600732601
4.097596642001008,0.8268131868131867,1.0403663003663002,0.5600732600732601
4.105850158004614,0.8268131868131867,1.0403663003663002,0.5600732600732601
4.116545866003435,0.8268131868131867,1.0403663003663002,0.5600732600732601
4.126820099001634,0.7647619047619048,0.7816849816849816,3.3
4.136108194004919,0.7647619047619048,0.7816849816849816,3.3
4.147884201003762,0.8695238095238095,0.5826373626373627,1.282930402930403
4.1557432930057985,0.8695238095238095,0.5826373626373627,1.282930402930403
4.163922777006519,0.8695238095238095,0.5826373626373627,1.282930402930403
4.170572285001981,0.8695238095238095,0.5826373626373627,1.282930402930403
4.177541431003192,0.8695238095238095,0.5826373626373627,1.282930402930403
4.18268940600683,0.8695238095238095,0.5826373626373627,1.282930402930403
4.186443272003089,0.8695238095238095,0.5826373626373627,1.282930402930403
4.191947193001397,0.8695238095238095,0.5826373626373627,1.282930402930403
4.192363120004302,0.8695238095238095,0.5826373626373627,1.282930402930403
4.19862447000196,0.8695238095238095,0.5826373626373627,1.282930402930403
4.203717300006247,0.8695238095238095,0.5826373626373627,1.282930402930403
4.207827914004156,0.8695238095238095,0.5826373626373627,1.282930402930403
4.213072804006515,0.8695238095238095,0.5826373626373627,1.282930402930403
4.213407088005624,0.8695238095238095,0.5826373626373627,1.282930402930403
4.221096892004425,0.8695238095238095,0.5826373626373627,1.282930402930403
4.229497750005976,0.8695238095238095,0.5826373626373627,1.282930402930403
4.235877129001892,0.0,0.06446886446886446,0.9767032967032967
4.239797843001725,0.19824175824175824,0.3142857142857142,0.9750915750915751
4.247916624000936,0.19824175824175824,0.3142857142857142,0.9750915750915751
4.25488759700238,0.19824175824175824,0.3142857142857142,0.9750915750915751
4.262241798001924,0.5874725274725274,0.3223443223443223,0.4222710622710622
4.26740948400402,1.1241758241758242,0.5084981684981685,0.2328937728937729
4.269988892003312,1.4038095238095236,0.8542124542124543,3.3
4.278140151000116,1.4038095238095236,0.8542124542124543,3.3
4.2843773610002245,0.03223443223443223,0.27238095238095233,1.5528937728937728
4.289666408003541,0.4996336996336996,0.07736263736263736,1.5375824175824175
4.29142754800705,0.4996336996336996,0.07736263736263736,1.5375824175824175
4.2979390940017765,0.4996336996336996,0.07736263736263736,1.5375824175824175
4.303050346003147,0.4996336996336996,0.07736263736263736,1.5375824175824175
4.306884497003921,0.4996336996336996,0.07736263736263736,1.5375824175824175
4.312656761001563,0.4996336996336996,0.07736263736263736,1.5375824175824175
4.3272387530014385,0.4996336996336996,0.07736263736263736,1.5375824175824175
4.336589531005302,0.4996336996336996,0.07736263736263736,1.5375824175824175
4.345496470006765,0.5616849816849817,0.31509157509157504,0.36344322344322344
4.352072819005116,0.5616849816849817,0.31509157509157504,0.36344322344322344
4.358141266005987,0.5616849816849817,0.31509157509157504,0.36344322344322344
4.366764636004518,0.0,0.4279120879120879,2.314432234432234
4.3763560310035245,0.0,0.4279120879120879,2.314432234432234
4.387551457002701,0.0,0.4279120879120879,2.314432234432234
4.396060714003397,0.0,0.4279120879120879,2.314432234432234
4.404219005002233,1.203150183150183,0.7075457875457875,3.3
4.4147046850048355,1.203150183150183,0.7075457875457875,3.3
4.4240062670069165,1.203150183150183,0.7075457875457875,3.3
4.437025987004745,1.203150183150183,0.7075457875457875,3.3
4.4495748250046745,0.6793406593406592,0.8808058608058608,0.43355311355311354
4.458144458003517,0.3779487179487179,0.11282051282051282,1.4578021978021978
4.4666065180063015,0.3779487179487179,0.11282051282051282,1.4578021978021978
4.475737626002228,1.3264468864468864,0.9307692307692307,3.3
4.486285800005135,1.3264468864468864,0.9307692307692307,3.3
4.49744102400291,1.3264468864468864,0.9307692307692307,3.3
4.505139927001437,0.9533333333333331,0.6035897435897435,1.5464468864468863
4.515674034002586,0.9533333333333331,0.6035897435897435,1.5464468864468863
4.528365040001518,0.5971428571428571,0.3698901098901099,0.21435897435897436
4.543992736005748,0.5971428571428571,0.3698901098901099,0.21435897435897436
4.560914378002053,0.04271062271062271,0.1571428571428571,0.9082051282051282
4.5728433140029665,0.04271062271062271,0.1571428571428571,0.9082051282051282
4.573127918003593,0.2651282051282051,0.1249084249084249,1.3635164835164835
4.582378110004356,0.2651282051282051,0.1249084249084249,1.3635164835164835
4.5902496650014655,0.2651282051282051,0.1249084249084249,1.3635164835164835
4.598106823003036,0.2651282051282051,0.1249084249084249,1.3635164835164835
4.604616596006963,0.14989010989010987,0.2772161172161172,0.8574358974358974
4.611085724005534,0.14989010989010987,0.2772161172161172,0.8574358974358974
4.61680450100539,0.14989010989010987,0.2772161172161172,0.8574358974358974
4.627138712006854,0.14989010989010987,0.2772161172161172,0.8574358974358974
4.633767043000262,0.14989010989010987,0.2772161172161172,0.8574358974358974
4.638981444004457,0.14989010989010987,0.2772161172161172,0.8574358974358974
4.640521199005889,0.14989010989010987,0.2772161172161172,0.8574358974358974
4.648256426000444,0.14989010989010987,0.2772161172161172,0.8574358974358974
4.655270482006017,0.14989010989010987,0.2772161172161172,0.8574358974358974
4.662849789005122,0.14989010989010987,0.2772161172161172,0.8574358974358974
4.672766995005077,0.14989010989010987,0.2772161172161172,0.8574358974358974
4.683667599005275,0.8106959706959707,0.9839560439560439,0.7051282051282051
4.693559750005079,0.16842490842490843,0.2772161172161172,0.9476923076923076
4.701997429001494,0.16842490842490843,0.2772161172161172,0.9476923076923076
4.712096376002592,0.16842490842490843,0.2772161172161172,0.9476923076923076
4.7252266030045575,0.16842490842490843,0.2772161172161172,0.9476923076923076
4.733774517000711,0.16842490842490843,0.2772161172161172,0.9476923076923076
4.7432782010000665,0.16842490842490843,0.2772161172161172,0.9476923076923076
4.7520068410012755,0.6285714285714284,0.1104029304029304,1.5504761904761903
4.761963132004894,0.6285714285714284,0.1104029304029304,1.5504761904761903
4.769236247004301,1.0999999999999999,0.734139194139194,3.3
4.777580273002968,1.6939194139194136,0.9186813186813186,3.3
4.782690244006517,0.7454212454212454,0.8534065934065934,1.0895238095238093
4.7852634959999705,0.22564102564102564,0.1249084249084249,1.3167765567765568
4.794912964003743,0.22564102564102564,0.1249084249084249,1.3167765567765568
4.8024103390052915,1.2273260073260073,0.7164102564102564,1.473113553113553
4.809763835000922,1.1233699633699634,0.5221978021978021,0.24095238095238095
4.816345852006634,1.2192673992673992,0.8453479853479853,3.3
4.820504321003682,0.9936263736263735,0.6777289377289377,3.3
4.82091642600426,0.9936263736263735,0.6777289377289377,3.3
4.834397986000113,0.9936263736263735,0.6777289377289377,3.3
4.846625802005292,0.9936263736263735,0.6777289377289377,3.3
4.8543767139999545,0.9936263736263735,0.6777289377289377,3.3
4.863948218000587,0.805054945054945,1.0016849816849815,0.7365567765567765
4.870569181002793,1.357069597069597,1.0049084249084248,1.095164835164835
4.87799776000611,0.03868131868131868,0.4214652014652014,2.3120146520146516
4.887806502003514,0.1104029304029304,0.24578754578754577,1.502124542124542
4.897796622004535,0.3924542124542124,0.10153846153846154,1.4852014652014651
4.907244972004264,0.3924542124542124,0.10153846153846154,1.4852014652014651
4.916102547002083,0.2562637362637363,0.15956043956043955,1.1652747252747253
4.924227779003559,0.2562637362637363,0.15956043956043955,1.1652747252747253
4.932143607002217,0.2562637362637363,0.15956043956043955,1.1652747252747253
4.938746658001037,1.6399267399267399,0.9428571428571427,3.3
4.945386692001193,0.06849816849816849,0.24014652014652016,0.8026373626373626
4.950418851003633,0.06124542124542124,0.1241025641025641,1.0766300366300365
4.9557086050044745,0.06124542124542124,0.1241025641025641,1.0766300366300365
4.957353097001032,0.06124542124542124,0.1241025641025641,1.0766300366300365
4.962328655004967,0.06124542124542124,0.1241025641025641,1.0766300366300365
4.966209334001178,0.06124542124542124,0.1241025641025641,1.0766300366300365
4.970085269000265,0.06124542124542124,0.1241025641025641,1.0766300366300365
4.974191211003927,1.2104029304029302,0.8703296703296703,3.3
4.97784254400176,1.2104029304029302,0.8703296703296703,3.3
4.984567592000531,0.6205128205128204,0.66,3.2846886446886447
4.989668269001413,0.6205128205128204,0.66,3.2846886446886447
4.994577090001258,0.6205128205128204,0.66,3.2846886446886447
4.998328727000626,0.6205128205128204,0.66,3.2846886446886447
5.004628427006537,0.6205128205128204,0.66,3.2846886446886447
5.011284681000689,0.6205128205128204,0.66,3.2846886446886447
5.016524056001799,0.6205128205128204,0.66,3.2846886446886447
5.019172381005774,0.6205128205128204,0.66,3.2846886446886447
5.026740597000753,0.6205128205128204,0.66,3.2846886446886447
5.031883450006717,0.3038095238095238,0.12087912087912088,1.3756043956043955
5.0355917920023785,0.3038095238095238,0.12087912087912088,1.3756043956043955
5.043054910005594,0.3038095238095238,0.12087912087912088,1.3756043956043955
5.048569088001386,0.3038095238095238,0.12087912087912088,1.3756043956043955
5.048819716001162,0.3038095238095238,0.12087912087912088,1.3756043956043955
5.056655455002328,0.3038095238095238,0.12087912087912088,1.3756043956043955
5.064107600002899,0.3038095238095238,0.12087912087912088,1.3756043956043955
5.070635518000927,0.3038095238095238,0.12087912087912088,1.3756043956043955
5.077358099006233,0.3038095238095238,0.12087912087912088,1.3756043956043955
5.082661549000477,1.3256410256410256,0.6019780219780219,2.9317216117216116
5.0841138630057685,1.3256410256410256,0.6019780219780219,2.9317216117216116
5.091288611001801,0.14102564102564102,0.09428571428571428,1.2434432234432233
5.101013474006322,0.18695970695970696,0.48835164835164835,2.6085714285714285
5.110329699004069,1.1419047619047618,0.718021978021978,3.3
5.118496565002715,0.06043956043956044,0.11443223443223444,1.0838827838827838
5.127721796001424,1.1789743589743589,0.6922344322344323,1.4674725274725273
5.134321635006927,1.1789743589743589,0.6922344322344323,1.4674725274725273
5.139541187003488,0.834065934065934,1.0468131868131867,0.7413919413919414
5.1432377330056624,0.834065934065934,1.0468131868131867,0.7413919413919414
5.148695275005593,0.834065934065934,1.0468131868131867,0.7413919413919414
5.158261739001318,0.834065934065934,1.0468131868131867,0.7413919413919414
5.167055313002493,0.834065934065934,1.0468131868131867,0.7413919413919414
5.175139032005973,0.834065934065934,1.0468131868131867,0.7413919413919414
5.182341464002093,0.7421978021978022,0.5286446886446886,1.4167032967032966
5.188630340002419,0.7728205128205128,0.31509157509157504,0.3465201465201465
5.194839367002714,0.5898901098901098,0.6986813186813187,3.1807326007326004
5.20015023000451,0.5898901098901098,0.6986813186813187,3.1807326007326004
5.202788750000764,0.5898901098901098,0.6986813186813187,3.1807326007326004
5.210246826005459,0.4432234432234432,0.083003663003663,1.452161172161172
5.215385033006896,0.7631501831501831,0.9315750915750916,0.6616117216117217
5.219199273000413,0.6326007326007326,0.5044688644688645,1.344981684981685
5.226725858999998,0.6326007326007326,0.5044688644688645,1.344981684981685
5.235610305004229,0.6326007326007326,0.5044688644688645,1.344981684981685
5.244470839999849,0.6326007326007326,0.5044688644688645,1.344981684981685
5.2520684730043286,0.6326007326007326,0.5044688644688645,1.344981684981685
5.261988611004199,0.9323809523809523,0.5890842490842491,1.448131868131868
5.268099611006619,0.3263736263736263,0.3908424908424908,1.0685714285714285
5.275206246005837,0.0,0.09186813186813186,0.8445421245421244
5.281597413006239,0.8816117216117215,1.0443956043956042,0.8848351648351648
5.286637791999965,0.8816117216117215,1.0443956043956042,0.8848351648351648
5.290719023003476,0.8816117216117215,1.0443956043956042,0.8848351648351648
5.292949841001246,0.8816117216117215,1.0443956043956042,0.8848351648351648
5.301992323002196,0.8816117216117215,1.0443956043956042,0.8848351648351648
5.309854704006284,0.8816117216117215,1.0443956043956042,0.8848351648351648
5.316272797004785,0.8816117216117215,1.0443956043956042,0.8848351648351648
5.321361736001563,0.8816117216117215,1.0443956043956042,0.8848351648351648
5.32508610500372,0.0,0.41098901098901097,2.194358974358974
5.3314553030068055,0.04673992673992674,0.1249084249084249,0.942051282051282
5.336614840001857,1.2144322344322345,0.8445421245421244,3.3
5.3392391270026565,0.3602197802197802,0.3344322344322344,1.083076923076923
5.346870067005511,0.3602197802197802,0.3344322344322344,1.083076923076923
5.353540303003683,0.3602197802197802,0.3344322344322344,1.083076923076923
5.3586808780019055,0.17487179487179486,0.2361172161172161,1.3304761904761904
5.361205826004152,0.17487179487179486,0.2361172161172161,1.3304761904761904
5.36871550000069,1.2724542124542124,0.6189010989010989,0.45369963369963373
5.37546818300325,1.2724542124542124,0.6189010989010989,0.45369963369963373
5.381687466004223,1.2724542124542124,0.6189010989010989,0.45369963369963373
5.38699825200456,1.2724542124542124,0.6189010989010989,0.45369963369963373
5.38830949900148,1.2724542124542124,0.6189010989010989,0.45369963369963373
5.398721336001472,1.2724542124542124,0.6189010989010989,0.45369963369963373
5.4086178750003455,1.2724542124542124,0.6189010989010989,0.45369963369963373
5.416766523005208,1.1298168498168497,0.6664468864468864,0.6962637362637363
5.423288901001797,1.1435164835164835,0.6567765567765567,1.5085714285714285
5.42842752100114,1.1435164835164835,0.6567765567765567,1.5085714285714285
5.43102447000274,1.1435164835164835,0.6567765567765567,1.5085714285714285
5.437362020005821,1.2047619047619047,0.46417582417582415,1.6084981684981683
5.442418082006043,1.2047619047619047,0.46417582417582415,1.6084981684981683
5.447526824005763,1.1821978021978021,0.6712820512820512,0.6761172161172161
5.4501553240042995,1.1821978021978021,0.6712820512820512,0.6761172161172161
5.4564900520053925,0.7832967032967032,0.9194871794871795,0.6132600732600733
5.461362153000664,0.7832967032967032,0.9194871794871795,0.6132600732600733
5.466191867002635,0.7832967032967032,0.9194871794871795,0.6132600732600733
5.472410313006549,0.7832967032967032,0.9194871794871795,0.6132600732600733
5.4774041490018135,0.7832967032967032,0.9194871794871795,0.6132600732600733
5.486341938005353,0.7832967032967032,0.9194871794871795,0.6132600732600733
5.492790604002948,0.7832967032967032,0.9194871794871795,0.6132600732600733
5.497585447999882,0.7832967032967032,0.9194871794871795,0.6132600732600733
5.505064409000624,0.664029304029304,0.4851282051282051,1.432014652014652
5.511226954004087,0.664029304029304,0.4851282051282051,1.432014652014652
5.5161349670015625,0.664029304029304,0.4851282051282051,1.432014652014652
5.522322838005493,0.664029304029304,0.4851282051282051,1.432014652014652
5.52727815000253,0.3078388278388278,0.07897435897435898,1.6576556776556775
5.530918041004043,0.3078388278388278,0.07897435897435898,1.6576556776556775
5.54108195900335,0.7357509157509158,0.6172893772893773,0.6527472527472526
5.547323882005003,0.7357509157509158,0.6172893772893773,0.6527472527472526
5.552489454006718,0.0,0.083003663003663,0.6011721611721611
5.5562977740046335,0.6358241758241758,0.20307692307692307,0.8058608058608058
5.56215545500163,0.6358241758241758,0.20307692307692307,0.8058608058608058
5.568285489003756,0.17487179487179486,0.4488644688644688,3.001025641025641
5.574412343004951,0.17487179487179486,0.4488644688644688,3.001025641025641
5.579491714001051,0.361025641025641,0.6334065934065934,1.1024175824175824
5.583316495001782,0.361025641025641,0.6334065934065934,1.1024175824175824
5.587145286001032,0.361025641025641,0.6334065934065934,1.1024175824175824
5.591066662003868,0.361025641025641,0.6334065934065934,1.1024175824175824
5.5974936290003825,0.1249084249084249,0.19018315018315018,1.046007326007326
5.602718232003099,0.809084249084249,0.2747985347985348,1.2772893772893772
5.60533429300267,1.187032967032967,1.0967765567765566,0.6632234432234432
5.613009717002569,1.187032967032967,1.0967765567765566,0.6632234432234432
5.61946287000319,1.187032967032967,1.0967765567765566,0.6632234432234432
5.624589854000078,1.187032967032967,1.0967765567765566,0.6632234432234432
5.627180940005928,1.187032967032967,1.0967765567765566,0.6632234432234432
5.6354553700002725,1.187032967032967,1.0967765567765566,0.6632234432234432
5.648636352001631,0.6003663003663003,0.5358974358974359,1.3538461538461537
5.664216840006702,0.6003663003663003,0.5358974358974359,1.3538461538461537
5.681959490000736,0.6003663003663003,0.5358974358974359,1.3538461538461537
5.6996741560069495,0.6003663003663003,0.5358974358974359,1.3538461538461537
5.716885104004177,0.6003663003663003,0.5358974358974359,1.3538461538461537
5.730748615002085,0.35216117216117215,0.20307692307692307,0.8517948717948718
5.731044511005166,0.35216117216117215,0.20307692307692307,0.8517948717948718
5.743760678000399,0.35216117216117215,0.20307692307692307,0.8517948717948718
5.758873010003299,0.35216117216117215,0.20307692307692307,0.8517948717948718
5.772732504003216,0.11282051282051282,0.6487179487179486,3.0106959706959704
5.78439682800672,0.11282051282051282,0.6487179487179486,3.0106959706959704
5.797018638004374,0.12974358974358974,0.5987545787545787,3.3
5.810008018001099,0.12974358974358974,0.5987545787545787,3.3
5.819917432003422,1.3578754578754577,0.6753113553113552,0.38036630036630037
5.829304474005767,0.1418315018315018,0.3892307692307692,1.3127472527472526
5.837133175002236,0.1418315018315018,0.3892307692307692,1.3127472527472526
5.8449390010064235,0.1418315018315018,0.3892307692307692,1.3127472527472526
5.8515661640049075,1.6286446886446886,1.0782417582417583,0.788937728937729
5.856710520005436,1.6286446886446886,1.0782417582417583,0.788937728937729
5.861596873000963,1.6286446886446886,1.0782417582417583,0.788937728937729
5.86535784300213,1.6286446886446886,1.0782417582417583,0.788937728937729
5.870456615004514,1.6286446886446886,1.0782417582417583,0.788937728937729
5.873186585005897,1.6286446886446886,1.0782417582417583,0.788937728937729
5.881021809000231,1.6286446886446886,1.0782417582417583,0.788937728937729
5.887389952004014,1.6286446886446886,1.0782417582417583,0.788937728937729
5.893628500001796,1.6286446886446886,1.0782417582417583,0.788937728937729
5.897572965004656,1.6286446886446886,1.0782417582417583,0.788937728937729
5.901393722000648,1.6286446886446886,1.0782417582417583,0.788937728937729
5.906602151000698,1.6286446886446886,1.0782417582417583,0.788937728937729
5.910119096006383,0.0,0.07172161172161172,1.195091575091575
5.91675986800692,0.776043956043956,0.29655677655677654,0.850989010989011
5.921850336002535,0.9509157509157508,0.43032967032967034,2.5561904761904763
5.9266667690026225,0.9509157509157508,0.43032967032967034,2.5561904761904763
5.931882028002292,0.9509157509157508,0.43032967032967034,2.5561904761904763
5.9335040760051925,0.9509157509157508,0.43032967032967034,2.5561904761904763
5.938841745002719,0.9509157509157508,0.43032967032967034,2.5561904761904763
5.939107448000868,0.09670329670329669,0.2796336996336996,1.0371428571428571
5.94717264600331,0.09670329670329669,0.2796336996336996,1.0371428571428571
5.953680975006137,1.3514285714285714,0.9033699633699634,1.1797802197802196
5.962103266007034,1.3514285714285714,0.9033699633699634,1.1797802197802196
5.970464622005238,0.6326007326007326,0.722051282051282,3.108205128205128
5.977294666001399,0.09428571428571428,0.07413919413919413,1.2531135531135529
5.983402415004093,0.09428571428571428,0.07413919413919413,1.2531135531135529
5.990685758006293,0.07575091575091575,0.755091575091575,0.7325274725274724
5.99794113200187,0.07575091575091575,0.755091575091575,0.7325274725274724
6.003016148002644,0.07575091575091575,0.755091575091575,0.7325274725274724
6.008597767002357,0.07575091575091575,0.755091575091575,0.7325274725274724
6.020797235003556,0.07575091575091575,0.755091575091575,0.7325274725274724
6.0336506190069485,0.30945054945054945,0.42710622710622714,1.340952380952381
6.044243491000088,0.0821978021978022,0.3287912087912088,1.2716483516483517
6.052087052004936,0.0,0.26915750915750913,1.0073260073260073
6.060557089003851,0.0,0.26915750915750913,1.0073260073260073
6.066100900003221,0.010476190476190476,0.07816849816849816,0.9879853479853479
6.080267597004422,0.06446886446886446,0.13296703296703297,0.9718681318681318
6.089539384003729,0.06446886446886446,0.13296703296703297,0.9718681318681318
6.098939644005441,0.06446886446886446,0.13296703296703297,0.9718681318681318
6.107057334003912,0.06446886446886446,0.13296703296703297,0.9718681318681318
6.115112369006965,0.846153846153846,0.8566300366300367,3.2258608058608056
6.121992885004147,1.0548717948717947,0.502051282051282,1.021025641025641
6.128749463001441,1.0548717948717947,0.502051282051282,1.021025641025641
6.133962555002654,1.0548717948717947,0.502051282051282,1.021025641025641
6.135366332004196,1.0484249084249082,1.0580952380952382,0.3690842490842491
6.14564309000707,1.0484249084249082,1.0580952380952382,0.3690842490842491
6.15217417000531,0.045128205128205125,0.16197802197802197,0.3602197802197802
6.157615091004118,0.5173626373626373,0.8542124542124543,0.36827838827838827
6.157937619005679,0.5173626373626373,0.8542124542124543,0.36827838827838827
6.1659365790037555,0.5173626373626373,0.8542124542124543,0.36827838827838827
6.172490935001406,0.5173626373626373,0.8542124542124543,0.36827838827838827
6.179237839001871,0.5173626373626373,0.8542124542124543,0.36827838827838827
6.184360864004702,0.5173626373626373,0.8542124542124543,0.36827838827838827
6.186930148003739,0.2594871794871795,0.09025641025641025,1.1314285714285715
6.200833182003407,0.2594871794871795,0.09025641025641025,1.1314285714285715
6.2147341490053805,0.2594871794871795,0.09025641025641025,1.1314285714285715
6.227150054000958,1.2047619047619047,0.5520146520146519,1.5996336996336995
6.227608475004672,1.32,1.1467399267399265,2.063003663003663
6.233666378000635,1.32,1.1467399267399265,2.063003663003663
6.239551141006814,1.32,1.1467399267399265,2.063003663003663
6.246479193003324,1.32,1.1467399267399265,2.063003663003663
6.251650441001402,0.29655677655677654,0.18776556776556774,1.5174358974358972
6.255465941001603,0.29655677655677654,0.18776556776556774,1.5174358974358972
6.260357582003053,0.29655677655677654,0.18776556776556774,1.5174358974358972
6.265647166001145,0.29655677655677654,0.18776556776556774,1.5174358974358972
6.2659295160046895,0.29655677655677654,0.18776556776556774,1.5174358974358972
6.276590830006171,0.29655677655677654,0.18776556776556774,1.5174358974358972
6.284900250000646,0.5286446886446886,0.33684981684981685,1.506153846153846
6.293395028005762,0.5286446886446886,0.33684981684981685,1.506153846153846
6.300043973002175,0.5286446886446886,0.33684981684981685,1.506153846153846
6.30539337600203,0.8663003663003663,0.0,3.3
6.308573902002536,0.8663003663003663,0.0,3.3
6.3090290230029495,0.8663003663003663,0.0,3.3
6.314630629000021,0.8663003663003663,0.0,3.3
6.314790670003276,0.8115018315018314,0.0,1.5665934065934064
6.322655361000216,0.8115018315018314,0.0,1.5665934065934064
6.330496814000071,0.8115018315018314,0.0,1.5665934065934064
6.337216820000322,0.31509157509157504,0.0,1.008937728937729
6.344609351006511,0.31509157509157504,0.0,1.008937728937729
6.349714173004031,0.8598534798534798,2.552967032967033,0.4013186813186813
6.352493152000534,0.8598534798534798,2.552967032967033,0.4013186813186813
6.358822901005624,0.8598534798534798,2.552967032967033,0.4013186813186813
6.363458595005795,0.8598534798534798,2.552967032967033,0.4013186813186813
6.372583154006861,0.8598534798534798,2.552967032967033,0.4013186813186813
6.382278446006239,0.8598534798534798,2.552967032967033,0.4013186813186813
6.390460509006516,0.8598534798534798,2.552967032967033,0.4013186813186813
6.397496055004012,1.6205860805860803,1.1346520146520145,2.6625641025641027
6.402769229003752,0.6938461538461538,0.11443223443223444,1.4739194139194138
6.404197382005805,0.19824175824175824,0.2224175824175824,1.5037362637362637
6.413112271002319,0.19824175824175824,0.2224175824175824,1.5037362637362637
6.421379399005673,0.5568498168498168,1.1354578754578755,2.8906227106227105
6.429744044005929,1.2724542124542124,0.2224175824175824,2.2354578754578753
6.436476008006139,0.34007326007326005,1.8526739926739926,0.5262271062271061
6.442434007003612,0.34007326007326005,1.8526739926739926,0.5262271062271061
6.450658334004402,0.34007326007326005,1.8526739926739926,0.5262271062271061
6.457488161002402,0.34007326007326005,1.8526739926739926,0.5262271062271061
6.4633655280049425,0.7865201465201466,0.7599267399267399,1.0371428571428571
6.47351821600023,0.7865201465201466,0.7599267399267399,1.0371428571428571
6.483795655003632,0.2989743589743589,0.4448351648351648,1.324029304029304
6.494337088006432,0.0,0.26673992673992675,2.237875457875458
6.502077952005493,0.3843956043956044,0.4254945054945055,1.2861538461538462
6.511143663003168,0.3843956043956044,0.4254945054945055,1.2861538461538462
6.521821303002071,1.041978021978022,0.73010989010989,1.8978021978021975
6.530725075004739,0.3497435897435897,0.1571428571428571,0.9775091575091575
6.541147757001454,0.3497435897435897,0.1571428571428571,0.9775091575091575
6.54909997300274,0.3497435897435897,0.1571428571428571,0.9775091575091575
6.555793280000216,1.2506959706959706,0.6245421245421244,0.4585347985347985
6.5610687020016485,1.2506959706959706,0.6245421245421244,0.4585347985347985
6.561457761999918,1.2506959706959706,0.6245421245421244,0.4585347985347985
6.569178722005745,1.2506959706959706,0.6245421245421244,0.4585347985347985
6.575715901002695,1.2506959706959706,0.6245421245421244,0.4585347985347985
6.580933180004649,0.2643223443223443,0.5487912087912087,0.6785347985347985
6.582314746003249,0.04351648351648352,0.31347985347985347,2.465128205128205
6.594382881005004,0.04351648351648352,0.31347985347985347,2.465128205128205
6.608777150002425,0.3578021978021978,0.17164835164835165,0.9638095238095238
6.617366039004992,0.4166300366300366,0.6213186813186813,3.0727472527472526
6.629505650002102,0.8316483516483516,0.7043223443223443,0.3102564102564102
6.640997487003915,0.8316483516483516,0.7043223443223443,0.3102564102564102
6.65237974300544,0.8316483516483516,0.7043223443223443,0.3102564102564102
6.662267679006618,0.8316483516483516,0.7043223443223443,0.3102564102564102
6.671288086006825,0.8316483516483516,0.7043223443223443,0.3102564102564102
6.678901623003185,1.2660073260073261,0.6567765567765567,1.378021978021978
6.685205856003449,0.3537728937728937,0.502051282051282,1.2893772893772892
6.690157637000084,0.3537728937728937,0.502051282051282,1.2893772893772892
6.693810202006716,0.3537728937728937,0.502051282051282,1.2893772893772892
6.700002535006206,0.37150183150183147,0.4488644688644688,1.573846153846154
6.705036518003908,0.37150183150183147,0.4488644688644688,1.573846153846154
6.7098724040042725,0.37150183150183147,0.4488644688644688,1.573846153846154
6.716038546001073,1.7156776556776556,0.90014652014652,2.6569230769230767
6.720905535003112,1.7156776556776556,0.90014652014652,2.6569230769230767
6.7270374780055135,1.7156776556776556,0.90014652014652,2.6569230769230767
6.732007497004815,1.7156776556776556,0.90014652014652,2.6569230769230767
6.736966153002868,1.7156776556776556,0.90014652014652,2.6569230769230767
6.741824901000655,1.7156776556776556,0.90014652014652,2.6569230769230767
6.746592477000377,1.7156776556776556,0.90014652014652,2.6569230769230767
6.752686650004762,0.14263736263736262,0.7075457875457875,2.007399267399267
6.757603090001794,0.14263736263736262,0.7075457875457875,2.007399267399267
6.762450232999981,0.14263736263736262,0.7075457875457875,2.007399267399267
6.767292702003033,0.796996336996337,0.4472527472527472,0.5632967032967032
6.7733772580031655,0.796996336996337,0.4472527472527472,0.5632967032967032
6.778425103002519,0.796996336996337,0.4472527472527472,0.5632967032967032
6.78332234100526,0.796996336996337,0.4472527472527472,0.5632967032967032
6.789500797000073,0.4085714285714286,0.12571428571428572,1.2055677655677655
6.794365207002556,0.1942124542124542,0.09428571428571428,0.9920146520146519
6.801729733000684,0.1942124542124542,0.09428571428571428,0.9920146520146519
6.807858912005031,0.40534798534798533,0.23047619047619047,1.4892307692307691
6.812712157006899,0.40534798534798533,0.23047619047619047,1.4892307692307691
6.818854356002703,0.40534798534798533,0.23047619047619047,1.4892307692307691
6.82374829800392,0.0,0.6317948717948718,2.8414652014652013
6.829856941003527,0.0,0.6317948717948718,2.8414652014652013
6.8347627430048306,0.0,0.6317948717948718,2.8414652014652013
6.839590296003735,1.1854212454212454,0.581025641025641,1.7205128205128206
6.8444363590024295,1.1854212454212454,0.581025641025641,1.7205128205128206
6.851826462007011,1.1854212454212454,0.581025641025641,1.7205128205128206
6.857997781000449,0.9581684981684981,0.32556776556776557,1.2257142857142858
6.862820251000812,0.0273992673992674,0.10476190476190475,0.7865201465201466
6.870205055005499,0.3384615384615384,0.16842490842490843,0.8115018315018314
6.876403519003361,0.3384615384615384,0.16842490842490843,0.8115018315018314
6.881300619003014,0.942051282051282,1.3095238095238093,0.527032967032967
6.886156442000356,0.942051282051282,1.3095238095238093,0.527032967032967
6.893613094005559,0.942051282051282,1.3095238095238093,0.527032967032967
6.8998188090045005,0.9976556776556775,0.6761172161172161,0.22967032967032966
6.904684188004467,0.0,0.28527472527472525,1.1725274725274726
6.90945807400567,0.0,0.28527472527472525,1.1725274725274726
6.915597703002277,0.0,0.28527472527472525,1.1725274725274726
6.9204683730058605,0.0,0.28527472527472525,1.1725274725274726
6.92653028100176,0.0,0.28527472527472525,1.1725274725274726
6.931361014001595,1.6898901098901096,0.9025641025641026,3.3
6.937521641004423,1.0887179487179486,0.7615384615384615,3.3
6.942399289000605,1.0887179487179486,0.7615384615384615,3.3
6.948502891005774,1.5746520146520147,1.4255677655677657,1.2095970695970695
6.953372850002779,1.5746520146520147,1.4255677655677657,1.2095970695970695
6.958203325004433,0.40776556776556777,0.4279120879120879,1.4892307692307691
6.964181770999858,0.40776556776556777,0.4279120879120879,1.4892307692307691
6.970308851006848,0.40776556776556777,0.4279120879120879,1.4892307692307691
6.975133585001458,1.1040293040293039,0.7228571428571429,0.3505494505494505
6.9812757530016825,1.2756776556776557,1.3353113553113554,1.2176556776556777
6.986079084002995,0.08542124542124542,0.2063003663003663,2.0638095238095238
6.992092356005742,0.08542124542124542,0.2063003663003663,2.0638095238095238
6.996934804003104,0.08542124542124542,0.2063003663003663,2.0638095238095238
7.005014811002184,0.925128205128205,0.4045421245421245,1.1918681318681317
7.013710868006456,2.602124542124542,0.971062271062271,0.5939194139194138
7.024514984004782,0.13457875457875457,0.5415384615384615,2.3724542124542123
7.034582781001518,0.09347985347985348,0.1241025641025641,0.8751648351648351
7.043142660004378,0.16197802197802197,0.3755311355311355,1.4650549450549448
7.05049651900481,0.16197802197802197,0.3755311355311355,1.4650549450549448
7.056553969006927,0.6833699633699634,0.7147985347985348,3.248424908424908
7.061367213005724,0.6833699633699634,0.7147985347985348,3.248424908424908
7.068699850002304,0.6833699633699634,0.7147985347985348,3.248424908424908
7.074855451006442,0.3843956043956044,0.14989010989010987,1.49003663003663
7.079734408005606,1.0387545787545787,1.0572893772893772,0.8671062271062271
7.085762542003067,0.0,0.5205860805860806,1.1652747252747253
7.091841428002226,0.734139194139194,0.5125274725274725,1.3441758241758242
7.096655809000367,0.734139194139194,0.5125274725274725,1.3441758241758242
7.102752279002743,1.1918681318681317,0.9597802197802198,1.5996336996336995
7.107641841001168,1.1918681318681317,0.9597802197802198,1.5996336996336995
7.112524310003209,0.5649084249084249,0.23934065934065935,1.7575824175824175
7.117350578002515,0.5649084249084249,0.23934065934065935,1.7575824175824175
7.123333135001303,0.5649084249084249,0.23934065934065935,1.7575824175824175
7.129314757999964,1.0516483516483515,0.5536263736263736,0.6108424908424909
7.135395925004559,1.8736263736263734,0.8026373626373626,3.3
7.140176826003881,1.8736263736263734,0.8026373626373626,3.3
7.1475361680058995,1.8736263736263734,0.8026373626373626,3.3
7.153516169004433,1.8736263736263734,0.8026373626373626,3.3
7.1594343630058574,1.8736263736263734,0.8026373626373626,3.3
7.164246227002877,1.8736263736263734,0.8026373626373626,3.3
7.171472754002025,1.8736263736263734,0.8026373626373626,3.3
7.177519318000122,1.8736263736263734,0.8026373626373626,3.3
7.182324537003296,0.35619047619047617,0.1555311355311355,0.9783150183150182
7.189545520006504,1.382051282051282,0.6704761904761904,0.2111355311355311
7.195567568000115,0.0,0.14666666666666667,0.7937728937728937
7.201543053000933,1.0073260073260073,0.6857875457875457,1.5134065934065932
7.206463358001201,1.0073260073260073,0.6857875457875457,1.5134065934065932
7.211297644003935,1.0073260073260073,0.6857875457875457,1.5134065934065932
7.218601830005355,0.47062271062271055,1.1193406593406594,0.718021978021978
7.224664341003518,0.36666666666666664,0.5197802197802197,1.4094505494505494
7.229462256000261,0.17245421245421244,0.763956043956044,1.3095238095238093
7.235529681005573,0.9283516483516483,1.598021978021978,3.3
7.240321121003944,0.6785347985347985,0.6624175824175824,0.1942124542124542
7.247574319000705,0.6785347985347985,0.6624175824175824,0.1942124542124542
7.253654204003396,0.9484981684981684,0.7978021978021977,0.4496703296703296
7.258506338002917,0.9484981684981684,0.7978021978021977,0.4496703296703296
7.26454425000702,0.9484981684981684,0.7978021978021977,0.4496703296703296
7.26932993200171,0.9484981684981684,0.7978021978021977,0.4496703296703296
7.275281600006565,0.842124542124542,0.7728205128205128,3.3
7.281259899005818,0.842124542124542,0.7728205128205128,3.3
7.285961244000646,0.842124542124542,0.7728205128205128,3.3
7.294664093002211,0.842124542124542,0.7728205128205128,3.3
7.301932942005806,0.7413919413919414,1.3127472527472526,0.35216117216117215
7.3080108590002055,0.7413919413919414,1.3127472527472526,0.35216117216117215
7.313953847005905,0.7413919413919414,1.3127472527472526,0.35216117216117215
7.319984699002816,0.7413919413919414,1.3127472527472526,0.35216117216117215
7.324801690003369,0.7413919413919414,1.3127472527472526,0.35216117216117215
7.332146603002911,0.7413919413919414,1.3127472527472526,0.35216117216117215
7.338181682003778,0.7413919413919414,1.3127472527472526,0.35216117216117215
7.344204326000181,0.7413919413919414,1.3127472527472526,0.35216117216117215
7.3489984900006675,0.0,0.2191941391941392,2.4208058608058605
7.355086763003783,1.1539926739926738,0.5979487179487178,2.111355311355311
7.35997182400024,1.1539926739926738,0.5979487179487178,2.111355311355311
7.367274789001385,1.2627838827838826,0.7421978021978022,3.3
7.373343611005112,0.12571428571428572,0.10315018315018315,1.2104029304029302
7.378186802001437,0.12571428571428572,0.10315018315018315,1.2104029304029302
7.385491709006601,0.12571428571428572,0.10315018315018315,1.2104029304029302
7.391583914002695,0.4585347985347985,0.2345054945054945,1.1975091575091574
7.396386352003901,0.5971428571428571,1.0008791208791208,1.569010989010989
7.403593054004887,0.5971428571428571,1.0008791208791208,1.569010989010989
7.409599553000589,1.506959706959707,1.1846153846153846,0.8824175824175824
7.415675582000404,1.506959706959707,1.1846153846153846,0.8824175824175824
7.420487614006561,1.506959706959707,1.1846153846153846,0.8824175824175824
7.426437822003209,1.506959706959707,1.1846153846153846,0.8824175824175824
7.431179882005381,1.506959706959707,1.1846153846153846,0.8824175824175824
7.437284036001074,1.506959706959707,1.1846153846153846,0.8824175824175824
7.442072641002596,1.506959706959707,1.1846153846153846,0.8824175824175824
7.44804207800189,1.506959706959707,1.1846153846153846,0.8824175824175824
7.452799561004213,0.6583882783882784,0.9082051282051282,1.1008058608058606
7.459932986006606,0.6583882783882784,0.9082051282051282,1.1008058608058606
7.466064350002853,0.6583882783882784,0.9082051282051282,1.1008058608058606
7.470899685002223,0.6583882783882784,0.9082051282051282,1.1008058608058606
7.477053593000164,0.6567765567765567,1.278901098901099,0.4279120879120879
7.4818809060016065,0.6567765567765567,1.278901098901099,0.4279120879120879
7.486700381006813,1.0766300366300365,0.386007326007326,1.3683516483516485
7.492898442003934,0.37150183150183147,0.6084249084249085,0.5205860805860806
7.497803976002615,0.8316483516483516,1.3046886446886445,0.585054945054945
7.50271231700026,0.1571428571428571,0.3537728937728937,1.1797802197802196
7.508885648006981,1.5714285714285712,0.7808791208791208,0.30058608058608055
7.5136967950020335,0.13377289377289378,0.224029304029304,1.1830036630036629
7.521264360002533,1.1177289377289377,0.776043956043956,1.3772161172161173
7.5274258270001155,0.7865201465201466,0.2482051282051282,1.3377289377289376
7.532231981000223,1.8768498168498167,0.6124542124542125,1.9163369963369963
7.538353184005246,1.8768498168498167,0.6124542124542125,1.9163369963369963
7.543209006005782,0.5109157509157509,0.5463736263736263,1.4142857142857141
7.550624807001441,0.5109157509157509,0.5463736263736263,1.4142857142857141
7.55664000800607,0.5109157509157509,0.5463736263736263,1.4142857142857141
7.561483412006055,0.5109157509157509,0.5463736263736263,1.4142857142857141
7.568911672002287,0.5109157509157509,0.5463736263736263,1.4142857142857141
7.575063059004606,0.033846153846153845,0.09509157509157509,1.0057142857142858
7.579840556005365,0.3578021978021978,0.4383882783882784,1.0516483516483515
7.587284872002783,0.7857142857142856,0.41340659340659336,2.8422710622710623
7.593523020004795,0.7857142857142856,0.41340659340659336,2.8422710622710623
7.598495953003294,0.6777289377289377,1.1459340659340658,0.3884249084249084
7.603340786001354,0.6777289377289377,1.1459340659340658,0.3884249084249084
7.609521395002957,0.6777289377289377,1.1459340659340658,0.3884249084249084
7.614452294001239,0.6777289377289377,1.1459340659340658,0.3884249084249084
7.620691624004394,0.6777289377289377,1.1459340659340658,0.3884249084249084
7.6256507720027,0.6777289377289377,1.1459340659340658,0.3884249084249084
7.631847693002783,0.6777289377289377,1.1459340659340658,0.3884249084249084
7.636795996004366,0.6777289377289377,1.1459340659340658,0.3884249084249084
7.640455987006135,0.4158241758241758,0.5729670329670329,1.5005128205128204
7.649216129000706,0.43274725274725273,0.1555311355311355,0.9815384615384615
7.657544127003348,0.0709157509157509,0.8985347985347985,1.8478388278388278
7.666992258004029,0.0709157509157509,0.8985347985347985,1.8478388278388278
7.677534500006004,0.0,0.8252014652014652,0.8316483516483516
7.6895793930016225,0.0,0.8252014652014652,0.8316483516483516
7.703650201001437,0.0,0.8252014652014652,0.8316483516483516
7.717565837003349,0.33604395604395604,0.49399267399267394,0.7937728937728937
7.731764694006415,0.33604395604395604,0.49399267399267394,0.7937728937728937
7.745535697002197,0.33604395604395604,0.49399267399267394,0.7937728937728937
7.758713234004972,0.0,0.27238095238095233,0.8614652014652014
7.772187636001036,0.0,0.27238095238095233,0.8614652014652014
7.785166862006008,0.0,0.18937728937728937,0.5600732600732601
7.798956798003928,0.6696703296703297,0.7905494505494506,1.5222710622710622
7.812619471005746,0.0,0.6503296703296703,0.734139194139194
7.82503620100033,1.2007326007326007,1.4884249084249084,0.5399267399267399
7.837946930005273,1.2007326007326007,1.4884249084249084,0.5399267399267399
7.851024243005668,0.6084249084249085,0.66,2.8060073260073257
7.866012140002567,0.6084249084249085,0.66,2.8060073260073257
7.86636043600447,0.6084249084249085,0.66,2.8060073260073257
7.874920051006484,0.6084249084249085,0.66,2.8060073260073257
7.881858641005238,0.6084249084249085,0.66,2.8060073260073257
7.891488181005116,0.6084249084249085,0.66,2.8060073260073257
7.901987379002094,0.0,0.13619047619047617,0.7228571428571429
7.9127863720059395,0.0,0.13619047619047617,0.7228571428571429
7.923588819001452,0.0,0.13619047619047617,0.7228571428571429
7.935352447006153,0.07333333333333333,0.195018315018315,0.971062271062271
7.946459114005847,1.4852014652014651,1.1725274725274726,3.0115018315018314
7.958019012003206,0.1104029304029304,0.4738461538461538,1.1733333333333333
7.96877228700032,0.1104029304029304,0.4738461538461538,1.1733333333333333
7.979911125003127,0.7204395604395604,0.26593406593406593,2.681904761904762
7.991162644000724,0.7204395604395604,0.26593406593406593,2.681904761904762
8.003547170003003,0.6583882783882784,0.6624175824175824,0.5544322344322344
8.018087851000018,0.6583882783882784,0.6624175824175824,0.5544322344322344
8.03515170400351,0.6583882783882784,0.6624175824175824,0.5544322344322344
8.052634503001173,0.04673992673992674,0.9372161172161171,0.9227106227106227
8.053030596005556,0.04673992673992674,0.9372161172161171,0.9227106227106227
8.064828182999918,0.04673992673992674,0.9372161172161171,0.9227106227106227
8.076760716001445,0.46820512820512816,0.17164835164835165,1.1830036630036629
8.088713149001705,0.6446886446886446,0.9025641025641026,1.274871794871795
8.101369865005836,1.4626373626373625,1.349010989010989,0.9758974358974358
8.115484395006206,0.6503296703296703,0.29413919413919415,1.7487179487179487
8.129659892001655,0.6503296703296703,0.29413919413919415,1.7487179487179487
8.14471630800108,1.3054945054945053,0.7365567765567765,2.946227106227106
8.145103539005504,0.2772161172161172,0.5286446886446886,0.9041758241758242
8.154278330002853,0.2772161172161172,0.5286446886446886,0.9041758241758242
8.166376054003194,1.5367765567765568,1.0766300366300365,2.759267399267399
8.181133734004106,0.26109890109890105,0.16197802197802197,3.0534065934065935
8.197478643000068,0.0,0.6777289377289377,0.6825641025641025
8.213548005005578,0.0,0.6777289377289377,0.6825641025641025
8.228552961001697,0.5431501831501832,0.15472527472527473,1.4005860805860806
8.243593616003636,0.5431501831501832,0.15472527472527473,1.4005860805860806
8.260289035002643,0.755091575091575,1.5013186813186812,0.3376556776556776
8.260698082005547,0.9936263736263735,0.8848351648351648,1.2176556776556777
8.271418515003461,0.2248351648351648,0.24336996336996336,1.826080586080586
8.282809891999932,0.0,0.10315018315018315,0.16278388278388278
8.294438453005569,0.0,0.10315018315018315,0.16278388278388278
8.308834762006882,0.0,0.10315018315018315,0.16278388278388278
8.321752212999854,0.0,0.10315018315018315,0.16278388278388278
8.334543764001864,0.0,0.10315018315018315,0.16278388278388278
8.346981747999962,0.0,0.10315018315018315,0.16278388278388278
8.355913389001216,0.0,0.10315018315018315,0.16278388278388278
8.366542493000452,0.7389743589743589,1.1378754578754577,0.7816849816849816
8.37790118400153,0.7043223443223443,1.0806593406593406,0.2063003663003663
8.388500365006621,0.7043223443223443,1.0806593406593406,0.2063003663003663
8.398820875001547,0.9517216117216116,1.1354578754578755,0.8590476190476191
8.410623403004138,0.9517216117216116,1.1354578754578755,0.8590476190476191
8.424708279002516,0.9517216117216116,1.1354578754578755,0.8590476190476191
8.438455516006798,0.6003663003663003,0.5012454212454212,1.3191941391941393
8.452394804000505,0.6003663003663003,0.5012454212454212,1.3191941391941393
8.46668188500189,0.6003663003663003,0.5012454212454212,1.3191941391941393
8.480152800002543,0.6003663003663003,0.5012454212454212,1.3191941391941393
8.48759544200584,0.6003663003663003,0.5012454212454212,1.3191941391941393
8.493653292003728,0.0,0.6124542124542125,1.191062271062271
8.498501021000266,0.3344322344322344,1.1757509157509156,1.950989010989011
8.504434605005372,0.3344322344322344,1.1757509157509156,1.950989010989011
8.509198272004141,0.0,0.14586080586080585,1.0734065934065933
8.516396247003286,0.010476190476190476,0.5761904761904761,1.1435164835164835
8.522409472003346,0.010476190476190476,0.5761904761904761,1.1435164835164835
8.529643741007021,0.27238095238095233,0.6688644688644688,2.1234432234432234
8.535759326005063,0.27238095238095233,0.6688644688644688,2.1234432234432234
8.540610902004119,1.0347252747252746,0.5238095238095237,0.8227838827838827
8.545486139002605,1.0347252747252746,0.5238095238095237,0.8227838827838827
8.552619246001996,1.0347252747252746,0.5238095238095237,0.8227838827838827
8.557847892006976,1.0347252747252746,0.5238095238095237,0.8227838827838827
8.559884449001402,0.8332600732600732,0.8614652014652014,1.4553846153846153
8.560331007000059,0.8332600732600732,0.8614652014652014,1.4553846153846153
8.570547995004745,0.8332600732600732,0.8614652014652014,1.4553846153846153
8.580556663000607,0.8332600732600732,0.8614652014652014,1.4553846153846153
8.587918918005016,0.3473260073260073,0.9960439560439559,1.0597069597069597
8.59455178600183,0.35619047619047617,0.5866666666666667,1.6439560439560439
8.603633067003102,0.35619047619047617,0.5866666666666667,1.6439560439560439
8.614025708004192,0.35619047619047617,0.5866666666666667,1.6439560439560439
8.623680836004496,0.35619047619047617,0.5866666666666667,1.6439560439560439
8.634565266002028,0.6430769230769231,1.108058608058608,2.2169230769230768
8.648989264002012,0.3142857142857142,0.6809523809523809,1.5214652014652015
8.664424945003702,0.9114285714285715,0.5818315018315018,2.8334065934065933
8.680942358005268,0.9557509157509158,1.062930402930403,0.909010989010989
8.697822222005925,1.0919413919413918,0.9065934065934066,2.8180952380952378
8.713086695002858,1.0919413919413918,0.9065934065934066,2.8180952380952378
8.7232598230039,1.0919413919413918,0.9065934065934066,2.8180952380952378
8.731977834002464,1.0919413919413918,0.9065934065934066,2.8180952380952378
8.74259893400449,1.0919413919413918,0.9065934065934066,2.8180952380952378
8.754230974001985,1.0919413919413918,0.9065934065934066,2.8180952380952378
8.765526864001004,1.0919413919413918,0.9065934065934066,2.8180952380952378
8.776572656002827,1.7696703296703296,0.09912087912087912,1.4666666666666666
8.790206058001786,1.7696703296703296,0.09912087912087912,1.4666666666666666
8.804169151000679,0.08622710622710622,0.40534798534798533,1.3707692307692307
8.81844570300018,0.19663003663003664,0.2063003663003663,1.1241758241758242
8.832643398003711,0.19663003663003664,0.2063003663003663,1.1241758241758242
8.845318819003296,0.46659340659340653,0.23853479853479853,1.755164835164835
8.863845652005693,0.46659340659340653,0.23853479853479853,1.755164835164835
8.864278250002826,0.46659340659340653,0.23853479853479853,1.755164835164835
8.876211417002196,0.46659340659340653,0.23853479853479853,1.755164835164835
8.8903725160053,0.0,0.17567765567765567,0.6019780219780219
8.90222727800574,0.5479853479853479,0.13296703296703297,2.1709890109890106
8.912366911004938,0.805054945054945,1.6197802197802196,1.2490842490842489
8.92106270500517,0.11604395604395604,0.10395604395604395,1.6342857142857143
8.930837923006038,0.11604395604395604,0.10395604395604395,1.6342857142857143
8.939293309005734,0.11604395604395604,0.10395604395604395,1.6342857142857143
8.947275909005839,0.11604395604395604,0.10395604395604395,1.6342857142857143
8.953486923004675,0.11604395604395604,0.10395604395604395,1.6342857142857143
8.960527084003843,0.11604395604395604,0.10395604395604395,1.6342857142857143
8.965800945006777,0.11604395604395604,0.10395604395604395,1.6342857142857143
8.96823564600345,0.11604395604395604,0.10395604395604395,1.6342857142857143
8.968374825002684,0.0,0.3658608058608058,1.0049084249084248
8.981372820002434,0.0,0.3658608058608058,1.0049084249084248
8.994346556006349,0.0,0.3658608058608058,1.0049084249084248
9.012682085005508,0.0,0.3658608058608058,1.0049084249084248
9.035863682001946,0.0,0.3658608058608058,1.0049084249084248
9.036282163004216,0.0,0.3658608058608058,1.0049084249084248
9.053233179001836,0.0,0.3658608058608058,1.0049084249084248
9.073799143006909,1.1983150183150182,0.26996336996336995,2.6617582417582417
9.095669733003888,0.25384615384615383,0.5109157509157509,1.0613186813186812
9.096131248006714,0.25384615384615383,0.5109157509157509,1.0613186813186812
9.1091616860067,0.28124542124542123,0.08139194139194139,1.7898168498168496
9.124218154000118,1.4674725274725273,0.3497435897435897,1.3868864468864468
9.1375192350024,1.7527472527472527,1.2474725274725273,1.2942124542124542
9.149855725001544,1.7527472527472527,1.2474725274725273,1.2942124542124542
9.160872790002031,1.7527472527472527,1.2474725274725273,1.2942124542124542
9.168694476000383,1.1145054945054944,1.0822710622710623,0.44402930402930396
9.178287099006411,1.1145054945054944,1.0822710622710623,0.44402930402930396
9.189893709000899,1.1145054945054944,1.0822710622710623,0.44402930402930396
9.198324371005583,0.585054945054945,1.2378021978021978,0.8767765567765567
9.207627204006712,1.0113553113553113,0.16278388278388278,3.1742857142857144
9.218607351001992,1.0113553113553113,0.16278388278388278,3.1742857142857144
9.227562861000479,0.8324542124542124,1.4005860805860806,0.8751648351648351
9.234282255005382,0.3449084249084249,0.10798534798534798,1.6874725274725273
9.240424043004168,0.3449084249084249,0.10798534798534798,1.6874725274725273
9.24446709699987,0.3449084249084249,0.10798534798534798,1.6874725274725273
9.248222264002834,0.3449084249084249,0.10798534798534798,1.6874725274725273
9.25474473900249,0.3449084249084249,0.10798534798534798,1.6874725274725273
9.261076793001848,0.3449084249084249,0.10798534798534798,1.6874725274725273
9.266274944006,0.3449084249084249,0.10798534798534798,1.6874725274725273
9.270102748007048,0.3449084249084249,0.10798534798534798,1.6874725274725273
9.275095982004132,0.3449084249084249,0.10798534798534798,1.6874725274725273
9.277843293006299,0.3449084249084249,0.10798534798534798,1.6874725274725273
9.281666624003265,0.3449084249084249,0.10798534798534798,1.6874725274725273
9.285608209000202,0.3449084249084249,0.10798534798534798,1.6874725274725273
9.292308314004913,0.3449084249084249,0.10798534798534798,1.6874725274725273
9.297712152001623,0.3449084249084249,0.10798534798534798,1.6874725274725273
9.299121560005005,0.3449084249084249,0.10798534798534798,1.6874725274725273
9.308797391000553,0.3449084249084249,0.10798534798534798,1.6874725274725273
9.318349152003066,0.3449084249084249,0.10798534798534798,1.6874725274725273
9.331275784999889,0.3449084249084249,0.10798534798534798,1.6874725274725273
9.342991978002829,0.8566300366300367,0.4424175824175824,0.16842490842490843
9.35232857200026,0.05721611721611722,0.1668131868131868,1.4392673992673992
9.364241356001003,0.05721611721611722,0.1668131868131868,1.4392673992673992
9.37261402200238,1.5254945054945055,0.16197802197802197,3.036483516483516
9.38156454500131,0.26109890109890105,0.9525274725274724,3.0203663003663
9.391885628007003,0.26109890109890105,0.9525274725274724,3.0203663003663
9.400848595003481,0.26109890109890105,0.9525274725274724,3.0203663003663
9.410525424005755,0.26109890109890105,0.9525274725274724,3.0203663003663
9.41708699400624,0.26109890109890105,0.9525274725274724,3.0203663003663
9.423487428000954,0.3908424908424908,0.190989010989011,1.112893772893773
9.430310509000265,0.6551648351648351,0.5906959706959707,0.9283516483516483
9.4361361590054,1.4167032967032966,1.3538461538461537,3.1460805860805863
9.444128377006564,0.25706959706959703,0.12893772893772892,0.5504029304029303
9.45150455700059,0.25706959706959703,0.12893772893772892,0.5504029304029303
9.460361170000397,0.25706959706959703,0.12893772893772892,0.5504029304029303
9.46523448300286,0.25706959706959703,0.12893772893772892,0.5504029304029303
9.471576818999893,0.25706959706959703,0.12893772893772892,0.5504029304029303
9.479913418006618,0.25706959706959703,0.12893772893772892,0.5504029304029303
9.484917622001376,0.25706959706959703,0.12893772893772892,0.5504029304029303
9.49159680500452,0.25706959706959703,0.12893772893772892,0.5504029304029303
9.497758275007072,0.47465201465201456,0.8252014652014652,1.7503296703296702
9.502653645002283,0.47465201465201456,0.8252014652014652,1.7503296703296702
9.511156688000483,0.47465201465201456,0.8252014652014652,1.7503296703296702
9.519078654004261,0.47465201465201456,0.8252014652014652,1.7503296703296702
9.529761096004222,0.0,0.7164102564102564,1.174139194139194
9.541335108006024,0.0,0.7164102564102564,1.174139194139194
9.548879547000979,0.0,0.7164102564102564,1.174139194139194
9.556442282002536,0.24739926739926738,1.0443956043956042,0.8598534798534798
9.561886417002825,1.00007326007326,1.444102564102564,0.6366300366300366
9.562112036001054,1.00007326007326,1.444102564102564,0.6366300366300366
9.569375692000904,1.00007326007326,1.444102564102564,0.6366300366300366
9.575552908005193,1.00007326007326,1.444102564102564,0.6366300366300366
9.580396651006595,0.5657142857142857,1.2885714285714285,0.9912087912087911
9.58633321000525,0.28446886446886444,0.713992673992674,2.8745054945054944
9.592255710005702,0.10073260073260072,0.22564102564102564,1.58996336996337
9.598281795006187,0.10073260073260072,0.22564102564102564,1.58996336996337
9.603054389001045,0.10073260073260072,0.22564102564102564,1.58996336996337
9.609374791005393,0.10073260073260072,0.22564102564102564,1.58996336996337
9.617953425004089,0.10073260073260072,0.22564102564102564,1.58996336996337
9.626391565005179,0.10073260073260072,0.22564102564102564,1.58996336996337
9.632508194001275,0.10073260073260072,0.22564102564102564,1.58996336996337
9.63758002200484,0.10073260073260072,0.22564102564102564,1.58996336996337
9.642182686002343,0.10073260073260072,0.22564102564102564,1.58996336996337
9.649579339005868,0.10073260073260072,0.22564102564102564,1.58996336996337
9.655856702003803,0.10073260073260072,0.22564102564102564,1.58996336996337
9.66073226800654,0.10073260073260072,0.22564102564102564,1.58996336996337
9.668198228006077,0.10073260073260072,0.22564102564102564,1.58996336996337
9.674390721003874,0.0,0.12893772893772892,0.9307692307692307
9.679275029004202,0.0,0.12893772893772892,0.9307692307692307
9.685527970999829,0.9347985347985347,1.436043956043956,2.522344322344322
9.690388822004024,0.9347985347985347,1.436043956043956,2.522344322344322
9.697762105002766,0.6712820512820512,1.0975824175824174,0.09267399267399268
9.703868531003536,0.6712820512820512,1.0975824175824174,0.09267399267399268
9.708774572005495,0.6712820512820512,1.0975824175824174,0.09267399267399268
9.71488590700028,0.6712820512820512,1.0975824175824174,0.09267399267399268
9.719693385006394,0.8743589743589744,2.7415384615384615,0.3779487179487179
9.7270742910041,0.8743589743589744,2.7415384615384615,0.3779487179487179
9.733175248002226,0.6148717948717949,0.3344322344322344,1.4884249084249084
9.738061551004648,0.6148717948717949,0.3344322344322344,1.4884249084249084
9.742831642004603,0.6148717948717949,0.3344322344322344,1.4884249084249084
9.750222141003178,0.6148717948717949,0.3344322344322344,1.4884249084249084
9.756263457005844,0.0,0.21435897435897436,1.1032234432234431
9.762468040004023,0.958974358974359,1.120952380952381,0.4778754578754579
9.76731367600587,0.958974358974359,1.120952380952381,0.4778754578754579
9.774585995000962,1.1032234432234431,0.5737728937728938,1.5714285714285712
9.780825787005597,1.1032234432234431,0.5737728937728938,1.5714285714285712
9.785680374006915,1.1032234432234431,0.5737728937728938,1.5714285714285712
9.793006509004044,0.004835164835164835,0.7768498168498168,0.925128205128205
9.799145793003845,0.004835164835164835,0.7768498168498168,0.925128205128205
9.804041408002377,0.004835164835164835,0.7768498168498168,0.925128205128205
9.808809563000978,0.0,0.21999999999999997,1.3264468864468864
9.81613220100553,0.0,0.21999999999999997,1.3264468864468864
9.822274019999895,0.0,0.21999999999999997,1.3264468864468864
9.827125380004873,0.0,0.21999999999999997,1.3264468864468864
9.832022292001056,0.9678388278388278,0.9613919413919414,1.3715750915750915
9.836813567002537,0.5987545787545787,0.8646886446886447,0.23934065934065935
9.844176432001404,0.22967032967032966,0.7131868131868132,1.926007326007326
9.85023292400001,0.22967032967032966,0.7131868131868132,1.926007326007326
9.856356732001586,0.22967032967032966,0.7131868131868132,1.926007326007326
9.861256934003904,0.22967032967032966,0.7131868131868132,1.926007326007326
9.867438320005022,0.22967032967032966,0.7131868131868132,1.926007326007326
9.872323172006872,1.1902564102564102,1.4102564102564101,1.4223443223443224
9.877152693006792,1.1902564102564102,1.4102564102564101,1.4223443223443224
9.884675740002422,1.1902564102564102,1.4102564102564101,1.4223443223443224
9.890779434004799,1.1902564102564102,1.4102564102564101,1.4223443223443224
9.895628650003346,1.1902564102564102,1.4102564102564101,1.4223443223443224
9.901721217000159,1.1902564102564102,1.4102564102564101,1.4223443223443224
9.906525550002698,0.0,0.08703296703296703,0.7188278388278388
9.912641529001121,0.0,0.08703296703296703,0.7188278388278388
9.917472293003812,0.0,0.08703296703296703,0.7188278388278388
9.923568384001555,0.0,0.08703296703296703,0.7188278388278388
9.928304318003939,0.0,0.5834432234432234,3.3
9.93554129000404,0.0,0.5834432234432234,3.3
9.941591322000022,0.0,0.5834432234432234,3.3
9.94639956100582,0.0,0.5834432234432234,3.3
9.953636299003847,0.0,0.5834432234432234,3.3
9.959689900002559,0.0,0.5834432234432234,3.3
9.964444328004902,0.0,0.5834432234432234,3.3
9.97307049200026,0.0,0.5834432234432234,3.3
9.980487164000806,1.58996336996337,0.3142857142857142,1.3151648351648353
9.986553829003242,1.58996336996337,0.3142857142857142,1.3151648351648353
9.991474073001882,1.58996336996337,0.3142857142857142,1.3151648351648353
9.996301881001273,1.58996336996337,0.3142857142857142,1.3151648351648353
10.002483528005541,1.58996336996337,0.3142857142857142,1.3151648351648353
10.00739282900031,1.58996336996337,0.3142857142857142,1.3151648351648353
10.012227822000568,0.0,0.22886446886446887,0.8969230769230768
10.017118775002018,0.0547985347985348,0.3199267399267399,2.3378021978021977
10.02189253000688,0.0547985347985348,0.3199267399267399,2.3378021978021977
10.029305067000678,1.3965567765567766,0.09428571428571428,2.9663736263736262
10.035448870999971,0.7994139194139194,0.4996336996336996,3.3
10.040297220002685,0.7994139194139194,0.4996336996336996,3.3
10.04641142100445,0.0,0.5262271062271061,1.1830036630036629
10.051271479002025,0.0,0.5262271062271061,1.1830036630036629
10.057418596006755,0.8614652014652014,1.2015384615384614,0.6777289377289377
10.062283097002364,0.45772893772893775,0.7567032967032966,1.8824908424908422
10.069673179001256,0.7019047619047618,0.7196336996336996,1.353040293040293
10.07584106700233,0.6551648351648351,0.8163369963369963,0.42630036630036633
10.080733573006,0.12974358974358974,0.7832967032967032,2.0823443223443223
10.08694432300399,0.12974358974358974,0.7832967032967032,2.0823443223443223
10.091894840006717,0.12974358974358974,0.7832967032967032,2.0823443223443223
10.09664361000614,0.12974358974358974,0.7832967032967032,2.0823443223443223
10.105343477000133,0.5415384615384615,0.4456410256410256,1.8204395604395605
10.112744983001903,0.5415384615384615,0.4456410256410256,1.8204395604395605
10.12354527500429,0.5415384615384615,0.4456410256410256,1.8204395604395605
10.133945734000008,0.3739194139194139,0.6156776556776556,3.3
10.141313930005708,0.3739194139194139,0.6156776556776556,3.3
10.147471994001535,0.0,1.9614652014652014,0.8284249084249083
10.152319307002472,0.0,1.9614652014652014,0.8284249084249083
10.158563355005754,0.0,1.9614652014652014,0.8284249084249083
10.16339966700616,0.5536263736263736,0.5326739926739926,1.7035897435897436
10.169448966000346,0.5536263736263736,0.5326739926739926,1.7035897435897436
10.174293641000986,0.12974358974358974,0.8066666666666666,0.03465201465201465
10.181612037005834,0.12974358974358974,0.8066666666666666,0.03465201465201465
10.187767235001957,0.12974358974358974,0.8066666666666666,0.03465201465201465
10.192641389003256,0.5181684981684981,0.5906959706959707,0.3102564102564102
10.197507053002482,0.5181684981684981,0.5906959706959707,0.3102564102564102
10.203598065003462,0.20065934065934066,0.8042490842490841,1.1040293040293039
10.208437414003129,1.0983882783882783,1.5722344322344322,0.7284981684981684
10.215827544001513,1.0983882783882783,1.5722344322344322,0.7284981684981684
10.221886070001347,1.0983882783882783,1.5722344322344322,0.7284981684981684
10.226658667001175,1.0983882783882783,1.5722344322344322,0.7284981684981684
10.233946449006908,0.0,0.2208058608058608,0.9839560439560439
10.240047636005329,0.0,0.2208058608058608,0.9839560439560439
10.244875666001462,0.25545787545787546,2.3579487179487177,2.0154578754578756
10.25354145700112,0.25545787545787546,2.3579487179487177,2.0154578754578756
10.260962713000481,0.25545787545787546,2.3579487179487177,2.0154578754578756
10.267034678006894,0.9146520146520146,1.614139194139194,1.4287912087912087
10.27189977800299,1.61010989010989,0.5504029304029303,0.6898168498168498
10.27800429900526,1.61010989010989,0.5504029304029303,0.6898168498168498
10.28288685100415,1.61010989010989,0.5504029304029303,0.6898168498168498
10.288950855006988,1.61010989010989,0.5504029304029303,0.6898168498168498
10.293811440002173,1.61010989010989,0.5504029304029303,0.6898168498168498
10.298616905005474,1.61010989010989,0.5504029304029303,0.6898168498168498
10.306069641002978,0.3158974358974359,0.6914285714285714,3.3
10.31215261699981,0.3158974358974359,0.6914285714285714,3.3
10.317136355006369,0.22805860805860806,0.5302564102564102,0.6148717948717949
10.320854642006452,0.22805860805860806,0.5302564102564102,0.6148717948717949
10.328050576004898,0.22805860805860806,0.5302564102564102,0.6148717948717949
10.334104544002912,0.22805860805860806,0.5302564102564102,0.6148717948717949
10.339107347004756,0.22805860805860806,0.5302564102564102,0.6148717948717949
10.34392308400129,1.539194139194139,1.3167765567765568,1.0895238095238093
10.350196429004427,0.0,0.6761172161172161,1.5335531135531135
10.355013231004705,0.11684981684981684,0.7978021978021977,2.274139194139194
10.359764700006053,0.11684981684981684,0.7978021978021977,2.274139194139194
10.367022508005903,0.3231501831501831,0.726080586080586,2.7197802197802194
10.373198332003085,0.3231501831501831,0.726080586080586,2.7197802197802194
10.378157419007039,0.5391208791208791,0.9783150183150182,1.378021978021978
10.384338512005343,0.5391208791208791,0.9783150183150182,1.378021978021978
10.38928472900443,0.5391208791208791,0.9783150183150182,1.378021978021978
10.394132039000397,0.0,0.48754578754578753,2.2048351648351647
10.398959939004271,0.0,0.48754578754578753,2.2048351648351647
10.404967180002131,0.0,0.48754578754578753,2.2048351648351647
10.410868700004357,0.0,0.48754578754578753,2.2048351648351647
10.415641153005708,0.18937728937728937,0.3191208791208791,2.2435164835164834
10.422922301004292,0.7333333333333333,0.20065934065934066,1.2676190476190476
10.429030758001318,0.7333333333333333,0.20065934065934066,1.2676190476190476
10.43387002000236,0.0,0.09025641025641025,0.6591941391941392
10.439869448004174,0.0,0.09025641025641025,0.6591941391941392
10.444602767005563,0.0,0.3142857142857142,2.804395604395604
10.452000704004604,0.0,0.3142857142857142,2.804395604395604
10.458046646002913,0.0,0.3142857142857142,2.804395604395604
10.462923047001823,0.0,0.3142857142857142,2.804395604395604
10.468968338005652,0.0,0.3142857142857142,2.804395604395604
10.473803241002315,0.0,0.3142857142857142,2.804395604395604
10.48112840900285,0.7953846153846154,0.7027106227106227,1.2458608058608058
10.487330113006465,0.0,0.24175824175824176,3.2854945054945053
10.492147298005875,0.15956043956043955,0.2602930402930403,1.1556043956043955
10.497081580004306,0.15956043956043955,0.2602930402930403,1.1556043956043955
10.501819738004997,0.1386080586080586,0.4996336996336996,1.0468131868131867
10.509280340003897,0.1386080586080586,0.4996336996336996,1.0468131868131867
10.515426840000146,0.0032234432234432234,0.14666666666666667,1.5343589743589743
10.520122183006606,0.381978021978022,0.2917216117216117,2.718168498168498
10.528867336004623,0.381978021978022,0.2917216117216117,2.718168498168498
10.536373124006786,0.1555311355311355,0.5923076923076923,1.7873992673992671
10.542683907005994,0.17648351648351646,1.5730402930402931,3.3
10.547665548001532,0.7518681318681318,0.33926739926739924,0.32476190476190475
10.551389565000136,0.14908424908424908,0.12007326007326008,1.1265934065934065
10.558850585002801,0.14908424908424908,0.12007326007326008,1.1265934065934065
10.565105552006571,0.14908424908424908,0.12007326007326008,1.1265934065934065
10.57016034800472,0.14908424908424908,0.12007326007326008,1.1265934065934065
10.572780216003594,0.8598534798534798,3.0115018315018314,3.063076923076923
10.579011002002517,0.7663736263736264,1.4392673992673992,1.2676190476190476
10.583970235005836,0.7663736263736264,1.4392673992673992,1.2676190476190476
10.588776247001078,0.7663736263736264,1.4392673992673992,1.2676190476190476
10.5960575670033,0.7663736263736264,1.4392673992673992,1.2676190476190476
10.602134797001781,0.7663736263736264,1.4392673992673992,1.2676190476190476
10.60707555400586,0.7663736263736264,1.4392673992673992,1.2676190476190476
10.611873252004443,0.7663736263736264,1.4392673992673992,1.2676190476190476
10.617905770006473,0.7663736263736264,1.4392673992673992,1.2676190476190476
10.62400464300299,0.6809523809523809,0.7188278388278388,1.5585347985347984
10.628880209005729,1.0532600732600732,0.7921611721611721,3.3
10.634986640005081,0.0,0.3626373626373626,1.5005128205128204
10.63981662900187,0.8276190476190476,1.0637362637362637,2.6238827838827836
10.647258460005105,0.8276190476190476,1.0637362637362637,2.6238827838827836
10.653406651006662,0.8276190476190476,1.0637362637362637,2.6238827838827836
10.65828265100572,0.8276190476190476,1.0637362637362637,2.6238827838827836
10.664199015001941,0.8276190476190476,1.0637362637362637,2.6238827838827836
10.669112899005995,0.8276190476190476,1.0637362637362637,2.6238827838827836
10.673910181001702,0.12007326007326008,0.05641025641025641,1.2926007326007325
10.681242347003717,0.12007326007326008,0.05641025641025641,1.2926007326007325
10.687451272002363,0.12007326007326008,0.05641025641025641,1.2926007326007325
10.692248258004838,0.12007326007326008,0.05641025641025641,1.2926007326007325
10.699608468006772,0.12007326007326008,0.05641025641025641,1.2926007326007325
10.705716016003862,0.0,0.32153846153846155,0.26754578754578756
10.710571396004525,0.6358241758241758,1.0387545787545787,0.10717948717948718
10.716616618999979,1.7172893772893774,0.6019780219780219,3.3
10.72272176000115,1.7172893772893774,0.6019780219780219,3.3
10.727604787003656,1.7172893772893774,0.6019780219780219,3.3
10.733684242004529,1.7172893772893774,0.6019780219780219,3.3
10.73853073000646,1.7172893772893774,0.6019780219780219,3.3
10.743305134004913,0.0,0.35619047619047617,0.9839560439560439
10.749492031005502,0.5334798534798535,1.0057142857142858,3.3
10.754454187001102,0.5334798534798535,1.0057142857142858,3.3
10.759227610004018,0.5334798534798535,1.0057142857142858,3.3
10.765357816002506,0.5334798534798535,1.0057142857142858,3.3
10.770255038005416,1.398168498168498,0.5939194139194138,1.5673992673992672
10.776379142000224,0.90014652014652,1.7172893772893774,3.3
10.781250664003892,0.90014652014652,1.7172893772893774,3.3
10.787466543006303,0.90014652014652,1.7172893772893774,3.3
10.79220402300416,0.90014652014652,1.7172893772893774,3.3
10.799426764002419,0.90014652014652,1.7172893772893774,3.3
10.805460204006522,0.3038095238095238,0.1112087912087912,1.523882783882784
10.810210312003619,0.3038095238095238,0.1112087912087912,1.523882783882784
10.816215694001585,0.3038095238095238,0.1112087912087912,1.523882783882784
10.820937644006335,0.3038095238095238,0.1112087912087912,1.523882783882784
10.829481955006486,0.31347985347985347,0.17164835164835165,0.7704029304029304
10.836803297002916,0.31347985347985347,0.17164835164835165,0.7704029304029304
10.842967190001218,0.31347985347985347,0.17164835164835165,0.7704029304029304
10.847692466006265,1.1145054945054944,1.0049084249084248,2.747179487179487
10.856184358002793,1.1145054945054944,1.0049084249084248,2.747179487179487
10.863530917005846,1.1145054945054944,1.0049084249084248,2.747179487179487
10.86945967200154,0.36666666666666664,0.11282051282051282,0.8840293040293039
10.876643791001698,0.36666666666666664,0.11282051282051282,0.8840293040293039
10.882596871000715,0.36666666666666664,0.11282051282051282,0.8840293040293039
10.88983544500661,0.36666666666666664,0.11282051282051282,0.8840293040293039
10.895858831005171,0.36666666666666664,0.11282051282051282,0.8840293040293039
10.90188437600591,0.8316483516483516,1.2152380952380952,1.0363369963369962
10.906753683004354,1.2805128205128204,0.42065934065934063,1.4964835164835164
10.912795562006067,1.5964102564102562,0.9243223443223443,0.9541391941391941
10.917604333000781,0.8985347985347985,0.8195604395604396,3.3
10.924885863001691,0.8985347985347985,0.8195604395604396,3.3
10.930978594005865,0.8985347985347985,0.8195604395604396,3.3
10.935792124000727,0.8985347985347985,0.8195604395604396,3.3
10.94310896400566,0.8985347985347985,0.8195604395604396,3.3
10.949234245999833,0.8985347985347985,0.8195604395604396,3.3
10.954100182003458,0.8985347985347985,0.8195604395604396,3.3
10.960297203004302,0.8985347985347985,0.8195604395604396,3.3
10.965183490006893,0.7357509157509158,0.7252747252747253,3.3
10.971429046003323,0.7357509157509158,0.7252747252747253,3.3
10.976402330001292,1.1225641025641024,0.7583150183150182,3.3
10.982721298001707,0.5463736263736263,0.40615384615384614,1.1040293040293039
10.987613848003093,0.5463736263736263,0.40615384615384614,1.1040293040293039
10.99386592600058,0.5463736263736263,0.40615384615384614,1.1040293040293039
10.998751061000803,0.5463736263736263,0.40615384615384614,1.1040293040293039
11.003695949002577,0.95010989010989,1.112893772893773,2.8551648351648353
11.007386936005787,0.95010989010989,1.112893772893773,2.8551648351648353
11.013680166004633,0.95010989010989,1.112893772893773,2.8551648351648353
11.018664281000383,0.95010989010989,1.112893772893773,2.8551648351648353
11.02237463700294,0.95010989010989,1.112893772893773,2.8551648351648353
11.028638970004977,0.95010989010989,1.112893772893773,2.8551648351648353
11.033582837000722,0.95010989010989,1.112893772893773,2.8551648351648353
11.03845917700528,0.21274725274725276,1.145128205128205,2.8753113553113554
11.04334528400068,0.21274725274725276,1.145128205128205,2.8753113553113554
11.04950065700541,0.21274725274725276,1.145128205128205,2.8753113553113554
11.054464101005578,0.21274725274725276,1.145128205128205,2.8753113553113554
11.058192860000418,0.8751648351648351,0.8397069597069596,1.3538461538461537
11.067011336002906,0.8751648351648351,0.8397069597069596,1.3538461538461537
11.074502384006337,0.8751648351648351,0.8397069597069596,1.3538461538461537
11.080718305005576,0.8751648351648351,0.8397069597069596,1.3538461538461537
11.086297049005225,0.8751648351648351,0.8397069597069596,1.3538461538461537
11.086458286001289,0.17487179487179486,0.3199267399267399,1.792234432234432
11.09402244300145,0.17487179487179486,0.3199267399267399,1.792234432234432
11.100337175004825,0.06769230769230769,0.4424175824175824,1.129010989010989
11.105208242006483,0.7671794871794871,1.0153846153846153,3.3
11.111450988006254,0.9565567765567766,0.10556776556776555,1.0838827838827838
11.116311083002074,0.6664468864468864,0.5761904761904761,1.9211721611721613
11.122384834001423,0.6664468864468864,0.5761904761904761,1.9211721611721613
11.127222812006949,0.0,0.19824175824175824,1.535970695970696
11.134678164002253,0.0,0.19824175824175824,1.535970695970696
11.140943549005897,0.0,0.19824175824175824,1.535970695970696
11.14585611900111,0.0,0.19824175824175824,1.535970695970696
11.151955236004142,0.0,0.19824175824175824,1.535970695970696
11.15675351000391,0.585054945054945,0.90014652014652,3.3
11.165162861005228,0.585054945054945,0.90014652014652,3.3
11.1726938300053,0.6728937728937728,0.6156776556776556,0.5616849816849817
11.178821649002202,0.6728937728937728,0.6156776556776556,0.5616849816849817
11.18374870900152,0.6728937728937728,0.6156776556776556,0.5616849816849817
11.189848201000132,0.6728937728937728,0.6156776556776556,0.5616849816849817
11.194631888000004,0.6728937728937728,0.6156776556776556,0.5616849816849817
11.201968700006546,0.6728937728937728,0.6156776556776556,0.5616849816849817
11.208155973006797,0.6728937728937728,0.6156776556776556,0.5616849816849817
11.213168431000668,0.6728937728937728,0.6156776556776556,0.5616849816849817
11.216882052001893,0.6728937728937728,0.6156776556776556,0.5616849816849817
11.22444879500108,0.6728937728937728,0.6156776556776556,0.5616849816849817
11.230657414002053,0.6728937728937728,0.6156776556776556,0.5616849816849817
11.23569723500259,0.9162637362637363,0.9912087912087911,3.203296703296703
11.24046979600098,0.9162637362637363,0.9912087912087911,3.203296703296703
11.24516093100101,0.9162637362637363,0.9912087912087911,3.203296703296703
11.253769153001485,0.9162637362637363,0.9912087912087911,3.203296703296703
11.261051523004426,0.0,0.21516483516483517,0.909010989010989
11.266916628002946,0.0,0.21516483516483517,0.909010989010989
11.275130069006991,0.0,0.21516483516483517,0.909010989010989
11.282175732005271,0.6753113553113552,0.9871794871794871,0.6825641025641025
11.288451575004729,0.6753113553113552,0.9871794871794871,0.6825641025641025
11.293329778003681,0.6753113553113552,0.9871794871794871,0.6825641025641025
11.299429748003604,0.6753113553113552,0.9871794871794871,0.6825641025641025
11.304394080005295,0.5044688644688645,0.5979487179487178,1.0983882783882783
11.309378667006968,0.5044688644688645,0.5979487179487178,1.0983882783882783
11.313118387006398,0.5044688644688645,0.5979487179487178,1.0983882783882783
11.319367222000437,0.5858608058608058,0.7567032967032966,0.7704029304029304
11.324313558005088,0.1515018315018315,0.33282051282051284,1.1612454212454213
11.329185772003257,0.06124542124542124,0.06446886446886446,1.917948717948718
11.335331697002403,0.07413919413919413,0.3457142857142857,1.3667399267399267
11.34022389400343,0.49802197802197795,0.8719413919413919,1.0846886446886446
11.346303011006967,0.49802197802197795,0.8719413919413919,1.0846886446886446
11.35119186600059,0.49802197802197795,0.8719413919413919,1.0846886446886446
11.356101439007034,0.49802197802197795,0.8719413919413919,1.0846886446886446
11.360827402000723,0.49076923076923074,0.689010989010989,0.8163369963369963
11.369349096006772,0.49076923076923074,0.689010989010989,0.8163369963369963
11.376771271003236,0.49076923076923074,0.689010989010989,0.8163369963369963
11.383062490000157,0.49076923076923074,0.689010989010989,0.8163369963369963
11.387922021000122,0.49076923076923074,0.689010989010989,0.8163369963369963
11.39275442300277,0.0,0.11443223443223444,1.2095970695970695
11.39901787200506,0.0,0.11443223443223444,1.2095970695970695
11.403840475002653,0.0,0.11443223443223444,1.2095970695970695
11.411213595005393,0.0,0.11443223443223444,1.2095970695970695
11.417403720006405,2.174212454212454,0.5987545787545787,3.3
11.42229291300464,0.49479853479853475,0.5181684981684981,0.5786080586080585
11.428557651001029,1.1781684981684981,1.6093040293040293,3.3
11.433510640003078,1.1781684981684981,1.6093040293040293,3.3
11.438604977003706,1.1781684981684981,1.6093040293040293,3.3
11.442300594004337,1.1781684981684981,1.6093040293040293,3.3
11.447353166004177,1.1781684981684981,1.6093040293040293,3.3
11.451115496005514,1.1781684981684981,1.6093040293040293,3.3
