time,emg1,emg2,emg3
0.039495782999438234,0.2063003663003663,0.3497435897435897,0.6503296703296703
0.04002277099789353,0.2063003663003663,0.3497435897435897,0.6503296703296703
0.05790170099498937,0.5310622710622711,0.6495238095238095,0.7768498168498168
0.0862841540001682,0.5310622710622711,0.6495238095238095,0.7768498168498168
0.11266912099381443,0.5310622710622711,0.6495238095238095,0.7768498168498168
0.11316630899818847,0.0,0.6189010989010989,1.0919413919413918
0.12894869899901096,0.0,0.6189010989010989,1.0919413919413918
0.14889546899939887,0.3795604395604395,0.4545054945054945,0.8598534798534798
0.16328359899489442,0.7776556776556776,0.7631501831501831,2.1403663003663005
0.17487450699991314,0.09509157509157509,0.3167032967032967,2.029157509157509
0.18431114899431122,0.0,0.12571428571428572,0.6035897435897435
0.1933369549951749,0.21999999999999997,0.303003663003663,2.24996336996337
0.201197450995096,0.0,0.12087912087912088,0.6205128205128204
0.20770062799419975,0.2562637362637363,0.448058608058608,0.8042490842490841
0.2126997159939492,0.2836630036630036,0.40615384615384614,1.2232967032967033
0.217755045996455,0.2836630036630036,0.40615384615384614,1.2232967032967033
0.22150071899523027,0.0,0.2377289377289377,0.49721611721611714
0.22910215499723563,0.0,0.2377289377289377,0.49721611721611714
0.235459051997168,0.0,0.2377289377289377,0.49721611721611714
0.24054932699800702,0.49882783882783877,0.6052014652014651,0.7857142857142856
0.24559920300089289,0.49882783882783877,0.6052014652014651,0.7857142857142856
0.24954513499687891,0.49882783882783877,0.6052014652014651,0.7857142857142856
0.2532284859989886,0.49882783882783877,0.6052014652014651,0.7857142857142856
0.2609505349973915,0.49882783882783877,0.6052014652014651,0.7857142857142856
0.27513709599588765,0.5125274725274725,0.5923076923076923,0.8477655677655677
0.2839113579975674,0.5125274725274725,0.5923076923076923,0.8477655677655677
0.2931779179998557,0.5125274725274725,0.5923076923076923,0.8477655677655677
0.30441431799408747,0.5125274725274725,0.5923076923076923,0.8477655677655677
0.3122594059968833,0.5125274725274725,0.5923076923076923,0.8477655677655677
0.31884384300064994,0.502051282051282,0.585054945054945,1.3417582417582417
0.3239488649996929,0.502051282051282,0.585054945054945,1.3417582417582417
0.3277228829974774,0.5068864468864469,0.24417582417582417,2.285421245421245
0.33274407499993686,0.5068864468864469,0.24417582417582417,2.285421245421245
0.3395930979968398,0.0,0.14666666666666667,0.49238095238095236
0.3494011489965487,0.0,0.14666666666666667,0.49238095238095236
0.3600523439963581,0.6108424908424909,0.8493772893772893,0.21274725274725276
0.3719436249957653,0.6108424908424909,0.8493772893772893,0.21274725274725276
0.38237749700056156,0.70996336996337,0.9452747252747251,0.49399267399267394
0.39253916699817637,0.70996336996337,0.9452747252747251,0.49399267399267394
0.4081664240002283,0.61003663003663,0.6712820512820512,0.18454212454212454
0.42000345999986166,0.0821978021978022,0.2747985347985348,0.5753846153846153
0.4289584149955772,0.0821978021978022,0.2747985347985348,0.5753846153846153
0.4376923439995153,0.0821978021978022,0.2747985347985348,0.5753846153846153
0.4459468549976009,0.0821978021978022,0.2747985347985348,0.5753846153846153
0.45399560799705796,0.0,0.21999999999999997,1.0274725274725274
0.46036980099597713,0.718021978021978,0.7438095238095238,2.262051282051282
0.467271294000966,0.718021978021978,0.7438095238095238,2.262051282051282
0.47242945800098823,0.718021978021978,0.7438095238095238,2.262051282051282
0.47524536599667044,0.718021978021978,0.7438095238095238,2.262051282051282
0.4792442679972737,0.718021978021978,0.7438095238095238,2.262051282051282
0.4839234190003481,0.718021978021978,0.7438095238095238,2.262051282051282
0.48801002899563173,0.15956043956043955,0.3191208791208791,2.063003663003663
0.4919826240002294,0.03948717948717949,0.22805860805860806,0.8493772893772893
0.49620675799815217,0.03948717948717949,0.22805860805860806,0.8493772893772893
0.4983014120007283,0.03948717948717949,0.22805860805860806,0.8493772893772893
0.49863921599899186,0.0,0.25465201465201465,0.419047619047619
0.5060513059943332,0.0,0.25465201465201465,0.419047619047619
0.512903021000966,0.46014652014652013,0.2909157509157509,2.320879120879121
0.5198711369957891,0.1676190476190476,0.6172893772893773,1.7180952380952381
0.5250417899951572,0.1676190476190476,0.6172893772893773,1.7180952380952381
0.5290627029971802,0.3199267399267399,0.26915750915750913,2.254798534798535
0.5330818820002605,0.11765567765567764,0.24417582417582417,0.9565567765567766
0.5362060589977773,0.11765567765567764,0.24417582417582417,0.9565567765567766
0.5377653920004377,0.17084249084249084,1.1225641025641024,0.78007326007326
0.5444810939952731,0.17084249084249084,1.1225641025641024,0.78007326007326
0.5513456599946949,0.17084249084249084,1.1225641025641024,0.78007326007326
0.5566143749965704,0.11604395604395604,0.27399267399267396,0.9968498168498168
0.5580040649947478,0.21999999999999997,0.3602197802197802,0.6841758241758242
0.5702384030009853,0.21999999999999997,0.3602197802197802,0.6841758241758242
0.5784393479989376,0.0,0.24498168498168496,0.9283516483516483
0.5870030369987944,0.3304029304029304,0.42630036630036633,0.7607326007326007
0.5957079699946917,0.3304029304029304,0.42630036630036633,0.7607326007326007
0.6070724499950302,0.473040293040293,0.664029304029304,2.0847619047619044
0.6197183149997727,0.473040293040293,0.664029304029304,2.0847619047619044
0.6295898679964012,0.473040293040293,0.664029304029304,2.0847619047619044
0.6403472599995439,0.473040293040293,0.664029304029304,2.0847619047619044
0.6527912389938137,0.1386080586080586,1.2418315018315018,0.6285714285714284
0.6631965859996853,0.1386080586080586,1.2418315018315018,0.6285714285714284
0.677821703000518,0.05318681318681319,0.32717948717948714,0.45369963369963373
0.6931645479999133,0.05318681318681319,0.32717948717948714,0.45369963369963373
0.7078888100004406,0.05318681318681319,0.32717948717948714,0.45369963369963373
0.7226183710008627,0.05318681318681319,0.32717948717948714,0.45369963369963373
0.7331406489975052,0.2063003663003663,0.6285714285714284,0.24336996336996336
0.7410679699969478,0.05963369963369963,0.13377289377289378,0.7284981684981684
0.7499936959939077,0.05963369963369963,0.13377289377289378,0.7284981684981684
0.7555375469964929,0.05963369963369963,0.13377289377289378,0.7284981684981684
0.7557696910007508,0.1926007326007326,0.29333333333333333,0.14989010989010987
0.7660864809949999,0.1926007326007326,0.29333333333333333,0.14989010989010987
0.7728031759979785,0.1926007326007326,0.29333333333333333,0.14989010989010987
0.7780531499956851,0.1926007326007326,0.29333333333333333,0.14989010989010987
0.7813003769988427,0.1402197802197802,0.8695238095238095,0.527032967032967
0.7817205709943664,0.1402197802197802,0.8695238095238095,0.527032967032967
0.7909993509965716,0.1402197802197802,0.8695238095238095,0.527032967032967
0.8015493029961362,0.0,0.24256410256410255,0.6011721611721611
0.8089035999946645,0.0,0.2651282051282051,0.28769230769230764
0.817754165000224,0.0,0.2651282051282051,0.28769230769230764
0.8256109169960837,0.0,0.2651282051282051,0.28769230769230764
0.8333491049997974,0.18534798534798536,0.2949450549450549,0.9960439560439559
0.8386522660002811,0.747032967032967,0.7147985347985348,2.1242490842490844
0.8391351999962353,0.2868864468864469,0.3473260073260073,0.7043223443223443
0.8467070560000138,0.2868864468864469,0.3473260073260073,0.7043223443223443
0.8536514359948342,0.6374358974358975,1.2192673992673992,0.6994871794871794
0.8601741409947863,0.5616849816849817,0.6664468864468864,1.9687179487179485
0.8669043029949535,0.5616849816849817,0.6664468864468864,1.9687179487179485
0.8723629070009338,0.5616849816849817,0.6664468864468864,1.9687179487179485
0.8726847889993223,0.9404395604395603,0.801025641025641,2.1355311355311355
0.8819343750001281,0.9404395604395603,0.801025641025641,2.1355311355311355
0.8887341129957349,0.0,0.3779487179487179,0.24739926739926738
0.8942246039950987,0.0,0.3779487179487179,0.24739926739926738
0.8945165639961488,0.0,0.3779487179487179,0.24739926739926738
0.9034512430007453,0.0,0.3779487179487179,0.24739926739926738
0.9112167509956635,0.0,0.3779487179487179,0.24739926739926738
0.9189927039988106,0.19663003663003664,0.18857142857142856,1.0218315018315018
0.9255510869988939,0.19663003663003664,0.18857142857142856,1.0218315018315018
0.9315964089983026,0.19663003663003664,0.18857142857142856,1.0218315018315018
0.9380098429974169,0.19663003663003664,0.18857142857142856,1.0218315018315018
0.9449282989953645,0.19663003663003664,0.18857142857142856,1.0218315018315018
0.951694523995684,0.0,0.21516483516483517,0.3739194139194139
0.9570008570008213,0.0,0.21516483516483517,0.3739194139194139
0.9572558579966426,0.0,0.21516483516483517,0.3739194139194139
0.9663115729999845,0.0,0.21516483516483517,0.3739194139194139
0.972747461994004,0.24175824175824176,0.30058608058608055,0.14586080586080585
0.9779670249990886,0.24175824175824176,0.30058608058608055,0.14586080586080585
0.9819698209976195,0.24175824175824176,0.30058608058608055,0.14586080586080585
0.9847721369951614,0.24175824175824176,0.30058608058608055,0.14586080586080585
0.9909693499939749,0.24175824175824176,0.30058608058608055,0.14586080586080585
0.9967118309941725,0.0,0.14505494505494507,0.469010989010989
1.0039548169952468,0.0,0.14505494505494507,0.469010989010989
1.010410739996587,0.0,0.14505494505494507,0.469010989010989
1.0173861119983485,0.3642490842490842,0.40615384615384614,1.1846153846153846
1.0266573629996856,0.45772893772893775,0.6092307692307692,0.8598534798534798
1.0360544299983303,0.45772893772893775,0.6092307692307692,0.8598534798534798
1.0425480859994423,0.45772893772893775,0.6092307692307692,0.8598534798534798
1.0498013719989103,0.45772893772893775,0.6092307692307692,0.8598534798534798
1.056264024999109,0.0,0.20227106227106226,0.7373626373626374
1.0613940369948978,0.46095238095238095,0.5786080586080585,0.7832967032967032
1.0655376619979506,0.46095238095238095,0.5786080586080585,0.7832967032967032
1.0669579669993254,0.46095238095238095,0.5786080586080585,0.7832967032967032
1.0748763919982594,0.0016117216117216117,0.12732600732600732,0.6583882783882784
1.0831079779964057,0.0,0.10556776556776555,0.5576556776556777
1.0886204639973585,0.0,0.10556776556776555,0.5576556776556777
1.0887946980001288,0.2224175824175824,0.2651282051282051,1.1298168498168497
1.0972581210007775,0.2224175824175824,0.2651282051282051,1.1298168498168497
1.1048454699994181,0.7857142857142856,0.664029304029304,2.1016849816849814
1.11174901999766,0.7857142857142856,0.664029304029304,2.1016849816849814
1.1218707410007482,0.7857142857142856,0.664029304029304,2.1016849816849814
1.134236100995622,0.07816849816849816,0.1668131868131868,0.5093040293040293
1.1488903549980023,0.381978021978022,0.3908424908424908,1.1580219780219778
1.1631933109965757,0.381978021978022,0.3908424908424908,1.1580219780219778
1.1636467179996544,0.381978021978022,0.3908424908424908,1.1580219780219778
1.1708646129991394,0.381978021978022,0.3908424908424908,1.1580219780219778
1.1792416569951456,0.1829304029304029,0.27641025641025635,0.9847619047619047
1.1884994819993153,0.4198534798534798,0.5157509157509157,0.7349450549450549
1.1969498809994548,0.4198534798534798,0.5157509157509157,0.7349450549450549
1.2043334249974578,0.4198534798534798,0.5157509157509157,0.7349450549450549
1.211419326995383,0.0,0.14666666666666667,1.3804395604395605
1.2182027870003367,0.0,0.14666666666666667,1.3804395604395605
1.2233297700004186,0.0,0.14666666666666667,1.3804395604395605
1.2270436869948753,0.0,0.14666666666666667,1.3804395604395605
1.2352071499990416,0.7631501831501831,1.1386813186813185,0.5205860805860806
1.241627265997522,0.0,0.5479853479853479,0.9476923076923076
1.2471549029942253,0.0,0.5479853479853479,0.9476923076923076
1.247325230993738,0.0,0.5479853479853479,0.9476923076923076
1.255685762000212,0.0,0.5479853479853479,0.9476923076923076
1.263522021996323,0.0,0.112014652014652,0.518974358974359
1.2699248179997085,0.0,0.112014652014652,0.518974358974359
1.2750486279983306,0.0,0.112014652014652,0.518974358974359
1.278734291998262,0.0,0.112014652014652,0.518974358974359
1.2849738609947963,0.0,0.112014652014652,0.518974358974359
1.2900916609942215,0.6704761904761904,1.2498901098901098,0.6301831501831501
1.2927095589984674,0.6704761904761904,1.2498901098901098,0.6301831501831501
1.2990175939994515,0.6704761904761904,1.2498901098901098,0.6301831501831501
1.3040434539943817,0.6704761904761904,1.2498901098901098,0.6301831501831501
1.3093239109948627,0.6704761904761904,1.2498901098901098,0.6301831501831501
1.309665941997082,0.6704761904761904,1.2498901098901098,0.6301831501831501
1.317211788998975,0.6704761904761904,1.2498901098901098,0.6301831501831501
1.3240676809946308,0.6704761904761904,1.2498901098901098,0.6301831501831501
1.3326025149945053,0.6704761904761904,1.2498901098901098,0.6301831501831501
1.3394420900003752,0.0,0.12087912087912088,0.5479853479853479
1.344570595996629,0.0,0.12087912087912088,0.5479853479853479
1.3493932229976053,0.0,0.12087912087912088,0.5479853479853479
1.3563960760002374,0.0,0.12087912087912088,0.5479853479853479
1.3646499819951714,0.2868864468864469,0.4182417582417582,0.6761172161172161
1.3712722279960872,0.2868864468864469,0.4182417582417582,0.6761172161172161
1.3763045009982307,0.5165567765567766,0.6366300366300366,1.270842490842491
1.3801087760002702,0.5165567765567766,0.6366300366300366,1.270842490842491
1.385148641995329,0.5165567765567766,0.6366300366300366,1.270842490842491
1.3877451839944115,0.5165567765567766,0.6366300366300366,1.270842490842491
1.394338769998285,0.5165567765567766,0.6366300366300366,1.270842490842491
1.3996141030002036,0.5165567765567766,0.6366300366300366,1.270842490842491
1.4010764790000394,0.5165567765567766,0.6366300366300366,1.270842490842491
1.4160582789991167,0.5165567765567766,0.6366300366300366,1.270842490842491
1.4306088929952239,0.09992673992673992,0.21032967032967032,0.5520146520146519
1.4308472069969866,0.09992673992673992,0.21032967032967032,0.5520146520146519
1.4385824169949046,0.09992673992673992,0.21032967032967032,0.5520146520146519
1.4449767889964278,0.09992673992673992,0.21032967032967032,0.5520146520146519
1.4500188069941942,0.18615384615384614,0.15875457875457877,0.12329670329670328
1.4550527559986222,0.0,0.09428571428571428,0.4029304029304029
1.4588078499946278,0.11765567765567764,1.1612454212454213,0.46820512820512816
1.4638581939943833,0.11765567765567764,1.1612454212454213,0.46820512820512816
1.4690035489984439,0.5665201465201465,0.7695970695970695,0.4021245421245421
1.4727630039997166,0.0821978021978022,0.24578754578754577,0.9025641025641026
1.4766838649957208,0.43435897435897436,0.747032967032967,2.1161904761904764
1.4805548410004121,0.43435897435897436,0.747032967032967,2.1161904761904764
1.487141255995084,0.43435897435897436,0.747032967032967,2.1161904761904764
1.4923385739966761,0.6865934065934066,0.8292307692307692,0.5076923076923077
1.4949255519968574,0.13457875457875457,0.3223443223443223,0.3747252747252747
1.5014223809994292,0.13457875457875457,0.3223443223443223,0.3747252747252747
1.506458998999733,0.36666666666666664,0.48754578754578753,0.7462271062271062
1.5102861389968893,0.36666666666666664,0.48754578754578753,0.7462271062271062
1.5166949279955588,0.0,0.1668131868131868,0.45369963369963373
1.5219412699952954,0.5181684981684981,0.713992673992674,0.7357509157509158
1.523297540996282,0.5181684981684981,0.713992673992674,0.7357509157509158
1.5310614459958742,0.5181684981684981,0.713992673992674,0.7357509157509158
1.5374961649940815,0.0,0.43677655677655675,1.149157509157509
1.5426122909993865,0.0,0.43677655677655675,1.149157509157509
1.5463491519985837,0.0,0.43677655677655675,1.149157509157509
1.5526380649971543,0.0,0.43677655677655675,1.149157509157509
1.5575204479973763,0.25706959706959703,0.5592673992673992,0.11523809523809524
1.5648900800006231,0.19743589743589743,0.4013186813186813,0.5536263736263736
1.571018959999492,0.19743589743589743,0.4013186813186813,0.5536263736263736
1.575955771993904,0.19743589743589743,0.4013186813186813,0.5536263736263736
1.5820849839947186,0.28527472527472525,0.6535531135531135,0.23853479853479853
1.5870187889959197,0.39890109890109887,0.30945054945054945,2.153260073260073
1.5930910149982083,0.718021978021978,1.0838827838827838,0.5423443223443223
1.5979932039990672,0.7768498168498168,0.7446153846153846,2.1887179487179487
1.6041369619997567,0.7768498168498168,0.7446153846153846,2.1887179487179487
1.6090060159986024,0.0,0.1797069597069597,0.8767765567765567
1.6149852039961843,0.0,0.1797069597069597,0.8767765567765567
1.6212315089942422,0.3553846153846154,0.8816117216117215,0.7244688644688644
1.626206661996548,0.3553846153846154,0.8816117216117215,0.7244688644688644
1.6311311229947023,0.3553846153846154,0.8816117216117215,0.7244688644688644
1.637405770998157,0.0,0.08864468864468865,0.43435897435897436
1.642326167995634,0.0,0.08864468864468865,0.43435897435897436
1.6471627799983253,0.0,0.08864468864468865,0.43435897435897436
1.6532912189941271,0.3755311355311355,0.3932600732600733,1.0895238095238093
1.659455244000128,0.3755311355311355,0.3932600732600733,1.0895238095238093
1.6643581809985335,0.3755311355311355,0.3932600732600733,1.0895238095238093
1.6692548899955,0.3755311355311355,0.3932600732600733,1.0895238095238093
1.6753301819990156,0.3755311355311355,0.3932600732600733,1.0895238095238093
1.68142930099566,0.3755311355311355,0.3932600732600733,1.0895238095238093
1.686294175000512,0.0,0.39003663003663,1.1604395604395605
1.6924544849971426,0.5141391941391941,0.3352380952380952,0.8517948717948718
1.6974270360005903,0.5141391941391941,0.3352380952380952,0.8517948717948718
1.7023651439958485,0.5141391941391941,0.3352380952380952,0.8517948717948718
1.7071693319958285,0.5141391941391941,0.3352380952380952,0.8517948717948718
1.714550929995312,0.3690842490842491,0.4198534798534798,0.0846153846153846
1.7206847039997228,0.3690842490842491,0.4198534798534798,0.0846153846153846
1.7256933780008694,0.3690842490842491,0.4198534798534798,0.0846153846153846
1.7306072200008202,0.3690842490842491,0.4198534798534798,0.0846153846153846
1.73675463499967,0.3690842490842491,0.4198534798534798,0.0846153846153846
1.7416756479942705,0.3690842490842491,0.4198534798534798,0.0846153846153846
1.746508393996919,0.3690842490842491,0.4198534798534798,0.0846153846153846
1.7539240219994099,0.3690842490842491,0.4198534798534798,0.0846153846153846
1.7600275609947857,0.0,0.4996336996336996,1.1008058608058606
1.767315705998044,0.33282051282051284,0.630989010989011,0.7325274725274724
1.7734778829981224,0.2377289377289377,0.307032967032967,1.0580952380952382
1.778324356993835,0.2377289377289377,0.307032967032967,1.0580952380952382
1.7856988909989013,0.2377289377289377,0.307032967032967,1.0580952380952382
1.7917690479953308,0.2377289377289377,0.307032967032967,1.0580952380952382
1.7965571469976567,0.2377289377289377,0.307032967032967,1.0580952380952382
1.8038960179983405,0.2377289377289377,0.307032967032967,1.0580952380952382
1.810002017999068,0.7599267399267399,1.2353846153846153,0.5028571428571429
1.8148392489965772,0.0,0.11443223443223444,0.5141391941391941
1.8208678909941227,0.07494505494505493,0.614065934065934,1.4328205128205127
1.8257277779994183,0.07494505494505493,0.614065934065934,1.4328205128205127
1.8329826299959677,0.07494505494505493,0.614065934065934,1.4328205128205127
1.839023462998739,0.0,0.13135531135531134,0.4545054945054945
1.843789246995584,0.0,0.13135531135531134,0.4545054945054945
1.8510729490008089,0.0,0.13135531135531134,0.4545054945054945
1.8571414760008338,0.4021245421245421,0.6293772893772893,1.1886446886446886
1.861979272995086,0.4021245421245421,0.6293772893772893,1.1886446886446886
1.8679674899976817,0.0410989010989011,0.15794871794871795,0.5608791208791208
1.872787772997981,0.0410989010989011,0.15794871794871795,0.5608791208791208
1.8788095959971542,0.0410989010989011,0.15794871794871795,0.5608791208791208
1.88483131799876,0.0410989010989011,0.15794871794871795,0.5608791208791208
1.8895967249991372,0.0410989010989011,0.15794871794871795,0.5608791208791208
1.8969536899967352,0.0410989010989011,0.15794871794871795,0.5608791208791208
1.9030008669942617,0.0410989010989011,0.15794871794871795,0.5608791208791208
1.9078309519973118,0.3376556776556776,0.29816849816849816,2.146007326007326
1.915042426000582,0.3376556776556776,0.29816849816849816,2.146007326007326
1.9210705009973026,0.3376556776556776,0.29816849816849816,2.146007326007326
1.9282963289952022,0.3376556776556776,0.29816849816849816,2.146007326007326
1.9343196259942488,0.0,0.17164835164835165,0.4545054945054945
1.9402889229968423,0.0,0.17164835164835165,0.4545054945054945
1.9449950599955628,0.0,0.17164835164835165,0.4545054945054945
1.9535560789954616,0.0,0.17164835164835165,0.4545054945054945
1.9609155289945193,0.07333333333333333,0.24417582417582417,0.7244688644688644
1.9670149300000048,0.014505494505494505,0.1692307692307692,0.4287179487179487
1.9717627739955788,0.014505494505494505,0.1692307692307692,0.4287179487179487
1.9776599619945046,0.43032967032967034,0.6390476190476191,1.2458608058608058
1.9848817409947515,0.43032967032967034,0.6390476190476191,1.2458608058608058
1.9910705399961444,0.43032967032967034,0.6390476190476191,1.2458608058608058
1.9958641139965039,0.04593406593406593,0.17648351648351646,0.7994139194139194
2.0019305379973957,0.0,0.48432234432234433,0.9009523809523808
2.006789860999561,0.033846153846153845,0.29333333333333333,0.5044688644688645
2.012954316000105,0.033846153846153845,0.29333333333333333,0.5044688644688645
2.017788406999898,0.033846153846153845,0.29333333333333333,0.5044688644688645
2.023850275996665,0.2957509157509157,0.8695238095238095,0.7857142857142856
2.0287527439941186,0.0,0.3038095238095238,1.3103296703296703
2.034749717997329,0.0,0.3038095238095238,1.3103296703296703
2.0395461160005652,0.6503296703296703,0.7567032967032966,2.313626373626373
2.0468509630009066,0.5157509157509157,0.26754578754578756,1.9026373626373623
2.0530481489986414,0.13941391941391942,0.1829304029304029,0.3336263736263736
2.0578769569983706,0.0,0.11443223443223444,0.4214652014652014
2.065095369995106,0.0,0.11443223443223444,0.4214652014652014
2.071146124995721,0.0,0.11443223443223444,0.4214652014652014
2.0759682079951745,0.3263736263736263,0.4762637362637362,0.8936996336996336
2.0819698669947684,0.3263736263736263,0.4762637362637362,0.8936996336996336
2.086776056996314,0.0,0.195018315018315,0.3578021978021978
2.0914774179982487,0.0,0.195018315018315,0.3578021978021978
2.0999517390009714,0.0,0.12007326007326008,0.48835164835164835
2.1071802379956353,0.0,0.12007326007326008,0.48835164835164835
2.113890257998719,0.693040293040293,1.2676190476190476,0.49479853479853475
2.1211115549958777,0.0,0.49479853479853475,0.9984615384615383
2.128524514999299,0.0,0.49479853479853475,0.9984615384615383
2.133470587999909,0.0,0.49479853479853475,0.9984615384615383
2.1382327589963097,0.0,0.49479853479853475,0.9984615384615383
2.1430426399965654,0.0,0.49479853479853475,0.9984615384615383
2.1498101329998462,0.0,0.49479853479853475,0.9984615384615383
2.158557677998033,0.0,0.49479853479853475,0.9984615384615383
2.1672190569952363,0.5342857142857143,0.5858608058608058,0.7276923076923076
2.1741327259951504,0.5342857142857143,0.5858608058608058,0.7276923076923076
2.1802220229947125,0.5342857142857143,0.5858608058608058,0.7276923076923076
2.187416401000519,0.0,0.2087179487179487,0.5310622710622711
2.196751391995349,0.0,0.2087179487179487,0.5310622710622711
2.2080963449989213,0.0,0.2087179487179487,0.5310622710622711
2.2175574239954585,0.35216117216117215,0.4182417582417582,1.1402930402930402
2.2265835519938264,0.35216117216117215,0.4182417582417582,1.1402930402930402
2.234209952999663,0.2224175824175824,0.20468864468864467,0.2635164835164835
2.240287704000366,0.2224175824175824,0.20468864468864467,0.2635164835164835
2.2483265650007525,0.2224175824175824,0.20468864468864467,0.2635164835164835
2.257052337998175,0.2224175824175824,0.20468864468864467,0.2635164835164835
2.2654810179956257,0.2224175824175824,0.20468864468864467,0.2635164835164835
2.273015589998977,0.0,0.20227106227106226,1.0508424908424907
2.2779441319944453,0.03304029304029304,0.14908424908424908,0.7865201465201466
2.284076219999406,0.15875457875457877,1.0806593406593406,0.5165567765567766
2.288984807993984,0.15875457875457877,1.0806593406593406,0.5165567765567766
2.2950004349986557,0.15875457875457877,1.0806593406593406,0.5165567765567766
2.3010986059962306,0.6720879120879121,0.7567032967032966,2.22981684981685
2.305891186995723,0.0,0.3102564102564102,0.307032967032967
2.3119635629991535,0.0,0.3102564102564102,0.307032967032967
2.316671625994786,0.0,0.3102564102564102,0.307032967032967
2.3241672189979,0.0,0.3102564102564102,0.307032967032967
2.3302511789952405,0.0,0.28930402930402926,0.30864468864468864
2.33504200400057,0.0,0.28930402930402926,0.30864468864468864
2.342346997000277,0.0,0.28930402930402926,0.30864468864468864
2.348349395993864,0.0,0.28930402930402926,0.30864468864468864
2.3531264509947505,0.0,0.28930402930402926,0.30864468864468864
2.361715674996958,0.0,0.28930402930402926,0.30864468864468864
2.3690219019990764,0.0,0.28930402930402926,0.30864468864468864
2.375063154999225,0.0,0.28930402930402926,0.30864468864468864
2.3798762839942356,0.2562637362637363,0.6052014652014651,1.7656410256410255
2.386046895000618,0.5012454212454212,0.2498168498168498,1.847032967032967
2.39081392299704,0.7494505494505495,1.1233699633699634,0.4867399267399267
2.3981617229947005,0.7494505494505495,1.1233699633699634,0.4867399267399267
2.404318429995328,0.7494505494505495,1.1233699633699634,0.4867399267399267
2.4091751339947223,0.7147985347985348,1.062930402930403,0.46739926739926735
2.415282235997438,0.10395604395604395,0.24739926739926738,0.8405128205128204
2.4213505209991126,0.10395604395604395,0.24739926739926738,0.8405128205128204
2.426267309994728,0.10395604395604395,0.24739926739926738,0.8405128205128204
2.432448989995464,0.10395604395604395,0.24739926739926738,0.8405128205128204
2.4373834599973634,0.10395604395604395,0.24739926739926738,0.8405128205128204
2.4433601099954103,0.10395604395604395,0.24739926739926738,0.8405128205128204
2.4481690709944814,0.10395604395604395,0.24739926739926738,0.8405128205128204
2.455456576994038,0.0,0.10315018315018315,0.5995604395604395
2.461552954999206,0.0,0.10315018315018315,0.5995604395604395
2.4664211929994053,0.0,0.10315018315018315,0.5995604395604395
2.4712690039959853,0.0,0.10315018315018315,0.5995604395604395
2.477339625998866,0.0,0.10315018315018315,0.5995604395604395
2.4822285490008653,0.12007326007326008,0.2498168498168498,0.5318681318681319
2.48703711899725,0.14505494505494507,0.1813186813186813,0.31267399267399265
2.4974278589943424,0.14505494505494507,0.1813186813186813,0.31267399267399265
2.508865682997566,0.14505494505494507,0.1813186813186813,0.31267399267399265
2.5198574469977757,0.14505494505494507,0.1813186813186813,0.31267399267399265
2.5309525720003876,0.14505494505494507,0.1813186813186813,0.31267399267399265
2.542560448993754,0.70996336996337,1.0677655677655677,0.43597069597069593
2.553366977997939,0.70996336996337,1.0677655677655677,0.43597069597069593
2.5617206419992726,0.70996336996337,1.0677655677655677,0.43597069597069593
2.569053299994266,0.70996336996337,1.0677655677655677,0.43597069597069593
2.575112768994586,0.1095970695970696,0.2506227106227106,0.8646886446886447
2.5799050059940782,0.1095970695970696,0.2506227106227106,0.8646886446886447
2.5860875629950897,0.1095970695970696,0.2506227106227106,0.8646886446886447
2.590966367999499,0.1095970695970696,0.2506227106227106,0.8646886446886447
2.59588318799797,0.0,0.12571428571428572,0.41340659340659336
2.600836107994837,0.0,0.12571428571428572,0.41340659340659336
2.6056860749959014,0.10395604395604395,0.2772161172161172,1.622197802197802
2.6117371169966646,0.6132600732600733,1.1362637362637362,0.6172893772893773
2.6165920220009866,0.6132600732600733,1.1362637362637362,0.6172893772893773
2.6226663479974377,0.6132600732600733,1.1362637362637362,0.6172893772893773
2.6274786029971438,0.6132600732600733,1.1362637362637362,0.6172893772893773
2.634855816999334,0.6132600732600733,1.1362637362637362,0.6172893772893773
2.64099051499943,0.6132600732600733,1.1362637362637362,0.6172893772893773
2.645813905997784,0.6132600732600733,1.1362637362637362,0.6172893772893773
2.6518918090005172,0.6132600732600733,1.1362637362637362,0.6172893772893773
2.6567287020006916,0.0,0.19663003663003664,0.4391941391941392
2.662705000999267,0.0,0.19663003663003664,0.4391941391941392
2.667446282997844,0.0,0.19663003663003664,0.4391941391941392
2.6746975339992787,0.0,0.19663003663003664,0.4391941391941392
2.6807934769967687,0.0,0.14666666666666667,0.469010989010989
2.6856450279956334,0.10315018315018315,0.2602930402930403,0.4722344322344322
2.6930114299975685,0.17245421245421244,0.29413919413919415,0.9356043956043956
2.699092215996643,0.0,0.12893772893772892,0.5576556776556777
2.703943918000732,0.0,0.12893772893772892,0.5576556776556777
2.708733213999949,0.6624175824175824,0.8308424908424907,0.3287912087912088
2.716691677997005,0.0,0.1668131868131868,0.6116483516483516
2.7240260529943043,0.0,0.1668131868131868,0.6116483516483516
2.7304530479959794,0.004835164835164835,0.17648351648351646,0.4021245421245421
2.7389498769989586,0.0,0.08703296703296703,0.4029304029304029
2.743749380999361,0.34007326007326005,0.6293772893772893,1.7769230769230768
2.7498043939995114,0.46659340659340653,0.6954578754578754,0.10073260073260072
2.7545001649996266,0.22886446886446887,0.29736263736263735,0.9944322344322343
2.763027126995439,0.22886446886446887,0.29736263736263735,0.9944322344322343
2.770439929998247,0.29413919413919415,0.4142124542124542,0.6197069597069597
2.776538846999756,0.29413919413919415,0.4142124542124542,0.6197069597069597
2.7813357189952512,0.29413919413919415,0.4142124542124542,0.6197069597069597
2.7886704899938195,0.29413919413919415,0.4142124542124542,0.6197069597069597
2.7948512269940693,0.29413919413919415,0.4142124542124542,0.6197069597069597
2.7997897819950595,0.025787545787545788,0.3908424908424908,0.5818315018315018
2.805797757995606,0.025787545787545788,0.3908424908424908,0.5818315018315018
2.811773148998327,0.0709157509157509,0.29010989010989013,1.6084981684981683
2.8177744040003745,0.0709157509157509,0.29010989010989013,1.6084981684981683
2.823902822994569,0.0709157509157509,0.29010989010989013,1.6084981684981683
2.8288675869989675,0.0709157509157509,0.29010989010989013,1.6084981684981683
2.8349589860008564,0.0709157509157509,0.29010989010989013,1.6084981684981683
2.8398461019969545,0.0709157509157509,0.29010989010989013,1.6084981684981683
2.8459633349993965,0.12087912087912088,0.29333333333333333,0.4835164835164835
2.8522235819982598,0.12087912087912088,0.29333333333333333,0.4835164835164835
2.857033845000842,0.12087912087912088,0.29333333333333333,0.4835164835164835
2.8630072480009403,0.12087912087912088,0.29333333333333333,0.4835164835164835
2.8690447459957795,0.12087912087912088,0.29333333333333333,0.4835164835164835
2.875042075997044,0.0,0.1386080586080586,0.43435897435897436
2.8797266469991882,0.0,0.1386080586080586,0.43435897435897436
2.8869662529978086,0.0,0.1386080586080586,0.43435897435897436
2.8931186419940786,0.6664468864468864,1.216849816849817,0.5423443223443223
2.8979286429967033,0.6664468864468864,1.216849816849817,0.5423443223443223
2.905225194997911,0.6664468864468864,1.216849816849817,0.5423443223443223
2.911257397994632,0.6664468864468864,1.216849816849817,0.5423443223443223
2.917478878996917,0.6664468864468864,1.216849816849817,0.5423443223443223
2.9235039699997287,0.6664468864468864,1.216849816849817,0.5423443223443223
2.928260319000401,0.020146520146520144,0.2071062271062271,0.5068864468864469
2.935553183000593,0.04593406593406593,0.20227106227106226,0.6632234432234432
2.9416846239982988,0.04593406593406593,0.20227106227106226,0.6632234432234432
2.9464848809948307,0.0,0.20468864468864467,0.361025641025641
2.9538964409948676,0.0,0.20468864468864467,0.361025641025641
2.960014067000884,0.0,0.20468864468864467,0.361025641025641
2.9648107559987693,0.0,0.20468864468864467,0.361025641025641
2.970842004993756,0.0,0.20468864468864467,0.361025641025641
2.9755770089977887,0.0,0.1087912087912088,0.5157509157509157
2.982909968995955,0.0,0.1087912087912088,0.5157509157509157
2.9891100519962492,0.5391208791208791,0.2917216117216117,2.162124542124542
2.9968236469940166,0.5391208791208791,0.2917216117216117,2.162124542124542
3.00374911599647,0.5391208791208791,0.2917216117216117,2.162124542124542
3.0088440209947294,0.7607326007326007,1.2394139194139193,0.4899633699633699
3.0127640289938427,0.07172161172161172,0.17648351648351646,0.7309157509157509
3.0177771149974433,0.07172161172161172,0.17648351648351646,0.7309157509157509
3.0202668659985648,0.07172161172161172,0.17648351648351646,0.7309157509157509
3.0278492149955127,0.07172161172161172,0.17648351648351646,0.7309157509157509
3.034151195999584,0.07172161172161172,0.17648351648351646,0.7309157509157509
3.039185270994494,0.07172161172161172,0.17648351648351646,0.7309157509157509
3.042954168995493,0.07172161172161172,0.17648351648351646,0.7309157509157509
3.049335178999172,0.6156776556776556,0.7808791208791208,0.2063003663003663
3.054441606000182,0.6156776556776556,0.7808791208791208,0.2063003663003663
3.0582194099988556,0.6156776556776556,0.7808791208791208,0.2063003663003663
3.064585022999381,0.6156776556776556,0.7808791208791208,0.2063003663003663
3.069693092998932,0.6156776556776556,0.7808791208791208,0.2063003663003663
3.0748495250009,0.6156776556776556,0.7808791208791208,0.2063003663003663
3.0779956339974888,0.6156776556776556,0.7808791208791208,0.2063003663003663
3.079755677994399,0.6156776556776556,0.7808791208791208,0.2063003663003663
3.0823863729965524,0.6156776556776556,0.7808791208791208,0.2063003663003663
3.0910922349939938,0.6156776556776556,0.7808791208791208,0.2063003663003663
3.1012851249979576,0.6390476190476191,1.3191941391941393,0.506080586080586
3.112761500000488,0.16197802197802197,1.311135531135531,0.6285714285714284
3.1297115669949562,0.16197802197802197,1.311135531135531,0.6285714285714284
3.143017720998614,0.0,0.14827838827838827,0.5084981684981685
3.1432793869971647,0.1418315018315018,1.2386080586080586,0.7631501831501831
3.151681949995691,0.1418315018315018,1.2386080586080586,0.7631501831501831
3.1582339679953293,0.1418315018315018,1.2386080586080586,0.7631501831501831
3.164358625996101,0.1418315018315018,1.2386080586080586,0.7631501831501831
3.1686626379960217,0.1418315018315018,1.2386080586080586,0.7631501831501831
3.168928775994573,0.05882783882783882,0.18373626373626373,0.6946520146520146
3.1767773629981093,0.05882783882783882,0.18373626373626373,0.6946520146520146
3.185883081998327,0.05882783882783882,0.18373626373626373,0.6946520146520146
3.1929426269998658,0.16117216117216115,0.24578754578754577,0.5326739926739926
3.20033972300007,0.16117216117216115,0.24578754578754577,0.5326739926739926
3.207055868995667,0.5632967032967032,0.5713553113553113,0.6986813186813187
3.212991205997241,0.5632967032967032,0.5713553113553113,0.6986813186813187
3.2206398589987657,0.5632967032967032,0.5713553113553113,0.6986813186813187
3.2272361799987266,0.5632967032967032,0.5713553113553113,0.6986813186813187
3.2335197549982695,0.7091575091575092,1.2805128205128204,0.46417582417582415
3.2390691569962655,0.7091575091575092,1.2805128205128204,0.46417582417582415
3.239353469994967,0.3457142857142857,0.4198534798534798,0.6189010989010989
3.2492430989950662,0.3457142857142857,0.4198534798534798,0.6189010989010989
3.2556480479979655,0.3457142857142857,0.4198534798534798,0.6189010989010989
3.2613613799985615,0.7728205128205128,0.8082783882783882,2.0589743589743588
3.2720469609994325,0.7728205128205128,0.8082783882783882,2.0589743589743588
3.280830026997137,0.7728205128205128,0.8082783882783882,2.0589743589743588
3.2872562509946874,0.23208791208791207,0.3972893772893773,0.07252747252747253
3.292557285996736,0.23208791208791207,0.3972893772893773,0.07252747252747253
3.2941701149975415,0.23208791208791207,0.3972893772893773,0.07252747252747253
3.3017524169990793,0.23208791208791207,0.3972893772893773,0.07252747252747253
3.306708947995503,0.23208791208791207,0.3972893772893773,0.07252747252747253
3.3133138909979607,0.23208791208791207,0.3972893772893773,0.07252747252747253
3.3172802799963392,0.0273992673992674,0.1805128205128205,0.5649084249084249
3.319865020996076,0.2248351648351648,0.3529670329670329,0.5157509157509157
3.326276592000795,0.2651282051282051,0.17245421245421244,0.9219047619047619
3.3342966429991066,0.17648351648351646,0.3102564102564102,0.8985347985347985
3.3396308649971616,0.17648351648351646,0.3102564102564102,0.8985347985347985
3.3409693439971306,0.17648351648351646,0.3102564102564102,0.8985347985347985
3.3522567469990463,0.17648351648351646,0.3102564102564102,0.8985347985347985
3.358943275998172,0.05963369963369963,0.20388278388278389,0.664029304029304
3.3653436029999284,0.05963369963369963,0.20388278388278389,0.664029304029304
3.3720941489955294,0.05963369963369963,0.20388278388278389,0.664029304029304
3.3776583340004436,0.05963369963369963,0.20388278388278389,0.664029304029304
3.377825857998687,0.13377289377289378,0.31509157509157504,0.3038095238095238
3.390714905995992,0.13054945054945052,0.2917216117216117,0.46095238095238095
3.4024221929939813,0.6156776556776556,0.24095238095238095,1.9211721611721613
3.415747797997028,0.6156776556776556,0.24095238095238095,1.9211721611721613
3.4241839249953046,0.6156776556776556,0.24095238095238095,1.9211721611721613
3.433415772000444,0.6156776556776556,0.24095238095238095,1.9211721611721613
3.4399874549999367,0.6156776556776556,0.24095238095238095,1.9211721611721613
3.4455981149949366,0.6156776556776556,0.24095238095238095,1.9211721611721613
3.445792665996123,0.2071062271062271,0.25787545787545785,0.9404395604395603
3.454420948000916,0.15956043956043955,0.3038095238095238,0.8767765567765567
3.462737997993827,0.15956043956043955,0.3038095238095238,0.8767765567765567
3.4695041819941252,0.18857142857142856,0.303003663003663,0.518974358974359
3.474631015997147,0.18857142857142856,0.303003663003663,0.518974358974359
3.4790171069980715,0.18857142857142856,0.303003663003663,0.518974358974359
3.4792480129981413,0.18857142857142856,0.303003663003663,0.518974358974359
3.487800809998589,0.26190476190476186,0.2063003663003663,0.9452747252747251
3.496272399999725,0.26190476190476186,0.2063003663003663,0.9452747252747251
3.503204505999747,0.26190476190476186,0.2063003663003663,0.9452747252747251
3.5083881549944635,0.15633699633699633,0.20065934065934066,0.4931868131868131
3.511620467994362,0.15633699633699633,0.20065934065934066,0.4931868131868131
3.5119254029996227,0.15633699633699633,0.20065934065934066,0.4931868131868131
3.5222798339964356,0.15633699633699633,0.20065934065934066,0.4931868131868131
3.5322542849971796,0.15633699633699633,0.20065934065934066,0.4931868131868131
3.540098728000885,0.15633699633699633,0.20065934065934066,0.4931868131868131
3.547709139995277,0.15633699633699633,0.20065934065934066,0.4931868131868131
3.5567646409981535,0.15633699633699633,0.20065934065934066,0.4931868131868131
3.564042891994177,0.03223443223443223,0.3658608058608058,0.5068864468864469
3.5699544359958963,0.0,0.22886446886446887,1.1459340659340658
3.5772118479944766,0.7502564102564102,0.788937728937729,1.5770695970695972
3.586864365999645,0.7502564102564102,0.788937728937729,1.5770695970695972
3.594490224000765,0.1104029304029304,0.22967032967032966,0.43355311355311354
3.603442723993794,0.1104029304029304,0.22967032967032966,0.43355311355311354
3.61037699499866,0.17326007326007326,0.27882783882783885,0.49076923076923074
3.6181581739947433,0.5834432234432234,0.6454945054945055,1.1153113553113554
3.6270806879983866,0.5834432234432234,0.6454945054945055,1.1153113553113554
3.6335493679944193,0.5834432234432234,0.6454945054945055,1.1153113553113554
3.638596939999843,0.0,0.13054945054945052,0.3731135531135531
3.6411761259951163,0.0,0.13054945054945052,0.3731135531135531
3.6485092459988664,0.0,0.13054945054945052,0.3731135531135531
3.6543483629939146,0.7035164835164834,1.324029304029304,0.5205860805860806
3.663693019996572,0.1418315018315018,0.6261538461538461,1.3304761904761904
3.6718896370002767,0.1418315018315018,0.6261538461538461,1.3304761904761904
3.6811379099963233,0.4996336996336996,0.7873260073260073,0.7268864468864469
3.6895187069967506,0.4996336996336996,0.7873260073260073,0.7268864468864469
3.6978498609969392,0.4996336996336996,0.7873260073260073,0.7268864468864469
3.704669875995023,0.0,0.6422710622710622,0.896117216117216
3.7101460519988905,0.0,0.6422710622710622,0.896117216117216
3.710339238998131,0.20065934065934066,0.28608058608058606,0.8872527472527472
3.718818780995207,0.20065934065934066,0.28608058608058606,0.8872527472527472
3.7268790349990013,0.20065934065934066,0.28608058608058606,0.8872527472527472
3.736115821993735,0.06688644688644689,0.15956043956043955,0.3811721611721612
3.7429047119949246,0.06688644688644689,0.15956043956043955,0.3811721611721612
3.7501926990007632,0.06688644688644689,0.15956043956043955,0.3811721611721612
3.757742296998913,0.06688644688644689,0.15956043956043955,0.3811721611721612
3.7661133449946647,0.46820512820512816,0.5528205128205127,0.6342124542124542
3.77516542399826,0.46820512820512816,0.5528205128205127,0.6342124542124542
3.7841309209979954,0.46820512820512816,0.5528205128205127,0.6342124542124542
3.7932260679954197,0.46820512820512816,0.5528205128205127,0.6342124542124542
3.8008165869978257,0.46820512820512816,0.5528205128205127,0.6342124542124542
3.809574414997769,0.46820512820512816,0.5528205128205127,0.6342124542124542
3.81850126900099,0.46820512820512816,0.5528205128205127,0.6342124542124542
3.8287406419985928,0.46820512820512816,0.5528205128205127,0.6342124542124542
3.8378867789942888,0.46820512820512816,0.5528205128205127,0.6342124542124542
3.8475418369998806,0.8679120879120878,0.7986080586080586,2.0565567765567763
3.8549135709981783,0.8679120879120878,0.7986080586080586,2.0565567765567763
3.8615807149981265,0.8679120879120878,0.7986080586080586,2.0565567765567763
3.867257685997174,0.8679120879120878,0.7986080586080586,2.0565567765567763
3.867435807995207,0.8679120879120878,0.7986080586080586,2.0565567765567763
3.8756628900009673,0.8679120879120878,0.7986080586080586,2.0565567765567763
3.883006790994841,0.8679120879120878,0.7986080586080586,2.0565567765567763
3.8894774519940256,0.195018315018315,0.26190476190476186,0.48754578754578753
3.8947087269989424,0.004029304029304029,0.12168498168498168,0.48432234432234433
3.8964659859993844,0.004029304029304029,0.12168498168498168,0.48432234432234433
3.9004068489957717,0.004029304029304029,0.12168498168498168,0.48432234432234433
3.9042231469938997,0.004029304029304029,0.12168498168498168,0.48432234432234433
3.9093805509983213,0.4391941391941392,0.49882783882783877,0.06608058608058608
3.9124461369938217,0.006446886446886447,0.1789010989010989,0.5310622710622711
3.914100955000322,0.006446886446886447,0.1789010989010989,0.5310622710622711
3.9231567370006815,0.2345054945054945,0.5117216117216117,0.14827838827838827
3.9321863250006572,0.004029304029304029,0.2071062271062271,0.33282051282051284
3.9404492209941964,0.004029304029304029,0.2071062271062271,0.33282051282051284
3.9501877739967313,0.004029304029304029,0.2071062271062271,0.33282051282051284
3.959011353996175,0.004029304029304029,0.2071062271062271,0.33282051282051284
3.9702763879977283,0.004029304029304029,0.2071062271062271,0.33282051282051284
3.978431957999419,0.004029304029304029,0.2071062271062271,0.33282051282051284
3.985817187000066,0.004029304029304029,0.2071062271062271,0.33282051282051284
3.9923946389972116,0.7276923076923076,1.0137728937728938,0.3642490842490842
3.9990110319995438,0.6487179487179486,0.6769230769230768,1.8736263736263734
4.004482003998419,0.6487179487179486,0.6769230769230768,1.8736263736263734
4.015868974995101,0.6487179487179486,0.6769230769230768,1.8736263736263734
4.031071990997589,0.0,0.13135531135531134,0.5036630036630036
4.046169884000847,0.0846153846153846,0.2095238095238095,0.4021245421245421
4.046617145999335,0.0846153846153846,0.2095238095238095,0.4021245421245421
4.051828611998644,0.09186813186813186,0.14666666666666667,0.7002930402930403
4.054375888998038,0.09186813186813186,0.14666666666666667,0.7002930402930403
4.063108900998486,0.09186813186813186,0.14666666666666667,0.7002930402930403
4.069842997996602,0.09186813186813186,0.14666666666666667,0.7002930402930403
4.0747898039990105,0.09186813186813186,0.14666666666666667,0.7002930402930403
4.080968454996764,0.09186813186813186,0.14666666666666667,0.7002930402930403
4.08744198599743,0.09186813186813186,0.14666666666666667,0.7002930402930403
4.09467510599643,0.09186813186813186,0.14666666666666667,0.7002930402930403
4.1023592299970915,0.09186813186813186,0.14666666666666667,0.7002930402930403
4.108862292996491,0.09186813186813186,0.14666666666666667,0.7002930402930403
4.114840763999382,0.05882783882783882,0.1958241758241758,0.61003663003663
4.122459109996271,0.05882783882783882,0.1958241758241758,0.61003663003663
4.130033016997913,0.05882783882783882,0.1958241758241758,0.61003663003663
4.135292033999576,0.9033699633699634,0.7647619047619048,2.0017582417582416
4.136695237000822,0.0,0.4867399267399267,0.664029304029304
4.145131822995609,0.0,0.4867399267399267,0.664029304029304
4.156133443997533,0.0,0.21999999999999997,0.9331868131868131
4.165090473994496,0.423076923076923,0.3771428571428571,0.6446886446886446
4.171502776000125,0.423076923076923,0.3771428571428571,0.6446886446886446
4.176701358999708,0.0,0.6430769230769231,0.9041758241758242
4.179975198996544,0.0,0.6430769230769231,0.9041758241758242
4.1802624439951614,0.0,0.6430769230769231,0.9041758241758242
4.188160973993945,0.0,0.6430769230769231,0.9041758241758242
4.194939332999638,0.0,0.6430769230769231,0.9041758241758242
4.200629565995769,0.0,0.6430769230769231,0.9041758241758242
4.209808096995403,0.0,0.6430769230769231,0.9041758241758242
4.219108584999049,0.7389743589743589,1.0975824175824174,0.4005128205128205
4.226877012995828,0.0,0.4456410256410256,1.0315018315018314
4.234896206995472,0.044322344322344324,0.10717948717948718,0.5512087912087912
4.241374338998867,0.044322344322344324,0.10717948717948718,0.5512087912087912
4.2472682439984055,0.029816849816849816,0.1789010989010989,0.33926739926739924
4.25383496699942,0.029816849816849816,0.1789010989010989,0.33926739926739924
4.258844523996231,0.2506227106227106,0.5125274725274725,0.10556776556776555
4.264548592997016,0.2506227106227106,0.5125274725274725,0.10556776556776555
4.271026409995102,0.2506227106227106,0.5125274725274725,0.10556776556776555
4.2761198109947145,0.2506227106227106,0.5125274725274725,0.10556776556776555
4.279390873998636,0.2216117216117216,1.1298168498168497,0.6527472527472526
4.279623736998474,0.2216117216117216,1.1298168498168497,0.6527472527472526
4.2874961419947795,0.2216117216117216,1.1298168498168497,0.6527472527472526
4.294015638995916,0.0,0.11926739926739927,0.4448351648351648
4.3002521870002965,0.0,0.11926739926739927,0.4448351648351648
4.305646335997153,0.0,0.11926739926739927,0.4448351648351648
4.307732298999326,0.0,0.11926739926739927,0.4448351648351648
4.308073342996067,0.0,0.11926739926739927,0.4448351648351648
4.322180701994512,0.0,0.11926739926739927,0.4448351648351648
4.336582190000627,0.0,0.11926739926739927,0.4448351648351648
4.3476033529950655,0.6414652014652015,0.7647619047619048,1.9235897435897436
4.356853597993904,0.6414652014652015,0.7647619047619048,1.9235897435897436
4.366922994995548,0.46175824175824176,0.7575091575091575,1.7197069597069596
4.373493043996859,0.4158241758241758,0.2498168498168498,1.9397069597069596
4.379357097997854,0.4158241758241758,0.2498168498168498,1.9397069597069596
4.385089333998621,0.4158241758241758,0.2498168498168498,1.9397069597069596
4.398954978998518,0.4158241758241758,0.2498168498168498,1.9397069597069596
4.411633099000028,0.4158241758241758,0.2498168498168498,1.9397069597069596
4.4251954999999725,0.4158241758241758,0.2498168498168498,1.9397069597069596
4.439170916994044,0.4158241758241758,0.2498168498168498,1.9397069597069596
4.439448008997715,0.4158241758241758,0.2498168498168498,1.9397069597069596
4.450291807996109,0.4158241758241758,0.2498168498168498,1.9397069597069596
4.459478078999382,0.4158241758241758,0.2498168498168498,1.9397069597069596
4.468772497995815,0.4158241758241758,0.2498168498168498,1.9397069597069596
4.476635627994256,0.4158241758241758,0.2498168498168498,1.9397069597069596
4.4846265070009395,0.4158241758241758,0.2498168498168498,1.9397069597069596
4.490993308994803,0.36747252747252745,0.166007326007326,1.0484249084249082
4.497601140996267,0.921098901098901,0.7228571428571429,1.8712087912087911
4.5026278529985575,0.921098901098901,0.7228571428571429,1.8712087912087911
4.507754647995171,0.921098901098901,0.7228571428571429,1.8712087912087911
4.510923891000857,0.921098901098901,0.7228571428571429,1.8712087912087911
4.511299683996185,0.921098901098901,0.7228571428571429,1.8712087912087911
4.518815547999111,0.921098901098901,0.7228571428571429,1.8712087912087911
4.525178557996696,0.921098901098901,0.7228571428571429,1.8712087912087911
4.531111423995753,0.0,0.17648351648351646,0.6237362637362637
4.5375107410000055,0.0,0.15472527472527473,0.386007326007326
4.542427725995367,0.0,0.15472527472527473,0.386007326007326
4.550165799999377,0.0,0.15472527472527473,0.386007326007326
4.556595786998514,0.5334798534798535,0.6914285714285714,0.12087912087912088
4.562857981996785,0.16358974358974357,0.32476190476190475,0.2562637362637363
4.572838911997678,0.16358974358974357,0.32476190476190475,0.2562637362637363
4.584698089995072,0.02095238095238095,0.12974358974358974,0.5076923076923077
4.592920627997955,0.0,0.3457142857142857,0.18534798534798536
4.6011400899951695,0.0,0.3457142857142857,0.18534798534798536
4.608269182994263,0.0,0.3457142857142857,0.18534798534798536
4.616252460000396,0.6245421245421244,0.9388278388278387,0.29816849816849816
4.6227927489962894,0.6245421245421244,0.9388278388278387,0.29816849816849816
4.6285379429973545,0.6245421245421244,0.9388278388278387,0.29816849816849816
4.636075192996941,0.6503296703296703,0.9372161172161171,0.2957509157509157
4.642549569995026,0.6503296703296703,0.9372161172161171,0.2957509157509157
4.648787571997673,0.6503296703296703,0.9372161172161171,0.2957509157509157
4.653835981996963,0.6503296703296703,0.9372161172161171,0.2957509157509157
4.657896885997616,0.6503296703296703,0.9372161172161171,0.2957509157509157
4.662066622993734,0.6503296703296703,0.9372161172161171,0.2957509157509157
4.66387649999524,0.6503296703296703,0.9372161172161171,0.2957509157509157
4.66806715799612,0.6503296703296703,0.9372161172161171,0.2957509157509157
4.669464405997132,0.6503296703296703,0.9372161172161171,0.2957509157509157
4.677595235996705,0.6503296703296703,0.9372161172161171,0.2957509157509157
4.685173507998115,0.6503296703296703,0.9372161172161171,0.2957509157509157
4.69214975599607,0.0556043956043956,0.17164835164835165,0.3295970695970696
4.698988644995552,0.0,0.11523809523809524,0.38358974358974357
4.704074830995523,0.6172893772893773,0.6479120879120879,0.518974358974359
4.709129167997162,0.6172893772893773,0.6479120879120879,0.518974358974359
4.71409395399678,0.6172893772893773,0.6479120879120879,0.518974358974359
4.718019918000209,0.6172893772893773,0.6479120879120879,0.518974358974359
4.723182065994479,0.3698901098901099,0.4528937728937729,0.48754578754578753
4.7270234749958036,0.5842490842490843,0.2868864468864469,1.7825641025641024
4.731780665999395,0.7027106227106227,1.0008791208791208,0.24095238095238095
4.736764352994214,0.0,0.1571428571428571,0.4424175824175824
4.740519346996734,0.0,0.1571428571428571,0.4424175824175824
4.746704548000707,0.224029304029304,0.18937728937728937,0.747032967032967
4.753422221998335,0.224029304029304,0.18937728937728937,0.747032967032967
4.759511090996966,0.224029304029304,0.18937728937728937,0.747032967032967
4.765572922995489,0.224029304029304,0.18937728937728937,0.747032967032967
4.772188733993971,0.689010989010989,1.3119413919413918,0.4142124542124542
4.7791001029982,0.689010989010989,1.3119413919413918,0.4142124542124542
4.7863440649962286,0.689010989010989,1.3119413919413918,0.4142124542124542
4.791698111999722,0.689010989010989,1.3119413919413918,0.4142124542124542
4.793496817997948,0.689010989010989,1.3119413919413918,0.4142124542124542
4.7976749730005395,0.689010989010989,1.3119413919413918,0.4142124542124542
4.798083570996823,0.689010989010989,1.3119413919413918,0.4142124542124542
4.8113563929946395,0.689010989010989,1.3119413919413918,0.4142124542124542
4.825219993996143,0.2095238095238095,0.14344322344322344,0.15472527472527473
4.838949325996509,0.0,0.49721611721611714,0.6704761904761904
4.852278705999197,0.0,0.49721611721611714,0.6704761904761904
4.852532696000708,0.0,0.49721611721611714,0.6704761904761904
4.86041268799454,0.0,0.49721611721611714,0.6704761904761904
4.867868945999362,0.0,0.49721611721611714,0.6704761904761904
4.874371838996012,0.0,0.49721611721611714,0.6704761904761904
4.881740391996573,0.0,0.5761904761904761,0.8405128205128204
4.888575853998191,0.0,0.5761904761904761,0.8405128205128204
4.89558781300002,0.0,0.5761904761904761,0.8405128205128204
4.904988969996339,0.0,0.5254212454212454,0.7293040293040293
4.914617347996682,0.0,0.5254212454212454,0.7293040293040293
4.921014584993827,0.5665201465201465,0.5649084249084249,0.5471794871794872
4.929411220000475,0.332014652014652,0.38036630036630037,0.5093040293040293
4.937359001000004,0.332014652014652,0.38036630036630037,0.5093040293040293
4.9460656980008935,0.332014652014652,0.38036630036630037,0.5093040293040293
4.951482432996272,0.332014652014652,0.38036630036630037,0.5093040293040293
4.953281113994308,0.8211721611721612,0.7405860805860806,1.581904761904762
4.955863137998676,0.8211721611721612,0.7405860805860806,1.581904761904762
4.961850920997676,0.8211721611721612,0.7405860805860806,1.581904761904762
4.967679800000042,0.8211721611721612,0.7405860805860806,1.581904761904762
4.975420865994238,0.12813186813186814,0.1829304029304029,0.23369963369963367
4.982959421999112,0.12813186813186814,0.1829304029304029,0.23369963369963367
4.989687827997841,0.12813186813186814,0.1829304029304029,0.23369963369963367
4.99614422799641,0.0032234432234432234,0.16036630036630037,0.4754578754578754
5.00167392000003,0.0032234432234432234,0.16036630036630037,0.4754578754578754
5.011318582000968,0.0032234432234432234,0.16036630036630037,0.4754578754578754
5.02002125299623,0.02095238095238095,0.16036630036630037,0.46014652014652013
5.0281476359959925,0.5971428571428571,0.2627106227106227,1.5964102564102562
5.035408115996688,0.5971428571428571,0.2627106227106227,1.5964102564102562
5.041832185997919,0.0,0.08622710622710622,0.31347985347985347
5.048570260994893,0.0,0.08622710622710622,0.31347985347985347
5.055419610995159,0.6567765567765567,1.1265934065934065,0.3263736263736263
5.060831171998871,0.6567765567765567,1.1265934065934065,0.3263736263736263
5.061333052995906,0.23047619047619047,0.3102564102564102,0.4528937728937729
5.068387973995414,0.23047619047619047,0.3102564102564102,0.4528937728937729
5.074824568997428,0.23047619047619047,0.3102564102564102,0.4528937728937729
5.0817160890001105,0.23047619047619047,0.3102564102564102,0.4528937728937729
5.0871049579945975,0.23047619047619047,0.3102564102564102,0.4528937728937729
5.087403874000302,0.23047619047619047,0.3102564102564102,0.4528937728937729
5.096276015996409,0.23047619047619047,0.3102564102564102,0.4528937728937729
5.105700606996834,0.23047619047619047,0.3102564102564102,0.4528937728937729
5.115608898995561,0.23047619047619047,0.3102564102564102,0.4528937728937729
5.122012763000384,0.0,0.10153846153846154,0.42952380952380953
5.127593204000732,0.6672527472527472,0.2482051282051282,1.8123809523809524
5.14022906399623,0.6672527472527472,0.2482051282051282,1.8123809523809524
5.140444362994458,0.0,0.11846153846153845,0.3690842490842491
5.154164578998461,0.0,0.11846153846153845,0.3690842490842491
5.168663865995768,0.0,0.11846153846153845,0.3690842490842491
5.182240661997639,0.30945054945054945,0.32717948717948714,0.5310622710622711
5.191249301999051,0.1571428571428571,0.8735531135531135,0.3142857142857142
5.2014681059954455,0.1571428571428571,0.8735531135531135,0.3142857142857142
5.210050768997462,0.0,0.28285714285714286,0.224029304029304
5.220427086998825,0.46739926739926735,0.7067399267399267,0.083003663003663
5.228631059995678,0.46739926739926735,0.7067399267399267,0.083003663003663
5.23605320599745,0.21274725274725276,0.26673992673992675,0.7663736263736264
5.242389227998501,0.13135531135531134,1.1717216117216116,0.448058608058608
5.249432377997437,0.13135531135531134,1.1717216117216116,0.448058608058608
5.254712600995845,0.13135531135531134,1.1717216117216116,0.448058608058608
5.256113632000051,0.13135531135531134,1.1717216117216116,0.448058608058608
5.2666316850009025,0.13135531135531134,1.1717216117216116,0.448058608058608
5.274393640997005,0.13135531135531134,1.1717216117216116,0.448058608058608
5.281825885998842,0.13135531135531134,1.1717216117216116,0.448058608058608
5.28686477500014,0.0,0.23853479853479853,0.842124542124542
5.290667884000868,0.0,0.23853479853479853,0.842124542124542
5.297906862993841,0.0,0.23853479853479853,0.842124542124542
5.302920823996828,0.0,0.23853479853479853,0.842124542124542
5.308076748995518,0.0,0.23853479853479853,0.842124542124542
5.312204205998569,0.016117216117216115,0.18857142857142856,0.4810989010989011
5.312582537000708,0.016117216117216115,0.18857142857142856,0.4810989010989011
5.320364746999985,0.016117216117216115,0.18857142857142856,0.4810989010989011
5.326733475994843,0.016117216117216115,0.18857142857142856,0.4810989010989011
5.331784402995254,0.016117216117216115,0.18857142857142856,0.4810989010989011
5.336811999994097,0.016117216117216115,0.18857142857142856,0.4810989010989011
5.340594992994738,0.2772161172161172,0.43435897435897436,0.43355311355311354
5.3467539609991945,0.2772161172161172,0.43435897435897436,0.43355311355311354
5.351794014000916,0.2772161172161172,0.43435897435897436,0.43355311355311354
5.3573511879949365,0.0,0.09267399267399268,0.3723076923076923
5.371628422995855,0.0,0.09267399267399268,0.3723076923076923
5.37184577199514,0.0,0.09267399267399268,0.3723076923076923
5.381695800999296,0.0,0.09267399267399268,0.3723076923076923
5.388273518998176,0.0,0.14666666666666667,0.8840293040293039
5.393858208000893,0.0,0.14666666666666667,0.8840293040293039
5.40316491399426,0.1515018315018315,1.2627838827838826,0.4722344322344322
5.410947051997937,0.0,0.21032967032967032,0.26190476190476186
5.417368832000648,0.0,0.21032967032967032,0.26190476190476186
5.422416616995179,0.0,0.21032967032967032,0.26190476190476186
5.426095429997076,0.0,0.21032967032967032,0.26190476190476186
5.4336544100005995,0.2635164835164835,0.32073260073260074,0.13538461538461538
5.4398163389996625,0.2635164835164835,0.32073260073260074,0.13538461538461538
5.444712522999907,0.2635164835164835,0.32073260073260074,0.13538461538461538
5.4494832630007295,0.6712820512820512,0.8791941391941391,0.2175824175824176
5.4568774809958995,0.6712820512820512,0.8791941391941391,0.2175824175824176
5.464132585999323,0.6712820512820512,0.8791941391941391,0.2175824175824176
5.468993316993874,0.5141391941391941,0.19743589743589743,1.527912087912088
5.476307040000393,0.5141391941391941,0.19743589743589743,1.527912087912088
5.482437963997654,0.5141391941391941,0.19743589743589743,1.527912087912088
5.487330752999696,0.5141391941391941,0.19743589743589743,1.527912087912088
5.4933194990007905,0.5141391941391941,0.19743589743589743,1.527912087912088
5.499395247999928,0.5141391941391941,0.19743589743589743,1.527912087912088
5.504243106996,0.5141391941391941,0.19743589743589743,1.527912087912088
5.51039594199392,0.5141391941391941,0.19743589743589743,1.527912087912088
5.515172301995335,0.5141391941391941,0.19743589743589743,1.527912087912088
5.523555880994536,0.5141391941391941,0.19743589743589743,1.527912087912088
5.530807607996394,0.5141391941391941,0.19743589743589743,1.527912087912088
5.537121014996956,0.0,0.1386080586080586,0.4045421245421245
5.542942569998559,0.0,0.1386080586080586,0.4045421245421245
5.5500715379967005,0.0,0.1386080586080586,0.4045421245421245
5.556098866996763,0.0,0.1386080586080586,0.4045421245421245
5.562089134000416,0.4625641025641025,0.5334798534798535,0.5044688644688645
5.567986055997608,0.4625641025641025,0.5334798534798535,0.5044688644688645
5.572755485998641,0.4625641025641025,0.5334798534798535,0.5044688644688645
5.578813595995598,0.4625641025641025,0.5334798534798535,0.5044688644688645
5.583904977997008,0.4625641025641025,0.5334798534798535,0.5044688644688645
5.587525354996615,0.4625641025641025,0.5334798534798535,0.5044688644688645
5.595004438997421,0.016117216117216115,0.14989010989010987,0.527032967032967
5.600999955000589,0.016117216117216115,0.14989010989010987,0.527032967032967
5.605842176999431,0.016117216117216115,0.14989010989010987,0.527032967032967
5.613756683997053,0.016117216117216115,0.14989010989010987,0.527032967032967
5.6256169579937705,0.0,0.11604395604395604,0.3876190476190476
5.638489994998963,0.39809523809523806,0.46417582417582415,0.5568498168498168
5.652053296995291,0.39809523809523806,0.46417582417582415,0.5568498168498168
5.670096180998371,0.39809523809523806,0.46417582417582415,0.5568498168498168
5.670455945000867,0.39809523809523806,0.46417582417582415,0.5568498168498168
5.683398866000061,0.39809523809523806,0.46417582417582415,0.5568498168498168
5.697712005996436,0.39809523809523806,0.46417582417582415,0.5568498168498168
5.712186703000043,0.4391941391941392,0.5665201465201465,0.4802930402930403
5.724429917994712,0.4488644688644688,0.2248351648351648,1.7954578754578752
5.743091860000277,0.2635164835164835,0.5125274725274725,0.10395604395604395
5.743761280995386,0.2635164835164835,0.5125274725274725,0.10395604395604395
5.746029014997475,0.0,0.24901098901098898,0.9009523809523808
5.746232918994792,0.0,0.24901098901098898,0.9009523809523808
5.754204780998407,0.0,0.24901098901098898,0.9009523809523808
5.760677145000955,0.718021978021978,0.7397802197802198,1.3175824175824176
5.766493570998136,0.718021978021978,0.7397802197802198,1.3175824175824176
5.775472925997747,0.718021978021978,0.7397802197802198,1.3175824175824176
5.785666846000822,0.842124542124542,0.7405860805860806,1.6769963369963368
5.797030024994456,0.842124542124542,0.7405860805860806,1.6769963369963368
5.804864383993845,0.5882783882783883,0.6922344322344323,1.6995604395604393
5.812620782999147,0.0,0.21838827838827837,0.929157509157509
5.817946127994219,0.0,0.21838827838827837,0.929157509157509
5.819700817999546,0.39890109890109887,0.43999999999999995,0.518974358974359
5.82479979499476,0.1087912087912088,0.2643223443223443,0.4005128205128205
5.830378382997878,0.1087912087912088,0.2643223443223443,0.4005128205128205
5.840396277999389,0.8115018315018314,0.8018315018315018,1.904249084249084
5.852007424997282,0.8115018315018314,0.8018315018315018,1.904249084249084
5.864074453995272,0.8115018315018314,0.8018315018315018,1.904249084249084
5.873246537994419,0.8115018315018314,0.8018315018315018,1.904249084249084
5.882542832994659,0.1539194139194139,0.25223443223443226,0.7373626373626374
5.8888622509985,0.1539194139194139,0.25223443223443226,0.7373626373626374
5.894589281000663,0.1539194139194139,0.25223443223443226,0.7373626373626374
5.907288636000885,0.7857142857142856,0.7575091575091575,1.4690842490842488
5.907620562997181,0.6358241758241758,0.27318681318681315,1.9469597069597069
5.91724714999873,0.6358241758241758,0.27318681318681315,1.9469597069597069
5.923536415000854,0.12007326007326008,1.0145787545787546,0.3352380952380952
5.929834730995935,0.12007326007326008,1.0145787545787546,0.3352380952380952
5.935146570998768,0.12007326007326008,1.0145787545787546,0.3352380952380952
5.937681117997272,0.4931868131868131,0.6616117216117217,1.7068131868131868
5.944480746999034,0.4931868131868131,0.6616117216117217,1.7068131868131868
5.950257795993821,0.06366300366300366,0.22725274725274724,0.34007326007326005
5.9579234039993025,0.06366300366300366,0.22725274725274724,0.34007326007326005
5.965448296999966,0.06366300366300366,0.22725274725274724,0.34007326007326005
5.972138674995222,0.0,0.2216117216117216,1.1056410256410254
5.977756893000333,0.0,0.2216117216117216,1.1056410256410254
5.977956955997797,0.2095238095238095,0.34813186813186814,0.4496703296703296
5.986477423000906,0.2095238095238095,0.34813186813186814,0.4496703296703296
5.994472751997819,0.2095238095238095,0.34813186813186814,0.4496703296703296
6.00331214399921,0.2095238095238095,0.34813186813186814,0.4496703296703296
6.010573109000688,0.6438827838827839,0.24014652014652016,1.8953846153846152
6.016752117997385,0.6438827838827839,0.24014652014652016,1.8953846153846152
6.022231307993934,0.23531135531135527,0.4593406593406593,0.0693040293040293
6.022493307995319,0.23531135531135527,0.4593406593406593,0.0693040293040293
6.0334717000005185,0.23531135531135527,0.4593406593406593,0.0693040293040293
6.040803338000842,0.15633699633699633,0.34087912087912087,0.3706959706959707
6.050332336999418,0.15633699633699633,0.34087912087912087,0.3706959706959707
6.056785519998812,0.15633699633699633,0.34087912087912087,0.3706959706959707
6.063837851994322,0.15633699633699633,0.34087912087912087,0.3706959706959707
6.072961666999618,0.1813186813186813,0.2651282051282051,0.43435897435897436
6.080942985994625,0.0,0.09347985347985348,0.41340659340659336
6.08755793099408,0.473040293040293,0.49560439560439556,0.5399267399267399
6.093508015997941,0.473040293040293,0.49560439560439556,0.5399267399267399
6.100162796996301,0.8517948717948718,0.7575091575091575,1.8567032967032966
6.105334742998821,0.8517948717948718,0.7575091575091575,1.8567032967032966
6.107850975000474,0.8517948717948718,0.7575091575091575,1.8567032967032966
6.115184549998958,0.8517948717948718,0.7575091575091575,1.8567032967032966
6.121919719000289,0.5955311355311355,0.7526739926739926,1.7914285714285711
6.1281012289982755,0.5955311355311355,0.7526739926739926,1.7914285714285711
6.134547675996146,0.06688644688644689,0.2095238095238095,0.5979487179487178
6.144308905997605,0.06688644688644689,0.2095238095238095,0.5979487179487178
6.154271376995894,0.008058608058608058,0.17326007326007326,0.3223443223443223
6.163400911995268,0.008058608058608058,0.17326007326007326,0.3223443223443223
6.1709494789975,0.008058608058608058,0.17326007326007326,0.3223443223443223
6.17783660099667,0.0,0.12571428571428572,0.4182417582417582
6.184901264998189,0.0,0.523003663003663,0.7712087912087912
6.191306889995758,0.0,0.523003663003663,0.7712087912087912
6.199213242995029,0.0,0.523003663003663,0.7712087912087912
6.205648914998164,0.20065934065934066,0.6495238095238095,0.12168498168498168
6.2112684909952804,0.31267399267399265,0.25223443223443226,1.7849816849816849
6.220969803995104,0.7164102564102564,0.763956043956044,1.9243956043956043
6.232933137995133,0.10556776556776555,1.1354578754578755,0.3698901098901099
6.243643891000829,0.10556776556776555,1.1354578754578755,0.3698901098901099
6.253239726996981,0.08542124542124542,0.2715750915750916,0.39890109890109887
6.264839651994407,0.0,0.07494505494505493,0.34813186813186814
6.275290675999713,0.0,0.07494505494505493,0.34813186813186814
6.283754222997231,0.506080586080586,0.726080586080586,1.730989010989011
6.291502291998768,0.506080586080586,0.726080586080586,1.730989010989011
6.30066070400062,0.506080586080586,0.726080586080586,1.730989010989011
6.307477741000184,0.39487179487179486,0.47706959706959706,0.5197802197802197
6.31340254299721,0.18857142857142856,0.24175824175824176,0.7905494505494506
6.323055690998444,0.0,0.13054945054945052,0.3997069597069597
6.333143878000556,0.27399267399267396,0.26109890109890105,0.15069597069597068
6.343164017998788,0.24417582417582417,0.31267399267399265,0.8743589743589744
6.350090526997519,0.5826373626373627,0.7115750915750916,0.048351648351648346
6.355180590995587,0.5826373626373627,0.7115750915750916,0.048351648351648346
6.359117959997093,0.18534798534798536,0.5560439560439561,0.09267399267399268
6.365411602993845,0.18534798534798536,0.5560439560439561,0.09267399267399268
6.371184782998171,0.18534798534798536,0.5560439560439561,0.09267399267399268
6.378069253994909,0.5358974358974359,0.6454945054945055,1.8567032967032966
6.383525426994311,0.6938461538461538,0.4794871794871795,0.12329670329670328
6.383787077997113,0.6938461538461538,0.4794871794871795,0.12329670329670328
6.391319742993801,0.6938461538461538,0.4794871794871795,0.12329670329670328
6.401190526994469,0.05882783882783882,0.2635164835164835,0.5866666666666667
6.40844436599582,0.05882783882783882,0.2635164835164835,0.5866666666666667
6.415485090998118,0.05882783882783882,0.2635164835164835,0.5866666666666667
6.421985932000098,0.05882783882783882,0.2635164835164835,0.5866666666666667
6.4277989999973215,0.05882783882783882,0.2635164835164835,0.5866666666666667
6.434939070997643,0.05882783882783882,0.2635164835164835,0.5866666666666667
6.441249095994863,0.05882783882783882,0.2635164835164835,0.5866666666666667
6.447575235994009,0.05882783882783882,0.2635164835164835,0.5866666666666667
6.452646533994994,0.05882783882783882,0.2635164835164835,0.5866666666666667
6.460082477999094,0.05882783882783882,0.2635164835164835,0.5866666666666667
6.4663785669981735,0.05882783882783882,0.2635164835164835,0.5866666666666667
6.471482909997576,0.05882783882783882,0.2635164835164835,0.5866666666666667
6.476893259998178,0.05882783882783882,0.2635164835164835,0.5866666666666667
6.477182934999291,0.05882783882783882,0.2635164835164835,0.5866666666666667
6.487018651998369,0.05882783882783882,0.2635164835164835,0.5866666666666667
6.500764220996643,0.05882783882783882,0.2635164835164835,0.5866666666666667
6.514799808996031,0.05882783882783882,0.2635164835164835,0.5866666666666667
6.5280940029988415,0.02901098901098901,0.1112087912087912,0.5802197802197803
6.5430999219970545,0.02901098901098901,0.1112087912087912,0.5802197802197803
6.5556988999960595,0.02901098901098901,0.1112087912087912,0.5802197802197803
6.569421483000042,0.02901098901098901,0.1112087912087912,0.5802197802197803
6.585192487000313,0.02901098901098901,0.1112087912087912,0.5802197802197803
6.585533703997498,0.0,0.8292307692307692,0.28527472527472525
6.59660249499575,0.13699633699633698,0.26593406593406593,0.5673260073260072
6.603160925995326,0.13699633699633698,0.26593406593406593,0.5673260073260072
6.610842791000323,0.5181684981684981,0.13296703296703297,1.6431501831501831
6.617663701996207,0.5181684981684981,0.13296703296703297,1.6431501831501831
6.622737080993829,0.5181684981684981,0.13296703296703297,1.6431501831501831
6.626571219996549,0.5181684981684981,0.13296703296703297,1.6431501831501831
6.634036784998898,0.0,0.24498168498168496,0.5447619047619047
6.643671035999432,0.0,0.24498168498168496,0.5447619047619047
6.650044305999472,0.0,0.24498168498168496,0.5447619047619047
6.6550501649981015,0.38358974358974357,0.12168498168498168,0.5238095238095237
6.661158599999908,0.38358974358974357,0.12168498168498168,0.5238095238095237
6.668390032995376,0.38358974358974357,0.12168498168498168,0.5238095238095237
6.677127800998278,0.38358974358974357,0.12168498168498168,0.5238095238095237
6.6852353579961346,0.38358974358974357,0.12168498168498168,0.5238095238095237
6.692348136995861,0.38358974358974357,0.12168498168498168,0.5238095238095237
6.699458612994931,0.5689377289377289,0.7067399267399267,1.4876190476190476
6.708667974999116,0.5689377289377289,0.7067399267399267,1.4876190476190476
6.715196412995283,0.5689377289377289,0.7067399267399267,1.4876190476190476
6.72011108299921,0.5689377289377289,0.7067399267399267,1.4876190476190476
6.726079080995987,0.0,0.18776556776556774,0.9863736263736262
6.732234138995409,0.0,0.21194139194139192,0.5794139194139193
6.73711356199783,0.0,0.21194139194139192,0.5794139194139193
6.7432324059991515,0.0,0.21194139194139192,0.5794139194139193
6.747962810994068,0.0,0.21194139194139192,0.5794139194139193
6.75534755300032,0.0,0.21194139194139192,0.5794139194139193
6.766069356999651,0.27076923076923076,0.4391941391941392,0.28124542124542123
6.777671415999066,0.27076923076923076,0.4391941391941392,0.28124542124542123
6.7885225389982224,0.27076923076923076,0.4391941391941392,0.28124542124542123
6.79922375199385,0.0,0.166007326007326,1.2652014652014651
6.80927573399822,0.0,0.166007326007326,1.2652014652014651
6.819876634996035,0.0,0.166007326007326,1.2652014652014651
6.830779429998074,0.0,0.166007326007326,1.2652014652014651
6.8426991469968925,0.0,0.166007326007326,1.2652014652014651
6.856981331999123,0.30864468864468864,0.3626373626373626,0.381978021978022
6.871509117998357,0.30864468864468864,0.3626373626373626,0.381978021978022
6.888099776995659,0.30864468864468864,0.3626373626373626,0.381978021978022
6.904534790999605,0.3626373626373626,0.5052747252747253,0.6253479853479853
6.917488704995776,0.004029304029304029,0.3602197802197802,0.31347985347985347
6.929098178996355,0.004029304029304029,0.3602197802197802,0.31347985347985347
6.937570787995355,0.0,0.30139194139194136,0.3352380952380952
6.94474577899382,0.4166300366300366,0.5874725274725274,1.199120879120879
6.95072219499707,0.4166300366300366,0.5874725274725274,1.199120879120879
6.9565961490006885,0.4166300366300366,0.5874725274725274,1.199120879120879
6.963640361995203,0.24578754578754577,0.7115750915750916,0.09831501831501832
6.969559582998045,0.1926007326007326,0.19179487179487179,0.4198534798534798
6.9766543969963095,0.1926007326007326,0.19179487179487179,0.4198534798534798
6.982666284995503,0.1926007326007326,0.19179487179487179,0.4198534798534798
6.988658939000743,0.1926007326007326,0.19179487179487179,0.4198534798534798
6.994632805995934,0.1926007326007326,0.19179487179487179,0.4198534798534798
7.001825264000217,0.1926007326007326,0.19179487179487179,0.4198534798534798
7.007847516993934,0.4222710622710622,0.16842490842490843,1.1104761904761904
7.012633487996936,0.8687179487179487,1.232161172161172,0.3102564102564102
7.018609064994962,0.502051282051282,0.5310622710622711,1.1556043956043955
7.024567173997639,0.502051282051282,0.5310622710622711,1.1556043956043955
7.0318378239971935,0.502051282051282,0.5310622710622711,1.1556043956043955
7.037859470998228,0.502051282051282,0.5310622710622711,1.1556043956043955
7.042711905000033,0.502051282051282,0.5310622710622711,1.1556043956043955
7.050033274994348,0.25545787545787546,0.30864468864468864,0.20065934065934066
7.056079037996824,0.0,0.14586080586080585,0.46417582417582415
7.062061870994512,0.0,0.14586080586080585,0.46417582417582415
7.066819356994529,0.0,0.14586080586080585,0.46417582417582415
7.075233224997646,0.0,0.14586080586080585,0.46417582417582415
7.0824032639939105,0.0,0.14586080586080585,0.46417582417582415
7.08841686300002,0.0,0.14586080586080585,0.46417582417582415
7.09320869599469,0.0,0.14586080586080585,0.46417582417582415
7.100332476999029,0.0,0.14586080586080585,0.46417582417582415
7.10641848299565,0.0,0.14586080586080585,0.46417582417582415
7.111215027995058,0.0,0.14586080586080585,0.46417582417582415
7.118472055000893,0.0,0.14586080586080585,0.46417582417582415
7.124586499994621,0.05318681318681319,0.16278388278388278,0.29010989010989013
7.129312234996178,0.05318681318681319,0.16278388278388278,0.29010989010989013
7.135293074999936,0.0,0.11684981684981684,0.3142857142857142
7.140050315996632,0.0,0.11684981684981684,0.3142857142857142
7.1472607199975755,0.6350183150183151,0.18857142857142856,0.2651282051282051
7.153335780996713,0.7115750915750916,0.9702564102564102,0.527032967032967
7.158121950997156,0.7115750915750916,0.9702564102564102,0.527032967032967
7.165349317998334,0.7115750915750916,0.9702564102564102,0.527032967032967
7.171359050000319,0.7115750915750916,0.9702564102564102,0.527032967032967
7.176173521998862,0.6398534798534798,0.8356776556776556,1.3377289377289376
7.184703032995458,0.6398534798534798,0.8356776556776556,1.3377289377289376
7.192016963999777,0.6398534798534798,0.8356776556776556,1.3377289377289376
7.1980617589942995,0.18857142857142856,0.24739926739926738,0.47062271062271055
7.202859618999355,0.18857142857142856,0.24739926739926738,0.47062271062271055
7.208899715995358,0.0,0.16117216117216115,0.8187545787545787
7.215010461994098,0.03304029304029304,0.1942124542124542,0.506080586080586
7.2198283789985,0.03304029304029304,0.1942124542124542,0.506080586080586
7.225828176000505,0.03304029304029304,0.1942124542124542,0.506080586080586
7.230555576999905,0.03304029304029304,0.1942124542124542,0.506080586080586
7.237793947999307,1.502930402930403,0.8074725274725274,1.232967032967033
7.244021148995671,1.502930402930403,0.8074725274725274,1.232967032967033
7.248968337000406,0.27318681318681315,0.25868131868131866,0.051575091575091575
7.253763117994822,0.0,0.11362637362637362,1.2797069597069597
7.259851199996774,0.06688644688644689,0.4319413919413919,0.3771428571428571
7.264695111000037,1.1757509157509156,0.3924542124542124,0.6519413919413919
7.27076332699653,1.1757509157509156,0.3924542124542124,0.6519413919413919
7.275599882996175,1.1757509157509156,0.3924542124542124,0.6519413919413919
7.28159927699744,0.42952380952380953,0.6463003663003662,0.04351648351648352
7.287690479999583,0.42952380952380953,0.6463003663003662,0.04351648351648352
7.292444694998267,0.2602930402930403,0.0821978021978022,0.22805860805860806
7.300999507999222,1.4408791208791207,0.6922344322344323,1.124981684981685
7.308235913995304,1.4408791208791207,0.6922344322344323,1.124981684981685
7.314283959996828,1.4408791208791207,0.6922344322344323,1.124981684981685
7.320198431996687,1.4408791208791207,0.6922344322344323,1.124981684981685
7.325035516994831,1.4408791208791207,0.6922344322344323,1.124981684981685
7.3322820819958,1.4408791208791207,0.6922344322344323,1.124981684981685
7.338354322993837,0.2772161172161172,0.46739926739926735,0.4045421245421245
7.344271372996445,0.2772161172161172,0.46739926739926735,0.4045421245421245
7.35147978799796,0.2772161172161172,0.46739926739926735,0.4045421245421245
7.357625087999622,0.2772161172161172,0.46739926739926735,0.4045421245421245
7.36235451399989,0.2772161172161172,0.46739926739926735,0.4045421245421245
7.3709160029975465,0.2772161172161172,0.46739926739926735,0.4045421245421245
7.378292576999229,0.2772161172161172,0.46739926739926735,0.4045421245421245
7.38432951199502,0.2772161172161172,0.46739926739926735,0.4045421245421245
7.3890753209998365,0.2772161172161172,0.46739926739926735,0.4045421245421245
7.396319872997992,0.2772161172161172,0.46739926739926735,0.4045421245421245
7.402415995995398,0.2772161172161172,0.46739926739926735,0.4045421245421245
7.40719362499658,0.2772161172161172,0.46739926739926735,0.4045421245421245
7.4144168779967,0.2772161172161172,0.46739926739926735,0.4045421245421245
7.420443561997672,1.573846153846154,0.7583150183150182,0.5721611721611721
7.425213802998769,1.573846153846154,0.7583150183150182,0.5721611721611721
7.432374888994673,1.573846153846154,0.7583150183150182,0.5721611721611721
7.438421906997974,1.573846153846154,0.7583150183150182,0.5721611721611721
7.4443939159973525,0.6841758241758242,0.3553846153846154,0.09186813186813186
7.450417173997266,0.6841758241758242,0.3553846153846154,0.09186813186813186
7.455164269995294,0.6841758241758242,0.3553846153846154,0.09186813186813186
7.46362298099848,0.8582417582417583,0.7873260073260073,0.02175824175824176
7.470879825996235,0.8582417582417583,0.7873260073260073,0.02175824175824176
7.4769882499967935,0.8582417582417583,0.7873260073260073,0.02175824175824176
7.4817041759961285,0.3795604395604395,0.43758241758241756,0.7623443223443224
7.490144162999059,0.3795604395604395,0.43758241758241756,0.7623443223443224
7.497346685995581,0.3795604395604395,0.43758241758241756,0.7623443223443224
7.503334745000757,0.9468864468864467,0.19904761904761903,1.0516483516483515
7.509282595994591,0.9468864468864467,0.19904761904761903,1.0516483516483515
7.516699972999049,0.9468864468864467,0.19904761904761903,1.0516483516483515
7.522651611994661,0.47142857142857136,0.5818315018315018,0.43032967032967034
7.530160422997142,0.47142857142857136,0.5818315018315018,0.43032967032967034
7.536184450000292,0.47142857142857136,0.5818315018315018,0.43032967032967034
7.542038276995299,1.2724542124542124,0.9992673992673992,0.5463736263736263
7.549378937997972,0.08139194139194139,0.40695970695970696,0.33604395604395604
7.555399927994586,0.0,0.8856410256410255,1.5464468864468863
7.561491770997236,0.0,0.8856410256410255,1.5464468864468863
7.566301311999268,1.5375824175824175,0.3199267399267399,1.0452014652014652
7.57230542099569,1.5375824175824175,0.3199267399267399,1.0452014652014652
7.57704592999653,1.5375824175824175,0.3199267399267399,1.0452014652014652
7.584370837997994,1.5375824175824175,0.3199267399267399,1.0452014652014652
7.590448794995609,1.5375824175824175,0.3199267399267399,1.0452014652014652
7.596372610998515,1.5375824175824175,0.3199267399267399,1.0452014652014652
7.601168256995152,0.6148717948717949,0.3723076923076923,0.6479120879120879
7.608348190995457,0.6148717948717949,0.3723076923076923,0.6479120879120879
7.614474997993966,0.6148717948717949,0.3723076923076923,0.6479120879120879
7.61927755799843,0.6148717948717949,0.3723076923076923,0.6479120879120879
7.625378582997655,0.6148717948717949,0.3723076923076923,0.6479120879120879
7.630189739000343,0.6148717948717949,0.3723076923076923,0.6479120879120879
7.637472968999646,0.6148717948717949,0.3723076923076923,0.6479120879120879
7.643527928994445,0.6148717948717949,0.3723076923076923,0.6479120879120879
7.648265873998753,0.6148717948717949,0.3723076923076923,0.6479120879120879
7.6554852400004165,0.6148717948717949,0.3723076923076923,0.6479120879120879
7.661503695999272,0.6148717948717949,0.3723076923076923,0.6479120879120879
7.667481078999117,0.6148717948717949,0.3723076923076923,0.6479120879120879
7.674651384993922,1.1958974358974357,0.9339926739926739,0.18937728937728937
7.680629572998441,1.1958974358974357,0.9339926739926739,0.18937728937728937
7.687805851994199,0.47465201465201456,0.5028571428571429,0.1958241758241758
7.6938360079948325,0.5117216117216117,0.18454212454212454,0.19985347985347984
7.70106527399912,0.5117216117216117,0.18454212454212454,0.19985347985347984
7.707045789000404,0.5117216117216117,0.18454212454212454,0.19985347985347984
7.717430332995718,0.307032967032967,0.3586080586080586,0.46739926739926735
7.726153733994579,0.0,0.07736263736263736,0.5826373626373627
7.734917096997378,0.1386080586080586,0.5455677655677655,0.4867399267399267
7.742769735996262,0.1386080586080586,0.5455677655677655,0.4867399267399267
7.751226800995937,0.08058608058608058,0.1652014652014652,0.4996336996336996
7.759062343000551,0.08058608058608058,0.1652014652014652,0.4996336996336996
7.767678288000752,0.08058608058608058,0.1652014652014652,0.4996336996336996
7.7762324689974776,0.0,0.3191208791208791,0.11282051282051282
7.787961592999636,0.0,0.3191208791208791,0.11282051282051282
7.799808616997325,1.0637362637362637,0.6479120879120879,0.8542124542124543
7.814131621998968,0.195018315018315,0.8227838827838827,0.12087912087912088
7.830082294996828,0.195018315018315,0.8227838827838827,0.12087912087912088
7.846089045000554,0.09831501831501832,0.2756043956043956,0.19663003663003664
7.860838395994506,0.09831501831501832,0.2756043956043956,0.19663003663003664
7.87566668799991,0.7704029304029304,0.5737728937728938,1.4473260073260072
7.875888573995326,0.39406593406593404,0.0556043956043956,0.190989010989011
7.884223409993865,0.39406593406593404,0.0556043956043956,0.190989010989011
7.893384605995379,0.39406593406593404,0.0556043956043956,0.190989010989011
7.904821249998349,0.39406593406593404,0.0556043956043956,0.190989010989011
7.916593476998969,0.39406593406593404,0.0556043956043956,0.190989010989011
7.926669296997716,0.39406593406593404,0.0556043956043956,0.190989010989011
7.937014543997066,0.39406593406593404,0.0556043956043956,0.190989010989011
7.947934976000397,0.2683516483516483,0.25223443223443226,0.27238095238095233
7.958249192997755,0.2683516483516483,0.25223443223443226,0.27238095238095233
7.969043359997158,0.2683516483516483,0.25223443223443226,0.27238095238095233
7.979789463999623,0.2683516483516483,0.25223443223443226,0.27238095238095233
7.991696680997848,0.2683516483516483,0.25223443223443226,0.27238095238095233
8.004574449994834,0.8848351648351648,1.8438095238095238,1.0613186813186812
8.017798567998398,0.8848351648351648,1.8438095238095238,1.0613186813186812
8.033573364999029,0.8848351648351648,1.8438095238095238,1.0613186813186812
8.046976617995824,0.39890109890109887,0.05802197802197802,0.5125274725274725
8.063342041998112,0.8058608058608058,0.6511355311355311,0.27318681318681315
8.078146563995688,0.8058608058608058,0.6511355311355311,0.27318681318681315
8.092769887000031,0.008058608058608058,0.4553113553113553,0.8316483516483516
8.093036669997673,0.008058608058608058,0.4553113553113553,0.8316483516483516
8.1052227189939,0.008058608058608058,0.4553113553113553,0.8316483516483516
8.118597177999618,0.008058608058608058,0.4553113553113553,0.8316483516483516
8.129234754000208,0.4657875457875458,0.112014652014652,0.5254212454212454
8.138839786995959,0.3432967032967033,0.46417582417582415,1.2023443223443222
8.146128200998646,0.3432967032967033,0.46417582417582415,1.2023443223443222
8.154671370997676,0.0,0.311062271062271,0.8364835164835164
8.163319396997395,0.0,0.10153846153846154,0.32395604395604394
8.17008644699672,0.0,0.10153846153846154,0.32395604395604394
8.176559514999099,0.0,0.10153846153846154,0.32395604395604394
8.185126700998808,0.0,0.10153846153846154,0.32395604395604394
8.19687307899585,0.0,0.10153846153846154,0.32395604395604394
8.208973697997862,0.30058608058608055,0.32395604395604394,0.365054945054945
8.222941636995529,0.30058608058608055,0.32395604395604394,0.365054945054945
8.237979891993746,0.10476190476190475,0.26915750915750913,0.5923076923076923
8.238346755999373,0.10476190476190475,0.26915750915750913,0.5923076923076923
8.247640857000079,0.10476190476190475,0.26915750915750913,0.5923076923076923
8.260278908994223,0.10476190476190475,0.26915750915750913,0.5923076923076923
8.272948647994781,0.10476190476190475,0.26915750915750913,0.5923076923076923
8.285843792997184,0.10476190476190475,0.26915750915750913,0.5923076923076923
8.302630636993854,0.10476190476190475,0.26915750915750913,0.5923076923076923
8.3029914669969,0.10476190476190475,0.26915750915750913,0.5923076923076923
8.313282062998042,0.10476190476190475,0.26915750915750913,0.5923076923076923
8.325194466997345,0.02336996336996337,0.11765567765567764,0.13377289377289378
8.337511836994963,0.6205128205128204,0.3312087912087912,0.83003663003663
8.345328224997502,0.6205128205128204,0.3312087912087912,0.83003663003663
8.351365922993864,0.3545787545787546,0.4835164835164835,0.518974358974359
8.358672808994015,0.3545787545787546,0.4835164835164835,0.518974358974359
8.367000108999491,0.3545787545787546,0.4835164835164835,0.518974358974359
8.376342192997981,0.3545787545787546,0.4835164835164835,0.518974358974359
8.385115430995938,0.6865934065934066,0.5778021978021978,0.9331868131868131
8.39354675499635,0.6865934065934066,0.5778021978021978,0.9331868131868131
8.402578390996496,0.6865934065934066,0.5778021978021978,0.9331868131868131
8.411089761000767,0.5213919413919413,0.5915018315018314,0.7841025641025641
8.42004495299625,0.5213919413919413,0.5915018315018314,0.7841025641025641
8.428070538997417,0.0,0.16278388278388278,0.7123809523809523
8.437370331994316,0.7462271062271062,0.0975091575091575,0.2482051282051282
8.44881973399606,0.3102564102564102,0.2175824175824176,0.11604395604395604
8.459611383994343,0.1692307692307692,0.3698901098901099,0.7768498168498168
8.470627287999378,0.1692307692307692,0.3698901098901099,0.7768498168498168
8.48499321199779,0.7986080586080586,0.469010989010989,1.0597069597069597
8.500085314000899,0.7986080586080586,0.469010989010989,1.0597069597069597
8.512721778999548,0.7986080586080586,0.469010989010989,1.0597069597069597
8.513003849999222,1.6012454212454212,0.8928937728937728,0.17084249084249084
8.520189136994304,1.6012454212454212,0.8928937728937728,0.17084249084249084
8.52620310599741,1.6012454212454212,0.8928937728937728,0.17084249084249084
8.53092689699406,0.3336263736263736,0.1555311355311355,0.5423443223443223
8.538161807999131,0.3336263736263736,0.1555311355311355,0.5423443223443223
8.548392734999652,0.3336263736263736,0.1555311355311355,0.5423443223443223
8.559165982995182,0.21032967032967032,0.6809523809523809,0.2602930402930403
8.567879627000366,0.21032967032967032,0.6809523809523809,0.2602930402930403
8.575177015998634,0.21032967032967032,0.6809523809523809,0.2602930402930403
8.58122409099451,0.21032967032967032,0.6809523809523809,0.2602930402930403
8.588270726999326,0.21032967032967032,0.6809523809523809,0.2602930402930403
8.593139908996818,0.21032967032967032,0.6809523809523809,0.2602930402930403
8.599354967998806,0.21032967032967032,0.6809523809523809,0.2602930402930403
8.607885411998723,0.21032967032967032,0.6809523809523809,0.2602930402930403
8.616860605994589,0.21032967032967032,0.6809523809523809,0.2602930402930403
8.625649754998449,0.38036630036630037,0.46498168498168496,1.0717948717948718
8.634638156996516,0.38036630036630037,0.46498168498168496,1.0717948717948718
8.643373057995632,0.3102564102564102,0.8405128205128204,0.4351648351648352
8.653660520998528,0.3102564102564102,0.8405128205128204,0.4351648351648352
8.663355051998224,0.0,0.4964102564102564,0.8445421245421244
8.675767549997545,0.8582417582417583,0.3038095238095238,0.0
8.69062825099536,0.8582417582417583,0.3038095238095238,0.0
8.707097030994191,0.4762637362637362,0.4198534798534798,0.9315750915750916
8.707439357996918,0.4762637362637362,0.4198534798534798,0.9315750915750916
8.718243717994483,0.4762637362637362,0.4198534798534798,0.9315750915750916
8.73067739399994,0.4762637362637362,0.4198534798534798,0.9315750915750916
8.74080452099588,0.4762637362637362,0.4198534798534798,0.9315750915750916
8.75754941500054,0.2804395604395604,0.834065934065934,0.2071062271062271
8.771237900997221,0.2804395604395604,0.834065934065934,0.2071062271062271
8.788190431994735,0.3731135531135531,0.7824908424908424,0.33282051282051284
8.804978689993732,0.3731135531135531,0.7824908424908424,0.33282051282051284
8.822050488000968,0.0,1.0363369963369962,0.2602930402930403
8.836691726995923,0.0,1.0363369963369962,0.2602930402930403
8.849610275996383,0.06527472527472526,0.6841758241758242,0.03223443223443223
8.864994954994472,0.06527472527472526,0.6841758241758242,0.03223443223443223
8.882485530994018,0.06527472527472526,0.6841758241758242,0.03223443223443223
8.882733884995105,0.30864468864468864,1.0226373626373626,0.6954578754578754
8.890576468998916,0.30864468864468864,1.0226373626373626,0.6954578754578754
8.897899743999005,0.30864468864468864,1.0226373626373626,0.6954578754578754
8.903216038997925,0.30864468864468864,1.0226373626373626,0.6954578754578754
8.904669935000129,0.30864468864468864,1.0226373626373626,0.6954578754578754
8.9138682759949,0.4996336996336996,0.954945054945055,0.23208791208791207
8.920359073999862,0.21032967032967032,0.18776556776556774,0.005641025641025641
8.926187849996495,0.0,0.61003663003663,0.2635164835164835
8.934669000998838,0.0,0.61003663003663,0.2635164835164835
8.942957277999085,0.15794871794871795,1.2273260073260073,0.7317216117216117
8.950275233997672,0.15794871794871795,1.2273260073260073,0.7317216117216117
8.956899967000936,0.15794871794871795,1.2273260073260073,0.7317216117216117
8.962924811996345,0.15794871794871795,1.2273260073260073,0.7317216117216117
8.969570598994324,0.15794871794871795,1.2273260073260073,0.7317216117216117
8.97497018899594,0.15794871794871795,1.2273260073260073,0.7317216117216117
8.975415237997368,0.15794871794871795,1.2273260073260073,0.7317216117216117
8.98389601999952,0.15794871794871795,1.2273260073260073,0.7317216117216117
8.99029839799914,0.23531135531135527,0.8235897435897436,0.5407326007326007
8.997290226994664,0.23531135531135527,0.8235897435897436,0.5407326007326007
9.002257993997773,0.23531135531135527,0.8235897435897436,0.5407326007326007
9.007926637998025,0.23531135531135527,0.8235897435897436,0.5407326007326007
9.01762976199825,0.7865201465201466,0.6277655677655677,0.03223443223443223
9.025524444994517,0.0,0.2925274725274725,0.12007326007326008
9.035846727994794,0.0,0.2925274725274725,0.12007326007326008
9.044123387000582,0.5254212454212454,0.17567765567765567,0.4166300366300366
9.049830260999443,0.5254212454212454,0.17567765567765567,0.4166300366300366
9.05949781399977,0.9597802197802198,0.4585347985347985,0.5866666666666667
9.070930469999439,0.9597802197802198,0.4585347985347985,0.5866666666666667
9.08407146299578,0.9597802197802198,0.4585347985347985,0.5866666666666667
9.096027962994413,0.9597802197802198,0.4585347985347985,0.5866666666666667
9.096290189998399,0.9597802197802198,0.4585347985347985,0.5866666666666667
9.10415277499851,0.9597802197802198,0.4585347985347985,0.5866666666666667
9.112740312993992,0.9597802197802198,0.4585347985347985,0.5866666666666667
9.120606140000746,0.9597802197802198,0.4585347985347985,0.5866666666666667
9.128206681998563,0.43758241758241756,0.6245421245421244,0.423076923076923
9.133600598994235,1.8333333333333333,0.788937728937729,0.14424908424908423
9.13396056399506,1.8333333333333333,0.788937728937729,0.14424908424908423
9.143842922996555,1.8333333333333333,0.788937728937729,0.14424908424908423
9.15101578499889,1.502930402930403,0.7752380952380952,0.1378021978021978
9.1573250789952,0.32798534798534795,0.1418315018315018,0.010476190476190476
9.16372277699702,0.32798534798534795,0.1418315018315018,0.010476190476190476
9.168864791994565,0.3997069597069597,0.07736263736263736,0.469010989010989
9.172520580999844,0.3997069597069597,0.07736263736263736,0.469010989010989
9.180010063995724,0.3997069597069597,0.07736263736263736,0.469010989010989
9.186371673000394,0.3997069597069597,0.07736263736263736,0.469010989010989
9.191642732999753,0.7905494505494506,0.5342857142857143,0.20307692307692307
9.19424460799928,0.7905494505494506,0.5342857142857143,0.20307692307692307
9.199554273000103,0.7905494505494506,0.5342857142857143,0.20307692307692307
9.200957027998811,0.7905494505494506,0.5342857142857143,0.20307692307692307
9.21018486799585,0.7905494505494506,0.5342857142857143,0.20307692307692307
9.221939659000782,0.7905494505494506,0.5342857142857143,0.20307692307692307
9.230913348998001,0.7438095238095238,0.39567765567765567,0.47142857142857136
9.237429601998883,0.9065934065934066,0.7567032967032966,0.45772893772893775
9.243162551996647,0.21838827838827837,0.25223443223443226,0.02095238095238095
9.254875556995103,0.21838827838827837,0.25223443223443226,0.02095238095238095
9.255178137995244,1.1225641025641024,0.805054945054945,0.18615384615384614
9.266181402999791,1.1225641025641024,0.805054945054945,0.18615384615384614
9.277572996994422,1.1225641025641024,0.805054945054945,0.18615384615384614
9.286117878000368,1.1225641025641024,0.805054945054945,0.18615384615384614
9.2965797020006,0.20065934065934066,0.037875457875457874,0.49157509157509155
9.30289278899727,0.09025641025641025,1.2740659340659342,0.23208791208791207
9.308593179994205,0.09025641025641025,1.2740659340659342,0.23208791208791207
9.308933666994562,0.09025641025641025,1.2740659340659342,0.23208791208791207
9.316366356993967,0.09025641025641025,1.2740659340659342,0.23208791208791207
9.322681279998505,0.09025641025641025,1.2740659340659342,0.23208791208791207
9.329210700998374,0.09025641025641025,1.2740659340659342,0.23208791208791207
9.334238211995398,0.0,0.3344322344322344,0.10315018315018315
9.339269518997753,0.0,0.3344322344322344,0.10315018315018315
9.34522398399713,0.39809523809523806,0.4029304029304029,0.08139194139194139
9.354610647998925,0.39809523809523806,0.4029304029304029,0.08139194139194139
9.368813128996408,0.0,0.2079120879120879,0.25465201465201465
9.386431401995651,0.7002930402930403,0.2095238095238095,0.5262271062271061
9.40655190799589,0.2989743589743589,0.166007326007326,0.43758241758241756
9.432635587996629,0.2989743589743589,0.166007326007326,0.43758241758241756
9.43431457800034,0.2989743589743589,0.166007326007326,0.43758241758241756
9.441157895998913,0.2989743589743589,0.166007326007326,0.43758241758241756
9.44961485699605,0.7051282051282051,0.614065934065934,0.6398534798534798
9.457957209000597,0.7051282051282051,0.614065934065934,0.6398534798534798
9.472750645996712,0.7051282051282051,0.614065934065934,0.6398534798534798
9.487370648996148,0.7051282051282051,0.614065934065934,0.6398534798534798
9.487638532998972,0.7051282051282051,0.614065934065934,0.6398534798534798
9.500555932994757,0.7051282051282051,0.614065934065934,0.6398534798534798
9.511453314997198,0.7051282051282051,0.614065934065934,0.6398534798534798
9.521317302998796,0.7051282051282051,0.614065934065934,0.6398534798534798
9.531770339999639,0.7051282051282051,0.614065934065934,0.6398534798534798
9.541108803998213,1.4545787545787545,0.24659340659340656,1.2007326007326007
9.549742351999157,1.4545787545787545,0.24659340659340656,1.2007326007326007
9.55734664999909,1.4545787545787545,0.24659340659340656,1.2007326007326007
9.563767891995667,1.0798534798534798,2.107326007326007,1.4183150183150184
9.56886339099583,1.0798534798534798,2.107326007326007,1.4183150183150184
9.573765076995187,0.033846153846153845,0.5721611721611721,0.29333333333333333
9.57854878299986,0.045128205128205125,0.3465201465201465,0.03868131868131868
9.587327600995195,0.045128205128205125,0.3465201465201465,0.03868131868131868
9.599447699998564,0.42710622710622714,1.411062271062271,0.9186813186813186
9.61432285799674,0.6422710622710622,0.6994871794871794,0.7293040293040293
9.62914536799508,0.46336996336996333,0.5729670329670329,1.2668131868131869
9.643660488000023,0.46336996336996333,0.5729670329670329,1.2668131868131869
9.64392254899576,0.46336996336996333,0.5729670329670329,1.2668131868131869
9.653041256999131,0.46336996336996333,0.5729670329670329,1.2668131868131869
9.662882175995037,0.0,0.23047619047619047,0.3755311355311355
9.674978846996964,0.3038095238095238,0.8534065934065934,0.8485714285714284
9.688330662000226,0.3038095238095238,0.8534065934065934,0.8485714285714284
9.70079857899691,0.0,0.32798534798534795,0.11604395604395604
9.713016788999084,0.0,0.32798534798534795,0.11604395604395604
9.72703578799701,0.0,0.16278388278388278,0.7091575091575092
9.739437234995421,0.23208791208791207,0.5939194139194138,0.2909157509157509
9.739665244000207,0.23208791208791207,0.5939194139194138,0.2909157509157509
9.746851475996664,0.23208791208791207,0.5939194139194138,0.2909157509157509
9.752916509998613,0.9742857142857142,1.5754578754578754,0.4561172161172161
9.764695188998303,0.9742857142857142,1.5754578754578754,0.4561172161172161
9.774943750999228,0.9742857142857142,1.5754578754578754,0.4561172161172161
9.782974144996842,0.9742857142857142,1.5754578754578754,0.4561172161172161
9.790122679994965,0.9742857142857142,1.5754578754578754,0.4561172161172161
9.799403581993829,0.9742857142857142,1.5754578754578754,0.4561172161172161
9.810153503996844,0.751062271062271,1.0726007326007325,0.2643223443223443
9.820651359994372,0.751062271062271,1.0726007326007325,0.2643223443223443
9.830024546994537,0.751062271062271,1.0726007326007325,0.2643223443223443
9.8407759959955,0.751062271062271,1.0726007326007325,0.2643223443223443
9.855049483994662,2.0783150183150183,0.6213186813186813,1.4634432234432233
9.868348356998467,2.0783150183150183,0.6213186813186813,1.4634432234432233
9.881977236997045,2.0783150183150183,0.6213186813186813,1.4634432234432233
9.894743796998227,0.3489377289377289,0.6575824175824176,0.6994871794871794
9.909257663995959,0.3489377289377289,0.6575824175824176,0.6994871794871794
9.924646699997538,0.13054945054945052,0.21597069597069596,0.3449084249084249
9.93961643199873,0.13054945054945052,0.21597069597069596,0.3449084249084249
9.939999144000467,0.11926739926739927,1.0532600732600732,0.3642490842490842
9.951830186000734,0.11926739926739927,1.0532600732600732,0.3642490842490842
9.965059727997868,0.11926739926739927,1.0532600732600732,0.3642490842490842
9.981928058994527,0.25223443223443226,0.25787545787545785,0.06769230769230769
9.982343883995782,0.25223443223443226,0.25787545787545785,0.06769230769230769
9.99355181199644,0.25223443223443226,0.25787545787545785,0.06769230769230769
10.004695057999925,0.0,0.8687179487179487,0.08783882783882783
10.016138310995302,0.0,0.8687179487179487,0.08783882783882783
10.025096221994318,0.6527472527472526,1.2192673992673992,0.8493772893772893
10.032411692998721,0.6527472527472526,1.2192673992673992,0.8493772893772893
10.038511389997439,0.6527472527472526,1.2192673992673992,0.8493772893772893
10.043320066994056,0.6527472527472526,1.2192673992673992,0.8493772893772893
10.050543466000818,0.6527472527472526,1.2192673992673992,0.8493772893772893
10.056584717996884,0.6527472527472526,1.2192673992673992,0.8493772893772893
10.06257327899948,0.6527472527472526,1.2192673992673992,0.8493772893772893
10.068445671997324,0.6527472527472526,1.2192673992673992,0.8493772893772893
10.077153604994237,1.2901831501831502,2.116996336996337,0.356996336996337
10.0866789579959,1.2901831501831502,2.116996336996337,0.356996336996337
10.096929519997502,1.2901831501831502,2.116996336996337,0.356996336996337
10.10908152799675,1.2901831501831502,2.116996336996337,0.356996336996337
10.11971463199734,0.6245421245421244,1.0290842490842491,0.4778754578754579
10.129490694998822,0.15875457875457877,0.3344322344322344,0.07252747252747253
10.14060256799712,0.06608058608058608,0.08622710622710622,0.46095238095238095
10.15262178699777,0.06608058608058608,0.08622710622710622,0.46095238095238095
10.163682368998707,0.06608058608058608,0.08622710622710622,0.46095238095238095
10.174810836993856,0.06608058608058608,0.08622710622710622,0.46095238095238095
10.18497407399991,0.06608058608058608,0.08622710622710622,0.46095238095238095
10.196749542999896,1.2498901098901098,2.5634432234432234,1.4650549450549448
10.206465474999277,0.7188278388278388,0.6753113553113552,1.0556776556776555
10.216206020995742,0.7188278388278388,0.6753113553113552,1.0556776556776555
10.225117547000991,0.7188278388278388,0.6753113553113552,1.0556776556776555
10.23254306599847,0.7188278388278388,0.6753113553113552,1.0556776556776555
10.238662260999263,0.7188278388278388,0.6753113553113552,1.0556776556776555
10.243538959999569,0.7188278388278388,0.6753113553113552,1.0556776556776555
10.249563184996077,0.7188278388278388,0.6753113553113552,1.0556776556776555
10.25440121099382,0.044322344322344324,0.25142857142857145,0.00967032967032967
10.259230857998773,0.044322344322344324,0.25142857142857145,0.00967032967032967
10.265162251998845,0.044322344322344324,0.25142857142857145,0.00967032967032967
10.27253476799524,0.044322344322344324,0.25142857142857145,0.00967032967032967
10.281184595995,0.044322344322344324,0.25142857142857145,0.00967032967032967
10.289767051996023,0.3449084249084249,0.6938461538461538,0.5157509157509157
10.300513078000222,0.27076923076923076,0.7986080586080586,0.5294505494505495
10.30738041499717,0.5213919413919413,0.8058608058608058,0.7349450549450549
10.312164315997506,0.0,0.3497435897435897,0.9517216117216116
10.319546626000374,0.0,0.3497435897435897,0.9517216117216116
10.325625364996085,0.0,0.3497435897435897,0.9517216117216116
10.330409652000526,0.0,0.3497435897435897,0.9517216117216116
10.337574578996282,0.0,0.1515018315018315,0.523003663003663
10.343654441996478,0.0,0.44402930402930396,0.4802930402930403
10.34846908399777,0.0,0.44402930402930396,0.4802930402930403
10.35571132000041,0.224029304029304,1.153186813186813,0.3231501831501831
10.361768057999143,0.224029304029304,1.153186813186813,0.3231501831501831
10.366638561994478,0.224029304029304,1.153186813186813,0.3231501831501831
10.372627817996545,0.0,0.36827838827838827,0.3594139194139194
10.377416285999061,0.0,0.36827838827838827,0.3594139194139194
10.384705231997941,0.0,0.36827838827838827,0.3594139194139194
10.390704340999946,0.0,0.10717948717948718,0.28124542124542123
10.395450956995774,0.0,0.10717948717948718,0.28124542124542123
10.402564078998694,0.10153846153846154,0.4738461538461538,0.6213186813186813
10.408536012997502,0.11926739926739927,0.38036630036630037,0.4005128205128205
10.415738575000432,0.11926739926739927,0.38036630036630037,0.4005128205128205
10.421928880998166,0.6583882783882784,1.2732600732600732,0.27802197802197803
10.426737892994424,0.6583882783882784,1.2732600732600732,0.27802197802197803
10.432693768998433,0.6583882783882784,1.2732600732600732,0.27802197802197803
10.439797602994076,0.6583882783882784,1.2732600732600732,0.27802197802197803
10.445719839997764,1.2555311355311354,0.13538461538461538,0.31750915750915754
10.451650435999909,1.2555311355311354,0.13538461538461538,0.31750915750915754
10.458746568998322,1.2555311355311354,0.13538461538461538,0.31750915750915754
10.464612625000882,1.2555311355311354,0.13538461538461538,0.31750915750915754
10.47306159800064,1.2555311355311354,0.13538461538461538,0.31750915750915754
10.480572358996142,1.2555311355311354,0.13538461538461538,0.31750915750915754
10.486683513998287,0.0,0.30864468864468864,0.1813186813186813
10.492149034995236,0.0,0.30864468864468864,0.1813186813186813
10.492310163994262,0.0,0.11765567765567764,0.5568498168498168
10.49959895399661,0.0,0.11765567765567764,0.5568498168498168
10.505729935001,0.23531135531135527,1.814798534798535,0.1652014652014652
10.510577617998933,0.23531135531135527,1.814798534798535,0.1652014652014652
10.515552420998574,0.0,0.7663736263736264,0.14344322344322344
10.519368649998796,0.0,0.7663736263736264,0.14344322344322344
10.524091464998492,0.0,0.7663736263736264,0.14344322344322344
10.531430083996383,0.0,0.7663736263736264,0.14344322344322344
10.537632652994944,0.0,0.7663736263736264,0.14344322344322344
10.542503173994191,0.0,0.7663736263736264,0.14344322344322344
10.54856357799872,0.0,0.7663736263736264,0.14344322344322344
10.553352861999883,0.0,0.7663736263736264,0.14344322344322344
10.559430778994283,0.6857875457875457,0.518974358974359,0.6205128205128204
10.56417987599707,0.6857875457875457,0.518974358974359,0.6205128205128204
10.571475940996606,0.6857875457875457,0.518974358974359,0.6205128205128204
10.577506503999757,0.6857875457875457,0.518974358974359,0.6205128205128204
10.583502099994803,0.6857875457875457,0.518974358974359,0.6205128205128204
10.58824372899835,0.6857875457875457,0.518974358974359,0.6205128205128204
10.596649401995819,0.6857875457875457,0.518974358974359,0.6205128205128204
10.603861844996572,0.6857875457875457,0.518974358974359,0.6205128205128204
10.609904863995325,0.6857875457875457,0.518974358974359,0.6205128205128204
10.61578902999463,0.0,0.11282051282051282,0.5342857142857143
10.623391986999195,0.0,0.11282051282051282,0.5342857142857143
10.629655419994378,0.3304029304029304,1.1934798534798534,1.5263003663003663
10.634466579998843,0.3304029304029304,1.1934798534798534,1.5263003663003663
10.64171756200085,0.2796336996336996,0.3916483516483516,0.5866666666666667
10.647844290993817,0.2796336996336996,0.3916483516483516,0.5866666666666667
10.65270465699723,0.2796336996336996,0.3916483516483516,0.5866666666666667
10.65879992099508,0.2796336996336996,0.3916483516483516,0.5866666666666667
10.663666381995426,0.2796336996336996,0.3916483516483516,0.5866666666666667
10.670979208996869,0.2796336996336996,0.3916483516483516,0.5866666666666667
10.677123112996924,0.2796336996336996,0.3916483516483516,0.5866666666666667
10.681969949000631,0.7808791208791208,1.4086446886446886,0.7832967032967032
10.688199992000591,0.7808791208791208,1.4086446886446886,0.7832967032967032
10.693263526998635,0.7808791208791208,1.4086446886446886,0.7832967032967032
10.698045044999162,0.7808791208791208,1.4086446886446886,0.7832967032967032
10.705331851000665,0.7808791208791208,1.4086446886446886,0.7832967032967032
10.711440488994413,0.7808791208791208,1.4086446886446886,0.7832967032967032
10.716307931994379,0.7808791208791208,1.4086446886446886,0.7832967032967032
10.722524739998335,0.7808791208791208,1.4086446886446886,0.7832967032967032
10.727293666997866,0.7808791208791208,1.4086446886446886,0.7832967032967032
10.73324183999648,0.7808791208791208,1.4086446886446886,0.7832967032967032
10.737986927000748,0.7808791208791208,1.4086446886446886,0.7832967032967032
10.744007162000344,0.7808791208791208,1.4086446886446886,0.7832967032967032
10.748763475996384,0.253040293040293,1.5883516483516482,1.1709157509157508
10.757174967999163,0.253040293040293,1.5883516483516482,1.1709157509157508
10.76446254199982,0.253040293040293,1.5883516483516482,1.1709157509157508
10.770467342998018,0.253040293040293,1.5883516483516482,1.1709157509157508
10.775178720999975,0.253040293040293,1.5883516483516482,1.1709157509157508
10.783640841000306,0.7486446886446886,0.9186813186813186,0.523003663003663
10.790987988999404,0.005641025641025641,0.4996336996336996,0.4520879120879121
10.797192033998726,0.005641025641025641,0.4996336996336996,0.4520879120879121
10.801967191000585,0.005641025641025641,0.4996336996336996,0.4520879120879121
10.80805028299801,0.005641025641025641,0.4996336996336996,0.4520879120879121
10.812805036999634,0.22967032967032966,0.5076923076923077,0.6817582417582417
10.820258157000353,0.22967032967032966,0.5076923076923077,0.6817582417582417
10.826421410994953,0.3158974358974359,0.5923076923076923,0.9968498168498168
10.831282679995638,0.3158974358974359,0.5923076923076923,0.9968498168498168
10.83738219299994,0.3158974358974359,0.5923076923076923,0.9968498168498168
10.842151677999937,0.3158974358974359,0.5923076923076923,0.9968498168498168
10.84928603899607,0.3158974358974359,0.5923076923076923,0.9968498168498168
10.855310001999896,0.3158974358974359,0.5923076923076923,0.9968498168498168
10.860044732995448,0.3158974358974359,0.5923076923076923,0.9968498168498168
10.868440836995433,0.3158974358974359,0.5923076923076923,0.9968498168498168
10.875672352995025,0.3158974358974359,0.5923076923076923,0.9968498168498168
10.881708968998282,0.3158974358974359,0.5923076923076923,0.9968498168498168
10.888862230000086,0.09186813186813186,0.5995604395604395,1.1862271062271061
10.893670478995773,0.09186813186813186,0.5995604395604395,1.1862271062271061
10.899697685999854,0.09186813186813186,0.5995604395604395,1.1862271062271061
10.9044938359948,0.09186813186813186,0.5995604395604395,1.1862271062271061
10.911705430997245,0.0,0.689010989010989,0.18937728937728937
10.918159194996406,0.0,0.689010989010989,0.18937728937728937
10.92678968799737,0.11765567765567764,0.7534798534798535,0.10637362637362638
10.937591494999651,0.11765567765567764,0.7534798534798535,0.10637362637362638
10.94715770399489,0.11765567765567764,0.7534798534798535,0.10637362637362638
10.955737702999613,0.0,0.38278388278388276,1.5972161172161172
10.963087199997972,0.0,0.38278388278388276,1.5972161172161172
10.969145817995013,0.0,0.38278388278388276,1.5972161172161172
10.973947735998081,0.0,0.38278388278388276,1.5972161172161172
10.980143036998925,0.0,0.38278388278388276,1.5972161172161172
10.984960336994845,0.0,0.38278388278388276,1.5972161172161172
10.989792750995548,0.0,0.38278388278388276,1.5972161172161172
10.99582236099377,0.0,0.18454212454212454,0.33684981684981685
11.00068544199894,0.007252747252747252,1.3079120879120878,0.4996336996336996
11.006744435995643,0.007252747252747252,1.3079120879120878,0.4996336996336996
11.011492580997583,0.007252747252747252,1.3079120879120878,0.4996336996336996
11.01895887599676,0.007252747252747252,1.3079120879120878,0.4996336996336996
11.025026787996467,0.007252747252747252,1.3079120879120878,0.4996336996336996
11.031025242999021,0.007252747252747252,1.3079120879120878,0.4996336996336996
11.035788538996712,0.007252747252747252,1.3079120879120878,0.4996336996336996
11.041878530995746,0.007252747252747252,1.3079120879120878,0.4996336996336996
11.046751768997638,0.0,0.27076923076923076,0.5761904761904761
11.054004753998015,0.24578754578754577,0.5745787545787545,0.30542124542124544
11.060080923998612,0.24578754578754577,0.5745787545787545,0.30542124542124544
11.066036709999025,0.24578754578754577,0.5745787545787545,0.30542124542124544
11.070805613999255,0.24578754578754577,0.5745787545787545,0.30542124542124544
11.076721842000552,0.24578754578754577,0.5745787545787545,0.30542124542124544
11.081431645994599,0.24578754578754577,0.5745787545787545,0.30542124542124544
11.089957018994028,0.0,0.11443223443223444,0.23531135531135527
11.097431825997774,0.0,0.11443223443223444,0.23531135531135527
11.103531480999663,0.0,0.11443223443223444,0.23531135531135527
11.10838877599599,0.06608058608058608,0.18454212454212454,0.9573626373626374
11.113191391996224,0.06608058608058608,0.18454212454212454,0.9573626373626374
11.11930547600059,0.0,0.7736263736263735,1.6133333333333333
11.124050724996778,0.0,0.16036630036630037,0.5262271062271061
11.131277544998738,0.08703296703296703,1.4005860805860806,0.5213919413919413
11.137310713995248,0.08703296703296703,1.4005860805860806,0.5213919413919413
11.142038268997567,0.08703296703296703,1.4005860805860806,0.5213919413919413
11.150443996994,0.17648351648351646,0.5874725274725274,0.4045421245421245
11.15765564799949,0.17648351648351646,0.5874725274725274,0.4045421245421245
11.163678653996612,0.17648351648351646,0.5874725274725274,0.4045421245421245
11.169641590000538,0.17648351648351646,0.5874725274725274,0.4045421245421245
11.175556735994178,0.0,0.26673992673992675,0.46739926739926735
11.181442586996127,0.0,0.26673992673992675,0.46739926739926735
11.186240571994858,0.0,0.34007326007326005,0.24739926739926738
11.192268273000082,0.1942124542124542,0.8211721611721612,0.23853479853479853
11.19830572099454,0.17648351648351646,0.7784615384615384,1.3538461538461537
11.203138419994502,0.17648351648351646,0.7784615384615384,1.3538461538461537
11.210397055998328,0.06849816849816849,0.17648351648351646,1.1781684981684981
11.216443138000614,0.06849816849816849,0.17648351648351646,1.1781684981684981
11.222571121994406,0.2248351648351648,0.46820512820512816,0.4625641025641025
11.227317548997235,0.2248351648351648,0.46820512820512816,0.4625641025641025
11.234581220996915,0.0,0.356996336996337,0.49399267399267394
11.240646207996178,0.20065934065934066,0.8252014652014652,1.3643223443223442
11.24663018299907,0.2063003663003663,0.7478388278388278,0.5012454212454212
11.252554271995905,0.2063003663003663,0.7478388278388278,0.5012454212454212
11.258555599000829,0.2063003663003663,0.7478388278388278,0.5012454212454212
11.264577838999685,0.2063003663003663,0.7478388278388278,0.5012454212454212
11.270586935999745,0.2683516483516483,0.7236630036630036,0.09831501831501832
11.276545177999651,0.0,0.3416849816849817,0.2804395604395604
11.28133331999561,0.0,0.7945787545787546,0.8687179487179487
11.287242954997055,0.0,0.7945787545787546,0.8687179487179487
11.293258855999738,0.0,0.7945787545787546,0.8687179487179487
11.299243272995227,0.0,0.7309157509157509,0.5205860805860806
11.305088783999963,0.0,0.7309157509157509,0.5205860805860806
11.31107081999653,0.0,0.7309157509157509,0.5205860805860806
11.315803931000119,0.0,0.7309157509157509,0.5205860805860806
11.323169200994016,0.0,1.514212454212454,0.49721611721611714
11.329206345995772,0.0,0.34813186813186814,1.4835897435897436
11.335212462996424,0.0,0.34813186813186814,1.4835897435897436
11.340031224994163,0.0,0.34813186813186814,1.4835897435897436
11.347390160000941,0.014505494505494505,1.1523809523809523,0.16117216117216115
11.353533324996533,0.2643223443223443,1.3014652014652013,0.5842490842490843
11.358366346998082,0.2643223443223443,1.3014652014652013,0.5842490842490843
11.364409355999669,0.2643223443223443,1.3014652014652013,0.5842490842490843
11.369302684994182,0.2643223443223443,1.3014652014652013,0.5842490842490843
11.374175921999267,0.2643223443223443,1.3014652014652013,0.5842490842490843
11.380269053996017,0.2643223443223443,1.3014652014652013,0.5842490842490843
11.385124294996785,0.2643223443223443,1.3014652014652013,0.5842490842490843
11.391256368995528,0.2643223443223443,1.3014652014652013,0.5842490842490843
11.396146146995306,0.2643223443223443,1.3014652014652013,0.5842490842490843
11.402289721998386,0.11846153846153845,1.2458608058608058,0.19018315018315018
11.407211069999903,0.11846153846153845,1.2458608058608058,0.19018315018315018
11.412032663996797,0.11846153846153845,1.2458608058608058,0.19018315018315018
11.418290171997796,0.11846153846153845,1.2458608058608058,0.19018315018315018
11.42312505999871,0.0,1.4304029304029304,0.3142857142857142
11.429130807999172,0.0,1.4304029304029304,0.3142857142857142
11.435250672999246,0.365054945054945,0.8372893772893772,0.12329670329670328
11.4401157819957,0.0,0.9307692307692307,0.29010989010989013
11.447324110995396,0.0,0.9307692307692307,0.29010989010989013
11.453468136998708,0.14344322344322344,0.8211721611721612,0.49560439560439556
11.458321623998927,0.14344322344322344,0.8211721611721612,0.49560439560439556
11.464395465998678,0.14344322344322344,0.8211721611721612,0.49560439560439556
11.469186033995356,0.14344322344322344,0.8211721611721612,0.49560439560439556
11.476596490996599,0.14344322344322344,0.8211721611721612,0.49560439560439556
11.482733641998493,0.14344322344322344,0.8211721611721612,0.49560439560439556
11.487558832996001,0.14344322344322344,0.8211721611721612,0.49560439560439556
11.496196897998743,0.14344322344322344,0.8211721611721612,0.49560439560439556
11.50359998899512,0.14344322344322344,0.8211721611721612,0.49560439560439556
11.509660224000982,0.0,0.5028571428571429,1.5682051282051281
11.514476456999546,0.13216117216117215,0.2989743589743589,0.41340659340659336
11.521926734996669,0.20065934065934066,0.8880586080586079,1.3756043956043955
11.528008896995743,0.051575091575091575,0.8066666666666666,0.4585347985347985
11.534035951997794,0.051575091575091575,0.8066666666666666,0.4585347985347985
11.540038501996605,0.051575091575091575,0.8066666666666666,0.4585347985347985
11.545992024999578,0.051575091575091575,0.8066666666666666,0.4585347985347985
11.551985125995998,0.051575091575091575,0.8066666666666666,0.4585347985347985
11.556770983996103,0.051575091575091575,0.8066666666666666,0.4585347985347985
11.564008071996795,0.051575091575091575,0.8066666666666666,0.4585347985347985
11.569994329998735,0.0,0.5681318681318681,1.6890842490842488
11.575922715994238,0.0,0.1104029304029304,0.30058608058608055
11.58180109699606,0.0,0.1104029304029304,0.30058608058608055
11.58765629199479,0.0,0.33926739926739924,0.4222710622710622
11.594823775994882,0.253040293040293,0.9871794871794871,0.5415384615384615
11.600871943999664,0.253040293040293,0.9871794871794871,0.5415384615384615
11.605721144995186,0.253040293040293,0.9871794871794871,0.5415384615384615
11.614062729997386,0.253040293040293,0.9871794871794871,0.5415384615384615
11.621527745999629,0.04029304029304029,0.8276190476190476,1.216849816849817
11.627582098997664,0.04029304029304029,0.8276190476190476,1.216849816849817
11.633642114000395,0.04029304029304029,0.8276190476190476,1.216849816849817
11.638463000999764,0.04029304029304029,0.8276190476190476,1.216849816849817
11.645752322998305,0.04029304029304029,0.8276190476190476,1.216849816849817
11.651826985995285,0.09509157509157509,0.4786813186813187,1.216849816849817
11.656609726996976,0.0,0.7671794871794871,0.788937728937729
11.663907133995963,0.0,0.7671794871794871,0.788937728937729
11.670050665998133,0.0,0.7671794871794871,0.788937728937729
11.674882847997651,0.8034432234432234,0.1692307692307692,0.4528937728937729
11.682967254993855,0.11282051282051282,0.896117216117216,0.3626373626373626
11.689084875994013,0.11282051282051282,0.896117216117216,0.3626373626373626
11.694138366998232,0.0,0.15875457875457877,0.2191941391941392
11.696628509998845,0.0,0.15875457875457877,0.2191941391941392
11.703927584996563,0.0,0.15875457875457877,0.2191941391941392
