time,emg1,emg2,emg3
0.03280699400056619,1.1225641025641024,0.5012454212454212,1.8615384615384614
0.03336229200067464,0.5423443223443223,0.5084981684981685,0.1821245421245421
0.04738284999621101,0.5423443223443223,0.5084981684981685,0.1821245421245421
0.06383118800295051,0.5423443223443223,0.5084981684981685,0.1821245421245421
0.08364374800294172,0.5423443223443223,0.5084981684981685,0.1821245421245421
0.10753528899658704,0.05399267399267399,0.2772161172161172,0.6132600732600733
0.13199475099827396,0.05399267399267399,0.2772161172161172,0.6132600732600733
0.13236588500149082,0.05399267399267399,0.2772161172161172,0.6132600732600733
0.14230636599677382,0.05399267399267399,0.2772161172161172,0.6132600732600733
0.15156146999652265,0.05399267399267399,0.2772161172161172,0.6132600732600733
0.15935014499700628,0.05399267399267399,0.2772161172161172,0.6132600732600733
0.16576248899946222,0.05399267399267399,0.2772161172161172,0.6132600732600733
0.17078189799940446,0.05399267399267399,0.2772161172161172,0.6132600732600733
0.17755671699706,0.05399267399267399,0.2772161172161172,0.6132600732600733
0.18385244099772535,0.05399267399267399,0.2772161172161172,0.6132600732600733
0.1889886380013195,0.08542124542124542,0.21435897435897436,0.4794871794871795
0.19157360900135245,0.08542124542124542,0.21435897435897436,0.4794871794871795
0.20052406699687708,0.08542124542124542,0.21435897435897436,0.4794871794871795
0.2086116549980943,0.0,0.10315018315018315,0.32073260073260074
0.21498503899783827,0.40534798534798533,0.22886446886446887,0.3545787545787546
0.2200731420016382,0.40534798534798533,0.22886446886446887,0.3545787545787546
0.2238199959974736,0.40534798534798533,0.22886446886446887,0.3545787545787546
0.23014651199628133,0.40534798534798533,0.22886446886446887,0.3545787545787546
0.2351877949986374,0.40534798534798533,0.22886446886446887,0.3545787545787546
0.24152097499609226,0.40534798534798533,0.22886446886446887,0.3545787545787546
0.24689809499977855,0.36827838827838827,0.356996336996337,0.904981684981685
0.2483166309975786,0.9887912087912087,0.5221978021978021,0.46417582417582415
0.25621894899813924,0.9887912087912087,0.5221978021978021,0.46417582417582415
0.26818137500231387,1.0613186813186812,0.7228571428571429,0.46014652014652013
0.2748211630023434,0.9436630036630036,0.44402930402930396,1.4352380952380952
0.2799488129967358,1.382051282051282,0.8389010989010988,0.4391941391941392
0.2825069219979923,1.2821245421245422,0.6857875457875457,1.4062271062271061
0.2888896439981181,0.9968498168498168,0.5399267399267399,0.4432234432234432
0.2939356119968579,0.9968498168498168,0.5399267399267399,0.4432234432234432
0.2977814949990716,0.9968498168498168,0.5399267399267399,0.4432234432234432
0.30417868200311204,0.9968498168498168,0.5399267399267399,0.4432234432234432
0.3092443990026368,0.9968498168498168,0.5399267399267399,0.4432234432234432
0.313120605002041,1.203150183150183,0.42065934065934063,1.4465201465201465
0.31822040699626086,1.203150183150183,0.42065934065934063,1.4465201465201465
0.3208276770019438,1.203150183150183,0.42065934065934063,1.4465201465201465
0.3272084790005465,1.203150183150183,0.42065934065934063,1.4465201465201465
0.3322360500023933,1.4013919413919413,0.5326739926739926,1.7398534798534797
0.3371895640011644,1.2982417582417582,0.5238095238095237,1.6769963369963368
0.3410322060008184,1.2982417582417582,0.5238095238095237,1.6769963369963368
0.34637801299686544,0.5560439560439561,0.3755311355311355,0.9871794871794871
0.3478302729999996,1.0323076923076921,0.5117216117216117,0.48754578754578753
0.35542731799796456,1.0323076923076921,0.5117216117216117,0.48754578754578753
0.36379472699627513,1.0323076923076921,0.5117216117216117,0.48754578754578753
0.37157860300067114,1.0323076923076921,0.5117216117216117,0.48754578754578753
0.38197156899695983,0.9726739926739927,0.4222710622710622,1.3788278388278388
0.3921983449981781,0.0,0.12168498168498168,0.332014652014652
0.4028335449984297,0.0,0.12168498168498168,0.332014652014652
0.4128531620008289,0.2868864468864469,0.3642490842490842,0.5729670329670329
0.42583731900231214,0.2868864468864469,0.3642490842490842,0.5729670329670329
0.43930724899837514,0.2868864468864469,0.3642490842490842,0.5729670329670329
0.4552983960020356,0.7067399267399267,0.419047619047619,0.03062271062271062
0.4684180969998124,0.7067399267399267,0.419047619047619,0.03062271062271062
0.468735194997862,0.7067399267399267,0.419047619047619,0.03062271062271062
0.4775304450013209,0.7067399267399267,0.419047619047619,0.03062271062271062
0.4853627740012598,0.024175824175824173,0.03868131868131868,0.35135531135531134
0.49191014299867675,1.8494505494505493,0.7188278388278388,1.4763369963369963
0.5002358740021009,1.290989010989011,0.35135531135531134,1.270842490842491
0.5066983869983233,2.0605860805860803,0.7921611721611721,1.6149450549450548
0.5160692409990588,0.9017582417582416,0.40534798534798533,0.3586080586080586
0.5244906000007177,1.4271794871794872,0.48432234432234433,1.4972893772893772
0.5324894130026223,0.8598534798534798,0.7349450549450549,0.21677655677655677
0.5383198170020478,0.41340659340659336,0.18454212454212454,0.2683516483516483
0.5587384030004614,0.41340659340659336,0.18454212454212454,0.2683516483516483
0.5593116989984992,0.41340659340659336,0.18454212454212454,0.2683516483516483
0.5718634500008193,0.83003663003663,0.49560439560439556,0.9219047619047619
0.5885412459974759,0.83003663003663,0.49560439560439556,0.9219047619047619
0.608121678000316,1.5649816849816849,0.718021978021978,1.6592673992673992
0.6312964329990791,0.9895970695970695,0.4383882783882784,1.6383150183150184
0.652931931996136,0.9895970695970695,0.4383882783882784,1.6383150183150184
0.6697720230004052,0.9895970695970695,0.4383882783882784,1.6383150183150184
0.6874894630018389,0.9895970695970695,0.4383882783882784,1.6383150183150184
0.701188015002117,0.0,0.22967032967032966,0.61003663003663
0.7141843549979967,0.0,0.22967032967032966,0.61003663003663
0.7253202569991117,0.0,0.22967032967032966,0.61003663003663
0.7372007430021768,0.14344322344322344,0.27641025641025635,0.9412454212454211
0.7499795670009917,0.14344322344322344,0.27641025641025635,0.9412454212454211
0.7625065730026108,0.8026373626373626,0.7881318681318681,0.2683516483516483
0.7743548709986499,0.8026373626373626,0.7881318681318681,0.2683516483516483
0.7908243499987293,0.8026373626373626,0.7881318681318681,0.2683516483516483
0.8081416560016805,0.8026373626373626,0.7881318681318681,0.2683516483516483
0.8085127250014921,0.8026373626373626,0.7881318681318681,0.2683516483516483
0.8174585369997658,0.8026373626373626,0.7881318681318681,0.2683516483516483
0.8245773020025808,0.8026373626373626,0.7881318681318681,0.2683516483516483
0.8321239720025915,0.8026373626373626,0.7881318681318681,0.2683516483516483
0.8405040819998248,0.7534798534798535,0.5278388278388277,0.48432234432234433
0.848167618001753,0.0,0.07736263736263736,0.2756043956043956
0.8548049500022898,0.0,0.07736263736263736,0.2756043956043956
0.8602950450003846,0.0,0.07736263736263736,0.2756043956043956
0.8606084889979684,0.0,0.03706959706959707,0.19340659340659339
0.8681447229973855,0.0,0.03706959706959707,0.19340659340659339
0.8748465019962168,0.0,0.3424908424908425,0.18857142857142856
0.8815509749983903,0.0,0.06285714285714286,0.3183150183150183
0.8870556420006324,0.14989010989010987,0.11926739926739927,0.26190476190476186
0.8874890869992669,0.14989010989010987,0.11926739926739927,0.26190476190476186
0.8975960399984615,0.4722344322344322,0.5391208791208791,1.692307692307692
0.9044433029994252,0.4722344322344322,0.5391208791208791,1.692307692307692
0.9108232700018561,0.1087912087912088,0.3586080586080586,0.9331868131868131
0.9154179830002249,0.1087912087912088,0.3586080586080586,0.9331868131868131
0.9231587579997722,0.46659340659340653,0.6164835164835165,0.48835164835164835
0.9328826310011209,0.2345054945054945,0.05641025641025641,0.17084249084249084
0.9396863739966648,0.0008058608058608059,0.1249084249084249,0.1378021978021978
0.9461726680019638,0.0008058608058608059,0.1249084249084249,0.1378021978021978
0.9505751739998232,0.664029304029304,0.37875457875457874,0.3142857142857142
0.9507949149992783,0.7172161172161172,0.38358974358974357,1.514212454212454
0.9592520059959497,0.7172161172161172,0.38358974358974357,1.514212454212454
0.9676658800017321,0.5294505494505495,0.3747252747252747,0.4174358974358974
0.974455506002414,0.5294505494505495,0.3747252747252747,0.4174358974358974
0.982483425999817,0.9331868131868131,0.6543589743589743,0.31750915750915754
0.9904850679959054,0.9331868131868131,0.6543589743589743,0.31750915750915754
0.9994394800014561,0.9331868131868131,0.6543589743589743,0.31750915750915754
1.0092264129998512,0.9331868131868131,0.6543589743589743,0.31750915750915754
1.0198496779994457,0.9331868131868131,0.6543589743589743,0.31750915750915754
1.0275031179990037,0.9331868131868131,0.6543589743589743,0.31750915750915754
1.0335467510012677,0.9331868131868131,0.6543589743589743,0.31750915750915754
1.0386787879979238,0.9331868131868131,0.6543589743589743,0.31750915750915754
1.0424386459999369,0.9331868131868131,0.6543589743589743,0.31750915750915754
1.0481043370018597,0.9331868131868131,0.6543589743589743,0.31750915750915754
1.0601773859962123,0.9331868131868131,0.6543589743589743,0.31750915750915754
1.0723613739974098,0.9331868131868131,0.6543589743589743,0.31750915750915754
1.0726604960000259,0.9331868131868131,0.6543589743589743,0.31750915750915754
1.0814767940028105,0.9331868131868131,0.6543589743589743,0.31750915750915754
1.0882063000026392,0.9331868131868131,0.6543589743589743,0.31750915750915754
1.0935921299969777,0.9331868131868131,0.6543589743589743,0.31750915750915754
1.095671144001244,0.9331868131868131,0.6543589743589743,0.31750915750915754
1.0960391620028531,0.9331868131868131,0.6543589743589743,0.31750915750915754
1.1040892419987358,0.9331868131868131,0.6543589743589743,0.31750915750915754
1.1114670079987263,1.1547985347985346,0.7357509157509158,1.5682051282051281
1.1177360709989443,1.1547985347985346,0.7357509157509158,1.5682051282051281
1.1229731069979607,0.06769230769230769,0.048351648351648346,0.6551648351648351
1.1291017760013347,0.06769230769230769,0.048351648351648346,0.6551648351648351
1.1332011999984388,0.7147985347985348,0.43758241758241756,0.39890109890109887
1.135943531000521,0.7147985347985348,0.43758241758241756,0.39890109890109887
1.1412496830016607,0.0,0.029816849816849816,0.3465201465201465
1.1429851189968758,0.0,0.029816849816849816,0.3465201465201465
1.147927557998628,0.0,0.029816849816849816,0.3465201465201465
1.1507563459963421,0.0,0.029816849816849816,0.3465201465201465
1.15462568699877,0.0,0.029816849816849816,0.3465201465201465
1.1587221309964661,0.0,0.029816849816849816,0.3465201465201465
1.1622211400026572,0.0,0.029816849816849816,0.3465201465201465
1.1721567080021487,0.0,0.029816849816849816,0.3465201465201465
1.1837049399982789,0.0,0.029816849816849816,0.3465201465201465
1.1917380049999338,0.6591941391941392,0.3642490842490842,0.7583150183150182
1.19947397299984,0.16278388278388278,0.1926007326007326,0.39406593406593404
1.206784167996375,0.16278388278388278,0.1926007326007326,0.39406593406593404
1.2142746850004187,0.7075457875457875,0.726080586080586,0.11846153846153845
1.220605237998825,0.7075457875457875,0.726080586080586,0.11846153846153845
1.2269970060006017,0.9597802197802198,0.6575824175824176,1.5126007326007325
1.2349566479970235,0.9597802197802198,0.6575824175824176,1.5126007326007325
1.245064506001654,0.03223443223443223,0.04915750915750916,0.42388278388278383
1.2578404090018012,0.03223443223443223,0.04915750915750916,0.42388278388278383
1.2726188360029482,0.03223443223443223,0.04915750915750916,0.42388278388278383
1.2860479509981815,0.6390476190476191,0.6728937728937728,0.10315018315018315
1.2995480710014817,0.0,0.051575091575091575,0.36747252747252745
1.3100861069979146,0.0,0.051575091575091575,0.36747252747252745
1.3220665819972055,0.7059340659340658,0.6479120879120879,0.3384615384615384
1.3370978419989115,0.7059340659340658,0.6479120879120879,0.3384615384615384
1.3551635519979754,0.7059340659340658,0.6479120879120879,0.3384615384615384
1.372455352997349,0.7059340659340658,0.6479120879120879,0.3384615384615384
1.372831895998388,0.007252747252747252,0.08058608058608058,0.26996336996336995
1.3842975040024612,0.007252747252747252,0.08058608058608058,0.26996336996336995
1.3948695389990462,0.3287912087912088,0.3312087912087912,0.13941391941391942
1.4075550119960099,0.3287912087912088,0.3312087912087912,0.13941391941391942
1.4212294339959044,0.3287912087912088,0.3312087912087912,0.13941391941391942
1.4387677339982474,0.018534798534798533,0.21677655677655677,0.6688644688644688
1.449604454996006,0.018534798534798533,0.21677655677655677,0.6688644688644688
1.4498308370020823,0.018534798534798533,0.21677655677655677,0.6688644688644688
1.4598119069996756,0.018534798534798533,0.21677655677655677,0.6688644688644688
1.4704029269996681,0.018534798534798533,0.21677655677655677,0.6688644688644688
1.4812050300024566,0.018534798534798533,0.21677655677655677,0.6688644688644688
1.4922743490024004,1.2313553113553113,0.6608058608058608,1.5722344322344322
1.503187574002368,1.2104029304029302,0.7728205128205128,0.30622710622710625
1.5137924520022352,0.0,0.0419047619047619,0.3465201465201465
1.525799092996749,0.6753113553113552,0.4005128205128205,0.3795604395604395
1.5407210670018685,1.2643956043956044,0.7188278388278388,1.6093040293040293
1.5566045390005456,0.029816849816849816,0.23208791208791207,0.6656410256410257
1.556926575001853,0.029816849816849816,0.23208791208791207,0.6656410256410257
1.564314868002839,0.029816849816849816,0.23208791208791207,0.6656410256410257
1.5716960360005032,0.43435897435897436,0.4786813186813187,0.11926739926739927
1.5807450740030617,0.43435897435897436,0.4786813186813187,0.11926739926739927
1.5884494880010607,0.43435897435897436,0.4786813186813187,0.11926739926739927
1.596782547996554,0.5447619047619047,0.3924542124542124,0.365054945054945
1.6030019749960047,0.5447619047619047,0.3924542124542124,0.365054945054945
1.6078561460017227,0.2627106227106227,0.30058608058608055,0.09186813186813186
1.614910668002267,0.2627106227106227,0.30058608058608055,0.09186813186813186
1.6233136869996088,0.2627106227106227,0.30058608058608055,0.09186813186813186
1.6319656819978263,0.2627106227106227,0.30058608058608055,0.09186813186813186
1.6437755540027865,0.2627106227106227,0.30058608058608055,0.09186813186813186
1.6585153409978375,0.2627106227106227,0.30058608058608055,0.09186813186813186
1.6691533900011564,0.2627106227106227,0.30058608058608055,0.09186813186813186
1.669419593999919,0.2627106227106227,0.30058608058608055,0.09186813186813186
1.6782676619986887,0.2627106227106227,0.30058608058608055,0.09186813186813186
1.68571922800038,0.2627106227106227,0.30058608058608055,0.09186813186813186
1.6949920490005752,0.25787545787545785,0.10717948717948718,0.11282051282051282
1.7029273540028953,0.25787545787545785,0.10717948717948718,0.11282051282051282
1.71096210199903,0.25787545787545785,0.10717948717948718,0.11282051282051282
1.7194539549964247,0.1402197802197802,0.2361172161172161,0.2804395604395604
1.7286100190030993,0.6825641025641025,0.34007326007326005,0.047545787545787546
1.7369071529974462,0.5624908424908425,0.4287179487179487,0.36827838827838827
1.7455225529993186,1.1273992673992674,0.7978021978021977,0.32717948717948714
1.753130325996608,0.5391208791208791,0.5778021978021978,0.08703296703296703
1.760401567997178,0.5391208791208791,0.5778021978021978,0.08703296703296703
1.7665525170014007,0.5391208791208791,0.5778021978021978,0.08703296703296703
1.771482076997927,0.5882783882783883,0.6205128205128204,0.09025641025641025
1.7810433720005676,0.5882783882783883,0.6205128205128204,0.09025641025641025
1.7923007010031142,0.0,0.052380952380952375,0.35619047619047617
1.8038401279991376,0.585054945054945,0.42388278388278383,0.38036630036630037
1.8149335839989362,0.0,0.03465201465201465,0.3602197802197802
1.824405155995919,0.0,0.03465201465201465,0.3602197802197802
1.8362406129963347,0.0,0.03465201465201465,0.3602197802197802
1.8489823889976833,0.0,0.03465201465201465,0.3602197802197802
1.8624726440029917,0.7486446886446886,0.5141391941391941,0.39567765567765567
1.8794705769978464,0.7486446886446886,0.5141391941391941,0.39567765567765567
1.879893188001006,0.7486446886446886,0.5141391941391941,0.39567765567765567
1.8913319139974192,0.7486446886446886,0.5141391941391941,0.39567765567765567
1.9019370940004592,0.7486446886446886,0.5141391941391941,0.39567765567765567
1.9134389250029926,0.7486446886446886,0.5141391941391941,0.39567765567765567
1.9273168910003733,0.7357509157509158,0.4867399267399267,0.4391941391941392
1.9413018959967303,0.028205128205128206,0.12893772893772892,0.24417582417582417
1.9546654840014526,0.0,0.04351648351648352,0.34007326007326005
1.9694434940029169,0.0,0.04351648351648352,0.34007326007326005
1.984287981998932,1.0331135531135531,0.7188278388278388,1.6326739926739926
1.9993627750009182,1.0331135531135531,0.7188278388278388,1.6326739926739926
1.9997551810010918,0.09025641025641025,0.17245421245421244,0.2506227106227106
2.0138933939961134,0.09025641025641025,0.17245421245421244,0.2506227106227106
2.030138825000904,0.12168498168498168,0.24901098901098898,0.6205128205128204
2.045266150998941,0.12168498168498168,0.24901098901098898,0.6205128205128204
2.0614612639983534,0.12168498168498168,0.24901098901098898,0.6205128205128204
2.076489234001201,0.12168498168498168,0.24901098901098898,0.6205128205128204
2.091488890000619,0.28124542124542123,0.25545787545787546,0.2925274725274725
2.091901539999526,0.28124542124542123,0.25545787545787546,0.2925274725274725
2.0984238759992877,0.28124542124542123,0.25545787545787546,0.2925274725274725
2.103285621997202,0.0,0.045128205128205125,0.2747985347985348
2.108095454001159,0.0,0.045128205128205125,0.2747985347985348
2.1142104500031564,0.0,0.045128205128205125,0.2747985347985348
2.119051893998403,1.0298901098901099,0.5697435897435897,0.26754578754578756
2.1250806559983175,1.0298901098901099,0.5697435897435897,0.26754578754578756
2.1299044050028897,0.7051282051282051,0.6608058608058608,0.2087179487179487
2.142421008000383,0.7051282051282051,0.6608058608058608,0.2087179487179487
2.1524426760006463,0.5786080586080585,0.5479853479853479,0.14586080586080585
2.1600456410014885,0.5786080586080585,0.5479853479853479,0.14586080586080585
2.166156876999594,0.5786080586080585,0.5479853479853479,0.14586080586080585
2.1709576360008214,0.5786080586080585,0.5479853479853479,0.14586080586080585
2.1783523690028233,0.8364835164835164,0.46820512820512816,1.6262271062271063
2.1844956709974213,0.8364835164835164,0.46820512820512816,1.6262271062271063
2.1893635200030985,0.90014652014652,0.585054945054945,1.4102564102564101
2.195330634000129,0.90014652014652,0.585054945054945,1.4102564102564101
2.201362344996596,0.747032967032967,0.3755311355311355,0.09267399267399268
2.2074234730025637,0.747032967032967,0.3755311355311355,0.09267399267399268
2.2130148139985977,0.747032967032967,0.3755311355311355,0.09267399267399268
2.2131660590021056,0.747032967032967,0.3755311355311355,0.09267399267399268
2.219292765999853,0.747032967032967,0.3755311355311355,0.09267399267399268
2.224084187997505,0.0,0.024175824175824173,0.29655677655677654
2.2301714459972573,0.0,0.024175824175824173,0.29655677655677654
2.234919144997548,0.6575824175824176,0.4553113553113553,1.4569963369963368
2.2433862120014965,0.00967032967032967,0.03706959706959707,0.38681318681318677
2.2507949659993756,0.2909157509157509,0.16842490842490843,0.5044688644688645
2.256892751000123,0.2909157509157509,0.16842490842490843,0.5044688644688645
2.2618082639964996,0.0,0.03304029304029304,0.31347985347985347
2.267775549000362,0.0,0.03304029304029304,0.31347985347985347
2.2725039009965258,0.0,0.03304029304029304,0.31347985347985347
2.279855337998015,0.0,0.03304029304029304,0.31347985347985347
2.285907509001845,0.0,0.03304029304029304,0.31347985347985347
2.2906535279980744,0.0,0.03304029304029304,0.31347985347985347
2.2978820970020024,0.34087912087912087,0.2925274725274725,0.27641025641025635
2.3039868679989013,0.34087912087912087,0.2925274725274725,0.27641025641025635
2.3087536730017746,0.34087912087912087,0.2925274725274725,0.27641025641025635
2.3159675279966905,0.6487179487179486,0.36666666666666664,0.4085714285714286
2.3219896299997345,0.6487179487179486,0.36666666666666664,0.4085714285714286
2.326787890997366,0.6487179487179486,0.36666666666666664,0.4085714285714286
2.332858916997793,0.7373626373626374,0.6519413919413919,0.22886446886446887
2.337668013999064,0.7373626373626374,0.6519413919413919,0.22886446886446887
2.345000927998626,0.7373626373626374,0.6519413919413919,0.22886446886446887
2.351104036999459,1.1201465201465202,0.6043956043956044,1.7277655677655677
2.3558799029997317,1.1201465201465202,0.6043956043956044,1.7277655677655677
2.3645672100028605,1.1201465201465202,0.6043956043956044,1.7277655677655677
2.371803923997504,0.03223443223443223,0.23934065934065935,0.684981684981685
2.3777719179997803,0.03223443223443223,0.23934065934065935,0.684981684981685
2.3849578559966176,0.03223443223443223,0.23934065934065935,0.684981684981685
2.3909353299968643,0.03223443223443223,0.23934065934065935,0.684981684981685
2.395579030002409,0.03223443223443223,0.23934065934065935,0.684981684981685
2.4039519790021586,0.03223443223443223,0.23934065934065935,0.684981684981685
2.41119419199822,0.27882783882783885,0.3384615384615384,1.1652747252747253
2.4171701180021046,0.27882783882783885,0.3384615384615384,1.1652747252747253
2.42309761299839,0.9339926739926739,0.47142857142857136,0.5181684981684981
2.4302089830016484,0.07897435897435898,0.15472527472527473,0.311062271062271
2.4361805860025925,0.6873992673992674,0.4472527472527472,0.7567032967032966
2.442135919998691,0.6873992673992674,0.4472527472527472,0.7567032967032966
2.449288310999691,0.6873992673992674,0.4472527472527472,0.7567032967032966
2.4552792410031543,0.8163369963369963,0.47062271062271055,2.1919413919413917
2.4613687899982324,1.0153846153846153,0.4810989010989011,0.701098901098901
2.466080015998159,1.0153846153846153,0.4810989010989011,0.701098901098901
2.4662448820017744,1.0153846153846153,0.4810989010989011,0.701098901098901
2.4734627489960985,1.0153846153846153,0.4810989010989011,0.701098901098901
2.4796325200004503,1.0153846153846153,0.4810989010989011,0.701098901098901
2.4843796790009947,1.0153846153846153,0.4810989010989011,0.701098901098901
2.4916059509996558,1.0153846153846153,0.4810989010989011,0.701098901098901
2.497682765002537,1.0153846153846153,0.4810989010989011,0.701098901098901
2.5024897979965317,1.0153846153846153,0.4810989010989011,0.701098901098901
2.508503003002261,0.5431501831501832,0.21032967032967032,0.5769963369963369
2.514599239002564,0.5431501831501832,0.21032967032967032,0.5769963369963369
2.5193995399968117,0.15311355311355312,0.10717948717948718,0.21435897435897436
2.5267754349988536,0.15311355311355312,0.10717948717948718,0.21435897435897436
2.532901218000916,0.15311355311355312,0.10717948717948718,0.21435897435897436
2.5377840689980076,0.15311355311355312,0.10717948717948718,0.21435897435897436
2.5425893509964226,0.15311355311355312,0.10717948717948718,0.21435897435897436
2.549896461998287,1.0564835164835162,0.6446886446886446,2.598095238095238
2.5559705330015277,0.224029304029304,0.2651282051282051,0.6229304029304029
2.560969924001256,0.224029304029304,0.2651282051282051,0.6229304029304029
2.565672974997142,0.224029304029304,0.2651282051282051,0.6229304029304029
2.5741874289960833,0.224029304029304,0.2651282051282051,0.6229304029304029
2.5815037669963203,0.224029304029304,0.2651282051282051,0.6229304029304029
2.5876378559987643,0.224029304029304,0.2651282051282051,0.6229304029304029
2.5925442130028387,0.7575091575091575,0.4754578754578754,1.1282051282051282
2.598506975999044,0.7575091575091575,0.4754578754578754,1.1282051282051282
2.605745428998489,0.7575091575091575,0.4754578754578754,1.1282051282051282
2.611803826999676,0.7575091575091575,0.4754578754578754,1.1282051282051282
2.6165749339998,0.0,0.24739926739926738,0.9025641025641026
2.6251115940031013,0.0,0.24739926739926738,0.9025641025641026
2.632367181999143,0.0,0.24739926739926738,0.9025641025641026
2.638441574999888,0.0,0.24739926739926738,0.9025641025641026
2.643289695995918,0.23208791208791207,0.10315018315018315,0.9855677655677655
2.649340502997802,0.23208791208791207,0.10315018315018315,0.9855677655677655
2.6554300540010445,1.2466666666666666,0.6511355311355311,2.573919413919414
2.6604520469991257,1.0484249084249082,0.5084981684981685,0.5971428571428571
2.6652599559965893,1.0484249084249082,0.5084981684981685,0.5971428571428571
2.6726874640007736,1.0484249084249082,0.5084981684981685,0.5971428571428571
2.6787898159964243,1.0484249084249082,0.5084981684981685,0.5971428571428571
2.6837818439962575,1.0484249084249082,0.5084981684981685,0.5971428571428571
2.687902199999371,1.0484249084249082,0.5084981684981685,0.5971428571428571
2.6914656099979766,1.0484249084249082,0.5084981684981685,0.5971428571428571
2.697550876000605,1.0484249084249082,0.5084981684981685,0.5971428571428571
2.7035925449963543,1.0484249084249082,0.5084981684981685,0.5971428571428571
2.7084541770018404,1.0484249084249082,0.5084981684981685,0.5971428571428571
2.7133640909960377,1.0484249084249082,0.5084981684981685,0.5971428571428571
2.7181317310023587,1.0484249084249082,0.5084981684981685,0.5971428571428571
2.7229464600022766,1.0484249084249082,0.5084981684981685,0.5971428571428571
2.7289879899981315,1.0484249084249082,0.5084981684981685,0.5971428571428571
2.733804090996273,1.0484249084249082,0.5084981684981685,0.5971428571428571
2.7411169659972074,1.0484249084249082,0.5084981684981685,0.5971428571428571
2.7472012899961555,1.0484249084249082,0.5084981684981685,0.5971428571428571
2.7524063250020845,0.19743589743589743,0.23531135531135527,0.23853479853479853
2.754834517996642,0.9662271062271062,0.5044688644688645,1.2635897435897436
2.7622897760011256,0.9662271062271062,0.5044688644688645,1.2635897435897436
2.768336729997827,0.581025641025641,0.7421978021978022,0.1676190476190476
2.7742579219993786,0.581025641025641,0.7421978021978022,0.1676190476190476
2.7814585200030706,0.581025641025641,0.7421978021978022,0.1676190476190476
2.7875690319997375,0.581025641025641,0.7421978021978022,0.1676190476190476
2.7923213969988865,0.6398534798534798,0.4166300366300366,0.25384615384615383
2.7982899749986245,0.32798534798534795,0.38278388278388276,0.8098901098901098
2.805403808997653,0.24498168498168496,0.1265201465201465,0.41018315018315016
2.81136429199978,0.24498168498168496,0.1265201465201465,0.41018315018315016
2.817306737000763,0.904981684981685,0.43999999999999995,1.157216117216117
2.822083250997821,0.025787545787545788,0.05318681318681319,0.3723076923076923
2.8292165660022874,0.025787545787545788,0.05318681318681319,0.3723076923076923
2.8352298739991966,0.31347985347985347,0.25787545787545785,0.25868131868131866
2.840046783996513,0.31347985347985347,0.25787545787545785,0.25868131868131866
2.8481638750017737,0.31347985347985347,0.25787545787545785,0.25868131868131866
2.8543235120014288,0.31347985347985347,0.25787545787545785,0.25868131868131866
2.8590941340007703,0.10234432234432234,0.1104029304029304,0.2772161172161172
2.8666972639985033,1.2917948717948717,0.6342124542124542,1.1273992673992674
2.8728751899980125,1.2917948717948717,0.6342124542124542,1.1273992673992674
2.8777428199973656,1.2917948717948717,0.6342124542124542,1.1273992673992674
2.883876744999725,1.2917948717948717,0.6342124542124542,1.1273992673992674
2.8888271059986437,0.4037362637362637,0.4810989010989011,0.07333333333333333
2.893620415998157,0.4037362637362637,0.4810989010989011,0.07333333333333333
2.899720374000026,0.4037362637362637,0.4810989010989011,0.07333333333333333
2.9045954839966726,0.4037362637362637,0.4810989010989011,0.07333333333333333
2.9093787320016418,0.12329670329670328,0.14505494505494507,0.31186813186813184
2.9167493200002355,0.12329670329670328,0.14505494505494507,0.31186813186813184
2.9231529660028173,0.12329670329670328,0.14505494505494507,0.31186813186813184
2.928729186001874,0.12329670329670328,0.14505494505494507,0.31186813186813184
2.9290087319968734,0.7196336996336996,0.4528937728937729,0.3078388278388278
2.936329541997111,0.7196336996336996,0.4528937728937729,0.3078388278388278
2.942368791998888,0.7196336996336996,0.4528937728937729,0.3078388278388278
2.9483659629986505,0.7196336996336996,0.4528937728937729,0.3078388278388278
2.9555992429959588,0.2232234432234432,0.2224175824175824,0.27399267399267396
2.9619110240018927,0.2232234432234432,0.2224175824175824,0.27399267399267396
2.9666894729962223,0.0701098901098901,0.11684981684981684,0.4810989010989011
2.975318798002263,0.0701098901098901,0.11684981684981684,0.4810989010989011
2.982560044998536,0.8864468864468864,0.4512820512820513,1.2837362637362637
2.9887115329984226,0.8864468864468864,0.4512820512820513,1.2837362637362637
2.9935641440024483,0.3795604395604395,0.27882783882783885,0.3158974358974359
2.999655517996871,0.3795604395604395,0.27882783882783885,0.3158974358974359
3.0073194349970436,0.3795604395604395,0.27882783882783885,0.3158974358974359
3.0168394959982834,0.3795604395604395,0.27882783882783885,0.3158974358974359
3.023817749002774,0.7623443223443224,0.4448351648351648,1.315970695970696
3.0306100789966877,0.7623443223443224,0.4448351648351648,1.315970695970696
3.0397871250024764,0.7623443223443224,0.4448351648351648,1.315970695970696
3.048539048002567,0.7623443223443224,0.4448351648351648,1.315970695970696
3.05942837800103,0.5447619047619047,0.4158241758241758,0.23531135531135527
3.0670016489966656,0.5447619047619047,0.4158241758241758,0.23531135531135527
3.0731294249999337,0.5447619047619047,0.4158241758241758,0.23531135531135527
3.078057958999125,1.0484249084249082,0.6745054945054945,0.7897435897435897
3.0843256849984755,1.0484249084249082,0.6745054945054945,0.7897435897435897
3.0887842410011217,0.6720879120879121,0.8767765567765567,0.6285714285714284
3.08898192000197,0.10476190476190475,0.20388278388278389,0.27399267399267396
3.098694866996084,0.10476190476190475,0.20388278388278389,0.27399267399267396
3.111296406998008,0.10476190476190475,0.20388278388278389,0.27399267399267396
3.127297708997503,0.4851282051282051,0.5769963369963369,0.6390476190476191
3.1276442349990248,0.4851282051282051,0.5769963369963369,0.6390476190476191
3.1362706139989314,0.4851282051282051,0.5769963369963369,0.6390476190476191
3.149740070999542,0.4851282051282051,0.5769963369963369,0.6390476190476191
3.1639823209989117,0.0,0.05802197802197802,0.35135531135531134
3.1732672220023233,0.0,0.05802197802197802,0.35135531135531134
3.1854348549968563,0.0,0.05802197802197802,0.35135531135531134
3.1982810810004594,0.0,0.05802197802197802,0.35135531135531134
3.2074327520022052,0.0,0.05802197802197802,0.35135531135531134
3.2183679430017946,0.0,0.05802197802197802,0.35135531135531134
3.2302064089963096,0.0,0.195018315018315,0.5004395604395604
3.2394110890018055,0.0,0.195018315018315,0.5004395604395604
3.2490364120021695,0.0,0.195018315018315,0.5004395604395604
3.2572462120006094,0.2175824175824176,0.12329670329670328,0.06043956043956044
3.2653848900008597,0.2175824175824176,0.12329670329670328,0.06043956043956044
3.2717814639981952,0.2175824175824176,0.12329670329670328,0.06043956043956044
3.2784051049966365,0.2175824175824176,0.12329670329670328,0.06043956043956044
3.283587420999538,0.01934065934065934,0.06285714285714286,0.6172893772893773
3.2861900400021113,0.01934065934065934,0.06285714285714286,0.6172893772893773
3.2940390200019465,0.01934065934065934,0.06285714285714286,0.6172893772893773
3.299675713002216,0.01934065934065934,0.06285714285714286,0.6172893772893773
3.307485899000312,0.01934065934065934,0.06285714285714286,0.6172893772893773
3.315479933997267,0.01934065934065934,0.06285714285714286,0.6172893772893773
3.3219146159972297,0.01934065934065934,0.06285714285714286,0.6172893772893773
3.3284191689963336,0.11604395604395604,0.14102564102564102,0.47706959706959706
3.3339672989968676,0.11604395604395604,0.14102564102564102,0.47706959706959706
3.343963806000829,0.11604395604395604,0.14102564102564102,0.47706959706959706
3.353308919999108,1.1588278388278386,0.7438095238095238,1.6898901098901096
3.3647783510023146,1.1588278388278386,0.7438095238095238,1.6898901098901096
3.373684134996438,0.0,0.07333333333333333,0.5238095238095237
3.382785194000462,0.0,0.07333333333333333,0.5238095238095237
3.3904942969966214,0.6688644688644688,0.42388278388278383,0.9468864468864467
3.3992835269964417,0.7518681318681318,0.8163369963369963,0.8219780219780219
3.407279972998367,0.0,0.195018315018315,0.5399267399267399
3.4191377259994624,0.834065934065934,0.5568498168498168,1.0065201465201465
3.4288392750022467,0.07655677655677656,0.3352380952380952,1.0178021978021978
3.435561480000615,0.07655677655677656,0.3352380952380952,1.0178021978021978
3.4407621799982735,0.9678388278388278,0.5568498168498168,2.2838095238095235
3.442301821996807,0.9678388278388278,0.5568498168498168,2.2838095238095235
3.448706178001885,0.9678388278388278,0.5568498168498168,2.2838095238095235
3.4537889810017077,0.361025641025641,0.3287912087912088,0.5375091575091575
3.4593988740016357,0.361025641025641,0.3287912087912088,0.5375091575091575
3.4694039129972225,0.361025641025641,0.3287912087912088,0.5375091575091575
3.481801018002443,0.361025641025641,0.3287912087912088,0.5375091575091575
3.4903991550017963,0.17003663003663003,0.05399267399267399,0.904981684981685
3.5027838699970744,0.5197802197802197,0.4254945054945055,0.6535531135531135
3.515201870002784,1.2515018315018314,0.70996336996337,0.8743589743589744
3.528434104999178,1.2515018315018314,0.70996336996337,0.8743589743589744
3.5375626769964583,1.2515018315018314,0.70996336996337,0.8743589743589744
3.5468310340002063,0.14586080586080585,0.08139194139194139,0.08542124542124542
3.553659589997551,0.14586080586080585,0.08139194139194139,0.08542124542124542
3.562594632996479,0.14586080586080585,0.08139194139194139,0.08542124542124542
3.5677497150027193,0.14586080586080585,0.08139194139194139,0.08542124542124542
3.569154983997578,0.36344322344322344,0.3183150183150183,0.5068864468864469
3.580836665001698,0.36344322344322344,0.3183150183150183,0.5068864468864469
3.5900034709993633,1.0580952380952382,0.5987545787545787,2.0726739926739923
3.600624776998302,1.0580952380952382,0.5987545787545787,2.0726739926739923
3.611356651003007,1.0580952380952382,0.5987545787545787,2.0726739926739923
3.6251268880005227,1.0580952380952382,0.5987545787545787,2.0726739926739923
3.6346427660027985,1.0580952380952382,0.5987545787545787,2.0726739926739923
3.643661094996787,0.3312087912087912,0.10476190476190475,0.9057875457875458
3.650991893002356,0.3312087912087912,0.10476190476190475,0.9057875457875458
3.659585162997246,0.9597802197802198,0.5624908424908425,0.9235164835164835
3.6698331849984243,0.9597802197802198,0.5624908424908425,0.9235164835164835
3.6793176220016903,0.9597802197802198,0.5624908424908425,0.9235164835164835
3.6889283249984146,0.9597802197802198,0.5624908424908425,0.9235164835164835
3.6988759390005725,0.04029304029304029,0.1821245421245421,0.38681318681318677
3.7108656679993146,1.4618315018315018,0.8945054945054944,0.9017582417582416
3.721196370999678,1.4618315018315018,0.8945054945054944,0.9017582417582416
3.733241652000288,1.4618315018315018,0.8945054945054944,0.9017582417582416
3.7455772179964697,1.4618315018315018,0.8945054945054944,0.9017582417582416
3.754544060997432,0.05318681318681319,0.07413919413919413,0.5157509157509157
3.765995722998923,0.05318681318681319,0.07413919413919413,0.5157509157509157
3.77505697900051,0.05318681318681319,0.07413919413919413,0.5157509157509157
3.7845235130007495,0.045128205128205125,0.16358974358974357,0.23208791208791207
3.796345985996595,0.045128205128205125,0.16358974358974357,0.23208791208791207
3.8038396109986934,0.5592673992673992,0.3932600732600733,0.6954578754578754
3.812175881997973,0.1104029304029304,0.2715750915750916,0.8864468864468864
3.817523263998737,0.1104029304029304,0.2715750915750916,0.8864468864468864
3.817791273999319,0.1104029304029304,0.2715750915750916,0.8864468864468864
3.8297126609977568,0.1104029304029304,0.2715750915750916,0.8864468864468864
3.839781326998491,0.1104029304029304,0.2715750915750916,0.8864468864468864
3.850232306998805,0.1104029304029304,0.2715750915750916,0.8864468864468864
3.8635848600024474,0.39890109890109887,0.3553846153846154,0.5350915750915751
3.874422312997922,0.39890109890109887,0.3553846153846154,0.5350915750915751
3.8849757499992847,0.39890109890109887,0.3553846153846154,0.5350915750915751
3.895167294998828,0.39890109890109887,0.3553846153846154,0.5350915750915751
3.902879397996003,0.39890109890109887,0.3553846153846154,0.5350915750915751
3.9099228830018546,0.39890109890109887,0.3553846153846154,0.5350915750915751
3.915649451999343,0.39890109890109887,0.3553846153846154,0.5350915750915751
3.923382759996457,0.28769230769230764,0.04915750915750916,0.9315750915750916
3.9308998030028306,0.28769230769230764,0.04915750915750916,0.9315750915750916
3.9374254400026985,0.6132600732600733,0.7019047619047618,0.826007326007326
3.943319985002745,0.6132600732600733,0.7019047619047618,0.826007326007326
3.950645566001185,0.4504761904761904,0.4810989010989011,0.5834432234432234
3.957620371002122,0.8904761904761904,0.5786080586080585,0.8695238095238095
3.9641277589980746,0.8904761904761904,0.5786080586080585,0.8695238095238095
3.969646539000678,0.8904761904761904,0.5786080586080585,0.8695238095238095
3.9699132759997156,0.8904761904761904,0.5786080586080585,0.8695238095238095
3.977625013998477,0.8904761904761904,0.5786080586080585,0.8695238095238095
3.9838454040000215,0.0,0.2087179487179487,0.5898901098901098
3.9888244519970613,0.0,0.2087179487179487,0.5898901098901098
3.9957911189994775,0.365054945054945,0.332014652014652,0.46498168498168496
4.000971296998614,1.2523076923076921,0.6108424908424909,2.258827838827839
4.004973449998943,1.2523076923076921,0.6108424908424909,2.258827838827839
4.007763369001623,1.2523076923076921,0.6108424908424909,2.258827838827839
4.014479994002613,0.5842490842490843,0.43355311355311354,0.6398534798534798
4.019596238998929,0.5842490842490843,0.43355311355311354,0.6398534798534798
4.025088804999541,0.5842490842490843,0.43355311355311354,0.6398534798534798
4.025310910998087,0.5842490842490843,0.43355311355311354,0.6398534798534798
4.033598584996071,0.5842490842490843,0.43355311355311354,0.6398534798534798
4.044492699002149,0.7824908424908424,0.38681318681318677,1.3506227106227104
4.052745945002243,0.17406593406593407,0.13619047619047617,0.05641025641025641
4.061862034999649,0.1418315018315018,0.2087179487179487,0.32556776556776557
4.069762318998983,0.1418315018315018,0.2087179487179487,0.32556776556776557
4.079059552001127,0.1418315018315018,0.2087179487179487,0.32556776556776557
4.086008664002293,0.6567765567765567,0.4496703296703296,0.42952380952380953
4.093314136000117,0.07655677655677656,0.2345054945054945,0.5125274725274725
4.0993766600004165,0.8703296703296703,0.5649084249084249,1.987252747252747
4.104472056002123,0.8703296703296703,0.5649084249084249,1.987252747252747
4.108470514998771,0.7494505494505495,0.85018315018315,0.6003663003663003
4.112521606999508,0.14747252747252745,0.2224175824175824,0.2949450549450549
4.116598005995911,0.14747252747252745,0.2224175824175824,0.2949450549450549
4.1180697649979265,0.14747252747252745,0.2224175824175824,0.2949450549450549
4.133349703995918,0.14747252747252745,0.2224175824175824,0.2949450549450549
4.148304549999011,0.0838095238095238,0.24659340659340656,0.581025641025641
4.160797705997538,0.0838095238095238,0.24659340659340656,0.581025641025641
4.168941800999164,0.0838095238095238,0.24659340659340656,0.581025641025641
4.175940230998094,0.0838095238095238,0.24659340659340656,0.581025641025641
4.182059033002588,0.0838095238095238,0.24659340659340656,0.581025641025641
4.187445554998703,0.0838095238095238,0.24659340659340656,0.581025641025641
4.187805531000777,0.0838095238095238,0.24659340659340656,0.581025641025641
4.201651925002807,0.0838095238095238,0.24659340659340656,0.581025641025641
4.216605405003065,0.018534798534798533,0.0410989010989011,0.5697435897435897
4.232507385000645,0.018534798534798533,0.0410989010989011,0.5697435897435897
4.249817031995917,0.018534798534798533,0.0410989010989011,0.5697435897435897
4.266447278998385,0.018534798534798533,0.0410989010989011,0.5697435897435897
4.266835340000398,0.018534798534798533,0.0410989010989011,0.5697435897435897
4.277014968996809,0.018534798534798533,0.0410989010989011,0.5697435897435897
4.286252477002563,0.018534798534798533,0.0410989010989011,0.5697435897435897
4.29520201899868,0.19340659340659339,0.12571428571428572,0.07172161172161172
4.302591211999243,0.8566300366300367,0.5495970695970696,2.024322344322344
4.309250070000417,0.8566300366300367,0.5495970695970696,2.024322344322344
4.316030255002261,0.8566300366300367,0.5495970695970696,2.024322344322344
4.324371422997501,1.1104761904761904,0.6035897435897435,2.24996336996337
4.333482928996091,1.1104761904761904,0.6035897435897435,2.24996336996337
4.343479472001491,1.1104761904761904,0.6035897435897435,2.24996336996337
4.351457739001489,1.1104761904761904,0.6035897435897435,2.24996336996337
4.359026264995919,1.1104761904761904,0.6035897435897435,2.24996336996337
4.367607230997237,1.1104761904761904,0.6035897435897435,2.24996336996337
4.373831609998888,0.14505494505494507,0.18937728937728937,0.3505494505494505
4.3801958479962195,0.0,0.22967032967032966,0.6543589743589743
4.385313733997464,0.0,0.22967032967032966,0.6543589743589743
4.388002922998567,0.0,0.22967032967032966,0.6543589743589743
4.395342484996945,0.12329670329670328,0.1958241758241758,0.3167032967032967
4.404783908001264,0.12329670329670328,0.1958241758241758,0.3167032967032967
4.416841840000416,0.8034432234432234,0.5205860805860806,0.7937728937728937
4.425418767001247,0.8034432234432234,0.5205860805860806,0.7937728937728937
4.43358607099799,1.187032967032967,0.759120879120879,1.987252747252747
4.446399784996174,1.187032967032967,0.759120879120879,1.987252747252747
4.458133909996832,0.5068864468864469,0.10798534798534798,1.0645421245421245
4.469861284997023,0.5068864468864469,0.10798534798534798,1.0645421245421245
4.483175674002268,0.5068864468864469,0.10798534798534798,1.0645421245421245
4.497151479998138,0.0,0.19663003663003664,0.6164835164835165
4.5089580089988885,0.0,0.19663003663003664,0.6164835164835165
4.5092357800022,0.0,0.19663003663003664,0.6164835164835165
4.51746174699656,0.0,0.19663003663003664,0.6164835164835165
4.524614797999675,0.0,0.19663003663003664,0.6164835164835165
4.531404718996782,0.0,0.19663003663003664,0.6164835164835165
4.537912036998023,0.0,0.19663003663003664,0.6164835164835165
4.544203539000591,0.048351648351648346,0.0556043956043956,0.5592673992673992
4.548880107999139,0.4005128205128205,0.40937728937728934,0.4964102564102564
4.557166737002262,0.4005128205128205,0.40937728937728934,0.4964102564102564
4.568273445001978,1.3659340659340657,0.9098168498168498,0.8058608058608058
4.580756237999594,1.494065934065934,0.7913553113553113,1.8276923076923077
4.592240154001047,1.494065934065934,0.7913553113553113,1.8276923076923077
4.602255805002642,1.494065934065934,0.7913553113553113,1.8276923076923077
4.612996718999057,0.0419047619047619,0.03465201465201465,0.39487179487179486
4.620984039000177,0.0,0.14505494505494507,0.33926739926739924
4.629008851996332,0.0,0.14505494505494507,0.33926739926739924
4.634360727002786,0.0,0.14505494505494507,0.33926739926739924
4.63479964799626,0.0,0.14505494505494507,0.33926739926739924
4.646380689002399,0.0,0.14505494505494507,0.33926739926739924
4.652727089996915,0.0,0.06043956043956044,0.40534798534798533
4.657803718997457,0.0,0.06043956043956044,0.40534798534798533
4.661346285996842,0.3336263736263736,0.06285714285714286,0.8542124542124543
4.668078998998681,0.0,0.07172161172161172,0.27318681318681315
4.673445314998389,0.0,0.07172161172161172,0.27318681318681315
4.67379874499602,0.958974358974359,0.5254212454212454,1.8091575091575092
4.683145816001343,0.958974358974359,0.5254212454212454,1.8091575091575092
4.693582957996114,0.958974358974359,0.5254212454212454,1.8091575091575092
4.701954778996878,0.14666666666666667,0.195018315018315,0.30622710622710625
4.708938515002956,0.14666666666666667,0.195018315018315,0.30622710622710625
4.7148282720008865,0.14666666666666667,0.195018315018315,0.30622710622710625
4.719978415996593,0.14666666666666667,0.195018315018315,0.30622710622710625
4.722558397996181,0.14666666666666667,0.195018315018315,0.30622710622710625
4.731475610999041,0.14666666666666667,0.195018315018315,0.30622710622710625
4.741439723999065,0.755091575091575,0.48835164835164835,0.6350183150183151
4.750887365000381,0.755091575091575,0.48835164835164835,0.6350183150183151
4.757967236000695,0.755091575091575,0.48835164835164835,0.6350183150183151
4.766979681997327,0.755091575091575,0.48835164835164835,0.6350183150183151
4.775911386001098,0.755091575091575,0.48835164835164835,0.6350183150183151
4.781586213997798,0.755091575091575,0.48835164835164835,0.6350183150183151
4.794625927999732,0.755091575091575,0.48835164835164835,0.6350183150183151
4.803238148000673,0.755091575091575,0.48835164835164835,0.6350183150183151
4.813072767996346,0.755091575091575,0.48835164835164835,0.6350183150183151
4.820924621999438,0.755091575091575,0.48835164835164835,0.6350183150183151
4.82795163999981,1.1016117216117214,0.6938461538461538,0.7849084249084248
4.833229809999466,1.1016117216117214,0.6938461538461538,0.7849084249084248
4.834576294000726,1.1016117216117214,0.6938461538461538,0.7849084249084248
4.845247363002272,1.1016117216117214,0.6938461538461538,0.7849084249084248
4.853356446001271,0.0,0.05963369963369963,0.31347985347985347
4.860777813002642,0.0,0.05963369963369963,0.31347985347985347
4.866137436998542,0.0,0.05963369963369963,0.31347985347985347
4.866287113996805,0.0,0.05963369963369963,0.31347985347985347
4.873938992997864,0.0,0.05963369963369963,0.31347985347985347
4.885114425997017,0.0,0.05963369963369963,0.31347985347985347
4.897360278002452,0.0,0.05963369963369963,0.31347985347985347
4.909345273001236,0.0,0.05963369963369963,0.31347985347985347
4.918891613000596,0.0,0.05963369963369963,0.31347985347985347
4.932007805997273,0.0,0.05963369963369963,0.31347985347985347
4.9455640300002415,0.6664468864468864,0.5084981684981685,1.6205860805860803
4.955207587001496,0.11926739926739927,0.051575091575091575,0.6213186813186813
4.965398551001272,0.11926739926739927,0.051575091575091575,0.6213186813186813
4.973405618002289,0.11926739926739927,0.051575091575091575,0.6213186813186813
4.981602551997639,0.11926739926739927,0.051575091575091575,0.6213186813186813
4.988034690999484,0.11926739926739927,0.051575091575091575,0.6213186813186813
4.994417451998743,0.11926739926739927,0.051575091575091575,0.6213186813186813
4.999537707000854,0.11926739926739927,0.051575091575091575,0.6213186813186813
5.004564809001749,0.11926739926739927,0.051575091575091575,0.6213186813186813
5.008851042002789,0.024175824175824173,0.06608058608058608,0.3344322344322344
5.009166304997052,0.024175824175824173,0.06608058608058608,0.3344322344322344
5.018404497997835,0.024175824175824173,0.06608058608058608,0.3344322344322344
5.028552242998558,0.024175824175824173,0.06608058608058608,0.3344322344322344
5.038212655999814,1.4046153846153846,0.7824908424908424,1.8494505494505493
5.047931332002918,1.4046153846153846,0.7824908424908424,1.8494505494505493
5.059203871998761,1.4046153846153846,0.7824908424908424,1.8494505494505493
5.067607586999657,1.4046153846153846,0.7824908424908424,1.8494505494505493
5.076142165999045,0.09912087912087912,0.2756043956043956,0.6189010989010989
5.083217557003081,0.09912087912087912,0.2756043956043956,0.6189010989010989
5.089885659996071,0.9388278388278387,0.7083516483516483,1.7954578754578752
5.096152040998277,0.10476190476190475,0.17406593406593407,0.24578754578754577
5.101396300997294,0.10476190476190475,0.17406593406593407,0.24578754578754577
5.101786503997573,1.0645421245421245,0.697069597069597,1.8953846153846152
5.1108207360011875,1.0645421245421245,0.697069597069597,1.8953846153846152
5.118391367002914,1.0645421245421245,0.697069597069597,1.8953846153846152
5.126565061997098,1.0645421245421245,0.697069597069597,1.8953846153846152
5.133254956002929,1.0645421245421245,0.697069597069597,1.8953846153846152
5.138349159002246,1.0645421245421245,0.697069597069597,1.8953846153846152
5.14428602100088,0.78007326007326,0.5447619047619047,0.792967032967033
5.150662581996585,0.78007326007326,0.5447619047619047,0.792967032967033
5.155925443999877,0.10717948717948718,0.18937728937728937,0.28930402930402926
5.1562700790018425,0.10717948717948718,0.18937728937728937,0.28930402930402926
5.166760478998185,0.10717948717948718,0.18937728937728937,0.28930402930402926
5.175226302002557,0.10717948717948718,0.18937728937728937,0.28930402930402926
5.182538196997484,0.10717948717948718,0.18937728937728937,0.28930402930402926
5.189126003002457,0.10717948717948718,0.18937728937728937,0.28930402930402926
5.196739810002327,0.24578754578754577,0.27238095238095233,0.3424908424908425
5.2018563259989605,0.5882783882783883,0.3578021978021978,0.32153846153846155
5.205674860000727,0.5882783882783883,0.3578021978021978,0.32153846153846155
5.214732991997153,0.5882783882783883,0.3578021978021978,0.32153846153846155
5.222871275997022,0.5882783882783883,0.3578021978021978,0.32153846153846155
5.230831036999007,0.5882783882783883,0.3578021978021978,0.32153846153846155
5.237244591997296,0.4126007326007326,0.3344322344322344,0.49076923076923074
5.242954032997659,0.8453479853479853,0.4794871794871795,0.46498168498168496
5.243248414997652,0.8453479853479853,0.4794871794871795,0.46498168498168496
5.2500827129988465,0.8453479853479853,0.4794871794871795,0.46498168498168496
5.255243366998911,0.11684981684981684,0.18615384615384614,0.24659340659340656
5.259419098998478,0.11684981684981684,0.18615384615384614,0.24659340659340656
5.259939839001163,0.11684981684981684,0.18615384615384614,0.24659340659340656
5.26549636299751,0.11684981684981684,0.18615384615384614,0.24659340659340656
5.265716978996352,0.11684981684981684,0.18615384615384614,0.24659340659340656
5.273851236997871,0.7035164835164834,0.49076923076923074,0.622124542124542
5.281647668001824,0.4472527472527472,0.3852014652014652,0.46095238095238095
5.288034017001337,0.0,0.05802197802197802,0.3046153846153846
5.296836916000757,0.0,0.05802197802197802,0.3046153846153846
5.305848584001069,0.0,0.05802197802197802,0.3046153846153846
5.315738076998969,0.0,0.05802197802197802,0.3046153846153846
5.323640586997499,0.0,0.05802197802197802,0.3046153846153846
5.331921985001827,0.0,0.05802197802197802,0.3046153846153846
5.338116733997595,0.0,0.05802197802197802,0.3046153846153846
5.342966547999822,0.5632967032967032,0.32153846153846155,0.24175824175824176
5.350329232998774,0.5632967032967032,0.32153846153846155,0.24175824175824176
5.356470419996185,0.5632967032967032,0.32153846153846155,0.24175824175824176
5.361420544999419,0.5632967032967032,0.32153846153846155,0.24175824175824176
5.368794458998309,0.5632967032967032,0.32153846153846155,0.24175824175824176
5.3752082099963445,0.49076923076923074,0.42065934065934063,0.5084981684981685
5.379528938996373,1.0435897435897434,0.581025641025641,0.5939194139194138
5.379784985001606,1.0435897435897434,0.581025641025641,0.5939194139194138
5.387522233999334,1.0435897435897434,0.581025641025641,0.5939194139194138
5.394903637003154,1.0435897435897434,0.581025641025641,0.5939194139194138
5.400057779996132,1.0435897435897434,0.581025641025641,0.5939194139194138
5.402643087996694,1.0435897435897434,0.581025641025641,0.5939194139194138
5.410290608997457,0.9178754578754579,0.6559706959706959,1.7438827838827837
5.4164489899994805,0.9178754578754579,0.6559706959706959,1.7438827838827837
5.421364467998501,0.9178754578754579,0.6559706959706959,1.7438827838827837
5.426155043001927,1.0677655677655677,0.689010989010989,1.8567032967032966
5.43227417399612,1.0677655677655677,0.689010989010989,1.8567032967032966
5.4370485440013,0.2756043956043956,0.25868131868131866,0.4126007326007326
5.445575503996224,0.2756043956043956,0.25868131868131866,0.4126007326007326
5.4528835649980465,0.2756043956043956,0.25868131868131866,0.4126007326007326
5.45895225500135,0.8622710622710623,0.502051282051282,1.90021978021978
5.464003574001254,0.8622710622710623,0.502051282051282,1.90021978021978
5.467625623998174,0.8622710622710623,0.502051282051282,1.90021978021978
5.474741938000079,0.8622710622710623,0.502051282051282,1.90021978021978
5.480835540998669,0.8622710622710623,0.502051282051282,1.90021978021978
5.485667499000556,0.8622710622710623,0.502051282051282,1.90021978021978
5.491732305003097,0.8622710622710623,0.502051282051282,1.90021978021978
5.496576974001073,0.8622710622710623,0.502051282051282,1.90021978021978
5.502689943998121,0.8622710622710623,0.502051282051282,1.90021978021978
5.509989090998715,0.8622710622710623,0.502051282051282,1.90021978021978
5.516062137998233,0.8622710622710623,0.502051282051282,1.90021978021978
5.520806574000744,0.8622710622710623,0.502051282051282,1.90021978021978
5.52817032099847,0.8622710622710623,0.502051282051282,1.90021978021978
5.5344033209985355,0.8622710622710623,0.502051282051282,1.90021978021978
5.539357945002848,0.8622710622710623,0.502051282051282,1.90021978021978
5.544425408996176,0.8622710622710623,0.502051282051282,1.90021978021978
5.546889069999452,0.8622710622710623,0.502051282051282,1.90021978021978
5.555023052998877,0.8622710622710623,0.502051282051282,1.90021978021978
5.562547686000471,0.8622710622710623,0.502051282051282,1.90021978021978
5.568766053002037,0.045128205128205125,0.18615384615384614,0.5084981684981685
5.573655578999023,0.46820512820512816,0.36747252747252745,0.5520146520146519
5.578502233998734,0.46820512820512816,0.36747252747252745,0.5520146520146519
5.583412248000968,0.46820512820512816,0.36747252747252745,0.5520146520146519
5.589540913999372,0.46820512820512816,0.36747252747252745,0.5520146520146519
5.594477067003027,0.46820512820512816,0.36747252747252745,0.5520146520146519
5.598157626001921,0.46820512820512816,0.36747252747252745,0.5520146520146519
5.605524956001318,0.46820512820512816,0.36747252747252745,0.5520146520146519
5.611737279999943,0.46820512820512816,0.36747252747252745,0.5520146520146519
5.616813371001626,0.46820512820512816,0.36747252747252745,0.5520146520146519
5.622160195998731,0.46820512820512816,0.36747252747252745,0.5520146520146519
5.6223821579988,0.0,0.051575091575091575,0.3586080586080586
5.630870150002011,0.0,0.051575091575091575,0.3586080586080586
5.6383389469992835,0.0,0.051575091575091575,0.3586080586080586
5.644351746996108,0.0,0.051575091575091575,0.3586080586080586
5.649116200002027,0.0,0.051575091575091575,0.3586080586080586
5.656359638996946,0.0,0.051575091575091575,0.3586080586080586
5.662394699000288,0.0,0.051575091575091575,0.3586080586080586
5.667244664000464,0.0,0.051575091575091575,0.3586080586080586
5.6731497299988405,0.0,0.051575091575091575,0.3586080586080586
5.677950001998397,0.1805128205128205,0.190989010989011,0.32556776556776557
5.6839625840002554,0.1805128205128205,0.190989010989011,0.32556776556776557
5.6903031559995725,0.1805128205128205,0.190989010989011,0.32556776556776557
5.695319616002962,0.1805128205128205,0.190989010989011,0.32556776556776557
5.700149336997129,0.1805128205128205,0.190989010989011,0.32556776556776557
5.708590813999763,0.0,0.02175824175824176,0.3997069597069597
5.718506477998744,0.0,0.02175824175824176,0.3997069597069597
5.73160939799709,0.03142857142857143,0.14827838827838827,0.40776556776556777
5.747160853003152,0.03142857142857143,0.14827838827838827,0.40776556776556777
5.762198202995933,0.03142857142857143,0.14827838827838827,0.40776556776556777
5.7625321129962686,0.03142857142857143,0.14827838827838827,0.40776556776556777
5.769584640001995,0.8179487179487179,0.9428571428571427,2.2169230769230768
5.778515976999188,0.8179487179487179,0.9428571428571427,2.2169230769230768
5.788650620997942,0.044322344322344324,0.34007326007326005,1.195091575091575
5.8003773059972445,0.044322344322344324,0.34007326007326005,1.195091575091575
5.812004683997657,1.003296703296703,0.9452747252747251,0.5818315018315018
5.819679569001892,1.003296703296703,0.9452747252747251,0.5818315018315018
5.8276523430031375,1.003296703296703,0.9452747252747251,0.5818315018315018
5.832749610999599,0.3747252747252747,0.381978021978022,0.2248351648351648
5.837014883996744,0.008864468864468863,0.3457142857142857,1.365128205128205
5.8383533699961845,0.008864468864468863,0.3457142857142857,1.365128205128205
5.849361412001599,0.008864468864468863,0.3457142857142857,1.365128205128205
5.859180617997481,0.0,0.18615384615384614,0.5600732600732601
5.871166570999776,0.0,0.18615384615384614,0.5600732600732601
5.88592540800164,1.432014652014652,0.5213919413919413,2.6883516483516483
5.897068878999562,1.2224908424908425,0.4174358974358974,2.42967032967033
5.9095867139985785,1.2224908424908425,0.4174358974358974,2.42967032967033
5.919671024996205,1.2224908424908425,0.4174358974358974,2.42967032967033
5.9307360899983905,1.2224908424908425,0.4174358974358974,2.42967032967033
5.940023789997213,1.2224908424908425,0.4174358974358974,2.42967032967033
5.949346597997646,1.2224908424908425,0.4174358974358974,2.42967032967033
5.957419878999644,1.2224908424908425,0.4174358974358974,2.42967032967033
5.965261990997533,1.2224908424908425,0.4174358974358974,2.42967032967033
5.971926240003086,0.361025641025641,0.5294505494505495,0.4722344322344322
5.976928532996681,0.361025641025641,0.5294505494505495,0.4722344322344322
5.983641640996211,0.361025641025641,0.5294505494505495,0.4722344322344322
5.989405257001636,0.361025641025641,0.5294505494505495,0.4722344322344322
5.998748115001945,0.29655677655677654,0.24175824175824176,0.630989010989011
6.006540570000652,1.120952380952381,0.8155311355311355,0.7035164835164834
6.0147560499972315,1.120952380952381,0.8155311355311355,0.7035164835164834
6.0243815110006835,0.3529670329670329,0.5939194139194138,2.523956043956044
6.035810699002468,0.0,0.0693040293040293,0.29978021978021974
6.049271301999397,0.8928937728937728,0.2643223443223443,0.5697435897435897
6.06371634399693,0.8928937728937728,0.2643223443223443,0.5697435897435897
6.074322861000837,0.8928937728937728,0.2643223443223443,0.5697435897435897
6.083962308999617,0.8928937728937728,0.2643223443223443,0.5697435897435897
6.09325590699882,0.8928937728937728,0.2643223443223443,0.5697435897435897
6.100051937995886,0.0,0.14989010989010987,0.42065934065934063
6.105233346002933,0.0,0.14989010989010987,0.42065934065934063
6.106719932999113,0.6575824175824176,0.73010989010989,0.4810989010989011
6.120220842996787,0.6575824175824176,0.73010989010989,0.4810989010989011
6.13076170199929,0.6575824175824176,0.73010989010989,0.4810989010989011
6.138819466999848,0.5737728937728938,0.24256410256410255,0.09267399267399268
6.150258465000661,0.06608058608058608,0.31750915750915754,0.7712087912087912
6.158827350998763,0.0701098901098901,0.5834432234432234,1.9654945054945054
6.166514894001011,0.0,0.10476190476190475,1.5053479853479852
6.1729592440024135,0.0,0.10476190476190475,1.5053479853479852
6.182392834998609,0.39890109890109887,0.5512087912087912,2.5400732600732603
6.191783583002689,0.39890109890109887,0.5512087912087912,2.5400732600732603
6.200549636996584,0.25545787545787546,0.2232234432234432,0.5294505494505495
6.207381369997165,0.25545787545787546,0.2232234432234432,0.5294505494505495
6.213438844002667,0.25545787545787546,0.2232234432234432,0.5294505494505495
6.21986114000174,0.25545787545787546,0.2232234432234432,0.5294505494505495
6.225357634997636,0.0,0.048351648351648346,0.7583150183150182
6.225713637999434,0.0,0.048351648351648346,0.7583150183150182
6.236495935001585,0.0,0.048351648351648346,0.7583150183150182
6.2458563429972855,0.7147985347985348,0.4553113553113553,2.3998534798534794
6.252379830999416,0.7147985347985348,0.4553113553113553,2.3998534798534794
6.257783246001054,0.7147985347985348,0.4553113553113553,2.3998534798534794
6.258354218000022,0.7147985347985348,0.4553113553113553,2.3998534798534794
6.264796529998421,0.04029304029304029,0.4279120879120879,0.8783882783882784
6.269932445997256,0.21274725274725276,0.4762637362637362,1.1064468864468864
6.273921820997202,0.21274725274725276,0.4762637362637362,1.1064468864468864
6.278422581002815,0.21274725274725276,0.4762637362637362,1.1064468864468864
6.293335966001905,0.21274725274725276,0.4762637362637362,1.1064468864468864
6.303792714003066,0.21274725274725276,0.4762637362637362,1.1064468864468864
6.314360513002612,0.21274725274725276,0.4762637362637362,1.1064468864468864
6.323892123000405,0.21274725274725276,0.4762637362637362,1.1064468864468864
6.332884098999784,0.21274725274725276,0.4762637362637362,1.1064468864468864
6.340907126999809,0.21274725274725276,0.4762637362637362,1.1064468864468864
6.350283931999002,0.21274725274725276,0.4762637362637362,1.1064468864468864
6.360876929000369,0.21274725274725276,0.4762637362637362,1.1064468864468864
6.370353739002894,0.21274725274725276,0.4762637362637362,1.1064468864468864
6.379979600998922,0.21274725274725276,0.4762637362637362,1.1064468864468864
6.388061817997368,0.35619047619047617,0.3529670329670329,0.5165567765567766
6.399219929000537,0.35619047619047617,0.3529670329670329,0.5165567765567766
6.406647436997446,0.35619047619047617,0.3529670329670329,0.5165567765567766
6.4182890450028935,0.8324542124542124,0.7252747252747253,0.30058608058608055
6.427350651996676,0.8324542124542124,0.7252747252747253,0.30058608058608055
6.435316802999296,0.1402197802197802,0.24336996336996336,0.7994139194139194
6.441917973999807,0.0,0.2377289377289377,0.5302564102564102
6.4481432320026215,0.0,0.2377289377289377,0.5302564102564102
6.453455385002599,0.41018315018315016,0.423076923076923,0.8832234432234431
6.4552655139996205,0.037875457875457874,0.23128205128205126,0.4657875457875458
6.45873231600126,0.037875457875457874,0.23128205128205126,0.4657875457875458
6.468422867998015,0.037875457875457874,0.23128205128205126,0.4657875457875458
6.477488160002395,0.037875457875457874,0.23128205128205126,0.4657875457875458
6.4839657729971805,0.037875457875457874,0.23128205128205126,0.4657875457875458
6.489119824000227,0.037875457875457874,0.23128205128205126,0.4657875457875458
6.492788693998591,0.037875457875457874,0.23128205128205126,0.4657875457875458
6.499552442001004,0.037875457875457874,0.23128205128205126,0.4657875457875458
6.5045613030015375,0.037875457875457874,0.23128205128205126,0.4657875457875458
6.511685903002217,0.1643956043956044,0.2627106227106227,0.8985347985347985
6.5168536709970795,0.1643956043956044,0.2627106227106227,0.8985347985347985
6.519445908998023,0.1643956043956044,0.2627106227106227,0.8985347985347985
6.528149168996606,0.10798534798534798,0.1652014652014652,0.6769230769230768
6.5373949150016415,0.10798534798534798,0.1652014652014652,0.6769230769230768
6.546550790997571,0.10798534798534798,0.1652014652014652,0.6769230769230768
6.554385032999562,0.14989010989010987,0.6237362637362637,0.3884249084249084
6.560875955001393,0.0,0.6962637362637363,0.8598534798534798
6.566085632999602,0.0,0.11362637362637362,0.3586080586080586
6.568682199002069,0.9033699633699634,0.5487912087912087,0.8663003663003663
6.575125222996576,0.9033699633699634,0.5487912087912087,0.8663003663003663
6.580069973999343,0.9033699633699634,0.5487912087912087,0.8663003663003663
6.586251562999678,0.10315018315018315,0.11846153846153845,0.35135531135531134
6.5927192629969795,0.10315018315018315,0.11846153846153845,0.35135531135531134
6.599004652001895,0.10315018315018315,0.11846153846153845,0.35135531135531134
6.604612780996831,0.10315018315018315,0.11846153846153845,0.35135531135531134
6.6160289510007715,0.10315018315018315,0.11846153846153845,0.35135531135531134
6.616337327002839,0.10315018315018315,0.11846153846153845,0.35135531135531134
6.6251777240031515,0.10315018315018315,0.11846153846153845,0.35135531135531134
6.631857100997877,0.10315018315018315,0.11846153846153845,0.35135531135531134
6.636986744997557,0.10315018315018315,0.11846153846153845,0.35135531135531134
6.639607054996304,1.324029304029304,1.0999999999999999,0.5616849816849817
6.646094187999552,1.324029304029304,1.0999999999999999,0.5616849816849817
6.6513262709995615,1.0887179487179486,0.7365567765567765,2.0428571428571427
6.6526966680030455,1.0887179487179486,0.7365567765567765,2.0428571428571427
6.660212326001783,1.0887179487179486,0.7365567765567765,2.0428571428571427
6.666404554998735,1.0887179487179486,0.7365567765567765,2.0428571428571427
6.671284452997497,1.0887179487179486,0.7365567765567765,2.0428571428571427
6.676085842998873,1.0887179487179486,0.7365567765567765,2.0428571428571427
6.683463635999942,1.0887179487179486,0.7365567765567765,2.0428571428571427
6.689970480998454,1.3707692307692307,0.9573626373626374,2.27010989010989
6.694894540996756,0.19340659340659339,0.24256410256410255,0.7865201465201466
6.699799158996029,0.19340659340659339,0.24256410256410255,0.7865201465201466
6.704692327002704,0.19340659340659339,0.24256410256410255,0.7865201465201466
6.710825237998506,0.19340659340659339,0.24256410256410255,0.7865201465201466
6.715638503999799,0.19340659340659339,0.24256410256410255,0.7865201465201466
6.723067583996453,1.6238095238095236,1.5843223443223442,0.14424908424908423
6.729182410999783,1.6238095238095236,1.5843223443223442,0.14424908424908423
6.734144214002299,1.6238095238095236,1.5843223443223442,0.14424908424908423
6.737747282997589,0.3183150183150183,0.11765567765567764,0.40615384615384614
6.745155422002426,0.3183150183150183,0.11765567765567764,0.40615384615384614
6.751175470002636,0.3183150183150183,0.11765567765567764,0.40615384615384614
6.757268014996953,0.3183150183150183,0.11765567765567764,0.40615384615384614
6.762062200999935,0.3183150183150183,0.11765567765567764,0.40615384615384614
6.769408528001804,0.0,0.5947252747252747,0.41340659340659336
6.7755715960011,0.43113553113553116,0.6326007326007326,0.2232234432234432
6.780384347999643,0.43113553113553116,0.6326007326007326,0.2232234432234432
6.786485557997366,0.43113553113553116,0.6326007326007326,0.2232234432234432
6.791356804998941,0.43113553113553116,0.6326007326007326,0.2232234432234432
6.798653086996637,0.0,0.3626373626373626,0.4488644688644688
6.804722433000279,0.0,0.2369230769230769,1.2523076923076921
6.809577683998214,0.43355311355311354,0.27076923076923076,1.1475457875457875
6.815595654996287,0.43355311355311354,0.27076923076923076,1.1475457875457875
6.82053782499861,2.234652014652015,0.7164102564102564,2.8108424908424907
6.82533197599696,2.234652014652015,0.7164102564102564,2.8108424908424907
6.833918411997729,2.234652014652015,0.7164102564102564,2.8108424908424907
6.841532202997769,1.5867399267399267,1.187032967032967,2.0275457875457876
6.847709028996178,1.5867399267399267,1.187032967032967,2.0275457875457876
6.852563535001536,1.5867399267399267,1.187032967032967,2.0275457875457876
6.859944272997382,1.5867399267399267,1.187032967032967,2.0275457875457876
6.866128335997928,0.6769230769230768,0.39003663003663,0.08864468864468865
6.871033811003144,0.6769230769230768,0.39003663003663,0.08864468864468865
6.875907260000531,0.8630769230769231,0.14586080586080585,0.7695970695970695
6.8820599550017505,1.05003663003663,0.23934065934065935,0.7035164835164834
6.886935590999201,1.05003663003663,0.23934065934065935,0.7035164835164834
6.891815636001411,0.3578021978021978,0.3505494505494505,1.56014652014652
6.897910255996976,0.3578021978021978,0.3505494505494505,1.56014652014652
6.902819108996482,0.3578021978021978,0.3505494505494505,1.56014652014652
6.907693843000743,0.3578021978021978,0.3505494505494505,1.56014652014652
6.913881774999027,1.220879120879121,1.1120879120879121,1.2821245421245422
6.91878559399629,1.220879120879121,1.1120879120879121,1.2821245421245422
6.923680908003007,1.220879120879121,1.1120879120879121,1.2821245421245422
6.928492537997954,0.25787545787545785,0.29333333333333333,0.4786813186813187
6.934554819999903,0.7841025641025641,0.7728205128205128,0.6519413919413919
6.939391858002637,0.7841025641025641,0.7728205128205128,0.6519413919413919
6.945562547996815,0.7841025641025641,0.7728205128205128,0.6519413919413919
6.950867270999879,0.6148717948717949,0.9194871794871795,0.2594871794871795
6.953322574001504,0.6148717948717949,0.9194871794871795,0.2594871794871795
6.9607852319968515,1.743076923076923,0.5068864468864469,2.5626373626373624
6.967089648002002,0.2836630036630036,0.07575091575091575,0.39406593406593404
6.971868601998722,0.2836630036630036,0.07575091575091575,0.39406593406593404
6.977959147996444,0.2836630036630036,0.07575091575091575,0.39406593406593404
6.9827283729973715,0.2836630036630036,0.07575091575091575,0.39406593406593404
6.990023585000017,0.2836630036630036,0.07575091575091575,0.39406593406593404
6.996108913997887,0.2836630036630036,0.07575091575091575,0.39406593406593404
7.000924977000977,0.2836630036630036,0.07575091575091575,0.39406593406593404
7.008232485997723,0.2836630036630036,0.07575091575091575,0.39406593406593404
7.014267671998823,0.2836630036630036,0.07575091575091575,0.39406593406593404
7.020355731998279,0.8912820512820512,0.24901098901098898,0.20065934065934066
7.025219390998245,0.8912820512820512,0.24901098901098898,0.20065934065934066
7.032464889001858,0.2191941391941392,0.3537728937728937,0.6817582417582417
7.038691114998073,0.2191941391941392,0.3537728937728937,0.6817582417582417
7.044703457999276,0.8977289377289376,0.5568498168498168,0.4142124542124542
7.04953082800057,0.16358974358974357,0.5157509157509157,2.071868131868132
7.055610383002204,0.16358974358974357,0.5157509157509157,2.071868131868132
7.060384896998585,0.8783882783882784,0.1926007326007326,2.0517216117216117
7.067776137999317,0.8783882783882784,0.1926007326007326,2.0517216117216117
7.073844065002049,0.8783882783882784,0.1926007326007326,2.0517216117216117
7.079885275001288,0.34813186813186814,0.1821245421245421,1.1830036630036629
7.085890597998514,0.34813186813186814,0.1821245421245421,1.1830036630036629
7.090921128998161,0.7881318681318681,1.2982417582417582,0.4391941391941392
7.095736855000723,1.0677655677655677,0.5238095238095237,1.1273992673992674
7.100586877000751,1.0677655677655677,0.5238095238095237,1.1273992673992674
7.105372345999058,0.3344322344322344,0.24417582417582417,0.6124542124542125
7.111435614999209,0.3344322344322344,0.24417582417582417,0.6124542124542125
7.116340988002776,0.9033699633699634,0.917069597069597,0.7913553113553113
7.1224131409981055,0.9033699633699634,0.917069597069597,0.7913553113553113
7.127396461000899,0.9033699633699634,0.917069597069597,0.7913553113553113
7.132210595998913,0.9033699633699634,0.917069597069597,0.7913553113553113
7.139728424997884,0.9033699633699634,0.917069597069597,0.7913553113553113
7.145919613001752,0.9033699633699634,0.917069597069597,0.7913553113553113
7.150820586997725,0.9033699633699634,0.917069597069597,0.7913553113553113
7.158199887999217,0.9033699633699634,0.917069597069597,0.7913553113553113
7.164435976003006,0.9033699633699634,0.917069597069597,0.7913553113553113
7.169355521997204,0.9033699633699634,0.917069597069597,0.7913553113553113
7.175527032995888,0.9033699633699634,0.917069597069597,0.7913553113553113
7.180587606999325,0.9033699633699634,0.917069597069597,0.7913553113553113
7.184211448002316,0.9033699633699634,0.917069597069597,0.7913553113553113
7.190382390996092,0.9033699633699634,0.917069597069597,0.7913553113553113
7.195235384002444,0.9033699633699634,0.917069597069597,0.7913553113553113
7.20275840999966,0.9033699633699634,0.917069597069597,0.7913553113553113
7.2089130640015355,0.0,0.12732600732600732,0.42952380952380953
7.21378386500146,0.0,0.12732600732600732,0.42952380952380953
7.219947008001327,0.0,0.12732600732600732,0.42952380952380953
7.224793237000995,0.0,0.25868131868131866,0.7019047619047618
7.230863561999286,0.0,0.25868131868131866,0.7019047619047618
7.235673046001466,0.0,0.25868131868131866,0.7019047619047618
7.241739270997641,0.0,0.25868131868131866,0.7019047619047618
7.246649888002139,0.9082051282051282,0.3078388278388278,0.8526007326007327
7.2527417480014265,0.7567032967032966,1.2498901098901098,0.29010989010989013
7.257607009996718,0.7567032967032966,1.2498901098901098,0.29010989010989013
7.263676349997695,0.7567032967032966,1.2498901098901098,0.29010989010989013
7.268577666000056,1.4175091575091574,0.6680586080586081,2.0267399267399266
7.2746648940010346,1.4175091575091574,0.6680586080586081,2.0267399267399266
7.279543516000558,1.4175091575091574,0.6680586080586081,2.0267399267399266
7.285701788001461,1.4175091575091574,0.6680586080586081,2.0267399267399266
7.290648743000929,1.4175091575091574,0.6680586080586081,2.0267399267399266
7.2954438680026215,0.14908424908424908,0.30058608058608055,0.6809523809523809
7.301652563000971,0.14908424908424908,0.30058608058608055,0.6809523809523809
7.306526911001129,0.7986080586080586,0.8614652014652014,2.1758241758241756
7.312677349997102,0.6301831501831501,0.8074725274725274,2.314432234432234
7.317554918001406,1.3272527472527473,0.5866666666666667,2.3337728937728937
7.323645554002724,1.3272527472527473,0.5866666666666667,2.3337728937728937
7.328524481999921,1.3272527472527473,0.5866666666666667,2.3337728937728937
7.334683419998328,1.3272527472527473,0.5866666666666667,2.3337728937728937
7.339526759998989,1.3272527472527473,0.5866666666666667,2.3337728937728937
7.345626189999166,1.3272527472527473,0.5866666666666667,2.3337728937728937
7.35053718600102,0.1789010989010989,0.7373626373626374,1.7873992673992671
7.355377931002295,0.1789010989010989,0.7373626373626374,1.7873992673992671
7.361489419999998,1.6399267399267399,0.7365567765567765,2.4159706959706955
7.366364786001213,1.6399267399267399,0.7365567765567765,2.4159706959706955
7.373816614999669,1.6399267399267399,0.7365567765567765,2.4159706959706955
7.379948604000674,1.1580219780219778,0.12249084249084248,2.5158974358974358
7.384839436002949,1.1580219780219778,0.12249084249084248,2.5158974358974358
7.39089444399724,0.7857142857142856,0.5705494505494505,2.3337728937728937
7.3969509439994,0.9307692307692307,1.187032967032967,0.5246153846153846
7.401784018999024,0.9307692307692307,1.187032967032967,0.5246153846153846
7.409142652002629,0.9307692307692307,1.187032967032967,0.5246153846153846
7.415305116002855,0.9307692307692307,1.187032967032967,0.5246153846153846
7.420177093998063,0.9307692307692307,1.187032967032967,0.5246153846153846
7.425047946002451,0.9307692307692307,1.187032967032967,0.5246153846153846
7.432433363996097,1.0218315018315018,1.3876923076923076,2.1274725274725275
7.438662057997135,0.9847619047619047,1.4046153846153846,1.046007326007326
7.443612092996773,0.9847619047619047,1.4046153846153846,1.046007326007326
7.449684339997475,0.0,0.43597069597069593,0.44402930402930396
7.454599186996347,0.0,0.43597069597069593,0.44402930402930396
7.4607053639992955,0.0,0.08783882783882783,0.7961904761904761
7.465566309001588,0.3489377289377289,0.14424908424908423,0.19179487179487179
7.472943854998448,0.3489377289377289,0.14424908424908423,0.19179487179487179
7.4790471460000845,0.3489377289377289,0.14424908424908423,0.19179487179487179
7.483870798998396,0.3489377289377289,0.14424908424908423,0.19179487179487179
7.49120326800039,0.1112087912087912,0.46739926739926735,1.016996336996337
7.497249820000434,0.1112087912087912,0.46739926739926735,1.016996336996337
7.503390475001652,0.1112087912087912,0.46739926739926735,1.016996336996337
7.508179989003111,0.1112087912087912,0.46739926739926735,1.016996336996337
7.515557065002213,0.1112087912087912,0.46739926739926735,1.016996336996337
7.521650280003087,1.7994871794871792,0.30058608058608055,2.193553113553113
7.526494113000808,0.1249084249084249,0.5117216117216117,0.2095238095238095
7.531306782999309,0.1249084249084249,0.5117216117216117,0.2095238095238095
7.538608121001744,0.7067399267399267,0.08058608058608058,0.792967032967033
7.544788642997446,0.7067399267399267,0.08058608058608058,0.792967032967033
7.550076147002983,0.07172161172161172,0.2868864468864469,0.06608058608058608
7.551353417999053,0.07172161172161172,0.2868864468864469,0.06608058608058608
7.558680458998424,0.07172161172161172,0.2868864468864469,0.06608058608058608
7.564693713997258,0.07172161172161172,0.2868864468864469,0.06608058608058608
7.5708023909974145,0.4214652014652014,0.09509157509157509,0.24417582417582417
7.5756701810023515,0.6495238095238095,0.4553113553113553,1.5424175824175823
7.581778751002275,0.6495238095238095,0.4553113553113553,1.5424175824175823
7.586595488995954,0.08783882783882783,0.6342124542124542,1.349010989010989
7.593906068999786,0.5004395604395604,0.19018315018315018,0.1805128205128205
7.600112382002408,0.2063003663003663,0.17164835164835165,0.796996336996337
7.604992874003074,0.2063003663003663,0.17164835164835165,0.796996336996337
7.609925069002202,0.2063003663003663,0.17164835164835165,0.796996336996337
7.614723578000849,0.7486446886446886,1.1096703296703296,0.4424175824175824
7.622057929998846,0.7486446886446886,1.1096703296703296,0.4424175824175824
7.628171497002768,0.7486446886446886,1.1096703296703296,0.4424175824175824
7.633074409000983,0.8171428571428572,0.7389743589743589,0.8582417582417583
7.637965419002285,0.8171428571428572,0.7389743589743589,0.8582417582417583
7.642853256002127,0.8171428571428572,0.7389743589743589,0.8582417582417583
7.648933258999023,0.8171428571428572,0.7389743589743589,0.8582417582417583
7.654938453997602,0.8171428571428572,0.7389743589743589,0.8582417582417583
7.659850873998948,0.8171428571428572,0.7389743589743589,0.8582417582417583
7.664600172000064,0.8171428571428572,0.7389743589743589,0.8582417582417583
7.670767203999276,1.3425641025641024,0.8542124542124543,1.7503296703296702
7.675603335999767,1.3425641025641024,0.8542124542124543,1.7503296703296702
7.681803220999427,1.3425641025641024,0.8542124542124543,1.7503296703296702
7.686710144000244,1.767252747252747,0.6938461538461538,2.6625641025641027
7.691564576998644,0.8816117216117215,1.1112820512820514,0.32717948717948714
7.697673839000345,0.5874725274725274,0.8799999999999999,1.4892307692307691
7.702631555002881,1.6778021978021975,1.1580219780219778,0.6229304029304029
7.707506177997857,1.6778021978021975,1.1580219780219778,0.6229304029304029
7.712383682002837,1.6778021978021975,1.1580219780219778,0.6229304029304029
7.717204510001466,1.6778021978021975,1.1580219780219778,0.6229304029304029
7.7244067400024505,0.0,0.22886446886446887,0.6656410256410257
7.73050682900066,0.9920146520146519,1.0887179487179486,2.286227106227106
7.735395210998831,0.9920146520146519,1.0887179487179486,2.286227106227106
7.742610405999585,0.9920146520146519,1.0887179487179486,2.286227106227106
7.748708113002067,0.9920146520146519,1.0887179487179486,2.286227106227106
7.754696067997429,0.9920146520146519,1.0887179487179486,2.286227106227106
7.75956084200152,0.9920146520146519,1.0887179487179486,2.286227106227106
7.7644083030027105,0.9920146520146519,1.0887179487179486,2.286227106227106
7.770659255998908,0.9920146520146519,1.0887179487179486,2.286227106227106
7.775462081001024,0.9920146520146519,1.0887179487179486,2.286227106227106
7.7816111970023485,0.9920146520146519,1.0887179487179486,2.286227106227106
7.786466117002419,0.9920146520146519,1.0887179487179486,2.286227106227106
7.792583600996295,0.9920146520146519,1.0887179487179486,2.286227106227106
7.797493988997303,0.9920146520146519,1.0887179487179486,2.286227106227106
7.802323743002489,0.9920146520146519,1.0887179487179486,2.286227106227106
7.807095999996818,1.3143589743589743,0.6503296703296703,2.501391941391941
7.81335457899695,1.3143589743589743,0.6503296703296703,2.501391941391941
7.818168969002727,1.3143589743589743,0.6503296703296703,2.501391941391941
7.825710058998084,0.24498168498168496,0.11604395604395604,0.9114285714285715
7.831976918998407,0.24498168498168496,0.11604395604395604,0.9114285714285715
7.8368853150022915,0.8453479853479853,0.25787545787545785,1.3022710622710623
7.843043934000889,0.8453479853479853,0.25787545787545785,1.3022710622710623
7.847880718996748,0.8453479853479853,0.25787545787545785,1.3022710622710623
7.855181539001933,0.09831501831501832,0.3964835164835165,0.7736263736263735
7.861302887999045,0.09831501831501832,0.3964835164835165,0.7736263736263735
7.866177625001001,0.09831501831501832,0.3964835164835165,0.7736263736263735
7.872214839000662,0.09831501831501832,0.3964835164835165,0.7736263736263735
7.87834553400171,0.3424908424908425,0.9646153846153847,1.80029304029304
7.883218153001508,0.19663003663003664,0.12813186813186814,0.7897435897435897
7.889267796002969,0.19663003663003664,0.12813186813186814,0.7897435897435897
7.8953198039962444,0.19663003663003664,0.12813186813186814,0.7897435897435897
7.900203172997863,0.19663003663003664,0.12813186813186814,0.7897435897435897
7.906346438001492,0.19663003663003664,0.12813186813186814,0.7897435897435897
7.912448265997227,0.855018315018315,1.1467399267399265,0.5004395604395604
7.917384218999359,0.051575091575091575,0.18534798534798536,0.6535531135531135
7.92341510100232,0.5471794871794872,0.2079120879120879,0.448058608058608
7.9284046399989165,0.5471794871794872,0.2079120879120879,0.448058608058608
7.9332085349960835,0.5528205128205127,0.9323809523809523,0.30542124542124544
7.941797858002246,0.5528205128205127,0.9323809523809523,0.30542124542124544
7.949258734995965,0.4174358974358974,1.6431501831501831,0.09992673992673992
7.955463559999771,0.4174358974358974,1.6431501831501831,0.09992673992673992
7.960453309999139,0.4174358974358974,1.6431501831501831,0.09992673992673992
7.966710519001936,0.4174358974358974,1.6431501831501831,0.09992673992673992
7.971631378997699,0.8840293040293039,0.5681318681318681,1.7438827838827837
7.976409584000066,0.8840293040293039,0.5681318681318681,1.7438827838827837
7.982585846002621,0.8840293040293039,0.5681318681318681,1.7438827838827837
7.987487610000244,0.921098901098901,0.6213186813186813,1.2378021978021978
7.992506044996844,0.921098901098901,0.6213186813186813,1.2378021978021978
7.996214471997519,0.921098901098901,0.6213186813186813,1.2378021978021978
8.003599748000852,0.0,0.9952380952380951,1.3248351648351648
8.009668409002188,0.17164835164835165,0.12087912087912088,0.2071062271062271
8.014544810997904,0.17164835164835165,0.12087912087912088,0.2071062271062271
8.02059039100277,0.17164835164835165,0.12087912087912088,0.2071062271062271
8.02673135099758,0.8630769230769231,2.1750183150183147,0.3706959706959707
8.031606190001185,0.8630769230769231,2.1750183150183147,0.3706959706959707
8.037780892002047,0.9493040293040291,0.3295970695970696,2.6005128205128205
8.042688200002885,0.9493040293040291,0.3295970695970696,2.6005128205128205
8.047508051997283,0.9493040293040291,0.3295970695970696,2.6005128205128205
8.053616874,0.9493040293040291,0.3295970695970696,2.6005128205128205
8.058479671999521,0.9493040293040291,0.3295970695970696,2.6005128205128205
8.064633239999239,0.9493040293040291,0.3295970695970696,2.6005128205128205
8.069607798999641,0.9493040293040291,0.3295970695970696,2.6005128205128205
8.074431437002204,0.4593406593406593,0.850989010989011,0.09912087912087912
8.080607755000528,0.4593406593406593,0.850989010989011,0.09912087912087912
8.085410551000678,0.0,0.17487179487179486,0.311062271062271
8.091585739995935,1.0726007326007325,0.6366300366300366,2.0114285714285716
8.096420356996532,0.8945054945054944,1.1435164835164835,0.42710622710622714
8.102586180000799,0.8945054945054944,1.1435164835164835,0.42710622710622714
8.107392461002746,0.0701098901098901,0.20468864468864467,0.5761904761904761
8.113533062001807,0.0701098901098901,0.20468864468864467,0.5761904761904761
8.118370324998978,0.0701098901098901,0.20468864468864467,0.5761904761904761
8.124380549998023,1.2434432234432233,1.025054945054945,0.8485714285714284
8.129255047002516,1.2434432234432233,1.025054945054945,0.8485714285714284
8.134143463998043,1.2434432234432233,1.025054945054945,0.8485714285714284
8.14035590900312,0.40695970695970696,0.3376556776556776,0.5205860805860806
8.1451876430001,0.12893772893772892,0.1942124542124542,0.5987545787545787
8.15371892300027,0.4021245421245421,0.4657875457875458,0.2224175824175824
8.159831500001019,0.4021245421245421,0.4657875457875458,0.2224175824175824
8.164783380998415,0.4021245421245421,0.4657875457875458,0.2224175824175824
8.170886081003118,0.4021245421245421,0.4657875457875458,0.2224175824175824
8.175763516002917,0.4021245421245421,0.4657875457875458,0.2224175824175824
8.183098465000512,0.4021245421245421,0.4657875457875458,0.2224175824175824
8.189193979000265,0.4021245421245421,0.4657875457875458,0.2224175824175824
8.194099038999411,0.4021245421245421,0.4657875457875458,0.2224175824175824
8.198921909999626,0.4021245421245421,0.4657875457875458,0.2224175824175824
8.206186725998123,0.4021245421245421,0.4657875457875458,0.2224175824175824
8.212242581997998,0.4021245421245421,0.4657875457875458,0.2224175824175824
8.217326901998604,0.4021245421245421,0.4657875457875458,0.2224175824175824
8.22214006500144,0.0838095238095238,0.4126007326007326,0.7309157509157509
8.228247400998953,0.0838095238095238,0.4126007326007326,0.7309157509157509
8.233037407000666,0.0838095238095238,0.4126007326007326,0.7309157509157509
8.243420678998518,0.0838095238095238,0.4126007326007326,0.7309157509157509
8.25440484900173,0.0838095238095238,0.4126007326007326,0.7309157509157509
8.265568326001812,0.0838095238095238,0.4126007326007326,0.7309157509157509
8.274373031999858,0.0838095238095238,0.4126007326007326,0.7309157509157509
8.281884579002508,0.0838095238095238,0.4126007326007326,0.7309157509157509
8.288028173003113,0.0838095238095238,0.4126007326007326,0.7309157509157509
8.292935609002598,0.0838095238095238,0.4126007326007326,0.7309157509157509
8.29898381500243,0.0,0.07978021978021978,0.6793406593406592
8.303871324002102,0.0,0.07978021978021978,0.6793406593406592
8.308744027002831,1.1854212454212454,0.6487179487179486,2.1186080586080585
8.313685052002256,1.1854212454212454,0.6487179487179486,2.1186080586080585
8.318500209003105,1.1854212454212454,0.6487179487179486,2.1186080586080585
8.325896157999523,0.7615384615384615,0.2909157509157509,0.3795604395604395
8.332060925997212,0.7615384615384615,0.2909157509157509,0.3795604395604395
8.33699183799763,0.7615384615384615,0.2909157509157509,0.3795604395604395
8.341835590996197,0.7615384615384615,0.2909157509157509,0.3795604395604395
8.348072137996496,0.224029304029304,0.1692307692307692,0.31267399267399265
8.352985386998625,0.224029304029304,0.1692307692307692,0.31267399267399265
8.357822266996664,0.224029304029304,0.1692307692307692,0.31267399267399265
8.3652090329997,0.224029304029304,0.1692307692307692,0.31267399267399265
8.37137170299684,0.2079120879120879,0.4166300366300366,1.1862271062271061
8.37631048700132,0.2079120879120879,0.4166300366300366,1.1862271062271061
8.382376458997896,0.0,0.2957509157509157,1.2555311355311354
8.387270747996808,0.0,0.2957509157509157,1.2555311355311354
8.393362866998359,0.0,0.2957509157509157,1.2555311355311354
8.399526615998184,0.26673992673992675,0.5769963369963369,0.6237362637362637
8.40439938200143,0.26673992673992675,0.5769963369963369,0.6237362637362637
8.409221355999762,0.26673992673992675,0.5769963369963369,0.6237362637362637
8.414082180002879,0.43032967032967034,0.3892307692307692,0.8332600732600732
8.420230687996082,0.43032967032967034,0.3892307692307692,0.8332600732600732
8.425050505997206,0.08783882783882783,0.21516483516483517,0.8332600732600732
8.431153844998335,1.7914285714285711,0.8002197802197801,1.7994871794871792
8.435932977001357,0.09186813186813186,0.31347985347985347,0.5882783882783883
8.44459931700112,0.09186813186813186,0.31347985347985347,0.5882783882783883
8.45201987100154,0.09186813186813186,0.31347985347985347,0.5882783882783883
8.458201497000118,0.09186813186813186,0.31347985347985347,0.5882783882783883
8.463048001998686,0.09186813186813186,0.31347985347985347,0.5882783882783883
8.470387941000808,0.09186813186813186,0.31347985347985347,0.5882783882783883
8.476650220996817,0.946080586080586,1.1709157509157508,0.8687179487179487
8.481479445996229,1.3087179487179486,0.32798534798534795,2.1153846153846154
8.486288419997436,0.0,0.3384615384615384,0.3843956043956044
8.493550040002447,0.6728937728937728,0.25868131868131866,0.2079120879120879
8.499599299997499,0.6728937728937728,0.25868131868131866,0.2079120879120879
8.50448240699916,0.6728937728937728,0.25868131868131866,0.2079120879120879
8.509304849001637,0.09912087912087912,0.37150183150183147,1.2506959706959706
8.51544974600256,0.09912087912087912,0.37150183150183147,1.2506959706959706
8.520312027998443,0.45692307692307693,0.1555311355311355,0.14102564102564102
8.526371170002676,2.5876190476190475,1.0387545787545787,0.6277655677655677
8.53121701299824,2.5876190476190475,1.0387545787545787,0.6277655677655677
8.5373136279959,0.5068864468864469,0.5552380952380952,0.4657875457875458
8.54213799900026,0.5068864468864469,0.5552380952380952,0.4657875457875458
8.549524640999152,0.5068864468864469,0.5552380952380952,0.4657875457875458
8.55562835100136,0.083003663003663,0.18373626373626373,0.6237362637362637
8.560603619000176,0.3545787545787546,0.4158241758241758,1.9574358974358974
8.564228014001856,0.3545787545787546,0.4158241758241758,1.9574358974358974
8.570338680001441,1.6109157509157508,0.6197069597069597,2.382930402930403
8.575126399002329,1.6109157509157508,0.6197069597069597,2.382930402930403
8.583742415001325,0.8590476190476191,0.08058608058608058,1.9679120879120877
8.591166117003013,0.8590476190476191,0.08058608058608058,1.9679120879120877
8.59856616199977,0.4593406593406593,0.9702564102564102,2.133919413919414
8.60341047700058,0.6704761904761904,0.09106227106227105,2.7375091575091575
8.608193056003074,0.2498168498168498,0.2079120879120879,0.7405860805860806
8.614306315997965,0.2498168498168498,0.2079120879120879,0.7405860805860806
8.619120208997629,0.2498168498168498,0.2079120879120879,0.7405860805860806
8.625280945001577,1.7769230769230768,1.1556043956043955,0.7978021978021977
8.630131395002536,0.18695970695970696,0.4198534798534798,0.8888644688644688
8.637707442001556,0.1378021978021978,0.17003663003663003,0.713992673992674
8.643848435996915,0.08622710622710622,0.19179487179487179,0.7792673992673992
8.648674664000282,0.7244688644688644,0.4867399267399267,0.27882783882783885
8.659392241002934,0.7244688644688644,0.4867399267399267,0.27882783882783885
8.668843671002833,0.7244688644688644,0.4867399267399267,0.27882783882783885
8.676675256996532,0.7244688644688644,0.4867399267399267,0.27882783882783885
8.683933300999342,0.19179487179487179,0.307032967032967,0.9025641025641026
8.690077886996733,0.0,0.11846153846153845,0.43677655677655675
8.695006262998504,0.0,0.11846153846153845,0.43677655677655675
8.699742445998709,0.0,0.11846153846153845,0.43677655677655675
8.707243247001315,0.0,0.11846153846153845,0.43677655677655675
8.713330861995928,0.19663003663003664,0.4214652014652014,1.1604395604395605
8.718233416002477,0.19663003663003664,0.4214652014652014,1.1604395604395605
8.724267885001609,0.2111355311355311,0.3731135531135531,0.5866666666666667
8.72915433599701,0.2111355311355311,0.3731135531135531,0.5866666666666667
8.735266251002031,0.3852014652014652,0.43597069597069593,0.9581684981684981
8.740120470996771,0.07333333333333333,0.22644688644688646,1.5649816849816849
8.74758531399857,0.07333333333333333,0.22644688644688646,1.5649816849816849
8.758555394000723,0.07333333333333333,0.22644688644688646,1.5649816849816849
8.764648181000666,0.07333333333333333,0.22644688644688646,1.5649816849816849
8.769480194001517,0.07333333333333333,0.22644688644688646,1.5649816849816849
8.7754870830031,0.07333333333333333,0.22644688644688646,1.5649816849816849
8.781543823999527,0.6358241758241758,0.47142857142857136,0.15633699633699633
8.786337443998491,1.311135531135531,0.9307692307692307,0.8163369963369963
8.792354477001936,1.311135531135531,0.9307692307692307,0.8163369963369963
8.797160066998913,0.5068864468864469,0.07816849816849816,0.5818315018315018
8.804401182002039,0.5068864468864469,0.07816849816849816,0.5818315018315018
8.810487044000183,0.5068864468864469,0.07816849816849816,0.5818315018315018
8.815331126999808,0.5068864468864469,0.07816849816849816,0.5818315018315018
8.82137082299596,0.5068864468864469,0.07816849816849816,0.5818315018315018
8.826174925998203,0.5068864468864469,0.07816849816849816,0.5818315018315018
8.832278501002293,0.5068864468864469,0.07816849816849816,0.5818315018315018
8.838300602001254,0.5068864468864469,0.07816849816849816,0.5818315018315018
8.842946033997578,1.3224175824175823,1.2498901098901098,0.6696703296703297
8.85330845000135,1.2531135531135529,0.6559706959706959,1.9735531135531135
8.863336404996517,1.2531135531135529,0.6559706959706959,1.9735531135531135
8.877026499001659,0.43113553113553116,0.3997069597069597,0.5028571428571429
8.892553826997755,0.43113553113553116,0.3997069597069597,0.5028571428571429
8.90925965399947,0.43113553113553116,0.3997069597069597,0.5028571428571429
8.919684369000606,0.3972893772893773,0.381978021978022,0.6712820512820512
8.931772124000418,0.0,0.2377289377289377,1.5464468864468863
8.942111566997482,0.9517216117216116,0.9307692307692307,2.37003663003663
8.949685318002594,0.9517216117216116,0.9307692307692307,2.37003663003663
8.956489279997186,0.9517216117216116,0.9307692307692307,2.37003663003663
8.963413675999618,0.9517216117216116,0.9307692307692307,2.37003663003663
8.96853425000154,0.9517216117216116,0.9307692307692307,2.37003663003663
8.972413625997433,0.9517216117216116,0.9307692307692307,2.37003663003663
8.977206962998025,0.04029304029304029,0.6398534798534798,0.8042490842490841
8.98349591599981,0.0,0.718021978021978,1.174139194139194
8.98874764899665,0.0,0.718021978021978,1.174139194139194
8.992697492001753,0.0,0.718021978021978,1.174139194139194
8.995387324001058,0.0,0.718021978021978,1.174139194139194
9.001720173000649,0.0,0.718021978021978,1.174139194139194
9.007095435998053,0.0,0.718021978021978,1.174139194139194
9.009110152997891,0.5439560439560439,0.7937728937728937,0.25706959706959703
9.009454901002755,0.5439560439560439,0.7937728937728937,0.25706959706959703
9.01741649399628,0.5439560439560439,0.7937728937728937,0.25706959706959703
9.024748752999585,0.5439560439560439,0.7937728937728937,0.25706959706959703
9.030114469998807,0.5439560439560439,0.7937728937728937,0.25706959706959703
9.030482572998153,0.5439560439560439,0.7937728937728937,0.25706959706959703
9.038285274000373,0.5439560439560439,0.7937728937728937,0.25706959706959703
9.04595398800302,0.5439560439560439,0.7937728937728937,0.25706959706959703
9.052540479002346,0.5439560439560439,0.7937728937728937,0.25706959706959703
9.058595848997356,0.12893772893772892,0.381978021978022,0.42630036630036633
9.063740359000803,0.26754578754578756,0.23369963369963367,0.0975091575091575
9.06736113000079,0.0,0.4142124542124542,0.6575824175824176
9.078093069998431,0.0,0.4142124542124542,0.6575824175824176
9.085436870002013,1.1652747252747253,0.4045421245421245,1.8518681318681318
9.093240151996724,0.6414652014652015,0.1418315018315018,0.2643223443223443
9.098505971000122,0.6414652014652015,0.1418315018315018,0.2643223443223443
9.100533759999962,1.5335531135531135,1.1273992673992674,0.8816117216117215
9.10082153199619,1.5335531135531135,1.1273992673992674,0.8816117216117215
9.11180561799847,1.5335531135531135,1.1273992673992674,0.8816117216117215
9.122286687997985,1.5335531135531135,1.1273992673992674,0.8816117216117215
9.131631306001509,1.5335531135531135,1.1273992673992674,0.8816117216117215
9.139972363998822,1.0266666666666666,0.4810989010989011,1.1604395604395605
9.149707092001336,1.0266666666666666,0.4810989010989011,1.1604395604395605
9.159324809996178,1.0266666666666666,0.4810989010989011,1.1604395604395605
9.165928064998297,1.0266666666666666,0.4810989010989011,1.1604395604395605
9.171320326997375,0.3078388278388278,0.6334065934065934,0.8252014652014652
9.173217720999673,0.3078388278388278,0.6334065934065934,0.8252014652014652
9.176548862997151,0.3078388278388278,0.6334065934065934,0.8252014652014652
9.17674856800295,0.3078388278388278,0.6334065934065934,0.8252014652014652
9.18446964299801,0.3078388278388278,0.6334065934065934,0.8252014652014652
9.192696778001846,0.3078388278388278,0.6334065934065934,0.8252014652014652
9.199065376000362,0.7631501831501831,0.469010989010989,0.9936263736263735
9.204502378001052,0.0,0.08864468864468865,0.2836630036630036
9.20488950899744,0.0,0.08864468864468865,0.2836630036630036
9.212886335000803,0.0,0.08864468864468865,0.2836630036630036
9.219217466001282,0.0,0.08864468864468865,0.2836630036630036
9.224761837998813,0.0,0.08864468864468865,0.2836630036630036
9.224931976001244,0.0,0.19663003663003664,0.4512820512820513
9.233146432001377,0.0,0.19663003663003664,0.4512820512820513
9.240302571997745,0.0,0.19663003663003664,0.4512820512820513
9.245654639002169,0.0,0.42065934065934063,0.36827838827838827
9.246005244996923,0.0,0.42065934065934063,0.36827838827838827
9.253662789997179,0.0,0.42065934065934063,0.36827838827838827
9.261478549997264,0.3384615384615384,0.7421978021978022,0.776043956043956
9.268039757000224,0.3384615384615384,0.7421978021978022,0.776043956043956
9.273951623996254,0.3384615384615384,0.7421978021978022,0.776043956043956
9.27926745700097,0.3384615384615384,0.7421978021978022,0.776043956043956
9.279656911996426,0.3384615384615384,0.7421978021978022,0.776043956043956
9.288640122002107,0.3384615384615384,0.7421978021978022,0.776043956043956
9.297945425998478,0.3384615384615384,0.7421978021978022,0.776043956043956
9.308838668002863,0.3384615384615384,0.7421978021978022,0.776043956043956
9.319757766999828,0.3384615384615384,0.7421978021978022,0.776043956043956
9.331186864998017,0.3384615384615384,0.7421978021978022,0.776043956043956
9.339006854002946,0.3384615384615384,0.7421978021978022,0.776043956043956
9.346333986999525,0.3384615384615384,0.7421978021978022,0.776043956043956
9.352985707999323,0.3384615384615384,0.7421978021978022,0.776043956043956
9.359498838995933,0.6108424908424909,0.9323809523809523,1.7930402930402929
9.36491500899865,0.6108424908424909,0.9323809523809523,1.7930402930402929
9.365113309999288,0.6108424908424909,0.9323809523809523,1.7930402930402929
9.373316382996563,0.6108424908424909,0.9323809523809523,1.7930402930402929
9.380304944999807,0.6108424908424909,0.9323809523809523,1.7930402930402929
9.387126618996263,0.07333333333333333,0.16036630036630037,1.224908424908425
9.392951212998014,0.41340659340659336,0.7067399267399267,0.23369963369963367
9.400742519996129,0.41340659340659336,0.7067399267399267,0.23369963369963367
9.40813007899851,0.41340659340659336,0.7067399267399267,0.23369963369963367
9.418223635999311,0.41340659340659336,0.7067399267399267,0.23369963369963367
9.429927953002334,0.41340659340659336,0.7067399267399267,0.23369963369963367
9.439851511997404,0.41340659340659336,0.7067399267399267,0.23369963369963367
9.452257621000172,0.5632967032967032,0.11443223443223444,0.5995604395604395
9.464715203997912,0.5632967032967032,0.11443223443223444,0.5995604395604395
9.477732785999251,1.0524542124542122,2.394212454212454,0.3578021978021978
9.486005683997064,1.0524542124542122,2.394212454212454,0.3578021978021978
9.49412492299598,0.5318681318681319,2.258827838827839,1.8236630036630037
9.500504153998918,0.2635164835164835,0.6865934065934066,1.295018315018315
9.506425801002479,1.1789743589743589,0.6084249084249085,0.12732600732600732
9.515223608999804,1.1789743589743589,0.6084249084249085,0.12732600732600732
9.522417662003136,1.1789743589743589,0.6084249084249085,0.12732600732600732
9.529136600001948,1.1789743589743589,0.6084249084249085,0.12732600732600732
9.53423207999731,1.1789743589743589,0.6084249084249085,0.12732600732600732
9.538206247001654,1.1789743589743589,0.6084249084249085,0.12732600732600732
9.542280693000066,1.1789743589743589,0.6084249084249085,0.12732600732600732
9.544885016999615,0.7978021978021977,0.5769963369963369,1.7277655677655677
9.552503865998005,0.7978021978021977,0.5769963369963369,1.7277655677655677
9.559026285001892,0.7978021978021977,0.5769963369963369,1.7277655677655677
9.563991365997936,0.17245421245421244,0.17003663003663003,0.3932600732600733
9.568976397997176,0.17245421245421244,0.17003663003663003,0.3932600732600733
9.573871554996003,0.17245421245421244,0.17003663003663003,0.3932600732600733
9.580072194999957,0.17245421245421244,0.17003663003663003,0.3932600732600733
9.585119732000749,0.25223443223443226,1.7092307692307693,2.016263736263736
9.588800872996217,0.8985347985347985,0.6712820512820512,1.1781684981684981
9.596308211002906,0.8985347985347985,0.6712820512820512,1.1781684981684981
9.60444175000157,0.8985347985347985,0.6712820512820512,1.1781684981684981
9.61011467299977,0.06688644688644689,1.5383882783882783,0.3972893772893773
9.618613216996891,0.06688644688644689,1.5383882783882783,0.3972893772893773
9.629167589002464,0.21274725274725276,0.09025641025641025,1.917948717948718
9.644156968999596,0.21274725274725276,0.09025641025641025,1.917948717948718
9.65959435699915,0.3755311355311355,0.40695970695970696,0.14586080586080585
9.675156297002104,0.39003663003663,0.4891575091575091,0.8743589743589744
9.675612986997294,0.8115018315018314,2.1145787545787544,2.917216117216117
9.684497385998839,0.8115018315018314,2.1145787545787544,2.917216117216117
9.694646634001401,0.8115018315018314,2.1145787545787544,2.917216117216117
9.707416789002309,1.0226373626373626,0.11926739926739927,0.5415384615384615
9.722248461002891,1.0226373626373626,0.11926739926739927,0.5415384615384615
9.738699135996285,0.0,0.32395604395604394,0.8534065934065934
9.754510359998676,0.0,0.32395604395604394,0.8534065934065934
9.77048151299823,0.6986813186813187,0.356996336996337,1.8558974358974358
9.785664894996444,0.6986813186813187,0.356996336996337,1.8558974358974358
9.801977508002892,0.4738461538461538,0.6898168498168498,0.40534798534798533
9.817651152996405,0.4738461538461538,0.6898168498168498,0.40534798534798533
9.83385435299715,0.4738461538461538,0.6898168498168498,0.40534798534798533
9.850047485000687,0.3384615384615384,0.7953846153846154,2.852747252747253
9.866340002998186,2.848717948717949,1.4336263736263737,0.4158241758241758
9.88235728199652,0.1523076923076923,0.2989743589743589,0.4738461538461538
9.899229174996435,0.1523076923076923,0.2989743589743589,0.4738461538461538
9.89965618000133,0.49802197802197795,2.3079853479853476,3.0816117216117216
9.910369085002458,0.49802197802197795,2.3079853479853476,3.0816117216117216
9.925005625002086,0.49802197802197795,2.3079853479853476,3.0816117216117216
9.942120535000868,0.9871794871794871,0.20468864468864467,0.49560439560439556
9.95881150799687,0.23853479853479853,0.17567765567765567,0.3038095238095238
9.975504119996913,0.23853479853479853,0.17567765567765567,0.3038095238095238
9.989409194000473,0.23853479853479853,0.17567765567765567,0.3038095238095238
10.00639013399632,0.6463003663003662,0.33926739926739924,1.1120879120879121
10.006785479999962,0.6463003663003662,0.33926739926739924,1.1120879120879121
10.018572836001113,1.468278388278388,0.7953846153846154,0.9186813186813186
10.029226473001472,0.0,0.18695970695970696,0.15069597069597068
10.043759218002378,0.0,0.18695970695970696,0.15069597069597068
10.0583043719962,0.0,0.18695970695970696,0.15069597069597068
10.075288002000889,0.3304029304029304,1.0153846153846153,1.2063736263736262
10.075693655999203,0.3304029304029304,1.0153846153846153,1.2063736263736262
10.086714044999098,0.41098901098901097,0.693040293040293,1.2676190476190476
10.101116992002062,0.41098901098901097,0.693040293040293,1.2676190476190476
10.117180731002009,0.41098901098901097,0.693040293040293,1.2676190476190476
10.134032076995936,0.5358974358974359,0.6922344322344323,1.5424175824175823
10.148715652998362,1.1354578754578755,0.16842490842490843,1.9115018315018315
10.165447145001963,0.2925274725274725,0.5052747252747253,1.830915750915751
10.182089066001936,0.2925274725274725,0.5052747252747253,1.830915750915751
10.198584505997133,0.2925274725274725,0.5052747252747253,1.830915750915751
10.214332180999918,0.0,0.7043223443223443,1.012161172161172
10.229185260999657,0.0,0.7043223443223443,1.012161172161172
10.244113840002683,0.0,0.7043223443223443,1.012161172161172
10.244468297998537,0.0,0.7043223443223443,1.012161172161172
10.256529699996463,0.0,0.7043223443223443,1.012161172161172
10.270586090999132,0.0,0.7043223443223443,1.012161172161172
10.283871658997668,0.0,0.7043223443223443,1.012161172161172
10.297389141996973,0.17648351648351646,0.03142857142857143,1.0331135531135531
10.309521554998355,0.17648351648351646,0.03142857142857143,1.0331135531135531
10.32401790899894,0.03868131868131868,0.15794871794871795,0.052380952380952375
10.33841761900112,0.03868131868131868,0.15794871794871795,0.052380952380952375
10.353416184996604,0.03868131868131868,0.15794871794871795,0.052380952380952375
10.35382479299733,0.03868131868131868,0.15794871794871795,0.052380952380952375
10.363124951996724,0.03868131868131868,0.15794871794871795,0.052380952380952375
10.375069151996286,0.3021978021978022,0.13216117216117215,0.1378021978021978
10.38850659000309,0.5915018315018314,0.6608058608058608,0.7091575091575092
10.401856577998842,0.5915018315018314,0.6608058608058608,0.7091575091575092
10.415735415997915,0.02901098901098901,0.04029304029304029,0.6882051282051282
10.429751402996772,0.30139194139194136,0.7405860805860806,1.0137728937728938
10.44245599200076,0.30139194139194136,0.7405860805860806,1.0137728937728938
10.456311089998053,0.30139194139194136,0.7405860805860806,1.0137728937728938
10.47113421800168,0.30139194139194136,0.7405860805860806,1.0137728937728938
10.48822307199589,0.0,0.842124542124542,0.29333333333333333
10.48859111800266,0.0,0.842124542124542,0.29333333333333333
10.501516653996077,0.0,0.842124542124542,0.29333333333333333
10.518684675000259,0.9194871794871795,1.0822710622710623,1.0532600732600732
10.519067481996899,0.42065934065934063,0.21838827838827837,0.10073260073260072
10.530549274997611,0.42065934065934063,0.21838827838827837,0.10073260073260072
10.540989654000441,0.0,1.2095970695970695,1.6189743589743588
10.55306108899822,0.0,1.2095970695970695,1.6189743589743588
10.567466121996404,0.0,1.2095970695970695,1.6189743589743588
10.583911708003143,0.6164835164835165,0.3594139194139194,1.1668864468864468
10.598862936996738,0.6164835164835165,0.3594139194139194,1.1668864468864468
10.59920801899716,0.6164835164835165,0.3594139194139194,1.1668864468864468
10.608497148001334,0.6164835164835165,0.3594139194139194,1.1668864468864468
10.615875572999357,0.6164835164835165,0.3594139194139194,1.1668864468864468
10.62202052900102,0.0,0.6052014652014651,1.8164102564102564
10.626862370998424,0.0,0.6052014652014651,1.8164102564102564
10.632980934999068,0.3102564102564102,1.0347252747252746,0.9605860805860806
10.637896203996206,0.3102564102564102,1.0347252747252746,0.9605860805860806
10.642734437999025,1.0935531135531134,0.66,0.581025641025641
10.650089294998907,1.0935531135531134,0.66,0.581025641025641
10.656262420998246,1.0935531135531134,0.66,0.581025641025641
10.661161135998555,1.0935531135531134,0.66,0.581025641025641
10.667205432997434,1.0935531135531134,0.66,0.581025641025641
10.672113007000007,0.5455677655677655,0.722051282051282,0.2191941391941392
10.67947278599604,0.5455677655677655,0.722051282051282,0.2191941391941392
10.68565166299959,0.5455677655677655,0.722051282051282,0.2191941391941392
10.690492364999955,0.5455677655677655,0.722051282051282,0.2191941391941392
10.696590899999137,0.3779487179487179,0.13054945054945052,0.8171428571428572
10.70263198199973,0.3779487179487179,0.13054945054945052,0.8171428571428572
10.707525413999974,0.3779487179487179,0.13054945054945052,0.8171428571428572
10.711197338998318,0.5455677655677655,1.0290842490842491,0.38036630036630037
10.717305457998009,0.5455677655677655,1.0290842490842491,0.38036630036630037
10.722075534999021,0.0,0.1249084249084249,0.7462271062271062
10.729421144002117,0.9662271062271062,0.10556776556776555,0.7978021978021977
10.735622239000804,0.9662271062271062,0.10556776556776555,0.7978021978021977
10.740447144002246,0.9662271062271062,0.10556776556776555,0.7978021978021977
10.746562858999823,0.9662271062271062,0.10556776556776555,0.7978021978021977
10.751437689999875,0.9662271062271062,0.10556776556776555,0.7978021978021977
10.757542797997303,0.9662271062271062,0.10556776556776555,0.7978021978021977
10.762474372000725,0.9662271062271062,0.10556776556776555,0.7978021978021977
10.766203282997594,0.0,0.08622710622710622,0.9484981684981684
10.773568632001115,0.0,0.08622710622710622,0.9484981684981684
10.779792326000461,0.9871794871794871,0.4964102564102564,1.93003663003663
10.784693854999205,0.9871794871794871,0.4964102564102564,1.93003663003663
10.789612317996216,1.2837362637362637,0.3183150183150183,2.411135531135531
10.795707074001257,1.2837362637362637,0.3183150183150183,2.411135531135531
10.803531908997684,1.2837362637362637,0.3183150183150183,2.411135531135531
10.812186436000047,1.4586080586080585,0.5302564102564102,2.254798534798535
10.823022915996262,1.4586080586080585,0.5302564102564102,2.254798534798535
10.831875518997549,1.4586080586080585,0.5302564102564102,2.254798534798535
10.839262073997816,1.4586080586080585,0.5302564102564102,2.254798534798535
10.845286078001664,1.4586080586080585,0.5302564102564102,2.254798534798535
10.851240092000808,0.49882783882783877,0.17326007326007326,0.5842490842490843
10.85600268500275,0.6092307692307692,0.618095238095238,0.30622710622710625
10.861985518997244,0.008058608058608058,0.06446886446886446,0.15633699633699633
10.866788788996928,0.8719413919413919,1.2643956043956044,0.5294505494505495
10.872811952998745,0.8719413919413919,1.2643956043956044,0.5294505494505495
10.877533052000217,0.8719413919413919,1.2643956043956044,0.5294505494505495
10.885972151001624,0.8719413919413919,1.2643956043956044,0.5294505494505495
10.893222099002742,0.8719413919413919,1.2643956043956044,0.5294505494505495
10.899271064001368,0.8719413919413919,1.2643956043956044,0.5294505494505495
10.904055783998047,0.5125274725274725,0.9871794871794871,0.8163369963369963
10.91119390699896,0.22644688644688646,1.1104761904761904,1.9646886446886445
10.9172096350012,0.22644688644688646,1.1104761904761904,1.9646886446886445
10.92316610999842,0.22644688644688646,1.1104761904761904,1.9646886446886445
10.928039357997477,0.22644688644688646,1.1104761904761904,1.9646886446886445
10.935298456002783,0.34087912087912087,0.31347985347985347,0.43274725274725273
10.941410640996764,0.6632234432234432,0.5294505494505495,0.6857875457875457
10.94630683700234,0.6632234432234432,0.5294505494505495,0.6857875457875457
10.95347884399962,0.9726739926739927,0.6197069597069597,2.714945054945055
10.959630883997306,0.09992673992673992,0.2191941391941392,0.3416849816849817
10.964459279995936,0.09992673992673992,0.2191941391941392,0.3416849816849817
10.970368592999876,0.07575091575091575,0.3505494505494505,0.763956043956044
10.976364633999765,0.07575091575091575,0.3505494505494505,0.763956043956044
10.98110884399648,0.07575091575091575,0.3505494505494505,0.763956043956044
10.9884546530011,0.07575091575091575,0.3505494505494505,0.763956043956044
10.994565902998147,0.07575091575091575,0.3505494505494505,0.763956043956044
10.999381560002803,0.07575091575091575,0.3505494505494505,0.763956043956044
11.00533417800034,0.07575091575091575,0.3505494505494505,0.763956043956044
11.010105396002473,0.07575091575091575,0.3505494505494505,0.763956043956044
11.018544204998761,0.07575091575091575,0.3505494505494505,0.763956043956044
11.02584177099925,0.8791941391941391,0.45772893772893775,2.3337728937728937
11.032638627002598,0.8791941391941391,0.45772893772893775,2.3337728937728937
11.040714652001043,0.8791941391941391,0.45772893772893775,2.3337728937728937
11.049321844002407,0.8791941391941391,0.45772893772893775,2.3337728937728937
11.061331283999607,0.8791941391941391,0.45772893772893775,2.3337728937728937
11.07454872100061,0.8324542124542124,0.38278388278388276,2.3853479853479853
11.088342732000456,0.8276190476190476,1.2668131868131869,2.403076923076923
11.10141083200142,0.8276190476190476,1.2668131868131869,2.403076923076923
11.114377332000004,0.3231501831501831,0.2224175824175824,0.5689377289377289
11.128001099001267,0.3231501831501831,0.2224175824175824,0.5689377289377289
11.141298775997711,0.3231501831501831,0.2224175824175824,0.5689377289377289
11.15453823700227,0.3586080586080586,0.9702564102564102,2.5070329670329667
11.168173687998205,0.11765567765567764,0.18695970695970696,0.846153846153846
11.181762562002405,0.0,0.03706959706959707,0.6656410256410257
11.193666507999296,0.0,0.03706959706959707,0.6656410256410257
11.208151382001233,0.415018315018315,0.5093040293040293,1.7035897435897436
11.221752621000633,0.415018315018315,0.5093040293040293,1.7035897435897436
11.235562823996588,0.2111355311355311,0.03706959706959707,0.37875457875457874
11.249034043998108,0.2111355311355311,0.03706959706959707,0.37875457875457874
11.262381383996399,0.0,0.5721611721611721,0.3078388278388278
11.275198019997333,0.6164835164835165,0.3553846153846154,1.2813186813186812
11.288974709998001,0.6164835164835165,0.3553846153846154,1.2813186813186812
11.301342788996408,0.4827106227106227,0.2369230769230769,0.5713553113553113
11.314242713997373,0.4827106227106227,0.2369230769230769,0.5713553113553113
11.325322411998059,0.24336996336996336,0.5084981684981685,0.08139194139194139
11.325549374996626,0.24336996336996336,0.5084981684981685,0.08139194139194139
11.33677441799955,0.24336996336996336,0.5084981684981685,0.08139194139194139
11.34653207300289,0.24336996336996336,0.5084981684981685,0.08139194139194139
11.355843076999008,0.24336996336996336,0.5084981684981685,0.08139194139194139
11.363739927997813,0.16197802197802197,0.25465201465201465,0.5560439560439561
11.37209312900086,0.16197802197802197,0.25465201465201465,0.5560439560439561
11.381356728998071,0.16197802197802197,0.25465201465201465,0.5560439560439561
11.389457174998824,0.16197802197802197,0.25465201465201465,0.5560439560439561
11.398436099996616,0.16197802197802197,0.25465201465201465,0.5560439560439561
11.407531596996705,0.16197802197802197,0.25465201465201465,0.5560439560439561
11.416130486999464,0.16197802197802197,0.25465201465201465,0.5560439560439561
11.424433373998909,0.16197802197802197,0.25465201465201465,0.5560439560439561
11.433700000001409,0.0,0.04271062271062271,0.20388278388278389
11.445326503002434,0.0,0.04271062271062271,0.20388278388278389
11.456489249998413,0.017728937728937726,0.03948717948717949,0.5955311355311355
11.4655468810015,0.415018315018315,0.23208791208791207,0.6253479853479853
11.472820103997947,0.0,0.166007326007326,0.27882783882783885
11.47886377699615,0.3441025641025641,0.5673260073260072,0.7284981684981684
11.483797036999022,0.3441025641025641,0.5673260073260072,0.7284981684981684
11.494341830999474,0.3441025641025641,0.5673260073260072,0.7284981684981684
11.505654102002154,0.3441025641025641,0.5673260073260072,0.7284981684981684
11.51665766700171,1.2627838827838826,0.6712820512820512,2.289450549450549
11.527393775002565,0.24095238095238095,0.04996336996336996,0.04351648351648352
11.540070520000882,0.0,0.04996336996336996,0.4625641025641025
11.551916090000304,0.0,0.04996336996336996,0.4625641025641025
11.566056126997864,1.4295970695970697,0.7978021978021977,2.0783150183150183
11.580859385998338,1.4295970695970697,0.7978021978021977,2.0783150183150183
11.596938542999851,0.6551648351648351,0.25545787545787546,0.6986813186813187
11.613255971002218,0.6551648351648351,0.25545787545787546,0.6986813186813187
11.630960675000097,0.6551648351648351,0.25545787545787546,0.6986813186813187
11.648245782998856,0.6551648351648351,0.25545787545787546,0.6986813186813187
11.648618097002327,0.6551648351648351,0.25545787545787546,0.6986813186813187
11.658475454001746,0.6551648351648351,0.25545787545787546,0.6986813186813187
11.669275294996623,0.8969230769230768,0.5487912087912087,2.04043956043956
11.680792557999666,0.6172893772893773,0.49238095238095236,0.7438095238095238
11.689464449998923,0.6172893772893773,0.49238095238095236,0.7438095238095238
11.699745348996657,0.6172893772893773,0.49238095238095236,0.7438095238095238
11.7117807800023,0.9476923076923076,0.5125274725274725,2.245934065934066
11.72559493099834,1.1894505494505494,0.8203663003663003,2.1556776556776556
11.738435262996063,1.1894505494505494,0.8203663003663003,2.1556776556776556
11.751466478999646,1.1894505494505494,0.8203663003663003,2.1556776556776556
11.766507956002897,0.0,0.08622710622710622,0.4085714285714286
11.7668876539974,0.40534798534798533,0.5552380952380952,1.9985347985347983
11.778385286997946,0.40534798534798533,0.5552380952380952,1.9985347985347983
11.792064248002134,0.40534798534798533,0.5552380952380952,1.9985347985347983
11.79986887799896,0.40534798534798533,0.5552380952380952,1.9985347985347983
11.805976643001486,0.5761904761904761,0.7236630036630036,0.4319413919413919
11.810798149002949,0.5761904761904761,0.7236630036630036,0.4319413919413919
11.816941072996997,0.3046153846153846,0.2095238095238095,0.36827838827838827
11.821777887998905,0.05641025641025641,0.15875457875457877,0.6422710622710622
11.829067346996453,0.2594871794871795,0.07413919413919413,1.2982417582417582
11.83515408099629,0.2594871794871795,0.07413919413919413,1.2982417582417582
11.841392919995997,0.6986813186813187,0.4158241758241758,2.4208058608058605
11.850327524996828,0.6986813186813187,0.4158241758241758,2.4208058608058605
11.860625793997315,0.6986813186813187,0.4158241758241758,2.4208058608058605
11.871455353000783,0.0,0.28769230769230764,0.6390476190476191
11.88343253399944,1.1435164835164835,0.7897435897435897,2.31040293040293
11.89925397800107,0.9734798534798534,1.2176556776556777,2.2169230769230768
11.917497702001128,0.0,0.2328937728937729,0.7430036630036629
11.91786605300149,0.0,0.2328937728937729,0.7430036630036629
11.928752861000248,0.7599267399267399,0.7478388278388278,1.1588278388278386
11.93731144299818,0.7599267399267399,0.7478388278388278,1.1588278388278386
11.950676480002585,0.7599267399267399,0.7478388278388278,1.1588278388278386
11.962634775998595,0.7599267399267399,0.7478388278388278,1.1588278388278386
11.97328399199614,0.0,0.03062271062271062,0.3465201465201465
11.9845421659993,0.0,0.03062271062271062,0.3465201465201465
11.996319603000302,0.4013186813186813,0.3852014652014652,1.5117948717948717
12.007480514002964,0.4013186813186813,0.3852014652014652,1.5117948717948717
12.014046866999706,0.4013186813186813,0.3852014652014652,1.5117948717948717
12.019176945999789,0.20065934065934066,0.2208058608058608,0.9702564102564102
12.022432234996813,0.20065934065934066,0.2208058608058608,0.9702564102564102
12.023011586999928,0.20065934065934066,0.2208058608058608,0.9702564102564102
12.02838917900226,0.20065934065934066,0.2208058608058608,0.9702564102564102
12.028805536996515,0.20065934065934066,0.2208058608058608,0.9702564102564102
12.03671317199769,0.20065934065934066,0.2208058608058608,0.9702564102564102
12.0461727649963,0.20065934065934066,0.2208058608058608,0.9702564102564102
12.052513729002385,0.20065934065934066,0.2208058608058608,0.9702564102564102
12.06081944899779,0.12168498168498168,0.28446886446886444,0.3304029304029304
12.067947962001199,0.45772893772893775,0.5447619047619047,1.5609523809523809
12.077854451999883,0.45772893772893775,0.5447619047619047,1.5609523809523809
12.089941165999335,0.2224175824175824,0.29333333333333333,0.43032967032967034
12.100810481002554,0.0,0.10153846153846154,0.6382417582417582
12.112021756998729,0.0,0.10153846153846154,0.6382417582417582
12.126139143001637,0.0,0.10153846153846154,0.6382417582417582
12.14144413699978,0.70996336996337,0.43274725274725273,1.4860073260073259
12.141862721000507,0.70996336996337,0.43274725274725273,1.4860073260073259
12.153213450001203,0.70996336996337,0.43274725274725273,1.4860073260073259
12.165414998002234,0.70996336996337,0.43274725274725273,1.4860073260073259
