time,emg1,emg2,emg3
0.003095387000939809,1.0967765567765566,0.5504029304029303,2.013040293040293
0.039481728003011085,1.0967765567765566,0.5504029304029303,2.013040293040293
0.055151120002847165,0.6906227106227106,0.2087179487179487,1.6786080586080585
0.0676560940046329,0.6906227106227106,0.2087179487179487,1.6786080586080585
0.07790892600314692,0.6906227106227106,0.2087179487179487,1.6786080586080585
0.0841807010001503,0.6906227106227106,0.2087179487179487,1.6786080586080585
0.08855174900236307,1.8736263736263734,0.8775824175824175,3.0816117216117216
0.08882860000449,1.8736263736263734,0.8775824175824175,3.0816117216117216
0.0940453980001621,1.8736263736263734,0.8775824175824175,3.0816117216117216
0.09675956800492713,1.3054945054945053,0.6471062271062271,1.9445421245421244
0.10188417899917113,1.3054945054945053,0.6471062271062271,1.9445421245421244
0.10531656200328143,1.3054945054945053,0.6471062271062271,1.9445421245421244
0.10552182199899107,1.3054945054945053,0.6471062271062271,1.9445421245421244
0.11085049900430022,1.3054945054945053,0.6471062271062271,1.9445421245421244
0.11254789699887624,0.7857142857142856,0.3497435897435897,2.0936263736263734
0.11649621299875434,0.7857142857142856,0.3497435897435897,2.0936263736263734
0.12044806500489358,0.7857142857142856,0.3497435897435897,2.0936263736263734
0.12357527900167042,0.7857142857142856,0.3497435897435897,2.0936263736263734
0.12520180600404274,0.7857142857142856,0.3497435897435897,2.0936263736263734
0.12971855600335402,0.7857142857142856,0.3497435897435897,2.0936263736263734
0.13060832700284664,0.7857142857142856,0.3497435897435897,2.0936263736263734
0.13220743700367166,0.7857142857142856,0.3497435897435897,2.0936263736263734
0.13668042499921285,0.7857142857142856,0.3497435897435897,2.0936263736263734
0.13755460399988806,0.7857142857142856,0.3497435897435897,2.0936263736263734
0.13915710300352657,0.7857142857142856,0.3497435897435897,2.0936263736263734
0.14285997200204292,0.7857142857142856,0.3497435897435897,2.0936263736263734
0.1482824199993047,0.7857142857142856,0.3497435897435897,2.0936263736263734
0.15147441199951572,0.7857142857142856,0.3497435897435897,2.0936263736263734
0.1530557529986254,0.7857142857142856,0.3497435897435897,2.0936263736263734
0.15731366199906915,0.7857142857142856,0.3497435897435897,2.0936263736263734
0.15909888400346972,0.06043956043956044,0.004029304029304029,0.9823443223443222
0.16554110500146635,1.095164835164835,0.49882783882783877,1.692307692307692
0.16860129599808715,0.017728937728937726,0.11362637362637362,1.012967032967033
0.17163408399937907,0.017728937728937726,0.11362637362637362,1.012967032967033
0.17402737399970647,0.017728937728937726,0.11362637362637362,1.012967032967033
0.17427947399846744,0.017728937728937726,0.11362637362637362,1.012967032967033
0.17967626199970255,0.017728937728937726,0.11362637362637362,1.012967032967033
0.1812462960006087,0.017728937728937726,0.11362637362637362,1.012967032967033
0.1860714709982858,0.008058608058608058,0.1813186813186813,1.1394871794871795
0.18622598799993284,1.5794871794871794,0.8880586080586079,2.3047619047619046
0.19084782100253506,1.5794871794871794,0.8880586080586079,2.3047619047619046
0.1910747080037254,1.5794871794871794,0.8880586080586079,2.3047619047619046
0.1967834360038978,1.5794871794871794,0.8880586080586079,2.3047619047619046
0.196977268999035,1.5794871794871794,0.8880586080586079,2.3047619047619046
0.20158284599892795,1.5794871794871794,0.8880586080586079,2.3047619047619046
0.20251600900519406,1.5794871794871794,0.8880586080586079,2.3047619047619046
0.2041030469990801,1.5794871794871794,0.8880586080586079,2.3047619047619046
0.20793449800112285,1.5794871794871794,0.8880586080586079,2.3047619047619046
0.21269078000477748,0.8687179487179487,0.7196336996336996,2.6827106227106228
0.21282540899846936,0.8687179487179487,0.7196336996336996,2.6827106227106228
0.21788558900152566,0.8687179487179487,0.7196336996336996,2.6827106227106228
0.22184034399833763,0.855018315018315,0.4013186813186813,1.5665934065934064
0.22639764600171475,0.855018315018315,0.4013186813186813,1.5665934065934064
0.22654514999885578,0.855018315018315,0.4013186813186813,1.5665934065934064
0.23329159599961713,0.6535531135531135,0.5649084249084249,2.5545787545787544
0.24285503599821823,0.6535531135531135,0.5649084249084249,2.5545787545787544
0.2538516130007338,0.6535531135531135,0.5649084249084249,2.5545787545787544
0.26467107500502607,0.6535531135531135,0.5649084249084249,2.5545787545787544
0.2737323059991468,0.6535531135531135,0.5649084249084249,2.5545787545787544
0.27968291000433965,0.6535531135531135,0.5649084249084249,2.5545787545787544
0.2866057799983537,0.3811721611721612,0.13941391941391942,1.4191208791208791
0.291295725000964,0.3811721611721612,0.13941391941391942,1.4191208791208791
0.2973825230001239,1.6286446886446886,0.9678388278388278,0.13941391941391942
0.3016809969994938,1.6286446886446886,0.9678388278388278,0.13941391941391942
0.30225565200089477,1.6286446886446886,0.9678388278388278,0.13941391941391942
0.3078889620010159,1.6286446886446886,0.9678388278388278,0.13941391941391942
0.3137041570007568,1.6286446886446886,0.9678388278388278,0.13941391941391942
0.31390031299815746,1.6286446886446886,0.9678388278388278,0.13941391941391942
0.3188914230049704,1.6286446886446886,0.9678388278388278,0.13941391941391942
0.32399015899864025,1.8027106227106224,0.834065934065934,2.3668131868131868
0.3273957339988556,1.8027106227106224,0.834065934065934,2.3668131868131868
0.32755535500473343,0.5326739926739926,0.3642490842490842,2.652087912087912
0.33303966200037394,0.5326739926739926,0.3642490842490842,2.652087912087912
0.33478990699950373,0.5326739926739926,0.3642490842490842,2.652087912087912
0.33962141200026963,0.35216117216117215,0.3465201465201465,1.427985347985348
0.342965780000668,1.1378754578754577,0.5262271062271061,1.6898901098901096
0.3438424140040297,1.1378754578754577,0.5262271062271061,1.6898901098901096
0.3456179390050238,1.1378754578754577,0.5262271062271061,1.6898901098901096
0.34800951500074007,1.1378754578754577,0.5262271062271061,1.6898901098901096
0.34824247199867386,1.1378754578754577,0.5262271062271061,1.6898901098901096
0.3550154160038801,1.1378754578754577,0.5262271062271061,1.6898901098901096
0.36031041300157085,1.1378754578754577,0.5262271062271061,1.6898901098901096
0.3619417070003692,0.28930402930402926,0.10315018315018315,1.3852747252747253
0.36522291300207144,0.0,0.06608058608058608,1.0226373626373626
0.36681611699896166,0.0,0.06608058608058608,1.0226373626373626
0.37133247400197433,0.0,0.06608058608058608,1.0226373626373626
0.3716279680011212,0.0,0.06608058608058608,1.0226373626373626
0.3800051549987984,1.398168498168498,0.921098901098901,0.28527472527472525
0.3877120450051734,0.0,0.18857142857142856,1.1717216117216116
0.392327818000922,0.0,0.18857142857142856,1.1717216117216116
0.3924329060027958,0.0,0.18857142857142856,1.1717216117216116
0.3979473350045737,0.0,0.18857142857142856,1.1717216117216116
0.3995975380021264,0.0273992673992674,0.047545787545787546,1.4908424908424909
0.40566397400107235,0.0273992673992674,0.047545787545787546,1.4908424908424909
0.4103422420012066,0.0,0.07816849816849816,0.8606593406593407
0.4151501090018428,0.8034432234432234,0.3424908424908425,2.3539194139194137
0.4241760980003164,0.8034432234432234,0.3424908424908425,2.3539194139194137
0.43116689700400457,0.8034432234432234,0.3424908424908425,2.3539194139194137
0.43818240700056776,1.6794139194139193,1.0315018315018314,0.49076923076923074
0.442499497999961,0.13054945054945052,0.31186813186813184,1.340952380952381
0.4441211020021001,1.0613186813186812,0.5632967032967032,1.8454212454212453
0.45081360900076106,0.0,0.0419047619047619,0.755091575091575
0.45753109799989033,0.0,0.0419047619047619,0.755091575091575
0.46122467600071104,0.0,0.0419047619047619,0.755091575091575
0.4668378100031987,0.0,0.0419047619047619,0.755091575091575
0.4669911029996001,0.0,0.0419047619047619,0.755091575091575
0.4741634410020197,0.0,0.0419047619047619,0.755091575091575
0.4783507309984998,0.0,0.0419047619047619,0.755091575091575
0.48072692500136327,0.0,0.0419047619047619,0.755091575091575
0.48087809700518847,0.0,0.0419047619047619,0.755091575091575
0.48682887500035577,0.0,0.0419047619047619,0.755091575091575
0.4869345080005587,0.0,0.0419047619047619,0.755091575091575
0.49346047500148416,0.0,0.0419047619047619,0.755091575091575
0.49735027099814033,1.913919413919414,1.0717948717948718,1.0717948717948718
0.5020097369997529,1.913919413919414,1.0717948717948718,1.0717948717948718
0.502124406004441,1.913919413919414,1.0717948717948718,1.0717948717948718
0.5087050080037443,1.913919413919414,1.0717948717948718,1.0717948717948718
0.5136510669981362,1.913919413919414,1.0717948717948718,1.0717948717948718
0.5183847490043263,1.0863003663003663,0.8042490842490841,0.8147252747252747
0.5185050319996662,0.04915750915750916,0.048351648351648346,1.5045421245421244
0.5279779210031847,0.04915750915750916,0.048351648351648346,1.5045421245421244
0.5346947950019967,2.0235164835164836,0.9533333333333331,3.2935531135531133
0.5431532779984991,2.0235164835164836,0.9533333333333331,3.2935531135531133
0.549692580003466,2.0235164835164836,0.9533333333333331,3.2935531135531133
0.55738770699827,0.8864468864468864,0.3529670329670329,1.859120879120879
0.562189620002755,1.361098901098901,0.8832234432234431,0.26593406593406593
0.5718003080037306,1.361098901098901,0.8832234432234431,0.26593406593406593
0.577417056003469,1.361098901098901,0.8832234432234431,0.26593406593406593
0.5776477670005988,1.361098901098901,0.8832234432234431,0.26593406593406593
0.582263388998399,1.361098901098901,0.8832234432234431,0.26593406593406593
0.5834141150044161,1.361098901098901,0.8832234432234431,0.26593406593406593
0.5837070150009822,1.361098901098901,0.8832234432234431,0.26593406593406593
0.589968812004372,1.361098901098901,0.8832234432234431,0.26593406593406593
0.5933063400007086,1.361098901098901,0.8832234432234431,0.26593406593406593
0.5950107460012077,0.6084249084249085,0.5117216117216117,0.9678388278388278
0.5981920640042517,0.6084249084249085,0.5117216117216117,0.9678388278388278
0.5998308490015916,0.6084249084249085,0.5117216117216117,0.9678388278388278
0.6047423470008653,0.6084249084249085,0.5117216117216117,0.9678388278388278
0.6091387909982586,0.03868131868131868,0.06285714285714286,0.7478388278388278
0.610038122998958,0.03868131868131868,0.06285714285714286,0.7478388278388278
0.6109968320015469,0.03868131868131868,0.06285714285714286,0.7478388278388278
0.612020354004926,0.03868131868131868,0.06285714285714286,0.7478388278388278
0.6130225730012171,0.03868131868131868,0.06285714285714286,0.7478388278388278
0.6138933940019342,0.03868131868131868,0.06285714285714286,0.7478388278388278
0.6154702310013818,0.03868131868131868,0.06285714285714286,0.7478388278388278
0.6207189940032549,0.03868131868131868,0.06285714285714286,0.7478388278388278
0.6234139900043374,0.03868131868131868,0.06285714285714286,0.7478388278388278
0.6284788820048561,0.03868131868131868,0.06285714285714286,0.7478388278388278
0.632657416004804,0.03868131868131868,0.06285714285714286,0.7478388278388278
0.6329315410039271,0.03868131868131868,0.06285714285714286,0.7478388278388278
0.6403628769985517,0.03868131868131868,0.06285714285714286,0.7478388278388278
0.6443268950024503,1.1225641025641024,0.5350915750915751,1.5053479853479852
0.6488327190018026,1.1225641025641024,0.5350915750915751,1.5053479853479852
0.6497562430013204,1.1225641025641024,0.5350915750915751,1.5053479853479852
0.6507156480001868,1.1225641025641024,0.5350915750915751,1.5053479853479852
0.6544350390031468,1.1225641025641024,0.5350915750915751,1.5053479853479852
0.6584773659997154,1.1225641025641024,0.5350915750915751,1.5053479853479852
0.6616827329999069,1.1225641025641024,0.5350915750915751,1.5053479853479852
0.6627392290029093,1.1225641025641024,0.5350915750915751,1.5053479853479852
0.6636370070045814,1.1225641025641024,0.5350915750915751,1.5053479853479852
0.6645368910030811,1.1225641025641024,0.5350915750915751,1.5053479853479852
0.666876356001012,1.1225641025641024,0.5350915750915751,1.5053479853479852
0.666997281005024,1.1225641025641024,0.5350915750915751,1.5053479853479852
0.6772723610047251,1.1225641025641024,0.5350915750915751,1.5053479853479852
0.6840794189993176,1.4287912087912087,0.7486446886446886,0.1386080586080586
0.6920758050036966,1.4287912087912087,0.7486446886446886,0.1386080586080586
0.698143670000718,1.4287912087912087,0.7486446886446886,0.1386080586080586
0.7040955060001579,1.4287912087912087,0.7486446886446886,0.1386080586080586
0.7080577020024066,1.4287912087912087,0.7486446886446886,0.1386080586080586
0.7111677360007889,0.8864468864468864,0.3642490842490842,1.8663736263736261
0.7134916170034558,0.8864468864468864,0.3642490842490842,1.8663736263736261
0.7137528380044387,1.0016849816849815,0.772014652014652,1.0234432234432234
0.7183677400025772,1.0016849816849815,0.772014652014652,1.0234432234432234
0.7191340520002996,1.0016849816849815,0.772014652014652,1.0234432234432234
0.7232071410035132,1.0016849816849815,0.772014652014652,1.0234432234432234
0.7241845719981939,1.0016849816849815,0.772014652014652,1.0234432234432234
0.7251167280046502,0.0,0.06446886446886446,0.8227838827838827
0.7267456830013543,0.0,0.06446886446886446,0.8227838827838827
0.7299146840014146,0.0,0.06446886446886446,0.8227838827838827
0.7316044420003891,0.0,0.06446886446886446,0.8227838827838827
0.7361376539993216,0.0,0.06446886446886446,0.8227838827838827
0.7362976680014981,0.15311355311355312,0.03223443223443223,1.0887179487179486
0.7428074839990586,0.15311355311355312,0.03223443223443223,1.0887179487179486
0.746650305998628,0.15311355311355312,0.03223443223443223,1.0887179487179486
0.7529571730046882,0.7212454212454212,0.6487179487179486,2.5384615384615383
0.7580292170023313,0.7212454212454212,0.6487179487179486,2.5384615384615383
0.7612053830016521,0.7212454212454212,0.6487179487179486,2.5384615384615383
0.7636667100014165,0.7212454212454212,0.6487179487179486,2.5384615384615383
0.7693162600044161,0.7212454212454212,0.6487179487179486,2.5384615384615383
0.7716143729994656,0.8171428571428572,0.3384615384615384,1.8953846153846152
0.7774873160014977,0.8171428571428572,0.3384615384615384,1.8953846153846152
0.7776045999999042,0.8171428571428572,0.3384615384615384,1.8953846153846152
0.7822136040049372,0.8171428571428572,0.3384615384615384,1.8953846153846152
0.7831232989992714,0.30058608058608055,0.29736263736263735,1.0661538461538462
0.7849148880050052,0.30058608058608055,0.29736263736263735,1.0661538461538462
0.7880783610016806,0.30058608058608055,0.29736263736263735,1.0661538461538462
0.7901346950020525,0.30058608058608055,0.29736263736263735,1.0661538461538462
0.7910770919988863,0.30058608058608055,0.29736263736263735,1.0661538461538462
0.7927350750032929,0.30058608058608055,0.29736263736263735,1.0661538461538462
0.7966185219993349,0.30058608058608055,0.29736263736263735,1.0661538461538462
0.801179565001803,0.30058608058608055,0.29736263736263735,1.0661538461538462
0.8014703110020491,0.30058608058608055,0.29736263736263735,1.0661538461538462
0.808493823002209,0.30058608058608055,0.29736263736263735,1.0661538461538462
0.8125579160041525,1.2095970695970695,0.9613919413919414,2.5360439560439563
0.8165687400032766,1.2095970695970695,0.9613919413919414,2.5360439560439563
0.8193199650049792,0.07897435897435898,0.0273992673992674,1.153186813186813
0.8246030669979518,2.182271062271062,0.958974358974359,2.9704029304029302
0.82634133999818,2.182271062271062,0.958974358974359,2.9704029304029302
0.8294077790051233,2.182271062271062,0.958974358974359,2.9704029304029302
0.8310502910026116,2.182271062271062,0.958974358974359,2.9704029304029302
0.835668206003902,2.182271062271062,0.958974358974359,2.9704029304029302
0.8358184500029893,0.0273992673992674,0.2868864468864469,1.2893772893772892
0.8428648340050131,0.0273992673992674,0.2868864468864469,1.2893772893772892
0.8479149350023363,0.0273992673992674,0.2868864468864469,1.2893772893772892
0.8516800420038635,0.0273992673992674,0.2868864468864469,1.2893772893772892
0.8583579980040668,1.3304761904761904,0.8429304029304028,0.19340659340659339
0.8622924680021242,0.0,0.12087912087912088,1.2805128205128204
0.8668567210042966,0.0,0.12087912087912088,1.2805128205128204
0.8670716550041107,1.0726007326007325,0.713992673992674,2.496556776556776
0.8753597050017561,1.0726007326007325,0.713992673992674,2.496556776556776
0.8810686400029226,1.0726007326007325,0.713992673992674,2.496556776556776
0.8813047730000108,0.26593406593406593,0.34087912087912087,1.1515750915750915
0.8873940589983249,0.26593406593406593,0.34087912087912087,1.1515750915750915
0.8915475260000676,0.26593406593406593,0.34087912087912087,1.1515750915750915
0.8939745329989819,0.26593406593406593,0.34087912087912087,1.1515750915750915
0.8996440780028934,0.26593406593406593,0.34087912087912087,1.1515750915750915
0.8999370720048319,0.029816849816849816,0.0410989010989011,0.6293772893772893
0.9060427750009694,0.029816849816849816,0.0410989010989011,0.6293772893772893
0.9094007239982602,1.3731868131868132,0.7655677655677655,2.154065934065934
0.9103295270033414,1.3731868131868132,0.7655677655677655,2.154065934065934
0.9113343610006268,1.3731868131868132,0.7655677655677655,2.154065934065934
0.9123180780006805,1.3731868131868132,0.7655677655677655,2.154065934065934
0.9132592880050652,1.3731868131868132,0.7655677655677655,2.154065934065934
0.9141977640028927,1.3731868131868132,0.7655677655677655,2.154065934065934
0.9158407150025596,1.3731868131868132,0.7655677655677655,2.154065934065934
0.9218975519979722,1.3731868131868132,0.7655677655677655,2.154065934065934
0.9262239020026755,1.3731868131868132,0.7655677655677655,2.154065934065934
0.9279432340044877,1.3731868131868132,0.7655677655677655,2.154065934065934
0.9313264230004279,1.3731868131868132,0.7655677655677655,2.154065934065934
0.9330116560013266,1.7221245421245421,0.805054945054945,2.7536263736263735
0.9362537370034261,1.7221245421245421,0.805054945054945,2.7536263736263735
0.9380290370027069,1.7221245421245421,0.805054945054945,2.7536263736263735
0.9402692520015989,1.7221245421245421,0.805054945054945,2.7536263736263735
0.9411693369984278,2.0589743589743588,0.8791941391941391,2.759267399267399
0.9428006430025562,2.0589743589743588,0.8791941391941391,2.759267399267399
0.9460319050049293,2.0589743589743588,0.8791941391941391,2.759267399267399
0.9469918890026747,2.0589743589743588,0.8791941391941391,2.759267399267399
0.9480117990024155,2.0589743589743588,0.8791941391941391,2.759267399267399
0.948960508001619,2.0589743589743588,0.8791941391941391,2.759267399267399
0.9499552280030912,2.0589743589743588,0.8791941391941391,2.759267399267399
0.9525627050024923,2.0589743589743588,0.8791941391941391,2.759267399267399
0.9574237449996872,2.0589743589743588,0.8791941391941391,2.759267399267399
0.9608059329984826,2.0589743589743588,0.8791941391941391,2.759267399267399
0.9610412210022332,2.0589743589743588,0.8791941391941391,2.759267399267399
0.9667459280026378,2.0589743589743588,0.8791941391941391,2.759267399267399
0.9668782650041976,2.0589743589743588,0.8791941391941391,2.759267399267399
0.9737291630008258,2.0589743589743588,0.8791941391941391,2.759267399267399
0.9779078530045808,1.3127472527472526,0.5616849816849817,2.05010989010989
0.9802923460010788,1.3127472527472526,0.5616849816849817,2.05010989010989
0.9805800610047299,1.3127472527472526,0.5616849816849817,2.05010989010989
0.9858802509988891,1.3127472527472526,0.5616849816849817,2.05010989010989
0.9895634019994759,1.3127472527472526,0.5616849816849817,2.05010989010989
0.9897365850047208,1.3127472527472526,0.5616849816849817,2.05010989010989
0.9949902590014972,1.3127472527472526,0.5616849816849817,2.05010989010989
0.9982355510001071,1.3127472527472526,0.5616849816849817,2.05010989010989
0.9998688470004709,0.0,0.08058608058608058,0.7486446886446886
1.0053169599996181,0.0,0.08058608058608058,0.7486446886446886
1.0064564830026939,0.5447619047619047,0.3263736263736263,1.2345787545787545
1.0065634220009088,0.5447619047619047,0.3263736263736263,1.2345787545787545
1.0113515949997236,0.5447619047619047,0.3263736263736263,1.2345787545787545
1.011538726001163,0.5447619047619047,0.3263736263736263,1.2345787545787545
1.0168435430023237,0.5447619047619047,0.3263736263736263,1.2345787545787545
1.0209671670017997,0.5447619047619047,0.3263736263736263,1.2345787545787545
1.0245812260036473,0.5447619047619047,0.3263736263736263,1.2345787545787545
1.0306417669999064,0.5447619047619047,0.3263736263736263,1.2345787545787545
1.0345045780049986,1.598021978021978,1.012161172161172,2.041245421245421
1.0439620870020008,1.456190476190476,0.8614652014652014,0.1668131868131868
1.0509527570029604,1.456190476190476,0.8614652014652014,0.1668131868131868
1.057687081003678,1.456190476190476,0.8614652014652014,0.1668131868131868
1.0616675810015295,1.456190476190476,0.8614652014652014,0.1668131868131868
1.0655326519990922,1.959047619047619,0.9791208791208791,3.208131868131868
1.0706715310006985,1.959047619047619,0.9791208791208791,3.208131868131868
1.0739062440043199,1.959047619047619,0.9791208791208791,3.208131868131868
1.0748655589995906,1.959047619047619,0.9791208791208791,3.208131868131868
1.076134136004839,1.959047619047619,0.9791208791208791,3.208131868131868
1.0762697239988483,1.959047619047619,0.9791208791208791,3.208131868131868
1.0834729620037251,0.21032967032967032,0.42710622710622714,1.4634432234432233
1.08903567300149,0.21032967032967032,0.42710622710622714,1.4634432234432233
1.0946678770051221,0.21032967032967032,0.42710622710622714,1.4634432234432233
1.0955689260008512,0.21032967032967032,0.42710622710622714,1.4634432234432233
1.097239378002996,0.21032967032967032,0.42710622710622714,1.4634432234432233
1.1010011610051151,0.21032967032967032,0.42710622710622714,1.4634432234432233
1.107675981002103,0.21032967032967032,0.42710622710622714,1.4634432234432233
1.1114923220011406,0.5205860805860806,0.12732600732600732,2.5078388278388277
1.1116114539981936,0.5205860805860806,0.12732600732600732,2.5078388278388277
1.1161007999980939,1.494871794871795,0.9412454212454211,0.1926007326007326
1.1179354490013793,1.494871794871795,0.9412454212454211,0.1926007326007326
1.1213884630051325,1.494871794871795,0.9412454212454211,0.1926007326007326
1.121518947002187,1.494871794871795,0.9412454212454211,0.1926007326007326
1.1267649869987508,1.494871794871795,0.9412454212454211,0.1926007326007326
1.129089792004379,1.4030036630036629,1.0145787545787546,2.852747252747253
1.1293234500044491,0.5705494505494505,0.3142857142857142,2.477216117216117
1.1347336820035707,0.5705494505494505,0.3142857142857142,2.477216117216117
1.1361125440016622,0.5705494505494505,0.3142857142857142,2.477216117216117
1.1418986690041493,0.0,0.20307692307692307,1.1386813186813185
1.146848680000403,0.0,0.20307692307692307,1.1386813186813185
1.151001187005022,0.0,0.20307692307692307,1.1386813186813185
1.1540696740048588,1.349010989010989,0.5584615384615385,2.361172161172161
1.156281231000321,0.40695970695970696,0.49076923076923074,1.324029304029304
1.1570940770034213,0.40695970695970696,0.49076923076923074,1.324029304029304
1.15861037200375,0.40695970695970696,0.49076923076923074,1.324029304029304
1.16350820200023,0.40695970695970696,0.49076923076923074,1.324029304029304
1.1684664999993402,0.40695970695970696,0.49076923076923074,1.324029304029304
1.1686670490016695,1.4715018315018316,1.0371428571428571,2.5755311355311354
1.172854570002528,1.4715018315018316,1.0371428571428571,2.5755311355311354
1.1767339940051897,1.4715018315018316,1.0371428571428571,2.5755311355311354
1.1800236039998708,1.4715018315018316,1.0371428571428571,2.5755311355311354
1.181025921003311,1.4715018315018316,1.0371428571428571,2.5755311355311354
1.1823850990040228,1.4715018315018316,1.0371428571428571,2.5755311355311354
1.1900465069993515,0.0,0.15956043956043955,1.0726007326007325
1.1962464919997728,0.5318681318681319,0.4496703296703296,2.6367765567765566
1.199363573003211,0.5318681318681319,0.4496703296703296,2.6367765567765566
1.2028542650004965,1.0057142857142858,0.4504761904761904,1.6552380952380952
1.2030883219995303,1.0057142857142858,0.4504761904761904,1.6552380952380952
1.210432548999961,1.0057142857142858,0.4504761904761904,1.6552380952380952
1.21516536600393,1.0057142857142858,0.4504761904761904,1.6552380952380952
1.2153381390016875,1.0057142857142858,0.4504761904761904,1.6552380952380952
1.2257443210037309,1.0057142857142858,0.4504761904761904,1.6552380952380952
1.2312332850051462,0.4424175824175824,0.15472527472527473,1.4835897435897436
1.2335534419980831,1.7463003663003662,0.9807326007326007,3.2717948717948717
1.233792243001517,1.7463003663003662,0.9807326007326007,3.2717948717948717
1.2413236030042754,1.7463003663003662,0.9807326007326007,3.2717948717948717
1.2482642070026486,1.7463003663003662,0.9807326007326007,3.2717948717948717
1.2519473920037854,1.7463003663003662,0.9807326007326007,3.2717948717948717
1.2591789530051756,1.7463003663003662,0.9807326007326007,3.2717948717948717
1.2633946999994805,1.7463003663003662,0.9807326007326007,3.2717948717948717
1.2672142640003585,0.0,0.048351648351648346,0.9823443223443222
1.2719874260001234,0.0,0.048351648351648346,0.9823443223443222
1.2777159090037458,0.5068864468864469,0.13619047619047617,2.5207326007326003
1.2779354009981034,0.5068864468864469,0.13619047619047617,2.5207326007326003
1.2862099339981796,0.0,0.17406593406593407,1.6342857142857143
1.292384407002828,0.1087912087912088,0.1418315018315018,0.9541391941391941
1.2974587999997311,1.6818315018315015,0.8115018315018314,2.872087912087912
1.3012346949981293,1.6818315018315015,0.8115018315018314,2.872087912087912
1.3062562920022174,1.6818315018315015,0.8115018315018314,2.872087912087912
1.3088918970024679,1.6818315018315015,0.8115018315018314,2.872087912087912
1.315396171004977,1.2595604395604394,0.502051282051282,2.27010989010989
1.3203736130017205,1.2595604395604394,0.502051282051282,2.27010989010989
1.3247103410030832,1.2595604395604394,0.502051282051282,2.27010989010989
1.3249887600031798,0.007252747252747252,0.16117216117216115,1.1523809523809523
1.3323131810029736,0.007252747252747252,0.16117216117216115,1.1523809523809523
1.3367151990023558,0.007252747252747252,0.16117216117216115,1.1523809523809523
1.3370369109979947,0.0273992673992674,0.04593406593406593,1.0508424908424907
1.3449378090008395,0.0273992673992674,0.04593406593406593,1.0508424908424907
1.351853732005111,0.0273992673992674,0.04593406593406593,1.0508424908424907
1.355866108002374,0.0273992673992674,0.04593406593406593,1.0508424908424907
1.3606458580034086,0.0273992673992674,0.04593406593406593,1.0508424908424907
1.3685856020019855,0.0273992673992674,0.04593406593406593,1.0508424908424907
1.3745296010019956,0.0273992673992674,0.04593406593406593,1.0508424908424907
1.382815559998562,0.0273992673992674,0.04593406593406593,1.0508424908424907
1.3895979430017178,2.02029304029304,0.7744322344322344,3.1976556776556775
1.3950085149990628,1.24021978021978,0.9646153846153847,2.407106227106227
1.3953284430026542,1.24021978021978,0.9646153846153847,2.407106227106227
1.4043339380004909,1.24021978021978,0.9646153846153847,2.407106227106227
1.41070839400345,1.24021978021978,0.9646153846153847,2.407106227106227
1.4153225620029843,1.5609523809523809,1.0758241758241758,2.278974358974359
1.4154720480000833,1.5609523809523809,1.0758241758241758,2.278974358974359
1.4231780690024607,1.5609523809523809,1.0758241758241758,2.278974358974359
1.4300777040043613,0.0,0.09670329670329669,1.083076923076923
1.435687383003824,0.0,0.09670329670329669,1.083076923076923
1.4455592349986546,0.0,0.09670329670329669,1.083076923076923
1.4540205279990914,0.0,0.09670329670329669,1.083076923076923
1.461197513002844,0.0,0.09670329670329669,1.083076923076923
1.466981803001545,0.0,0.09670329670329669,1.083076923076923
1.4734234670031583,1.6415384615384614,1.1459340659340658,2.1645421245421246
1.4791872639980284,1.6415384615384614,1.1459340659340658,2.1645421245421246
1.4877654669980984,1.6415384615384614,1.1459340659340658,2.1645421245421246
1.495297653003945,1.6415384615384614,1.1459340659340658,2.1645421245421246
1.5026295370043954,1.6786080586080585,0.8896703296703296,1.4086446886446886
1.510114507000253,1.6786080586080585,0.8896703296703296,1.4086446886446886
1.5152054249992943,1.6786080586080585,0.8896703296703296,1.4086446886446886
1.5193893980031135,1.6786080586080585,0.8896703296703296,1.4086446886446886
1.5208333170012338,1.6786080586080585,0.8896703296703296,1.4086446886446886
1.5271555090002948,1.6786080586080585,0.8896703296703296,1.4086446886446886
1.5320256670020171,0.0,0.02498168498168498,0.70996336996337
1.5396691109999665,0.0,0.02498168498168498,0.70996336996337
1.5455116520024603,0.0,0.02498168498168498,0.70996336996337
1.552804560000368,0.0,0.02498168498168498,0.70996336996337
1.5584483710044879,1.2805128205128204,0.469010989010989,2.305567765567765
1.5666890220018104,0.2651282051282051,0.0701098901098901,1.328058608058608
1.5716607770009432,0.00967032967032967,0.11604395604395604,0.9573626373626374
1.5762350260047242,0.00967032967032967,0.11604395604395604,0.9573626373626374
1.5764579370006686,0.00967032967032967,0.11604395604395604,0.9573626373626374
1.58221069600404,0.00967032967032967,0.11604395604395604,0.9573626373626374
1.5824489279984846,0.00967032967032967,0.11604395604395604,0.9573626373626374
1.5906220190008753,0.00967032967032967,0.11604395604395604,0.9573626373626374
1.5981490820049657,0.00967032967032967,0.11604395604395604,0.9573626373626374
1.6049171640042914,0.43758241758241756,0.1515018315018315,1.386080586080586
1.6095891119985026,0.43758241758241756,0.1515018315018315,1.386080586080586
1.6198537800009944,0.43758241758241756,0.1515018315018315,1.386080586080586
1.6274797340010991,0.43758241758241756,0.1515018315018315,1.386080586080586
1.6350872820039513,0.9243223443223443,0.5157509157509157,1.701978021978022
1.6415471180007444,0.9243223443223443,0.5157509157509157,1.701978021978022
1.6463158590049716,0.9243223443223443,0.5157509157509157,1.701978021978022
1.6547189539996907,0.9243223443223443,0.5157509157509157,1.701978021978022
1.659897698002169,0.9243223443223443,0.5157509157509157,1.701978021978022
1.6634851390044787,0.9243223443223443,0.5157509157509157,1.701978021978022
1.672873266004899,0.9243223443223443,0.5157509157509157,1.701978021978022
1.679246414998488,0.9243223443223443,0.5157509157509157,1.701978021978022
1.683364819000417,0.9243223443223443,0.5157509157509157,1.701978021978022
1.6857204320040182,0.9243223443223443,0.5157509157509157,1.701978021978022
1.6859811949980212,0.9243223443223443,0.5157509157509157,1.701978021978022
1.6905122340031085,0.9243223443223443,0.5157509157509157,1.701978021978022
1.6907350780020352,0.5729670329670329,0.4488644688644688,2.5271794871794873
1.695918129000347,0.5729670329670329,0.4488644688644688,2.5271794871794873
1.6989276300009806,0.5729670329670329,0.4488644688644688,2.5271794871794873
1.7011919299984584,0.5729670329670329,0.4488644688644688,2.5271794871794873
1.702021593999234,2.036410256410256,0.8767765567765567,2.8237362637362633
1.703616033999424,2.036410256410256,0.8767765567765567,2.8237362637362633
1.7073385629992117,2.036410256410256,0.8767765567765567,2.8237362637362633
1.7125514130020747,2.036410256410256,0.8767765567765567,2.8237362637362633
1.7155187300013495,2.036410256410256,0.8767765567765567,2.8237362637362633
1.717832628004544,2.036410256410256,0.8767765567765567,2.8237362637362633
1.7180693039990729,2.036410256410256,0.8767765567765567,2.8237362637362633
1.724958349004737,2.036410256410256,0.8767765567765567,2.8237362637362633
1.7292165149992798,0.0,0.05641025641025641,0.9799267399267398
1.730629557998327,0.0,0.05641025641025641,0.9799267399267398
1.7383795050045592,0.0,0.05641025641025641,0.9799267399267398
1.7453378610007348,0.04351648351648352,0.2562637362637363,1.2676190476190476
1.7507425830044667,0.04351648351648352,0.2562637362637363,1.2676190476190476
1.7521979980010656,0.04351648351648352,0.2562637362637363,1.2676190476190476
1.7612560550041962,0.04351648351648352,0.2562637362637363,1.2676190476190476
1.7680221740010893,0.04351648351648352,0.2562637362637363,1.2676190476190476
1.7733270489989081,0.04351648351648352,0.2562637362637363,1.2676190476190476
1.7754765499994392,1.1443223443223443,0.7752380952380952,0.47062271062271055
1.7757925260011689,1.1443223443223443,0.7752380952380952,0.47062271062271055
1.7850540459985496,1.1443223443223443,0.7752380952380952,0.47062271062271055
1.793797402002383,1.1443223443223443,0.7752380952380952,0.47062271062271055
1.8025760509990505,1.7817582417582416,0.83003663003663,2.9953846153846153
1.8097407720051706,1.7817582417582416,0.83003663003663,2.9953846153846153
1.8166138480009977,1.7817582417582416,0.83003663003663,2.9953846153846153
1.8225434289997793,1.7817582417582416,0.83003663003663,2.9953846153846153
1.8285776100019575,1.7817582417582416,0.83003663003663,2.9953846153846153
1.8341662540042307,1.7817582417582416,0.83003663003663,2.9953846153846153
1.8446334670006763,1.7817582417582416,0.83003663003663,2.9953846153846153
1.8538728519997676,1.7817582417582416,0.83003663003663,2.9953846153846153
1.8611815240001306,1.7817582417582416,0.83003663003663,2.9953846153846153
1.8681790000046021,0.0032234432234432234,0.09428571428571428,1.1636630036630036
1.873862704000203,0.0032234432234432234,0.09428571428571428,1.1636630036630036
1.8838635130014154,0.0032234432234432234,0.09428571428571428,1.1636630036630036
1.8921252799991635,0.0032234432234432234,0.09428571428571428,1.1636630036630036
1.899365363002289,0.0,0.06849816849816849,0.7083516483516483
1.906758595003339,0.0,0.1523076923076923,1.1564102564102563
1.9125865220048581,0.0,0.011282051282051281,0.8920879120879119
1.9193869209993863,0.73010989010989,0.6334065934065934,2.6335531135531136
1.923340831999667,0.73010989010989,0.6334065934065934,2.6335531135531136
1.9272091640013969,0.73010989010989,0.6334065934065934,2.6335531135531136
1.9310442710047937,0.0,0.03545787545787545,0.7075457875457875
1.935001750003721,0.0,0.03545787545787545,0.7075457875457875
1.9390677490009693,0.14344322344322344,0.3295970695970696,1.2893772893772892
1.9421345790033229,0.14344322344322344,0.3295970695970696,1.2893772893772892
1.9451078319980297,0.14344322344322344,0.3295970695970696,1.2893772893772892
1.9475770460048807,0.14344322344322344,0.3295970695970696,1.2893772893772892
1.953651538999111,0.14344322344322344,0.3295970695970696,1.2893772893772892
1.9627131070010364,0.14344322344322344,0.3295970695970696,1.2893772893772892
1.9699874040015857,0.14344322344322344,0.3295970695970696,1.2893772893772892
1.977154658001382,0.14344322344322344,0.3295970695970696,1.2893772893772892
1.9844551990026957,0.14344322344322344,0.3295970695970696,1.2893772893772892
1.989847547003592,0.14344322344322344,0.3295970695970696,1.2893772893772892
1.9903164560018922,0.14344322344322344,0.3295970695970696,1.2893772893772892
1.9993705110027804,0.14344322344322344,0.3295970695970696,1.2893772893772892
2.007084985001711,0.07897435897435898,0.06608058608058608,1.0218315018315018
2.014427523004997,0.008864468864468863,0.13699633699633698,0.9267399267399267
2.019666584004881,0.008864468864468863,0.13699633699633698,0.9267399267399267
2.0224635429985938,0.008864468864468863,0.13699633699633698,0.9267399267399267
2.0262531620028312,0.008864468864468863,0.13699633699633698,0.9267399267399267
2.0328178650015616,0.008864468864468863,0.13699633699633698,0.9267399267399267
2.038785952005128,0.008864468864468863,0.13699633699633698,0.9267399267399267
2.0444988119998015,0.11362637362637362,0.2989743589743589,1.3127472527472526
2.0512633940015803,0.11362637362637362,0.2989743589743589,1.3127472527472526
2.056794706004439,0.11362637362637362,0.2989743589743589,1.3127472527472526
2.0571176090015797,0.11362637362637362,0.2989743589743589,1.3127472527472526
2.065873867002665,0.11362637362637362,0.2989743589743589,1.3127472527472526
2.0728777140029706,0.11362637362637362,0.2989743589743589,1.3127472527472526
2.07788003400492,0.11362637362637362,0.2989743589743589,1.3127472527472526
2.083037577998766,0.11362637362637362,0.2989743589743589,1.3127472527472526
2.085471245001827,0.11362637362637362,0.2989743589743589,1.3127472527472526
2.094937296998978,0.11362637362637362,0.2989743589743589,1.3127472527472526
2.103824550002173,0.11362637362637362,0.2989743589743589,1.3127472527472526
2.1098030319990357,0.11362637362637362,0.2989743589743589,1.3127472527472526
2.1167773580018547,0.11362637362637362,0.2989743589743589,1.3127472527472526
2.1224329309989116,0.11362637362637362,0.2989743589743589,1.3127472527472526
2.1226629540033173,2.2878388278388275,1.0016849816849815,3.082417582417582
2.1317301980016055,2.2878388278388275,1.0016849816849815,3.082417582417582
2.138127064004948,2.2878388278388275,1.0016849816849815,3.082417582417582
2.142170603998238,2.2878388278388275,1.0016849816849815,3.082417582417582
2.146233266001218,2.2878388278388275,1.0016849816849815,3.082417582417582
2.1492322359990794,2.2878388278388275,1.0016849816849815,3.082417582417582
2.151550043003226,2.2878388278388275,1.0016849816849815,3.082417582417582
2.1517726279998897,2.2878388278388275,1.0016849816849815,3.082417582417582
2.1566812110031606,2.2878388278388275,1.0016849816849815,3.082417582417582
2.1615225810019183,2.2878388278388275,1.0016849816849815,3.082417582417582
2.1671260689981864,2.2878388278388275,1.0016849816849815,3.082417582417582
2.167439179000212,2.2878388278388275,1.0016849816849815,3.082417582417582
2.1721571210000548,2.2878388278388275,1.0016849816849815,3.082417582417582
2.172363753001264,2.2878388278388275,1.0016849816849815,3.082417582417582
2.1768922340052086,2.2878388278388275,1.0016849816849815,3.082417582417582
2.1772013529989636,2.2878388278388275,1.0016849816849815,3.082417582417582
2.1818807130039204,2.2878388278388275,1.0016849816849815,3.082417582417582
2.182020113003091,2.2878388278388275,1.0016849816849815,3.082417582417582
2.186947321999469,2.2878388278388275,1.0016849816849815,3.082417582417582
2.191575452001416,2.2878388278388275,1.0016849816849815,3.082417582417582
2.1917452120032976,2.2878388278388275,1.0016849816849815,3.082417582417582
2.196594058004848,2.2878388278388275,1.0016849816849815,3.082417582417582
2.196822958998382,0.0,0.13941391941391942,1.3151648351648353
2.2014332379985717,0.0,0.13941391941391942,1.3151648351648353
2.202308997999353,0.012893772893772894,0.3038095238095238,1.552087912087912
2.2039944440039108,0.012893772893772894,0.3038095238095238,1.552087912087912
2.2072359200028586,0.012893772893772894,0.3038095238095238,1.552087912087912
2.2095068050039117,0.012893772893772894,0.3038095238095238,1.552087912087912
2.2097617000035825,0.012893772893772894,0.3038095238095238,1.552087912087912
2.215203334999387,0.012893772893772894,0.3038095238095238,1.552087912087912
2.2176372290050494,1.1967032967032967,0.8332600732600732,0.5383150183150183
2.2230536389979534,0.10717948717948718,0.05802197802197802,1.0758241758241758
2.2263775290048216,1.5416117216117216,0.6728937728937728,2.5295970695970698
2.226640329005022,1.5416117216117216,0.6728937728937728,2.5295970695970698
2.2320759400026873,1.5416117216117216,0.6728937728937728,2.5295970695970698
2.2338324490046944,1.5416117216117216,0.6728937728937728,2.5295970695970698
2.2361623000033433,1.5416117216117216,0.6728937728937728,2.5295970695970698
2.2370084799986216,1.5416117216117216,0.6728937728937728,2.5295970695970698
2.237958395999158,1.5416117216117216,0.6728937728937728,2.5295970695970698
2.2396288360032486,1.5416117216117216,0.6728937728937728,2.5295970695970698
2.2426996860012878,1.5416117216117216,0.6728937728937728,2.5295970695970698
2.2449936250050087,1.5416117216117216,0.6728937728937728,2.5295970695970698
2.2453684659994906,1.5416117216117216,0.6728937728937728,2.5295970695970698
2.249870537001698,1.5416117216117216,0.6728937728937728,2.5295970695970698
2.2502410689994576,1.066959706959707,0.3892307692307692,2.1685714285714286
2.2554289940017043,1.066959706959707,0.3892307692307692,2.1685714285714286
2.2578920330051915,1.066959706959707,0.3892307692307692,2.1685714285714286
2.263091982000333,1.066959706959707,0.3892307692307692,2.1685714285714286
2.266388634001487,1.066959706959707,0.3892307692307692,2.1685714285714286
2.2672716220040456,1.066959706959707,0.3892307692307692,2.1685714285714286
2.268864270998165,1.066959706959707,0.3892307692307692,2.1685714285714286
2.273584316004417,1.066959706959707,0.3892307692307692,2.1685714285714286
2.279225480000605,1.066959706959707,0.3892307692307692,2.1685714285714286
2.2800701960004517,1.066959706959707,0.3892307692307692,2.1685714285714286
2.2816756600004737,1.066959706959707,0.3892307692307692,2.1685714285714286
2.2854339350014925,1.066959706959707,0.3892307692307692,2.1685714285714286
2.290675991003809,1.066959706959707,0.3892307692307692,2.1685714285714286
2.2936781759999576,1.066959706959707,0.3892307692307692,2.1685714285714286
2.296035853003559,1.066959706959707,0.3892307692307692,2.1685714285714286
2.2962417930029915,1.066959706959707,0.3892307692307692,2.1685714285714286
2.301421135001874,0.005641025641025641,0.27882783882783885,1.2265201465201465
2.304472681003972,0.005641025641025641,0.27882783882783885,1.2265201465201465
2.3067684800043935,0.005641025641025641,0.27882783882783885,1.2265201465201465
2.307056019999436,0.005641025641025641,0.27882783882783885,1.2265201465201465
2.31226892000268,0.005641025641025641,0.27882783882783885,1.2265201465201465
2.3159404739999445,1.6818315018315015,1.025054945054945,0.4851282051282051
2.3217493490010384,1.6818315018315015,1.025054945054945,0.4851282051282051
2.321877921000123,1.6818315018315015,1.025054945054945,0.4851282051282051
2.3263950629989267,1.6818315018315015,1.025054945054945,0.4851282051282051
2.3279509249987314,1.6818315018315015,1.025054945054945,0.4851282051282051
2.3317853129992727,1.6818315018315015,1.025054945054945,0.4851282051282051
2.3362852680002106,1.6818315018315015,1.025054945054945,0.4851282051282051
2.3371169340025517,1.6818315018315015,1.025054945054945,0.4851282051282051
2.3387364450027235,1.6818315018315015,1.025054945054945,0.4851282051282051
2.3424698790040566,1.6818315018315015,1.025054945054945,0.4851282051282051
2.3477137759982725,1.6818315018315015,1.025054945054945,0.4851282051282051
2.3514463610044913,1.6818315018315015,1.025054945054945,0.4851282051282051
2.3566513859987026,1.6818315018315015,1.025054945054945,0.4851282051282051
2.359945490999962,1.6818315018315015,1.025054945054945,0.4851282051282051
2.3608186950004892,1.6818315018315015,1.025054945054945,0.4851282051282051
2.362382052000612,1.6818315018315015,1.025054945054945,0.4851282051282051
2.3662850260006962,1.6818315018315015,1.025054945054945,0.4851282051282051
2.3707195919996593,1.6818315018315015,1.025054945054945,0.4851282051282051
2.371577554004034,1.6818315018315015,1.025054945054945,0.4851282051282051
2.3732822770034545,1.8075457875457877,1.062930402930403,0.9009523809523808
2.3763308600027813,1.8075457875457877,1.062930402930403,0.9009523809523808
2.379006766001112,1.8075457875457877,1.062930402930403,0.9009523809523808
2.385953179000353,1.8075457875457877,1.062930402930403,0.9009523809523808
2.3917999480036087,1.8075457875457877,1.062930402930403,0.9009523809523808
2.394885408000846,1.9808058608058605,0.946080586080586,3.1936263736263735
2.3971797170015634,1.9808058608058605,0.946080586080586,3.1936263736263735
2.397422303001804,1.9808058608058605,0.946080586080586,3.1936263736263735
2.4018170690033003,1.9808058608058605,0.946080586080586,3.1936263736263735
2.403293866002059,1.9808058608058605,0.946080586080586,3.1936263736263735
2.407498405998922,0.0,0.12571428571428572,0.9871794871794871
2.4104124830046203,0.0,0.12571428571428572,0.9871794871794871
2.4134248000045773,0.0,0.12571428571428572,0.9871794871794871
2.416563810002117,0.0,0.12571428571428572,0.9871794871794871
2.4181263690043124,0.0,0.12571428571428572,0.9871794871794871
2.424420866998844,0.0,0.12571428571428572,0.9871794871794871
2.42818483299925,2.178241758241758,0.9952380952380951,3.2266666666666666
2.4334759730045334,2.178241758241758,0.9952380952380951,3.2266666666666666
2.4358216510008788,2.178241758241758,0.9952380952380951,3.2266666666666666
2.4360609780051163,2.178241758241758,0.9952380952380951,3.2266666666666666
2.441343427999527,2.178241758241758,0.9952380952380951,3.2266666666666666
2.443684910002048,2.178241758241758,0.9952380952380951,3.2266666666666666
2.4438786710015847,0.0,0.08703296703296703,1.025054945054945
2.4491802740012645,0.0,0.08703296703296703,1.025054945054945
2.4516172660005395,0.0,0.08703296703296703,1.025054945054945
2.457063672001823,0.0,0.08703296703296703,1.025054945054945
2.4593139300050098,0.0,0.08703296703296703,1.025054945054945
2.4595816639994155,0.0,0.08703296703296703,1.025054945054945
2.464742426003795,2.2145054945054943,0.9339926739926739,2.8946520146520145
2.467749845003709,2.2145054945054943,0.9339926739926739,2.8946520146520145
2.470062673004577,1.4723076923076923,1.091135531135531,2.5175091575091573
2.470322204004333,1.4723076923076923,1.091135531135531,2.5175091575091573
2.4748738010021043,1.4723076923076923,1.091135531135531,2.5175091575091573
2.4751859180032625,0.28527472527472525,0.4198534798534798,1.3562637362637362
2.480438286998833,0.28527472527472525,0.4198534798534798,1.3562637362637362
2.4833880820006016,0.1386080586080586,0.02901098901098901,1.4352380952380952
2.4865733590049786,0.1386080586080586,0.02901098901098901,1.4352380952380952
2.488200659005088,0.1386080586080586,0.02901098901098901,1.4352380952380952
2.492775263002841,0.1386080586080586,0.02901098901098901,1.4352380952380952
2.4930575379985385,0.1386080586080586,0.02901098901098901,1.4352380952380952
2.4984627640005783,0.1386080586080586,0.02901098901098901,1.4352380952380952
2.501426006005204,0.1386080586080586,0.02901098901098901,1.4352380952380952
2.5043878610013053,0.28769230769230764,0.07172161172161172,1.3385347985347984
2.5073805889987852,0.28769230769230764,0.07172161172161172,1.3385347985347984
2.5103999040002236,1.4102564102564101,1.041978021978022,2.586007326007326
2.5126861820026534,1.4102564102564101,1.041978021978022,2.586007326007326
2.5129195289991912,1.4102564102564101,1.041978021978022,2.586007326007326
2.5174403519995394,1.4102564102564101,1.041978021978022,2.586007326007326
2.5190355390004697,1.4102564102564101,1.041978021978022,2.586007326007326
2.522836625998025,1.0564835164835162,0.381978021978022,1.8615384615384614
2.528165732001071,1.0564835164835162,0.381978021978022,1.8615384615384614
2.5306513539981097,1.0564835164835162,0.381978021978022,1.8615384615384614
2.5359804760009865,1.3659340659340657,0.5246153846153846,2.444981684981685
2.5385126110049896,0.9597802197802198,0.7325274725274724,0.7083516483516483
2.538641318002192,0.9597802197802198,0.7325274725274724,0.7083516483516483
2.5442169000016293,0.6519413919413919,0.29333333333333333,1.531941391941392
2.5451877579980646,0.07494505494505493,0.190989010989011,1.083076923076923
2.5460479370012763,0.07494505494505493,0.190989010989011,1.083076923076923
2.5476732079987414,0.07494505494505493,0.190989010989011,1.083076923076923
2.55157817700092,0.07494505494505493,0.190989010989011,1.083076923076923
2.5562328080050065,0.07494505494505493,0.190989010989011,1.083076923076923
2.557090202004474,1.0226373626373626,0.8324542124542124,0.8558241758241758
2.558677002998593,1.0226373626373626,0.8324542124542124,0.8558241758241758
2.5625507720033056,0.15069597069597068,0.03062271062271062,1.4312087912087912
2.5680495810011053,0.0,0.07816849816849816,0.9065934065934066
2.569834081004956,0.0,0.07816849816849816,0.9065934065934066
2.5721899080017465,0.0,0.07816849816849816,0.9065934065934066
2.5724156869982835,0.0,0.07816849816849816,0.9065934065934066
2.577746050999849,0.0,0.07816849816849816,0.9065934065934066
2.579524038999807,0.0,0.07816849816849816,0.9065934065934066
2.582597942004213,0.0,0.07816849816849816,0.9065934065934066
2.584201445999497,0.0,0.07816849816849816,0.9065934065934066
2.588142805005191,0.0,0.05721611721611722,0.9315750915750916
2.591191837003862,0.0,0.05721611721611722,0.9315750915750916
2.593526495998958,0.0,0.05721611721611722,0.9315750915750916
2.5936728610031423,0.0,0.05721611721611722,0.9315750915750916
2.5990323389996774,0.0,0.05721611721611722,0.9315750915750916
2.600842885003658,0.0,0.05721611721611722,0.9315750915750916
2.603318517001753,0.0,0.05721611721611722,0.9315750915750916
2.6034149550032453,0.0,0.05721611721611722,0.9315750915750916
2.6085857459984254,0.0,0.05721611721611722,0.9315750915750916
2.6108973200025503,0.0,0.05721611721611722,0.9315750915750916
2.611168510004063,0.0,0.05721611721611722,0.9315750915750916
2.6164705050032353,0.0,0.05721611721611722,0.9315750915750916
2.618169533001492,0.0,0.05721611721611722,0.9315750915750916
2.6221444210023037,0.0,0.05721611721611722,0.9315750915750916
2.6259912320019794,2.0847619047619044,0.9726739926739927,3.1436630036630033
2.630563153004914,0.0,0.06124542124542124,1.0258608058608059
2.6313966730012908,0.0,0.06124542124542124,1.0258608058608059
2.6331574010037,0.0,0.06124542124542124,1.0258608058608059
2.6373752770014107,1.527106227106227,0.971062271062271,0.19018315018315018
2.638802346002194,1.527106227106227,0.971062271062271,0.19018315018315018
2.6461285870027496,0.01934065934065934,0.3038095238095238,1.5375824175824175
2.6519477239999105,0.025787545787545788,0.1813186813186813,1.0572893772893772
2.6587784250004916,1.7487179487179487,0.8542124542124543,3.223443223443223
2.6634347350045573,1.7487179487179487,0.8542124542124543,3.223443223443223
2.673116324003786,1.2982417582417582,0.6712820512820512,2.398241758241758
2.6816757480046363,1.2426373626373626,0.8002197802197801,1.7197069597069596
2.6885136749988305,0.11443223443223444,0.3706959706959707,1.5536996336996336
2.6939911220033537,0.11443223443223444,0.3706959706959707,1.5536996336996336
2.6941870160007966,0.11443223443223444,0.3706959706959707,1.5536996336996336
2.70293137900444,0.11443223443223444,0.3706959706959707,1.5536996336996336
2.7077169449985377,0.11443223443223444,0.3706959706959707,1.5536996336996336
2.7078195049980422,0.11443223443223444,0.3706959706959707,1.5536996336996336
2.715647743003501,0.11443223443223444,0.3706959706959707,1.5536996336996336
2.721644113000366,1.0726007326007325,0.3690842490842491,2.133919413919414
2.7264379670014023,1.0726007326007325,0.3690842490842491,2.133919413919414
2.7348223490043893,1.0726007326007325,0.3690842490842491,2.133919413919414
2.7411247179989005,1.0726007326007325,0.3690842490842491,2.133919413919414
2.7467119959983393,1.0726007326007325,0.3690842490842491,2.133919413919414
2.746898361001513,1.0726007326007325,0.3690842490842491,2.133919413919414
2.755877251998754,1.0726007326007325,0.3690842490842491,2.133919413919414
2.7628275290044257,1.0726007326007325,0.3690842490842491,2.133919413919414
2.7660766310000326,1.0726007326007325,0.3690842490842491,2.133919413919414
2.7694393979982124,1.0726007326007325,0.3690842490842491,2.133919413919414
2.777458577998914,1.0726007326007325,0.3690842490842491,2.133919413919414
2.7850060460041277,1.0726007326007325,0.3690842490842491,2.133919413919414
2.7909861279986217,1.0726007326007325,0.3690842490842491,2.133919413919414
2.79673900600028,1.3046886446886445,0.46498168498168496,2.3764835164835163
2.804045828001108,0.0,0.12813186813186814,1.2506959706959706
2.809877363004489,0.0,0.12813186813186814,1.2506959706959706
2.817182523001975,0.0,0.12813186813186814,1.2506959706959706
2.8228403219982283,1.9074725274725273,0.9243223443223443,3.104175824175824
2.832813086002716,1.9074725274725273,0.9243223443223443,3.104175824175824
2.841184468998108,1.593992673992674,1.0685714285714285,2.285421245421245
2.846489178999036,1.9010256410256408,0.8493772893772893,3.1968498168498165
2.848847790999571,1.9010256410256408,0.8493772893772893,3.1968498168498165
2.8490057720046025,1.9010256410256408,0.8493772893772893,3.1968498168498165
2.8536108289990807,0.8356776556776556,0.25545787545787546,2.4949450549450547
2.8539105410018237,0.8356776556776556,0.25545787545787546,2.4949450549450547
2.858669090004696,0.8356776556776556,0.25545787545787546,2.4949450549450547
2.8587955219991272,0.5600732600732601,0.6148717948717949,1.3248351648351648
2.8643360170026426,0.5600732600732601,0.6148717948717949,1.3248351648351648
2.8652603779992205,0.5600732600732601,0.6148717948717949,1.3248351648351648
2.8662362809991464,0.5600732600732601,0.6148717948717949,1.3248351648351648
2.8678711669999757,0.5600732600732601,0.6148717948717949,1.3248351648351648
2.8720956800025306,0.5600732600732601,0.6148717948717949,1.3248351648351648
2.87454430499929,1.8518681318681318,0.9468864468864467,3.3
2.880556477000937,1.8518681318681318,0.9468864468864467,3.3
2.885471918998519,0.21355311355311357,0.4504761904761904,1.4956776556776556
2.8921159820019966,0.21355311355311357,0.4504761904761904,1.4956776556776556
2.8970816060027573,0.21355311355311357,0.4504761904761904,1.4956776556776556
2.9024998910026625,0.21355311355311357,0.4504761904761904,1.4956776556776556
2.9027153360002558,0.21355311355311357,0.4504761904761904,1.4956776556776556
2.911118506999628,0.21355311355311357,0.4504761904761904,1.4956776556776556
2.9204852809998556,0.21355311355311357,0.4504761904761904,1.4956776556776556
2.9297212550009135,0.21355311355311357,0.4504761904761904,1.4956776556776556
2.9385693770018406,0.0,0.033846153846153845,0.7156043956043956
2.9449233100021956,0.0,0.033846153846153845,0.7156043956043956
2.9512140070000896,0.0,0.06043956043956044,0.917069597069597
2.956826075002027,0.0,0.06043956043956044,0.917069597069597
2.965476914003375,0.0,0.06043956043956044,0.917069597069597
2.976710640003148,0.0,0.06608058608058608,1.1233699633699634
2.9856309899987536,0.0,0.06608058608058608,1.1233699633699634
2.991872582002543,0.0,0.06608058608058608,1.1233699633699634
2.995131258001493,0.5769963369963369,0.1249084249084249,2.6045421245421245
2.9974074850033503,0.5769963369963369,0.1249084249084249,2.6045421245421245
3.005894959998841,0.5769963369963369,0.1249084249084249,2.6045421245421245
3.01051440199808,0.5769963369963369,0.1249084249084249,2.6045421245421245
3.0107195710006636,0.6559706959706959,0.4319413919413919,2.4788278388278386
3.0160680090048118,0.6559706959706959,0.4319413919413919,2.4788278388278386
3.018817285003024,0.6559706959706959,0.4319413919413919,2.4788278388278386
3.0240564339983393,0.6559706959706959,0.4319413919413919,2.4788278388278386
3.0256263990013395,0.0,0.10476190476190475,1.021025641025641
3.0299702120028087,1.656043956043956,1.1112820512820514,2.0823443223443223
3.030857017998642,1.656043956043956,1.1112820512820514,2.0823443223443223
3.032430885999929,1.656043956043956,1.1112820512820514,2.0823443223443223
3.0392066540007363,1.656043956043956,1.1112820512820514,2.0823443223443223
3.042322833003709,1.656043956043956,1.1112820512820514,2.0823443223443223
3.044656705998932,1.3465934065934064,0.5681318681318681,1.9663003663003662
3.0447982480036444,1.3465934065934064,0.5681318681318681,1.9663003663003662
3.0498804689996177,1.3465934065934064,0.5681318681318681,1.9663003663003662
3.0552558100025635,0.9025641025641026,0.8203663003663003,2.7117216117216114
3.055522647999169,0.9025641025641026,0.8203663003663003,2.7117216117216114
3.0604167569981655,0.9025641025641026,0.8203663003663003,2.7117216117216114
3.0605386680035735,0.7728205128205128,0.3191208791208791,1.515018315018315
3.065858740999829,0.7728205128205128,0.3191208791208791,1.515018315018315
3.069462872997974,0.7728205128205128,0.3191208791208791,1.515018315018315
3.0764007620018674,0.7728205128205128,0.3191208791208791,1.515018315018315
3.080986468004994,1.4134798534798534,0.6406593406593406,2.0388278388278387
3.0812442640017252,1.4134798534798534,0.6406593406593406,2.0388278388278387
3.088590211002156,1.4134798534798534,0.6406593406593406,2.0388278388278387
3.0943865750014083,1.4134798534798534,0.6406593406593406,2.0388278388278387
3.1013438520021737,1.6689377289377287,0.8171428571428572,2.864029304029304
3.105955808001454,1.6689377289377287,0.8171428571428572,2.864029304029304
3.1062917040035245,1.6689377289377287,0.8171428571428572,2.864029304029304
3.1108425890051876,1.6689377289377287,0.8171428571428572,2.864029304029304
3.111051525003859,1.6689377289377287,0.8171428571428572,2.864029304029304
3.1163334230004693,1.6689377289377287,0.8171428571428572,2.864029304029304
3.120539068004291,1.6689377289377287,0.8171428571428572,2.864029304029304
3.121617934004462,1.6689377289377287,0.8171428571428572,2.864029304029304
3.12184475200047,1.6689377289377287,0.8171428571428572,2.864029304029304
3.1270537140007946,1.6689377289377287,0.8171428571428572,2.864029304029304
3.1294935250043636,1.6689377289377287,0.8171428571428572,2.864029304029304
3.13570215600339,1.6689377289377287,0.8171428571428572,2.864029304029304
3.140512404999754,1.6689377289377287,0.8171428571428572,2.864029304029304
3.144457817004877,1.6689377289377287,0.8171428571428572,2.864029304029304
3.1483239389999653,1.6689377289377287,0.8171428571428572,2.864029304029304
3.155516473001626,1.6689377289377287,0.8171428571428572,2.864029304029304
3.1608983570040436,0.10153846153846154,0.3706959706959707,1.3538461538461537
3.161172981999698,0.10153846153846154,0.3706959706959707,1.3538461538461537
3.166847833999782,0.10153846153846154,0.3706959706959707,1.3538461538461537
3.1672773489990504,0.10153846153846154,0.3706959706959707,1.3538461538461537
3.1756298289983533,0.10153846153846154,0.3706959706959707,1.3538461538461537
3.1824156479997328,0.10153846153846154,0.3706959706959707,1.3538461538461537
3.1873689929998363,1.5786813186813187,0.7002930402930403,2.112161172161172
3.191663912999502,0.0,0.10073260073260072,0.838095238095238
3.1933325639984105,0.0,0.10073260073260072,0.838095238095238
3.19709086700459,0.0,0.10073260073260072,0.838095238095238
3.2045375169982435,0.0,0.10073260073260072,0.838095238095238
3.208264845998201,0.0,0.10073260073260072,0.838095238095238
3.2130289030028507,0.0,0.10073260073260072,0.838095238095238
3.2203115669981344,0.0,0.10073260073260072,0.838095238095238
3.2256772270047804,0.0,0.10073260073260072,0.838095238095238
3.2265520130022196,0.0,0.10073260073260072,0.838095238095238
3.2282227500036242,0.0,0.10073260073260072,0.838095238095238
3.2321138629995403,0.0,0.10073260073260072,0.838095238095238
3.2389402740009245,0.0,0.10073260073260072,0.838095238095238
3.244716902001528,0.32476190476190475,0.07655677655677656,1.3425641025641024
3.249295939000149,0.32476190476190475,0.07655677655677656,1.3425641025641024
3.249546224004007,1.5867399267399267,1.1048351648351646,2.4079120879120874
3.2582028719989466,1.5867399267399267,1.1048351648351646,2.4079120879120874
3.2641187780027394,0.9146520146520146,0.7986080586080586,1.2805128205128204
3.2692404550034553,0.0,0.04673992673992674,0.8147252747252747
3.2753365660028066,1.2627838827838826,0.7841025641025641,1.6931135531135528
3.2809504739998374,1.2627838827838826,0.7841025641025641,1.6931135531135528
3.2899340520016267,1.2627838827838826,0.7841025641025641,1.6931135531135528
3.294593006998184,1.2627838827838826,0.7841025641025641,1.6931135531135528
3.29547170400474,1.8865201465201462,1.025054945054945,1.207179487179487
3.297076811999432,1.8865201465201462,1.025054945054945,1.207179487179487
3.3044455449999077,0.21435897435897436,0.4045421245421245,1.3417582417582417
3.309690259004128,0.21435897435897436,0.4045421245421245,1.3417582417582417
3.312308673004736,0.21435897435897436,0.4045421245421245,1.3417582417582417
3.316318119999778,0.21435897435897436,0.4045421245421245,1.3417582417582417
3.3207390110037522,0.21435897435897436,0.4045421245421245,1.3417582417582417
3.321008682003594,0.0,0.1095970695970696,1.5206593406593405
3.3258613479993073,1.9187545787545788,0.8308424908424907,3.1944322344322345
3.3312196740007494,1.4997069597069597,1.0484249084249082,2.108131868131868
3.33436559799884,1.4997069597069597,1.0484249084249082,2.108131868131868
3.3354982680029934,0.8397069597069596,0.6575824175824176,0.8517948717948718
3.335761526002898,0.8397069597069596,0.6575824175824176,0.8517948717948718
3.341384587001812,0.8397069597069596,0.6575824175824176,0.8517948717948718
3.342233790004684,1.9123076923076923,0.9605860805860806,3.2250549450549446
3.343876610000734,1.9123076923076923,0.9605860805860806,3.2250549450549446
3.3479226190029294,0.0,0.09347985347985348,1.008937728937729
3.351788938998652,0.0,0.09347985347985348,1.008937728937729
3.3575112160033314,0.8252014652014652,0.28124542124542123,2.4175824175824174
3.363056307003717,0.8252014652014652,0.28124542124542123,2.4175824175824174
3.3639721049985383,0.8252014652014652,0.28124542124542123,2.4175824175824174
3.3649285520004923,0.8252014652014652,0.28124542124542123,2.4175824175824174
3.3660516119998647,0.8252014652014652,0.28124542124542123,2.4175824175824174
3.3670716890046606,0.8252014652014652,0.28124542124542123,2.4175824175824174
3.369053285001428,0.8252014652014652,0.28124542124542123,2.4175824175824174
3.3693627180036856,0.8252014652014652,0.28124542124542123,2.4175824175824174
3.3758013309998205,0.8252014652014652,0.28124542124542123,2.4175824175824174
3.381452031004301,0.8252014652014652,0.28124542124542123,2.4175824175824174
3.3899788859998807,0.8252014652014652,0.28124542124542123,2.4175824175824174
3.395779616002983,0.0,0.06124542124542124,0.796996336996337
3.395871979999356,0.0,0.06124542124542124,0.796996336996337
3.401259343001584,0.0,0.06124542124542124,0.796996336996337
3.4055051500035916,0.0,0.06124542124542124,0.796996336996337
3.406616632004443,0.0,0.04673992673992674,0.7994139194139194
3.406907773001876,0.0,0.04673992673992674,0.7994139194139194
3.415533700004744,1.5424175824175823,1.1032234432234431,2.378901098901099
3.4243381720007164,1.5424175824175823,1.1032234432234431,2.378901098901099
3.4315400320047047,1.5424175824175823,1.1032234432234431,2.378901098901099
3.4378338840033393,1.5424175824175823,1.1032234432234431,2.378901098901099
3.4420585859988932,0.14102564102564102,0.0273992673992674,1.0782417582417583
3.4424700630042935,0.0,0.2627106227106227,1.539194139194139
3.447693084999628,0.0,0.2627106227106227,1.539194139194139
3.449484800999926,0.0,0.2627106227106227,1.539194139194139
3.455415880998771,0.0,0.2627106227106227,1.539194139194139
3.458698449001531,0.0,0.2627106227106227,1.539194139194139
3.459583231000579,0.0,0.2627106227106227,1.539194139194139
3.4611974400031613,0.0,0.2627106227106227,1.539194139194139
3.465672286998597,0.0,0.2627106227106227,1.539194139194139
3.465948691999074,0.0,0.08703296703296703,1.0734065934065933
3.4723305759980576,0.0,0.08703296703296703,1.0734065934065933
3.4762131739989854,0.0,0.08703296703296703,1.0734065934065933
3.4807966930020484,0.0,0.08703296703296703,1.0734065934065933
3.481037646000914,0.0,0.08703296703296703,1.0734065934065933
3.4886580439997488,0.0,0.08703296703296703,1.0734065934065933
3.493227940001816,1.2555311355311354,0.8695238095238095,1.7865934065934064
3.498675169998023,1.2555311355311354,0.8695238095238095,1.7865934065934064
3.501127755000198,1.2555311355311354,0.8695238095238095,1.7865934065934064
3.5090688109994517,1.2555311355311354,0.8695238095238095,1.7865934065934064
3.5161509710014798,1.2555311355311354,0.8695238095238095,1.7865934065934064
3.5235651949988096,1.2555311355311354,0.8695238095238095,1.7865934065934064
3.528900056000566,1.2555311355311354,0.8695238095238095,1.7865934065934064
3.5297428970006877,1.2555311355311354,0.8695238095238095,1.7865934065934064
3.5313367690032464,1.2555311355311354,0.8695238095238095,1.7865934065934064
3.5373774399995455,1.2555311355311354,0.8695238095238095,1.7865934065934064
3.5443480350004393,1.2555311355311354,0.8695238095238095,1.7865934065934064
3.5499291970045306,1.2555311355311354,0.8695238095238095,1.7865934065934064
3.557838412998535,0.6728937728937728,0.3876190476190476,2.488498168498168
3.5625263820038526,0.1386080586080586,0.01531135531135531,0.9493040293040291
3.5626809140012483,0.1386080586080586,0.01531135531135531,0.9493040293040291
3.5692131770047126,0.1386080586080586,0.01531135531135531,0.9493040293040291
3.5743971769989002,0.1386080586080586,0.01531135531135531,0.9493040293040291
3.5767266510010813,0.1386080586080586,0.01531135531135531,0.9493040293040291
3.5769382549988222,0.1386080586080586,0.01531135531135531,0.9493040293040291
3.582442484999774,0.1386080586080586,0.01531135531135531,0.9493040293040291
3.5834720979983103,0.166007326007326,0.24256410256410255,1.0846886446886446
3.5850985280048917,0.166007326007326,0.24256410256410255,1.0846886446886446
3.5916414050007006,0.0,0.07494505494505493,0.8783882783882784
3.596686631004559,0.8791941391941391,0.3199267399267399,2.1685714285714286
3.599263994001376,0.8791941391941391,0.3199267399267399,2.1685714285714286
3.6053949190027197,0.8791941391941391,0.3199267399267399,2.1685714285714286
3.60857936800312,0.0,0.14586080586080585,0.9807326007326007
3.610897730999568,0.0,0.14586080586080585,0.9807326007326007
3.6111764169982052,0.0,0.14586080586080585,0.9807326007326007
3.6165538179993746,0.0,0.14586080586080585,0.9807326007326007
3.621024619002128,0.0,0.14586080586080585,0.9807326007326007
3.6271602810011245,0.0,0.14586080586080585,0.9807326007326007
3.630948919999355,0.0,0.14586080586080585,0.9807326007326007
3.639482331003819,0.6124542124542125,0.12974358974358974,2.5473260073260073
3.644056021999859,0.0,0.10556776556776555,1.2039560439560437
3.644902757005184,0.0,0.10556776556776555,1.2039560439560437
3.646494820000953,0.0,0.052380952380952375,0.8163369963369963
3.650325139002234,0.0,0.052380952380952375,0.8163369963369963
3.6562267199988128,0.0,0.052380952380952375,0.8163369963369963
3.660046090000833,0.0,0.052380952380952375,0.8163369963369963
3.6651409640035126,0.0,0.052380952380952375,0.8163369963369963
3.6702428010030417,0.0,0.052380952380952375,0.8163369963369963
3.67227246100083,0.8816117216117215,0.24417582417582417,2.374065934065934
3.6731844450041535,0.8816117216117215,0.24417582417582417,2.374065934065934
3.674756361004256,0.8816117216117215,0.24417582417582417,2.374065934065934
3.6785955680024927,0.8816117216117215,0.24417582417582417,2.374065934065934
3.683836791999056,0.13054945054945052,0.3972893772893773,1.3925274725274726
3.6880700789988623,2.1202197802197804,0.8969230769230768,2.7205860805860804
3.6884708830039017,2.1202197802197804,0.8969230769230768,2.7205860805860804
3.6924195360043086,2.1202197802197804,0.8969230769230768,2.7205860805860804
3.696629603000474,1.7261538461538461,0.9904029304029303,0.5955311355311355
3.698268209998787,1.7261538461538461,0.9904029304029303,0.5955311355311355
3.703656265999598,1.7261538461538461,0.9904029304029303,0.5955311355311355
3.703987822998897,2.1927472527472527,0.9347985347985347,2.9655677655677657
3.709508152001945,2.1927472527472527,0.9347985347985347,2.9655677655677657
3.710384858000907,2.1927472527472527,0.9347985347985347,2.9655677655677657
3.712073688999226,2.1927472527472527,0.9347985347985347,2.9655677655677657
3.7179012630003854,2.1927472527472527,0.9347985347985347,2.9655677655677657
3.7257659770039027,2.1927472527472527,0.9347985347985347,2.9655677655677657
3.7312586440020823,2.1927472527472527,0.9347985347985347,2.9655677655677657
3.7328755730050034,2.1927472527472527,0.9347985347985347,2.9655677655677657
3.7382036880007945,2.1927472527472527,0.9347985347985347,2.9655677655677657
3.7409930380017613,0.28446886446886444,0.47062271062271055,1.3635164835164835
3.7459571350045735,0.28446886446886444,0.47062271062271055,1.3635164835164835
3.7496304960004636,0.28446886446886444,0.47062271062271055,1.3635164835164835
3.759910001004755,1.236996336996337,0.9299633699633699,2.8946520146520145
3.7678410680018715,1.838168498168498,1.0186080586080586,0.788937728937729
3.776159875000303,1.838168498168498,1.0186080586080586,0.788937728937729
3.7821125949994894,1.6455677655677654,0.9678388278388278,0.4085714285714286
3.7898918530045194,1.6455677655677654,0.9678388278388278,0.4085714285714286
3.7979887800029246,0.0,0.0975091575091575,0.8630769230769231
3.8058860070013907,0.0,0.0975091575091575,0.8630769230769231
3.813417985002161,1.4416849816849817,0.6172893772893773,2.2225641025641028
3.8192483329985407,1.4416849816849817,0.6172893772893773,2.2225641025641028
3.8251958640030352,1.4416849816849817,0.6172893772893773,2.2225641025641028
3.832994383999903,1.6254212454212453,0.8139194139194139,2.6190476190476186
3.8392178530048113,1.6254212454212453,0.8139194139194139,2.6190476190476186
3.8440853920037625,1.6254212454212453,0.8139194139194139,2.6190476190476186
3.8521578799991403,1.6254212454212453,0.8139194139194139,2.6190476190476186
3.8580742530029966,0.701098901098901,0.6245421245421244,2.6786813186813188
3.86344549000205,0.11765567765567764,0.41018315018315016,1.5222710622710622
3.8659112509994884,0.11765567765567764,0.41018315018315016,1.5222710622710622
3.8660744599983445,0.11765567765567764,0.41018315018315016,1.5222710622710622
3.8742908380008885,0.11765567765567764,0.41018315018315016,1.5222710622710622
3.878223835999961,0.11765567765567764,0.41018315018315016,1.5222710622710622
3.8828845520038158,0.2909157509157509,0.4891575091575091,1.382051282051282
3.8830169229986495,0.2909157509157509,0.4891575091575091,1.382051282051282
3.890287343005184,0.2909157509157509,0.4891575091575091,1.382051282051282
3.894221202004701,0.6841758241758242,0.6229304029304029,2.5626373626373624
3.898054041004798,0.6841758241758242,0.6229304029304029,2.5626373626373624
3.9055216679989826,0.6841758241758242,0.6229304029304029,2.5626373626373624
3.9095008689982933,0.6841758241758242,0.6229304029304029,2.5626373626373624
3.914343958000245,0.6841758241758242,0.6229304029304029,2.5626373626373624
3.920693886000663,0.6841758241758242,0.6229304029304029,2.5626373626373624
3.924640431003354,0.6841758241758242,0.6229304029304029,2.5626373626373624
3.9285678259984707,0.6841758241758242,0.6229304029304029,2.5626373626373624
3.932862870002282,0.6841758241758242,0.6229304029304029,2.5626373626373624
3.9355782130005537,0.6841758241758242,0.6229304029304029,2.5626373626373624
3.940613040002063,0.8808058608058608,0.8115018315018314,1.2458608058608058
3.942988515002071,0.8808058608058608,0.8115018315018314,1.2458608058608058
3.9432031379983528,0.8808058608058608,0.8115018315018314,1.2458608058608058
3.9478766600004747,0.8808058608058608,0.8115018315018314,1.2458608058608058
3.948058715002844,0.8808058608058608,0.8115018315018314,1.2458608058608058
3.956604644001345,0.8808058608058608,0.8115018315018314,1.2458608058608058
3.9614527509984327,0.8808058608058608,0.8115018315018314,1.2458608058608058
3.961619380999764,0.15794871794871795,0.43032967032967034,1.473113553113553
3.9671679910024977,0.15794871794871795,0.43032967032967034,1.473113553113553
3.9690199100004975,0.15794871794871795,0.43032967032967034,1.473113553113553
3.9716469480044907,0.15794871794871795,0.43032967032967034,1.473113553113553
3.9758510410028975,1.0774358974358973,0.3763369963369963,2.0476923076923077
3.9774904459991376,1.0774358974358973,0.3763369963369963,2.0476923076923077
3.9812935139998444,1.0774358974358973,0.3763369963369963,2.0476923076923077
3.988234475000354,2.174212454212454,0.9436630036630036,2.9268864468864466
3.9942621480004163,2.174212454212454,0.9436630036630036,2.9268864468864466
4.0008193160028895,2.174212454212454,0.9436630036630036,2.9268864468864466
4.005576921997999,0.7776556776556776,0.5778021978021978,1.427985347985348
4.00950141800422,0.7776556776556776,0.5778021978021978,1.427985347985348
4.013995918998262,0.7776556776556776,0.5778021978021978,1.427985347985348
4.014238590003515,0.7776556776556776,0.5778021978021978,1.427985347985348
4.021747961000074,0.7776556776556776,0.5778021978021978,1.427985347985348
4.025683641004434,0.7776556776556776,0.5778021978021978,1.427985347985348
4.030643234000308,0.7776556776556776,0.5778021978021978,1.427985347985348
4.036729088002176,1.5625641025641024,1.1564102564102563,2.1927472527472527
4.041288430002169,1.3014652014652013,0.9025641025641026,0.26190476190476186
4.046894295999664,0.0,0.2643223443223443,1.1676923076923076
4.047267996000301,0.0,0.2643223443223443,1.1676923076923076
4.053562184999464,1.5448351648351648,1.0935531135531134,2.4949450549450547
4.057287178999104,1.5448351648351648,1.0935531135531134,2.4949450549450547
4.062087147001876,1.5448351648351648,1.0935531135531134,2.4949450549450547
4.068267171998741,1.6004395604395603,0.6986813186813187,1.9775824175824175
4.072573885998281,0.3465201465201465,0.3537728937728937,0.909010989010989
4.07347459000448,0.3465201465201465,0.3537728937728937,0.909010989010989
4.075103447998117,1.6358974358974359,0.9702564102564102,0.4013186813186813
4.080364392000774,0.630989010989011,0.5632967032967032,0.9718681318681318
4.082404288004909,0.0,0.09025641025641025,1.2555311355311354
4.084019292000448,0.0,0.09025641025641025,1.2555311355311354
4.089688446001674,0.0,0.09025641025641025,1.2555311355311354
4.0950356680041295,0.0,0.09025641025641025,1.2555311355311354
4.097583303002466,1.1596336996336996,0.8485714285714284,0.5802197802197803
4.097688622998248,1.1596336996336996,0.8485714285714284,0.5802197802197803
4.1051117410024744,1.1596336996336996,0.8485714285714284,0.5802197802197803
4.1083435300024576,1.6713553113553112,0.70996336996337,2.049304029304029
4.1099413789997925,1.6713553113553112,0.70996336996337,2.049304029304029
4.11354819600092,1.6713553113553112,0.70996336996337,2.049304029304029
4.1225461380017805,1.6713553113553112,0.70996336996337,2.049304029304029
4.127029184004641,1.6713553113553112,0.70996336996337,2.049304029304029
4.127215919004811,0.0,0.03304029304029304,0.8042490842490841
4.132581138001115,0.0,0.03304029304029304,0.8042490842490841
4.134728602002724,0.0,0.03304029304029304,0.8042490842490841
4.135023421004007,0.0,0.03304029304029304,0.8042490842490841
4.143008692000876,0.0,0.03304029304029304,0.8042490842490841
4.148389123001834,0.0,0.03304029304029304,0.8042490842490841
4.149439460001304,0.0,0.03304029304029304,0.8042490842490841
4.149726668001676,0.0,0.03304029304029304,0.8042490842490841
4.157071481000457,0.0,0.03304029304029304,0.8042490842490841
4.161607298003219,0.0,0.03304029304029304,0.8042490842490841
4.161772762003238,0.0,0.03304029304029304,0.8042490842490841
4.168216147001658,1.7003663003663,0.767985347985348,2.461098901098901
4.172275144002924,1.7003663003663,0.767985347985348,2.461098901098901
4.174685017002048,1.7003663003663,0.767985347985348,2.461098901098901
4.174814812002296,1.7003663003663,0.767985347985348,2.461098901098901
4.180737711998518,1.7003663003663,0.767985347985348,2.461098901098901
4.186699630998191,1.7003663003663,0.767985347985348,2.461098901098901
4.191493753998657,0.025787545787545788,0.03626373626373627,0.8534065934065934
4.191619971003092,0.025787545787545788,0.03626373626373627,0.8534065934065934
4.198313483000675,0.025787545787545788,0.03626373626373627,0.8534065934065934
4.203089102004014,0.025787545787545788,0.03626373626373627,0.8534065934065934
4.209221205004724,0.025787545787545788,0.03626373626373627,0.8534065934065934
4.212328986999637,1.68021978021978,1.199120879120879,2.1830769230769227
4.21413342699816,1.68021978021978,1.199120879120879,2.1830769230769227
4.2183197410049615,1.68021978021978,1.199120879120879,2.1830769230769227
4.219759520005027,1.68021978021978,1.199120879120879,2.1830769230769227
4.224768546002451,1.68021978021978,1.199120879120879,2.1830769230769227
4.228728248002881,1.7704761904761903,0.7776556776556776,2.257216117216117
4.2327557600001455,1.6584615384615384,1.1467399267399265,2.0702564102564103
4.236929391001468,1.6584615384615384,1.1467399267399265,2.0702564102564103
4.238142132999201,1.6584615384615384,1.1467399267399265,2.0702564102564103
4.238269118999597,0.10798534798534798,0.0273992673992674,1.016190476190476
4.243063601003087,0.10798534798534798,0.0273992673992674,1.016190476190476
4.2431821819991455,0.10798534798534798,0.0273992673992674,1.016190476190476
4.248478906003584,0.10798534798534798,0.0273992673992674,1.016190476190476
4.253659763999167,0.10798534798534798,0.0273992673992674,1.016190476190476
4.254094674004591,1.2337728937728938,0.46739926739926735,2.2564102564102564
4.262046133000695,0.7156043956043956,0.6559706959706959,0.85018315018315
4.26849631100049,0.0,0.3376556776556776,1.5665934065934064
4.272490037001262,0.0,0.3376556776556776,1.5665934065934064
4.275868162003462,0.0,0.3376556776556776,1.5665934065934064
4.276129663005122,0.0,0.3376556776556776,1.5665934065934064
4.2816572130032,0.0,0.3376556776556776,1.5665934065934064
4.283621000002313,1.3723809523809525,0.6068131868131869,2.029157509157509
4.28621338600351,1.3723809523809525,0.6068131868131869,2.029157509157509
4.2914085290030926,0.0,0.12732600732600732,0.8308424908424907
4.293837006000103,1.3659340659340657,1.1547985347985346,2.962344322344322
4.299801209999714,1.3659340659340657,1.1547985347985346,2.962344322344322
4.308628327999031,0.10798534798534798,0.03545787545787545,1.4529670329670328
4.315000382004655,0.10798534798534798,0.03545787545787545,1.4529670329670328
4.322462114003429,0.10798534798534798,0.03545787545787545,1.4529670329670328
4.3266412320008385,0.0,0.27318681318681315,1.6093040293040293
4.32917173000169,0.0,0.27318681318681315,1.6093040293040293
4.336987196998962,0.0,0.27318681318681315,1.6093040293040293
4.340649491998192,0.0,0.27318681318681315,1.6093040293040293
4.346036267001182,0.0,0.1668131868131868,1.535164835164835
4.349083959001291,0.0136996336996337,0.044322344322344324,0.7244688644688644
4.355569286002719,0.6591941391941392,0.45772893772893775,2.6335531135531136
4.359251093999774,0.6591941391941392,0.45772893772893775,2.6335531135531136
4.364674951000779,0.6591941391941392,0.45772893772893775,2.6335531135531136
4.366341004999413,0.6591941391941392,0.45772893772893775,2.6335531135531136
4.37280820900196,0.6591941391941392,0.45772893772893775,2.6335531135531136
4.376654917003179,0.6591941391941392,0.45772893772893775,2.6335531135531136
4.38213916499808,0.6591941391941392,0.45772893772893775,2.6335531135531136
4.38514271099848,2.091208791208791,0.9613919413919414,3.017142857142857
4.3876527690008515,2.091208791208791,0.9613919413919414,3.017142857142857
4.3929914370019105,2.091208791208791,0.9613919413919414,3.017142857142857
4.39393397999811,1.1161172161172161,0.303003663003663,2.2145054945054943
4.394914960997994,1.1161172161172161,0.303003663003663,2.2145054945054943
4.395844669998041,1.1161172161172161,0.303003663003663,2.2145054945054943
4.397417209002015,1.1161172161172161,0.303003663003663,2.2145054945054943
4.404430298003717,1.1161172161172161,0.303003663003663,2.2145054945054943
4.407530946002225,1.1161172161172161,0.303003663003663,2.2145054945054943
4.410014501998376,1.1161172161172161,0.303003663003663,2.2145054945054943
4.415464188001351,1.1048351648351646,0.3972893772893773,2.12989010989011
4.417842546004977,1.1048351648351646,0.3972893772893773,2.12989010989011
4.425524466998468,1.1048351648351646,0.3972893772893773,2.12989010989011
4.430147860999568,1.1048351648351646,0.3972893772893773,2.12989010989011
4.430330030998448,1.1048351648351646,0.3972893772893773,2.12989010989011
4.437019684002735,0.9565567765567766,0.33926739926739924,2.028351648351648
4.441696957001113,0.9565567765567766,0.33926739926739924,2.028351648351648
4.446782676001021,0.9565567765567766,0.33926739926739924,2.028351648351648
4.452164561000245,0.9565567765567766,0.33926739926739924,2.028351648351648
4.4540071730007185,0.9565567765567766,0.33926739926739924,2.028351648351648
4.457498348005174,0.9565567765567766,0.33926739926739924,2.028351648351648
4.457656487000349,0.9565567765567766,0.33926739926739924,2.028351648351648
4.462543382003787,0.9565567765567766,0.33926739926739924,2.028351648351648
4.470049796000239,0.0,0.04673992673992674,1.0685714285714285
4.474356614002318,0.0,0.04673992673992674,1.0685714285714285
4.477479979002965,0.0,0.04673992673992674,1.0685714285714285
4.477780938999786,0.0,0.04673992673992674,1.0685714285714285
4.4832375469995895,0.0,0.04673992673992674,1.0685714285714285
4.485508862002462,0.08058608058608058,0.25868131868131866,1.046007326007326
4.485751152002194,0.08058608058608058,0.25868131868131866,1.046007326007326
4.491176616000303,0.08058608058608058,0.25868131868131866,1.046007326007326
4.49207664700225,0.08058608058608058,0.25868131868131866,1.046007326007326
4.494445602002088,0.08058608058608058,0.25868131868131866,1.046007326007326
4.49465119800152,0.08058608058608058,0.25868131868131866,1.046007326007326
4.499813688998984,0.08058608058608058,0.25868131868131866,1.046007326007326
4.505935738001426,0.0,0.09509157509157509,1.1668864468864468
4.509293702001742,0.0,0.11282051282051282,0.8832234432234431
4.51104853599827,0.0,0.11282051282051282,0.8832234432234431
4.513375522998103,0.0,0.11282051282051282,0.8832234432234431
4.513678185001481,0.0,0.11282051282051282,0.8832234432234431
4.523021234002954,0.0,0.11282051282051282,0.8832234432234431
4.528490370001236,0.0,0.11282051282051282,0.8832234432234431
4.529381264001131,0.0,0.11282051282051282,0.8832234432234431
4.5309303009998985,0.0,0.11282051282051282,0.8832234432234431
4.537439054998686,0.0,0.11282051282051282,0.8832234432234431
4.540757952003332,0.0,0.11282051282051282,0.8832234432234431
4.5416832140035694,0.0,0.11282051282051282,0.8832234432234431
4.543299803000991,0.0,0.11282051282051282,0.8832234432234431
4.5472875609993935,0.0,0.11282051282051282,0.8832234432234431
4.552877182002703,0.0,0.11282051282051282,0.8832234432234431
4.55308115400112,0.7849084249084248,0.7421978021978022,2.6665934065934067
4.55876531299873,0.7849084249084248,0.7421978021978022,2.6665934065934067
4.558938642003341,0.7849084249084248,0.7421978021978022,2.6665934065934067
4.564186599003733,0.7849084249084248,0.7421978021978022,2.6665934065934067
4.568715674999112,0.7849084249084248,0.7421978021978022,2.6665934065934067
4.569011341998703,0.7849084249084248,0.7421978021978022,2.6665934065934067
4.57620240200049,0.7849084249084248,0.7421978021978022,2.6665934065934067
4.580903424001008,0.7849084249084248,0.7421978021978022,2.6665934065934067
4.581052487999841,0.7849084249084248,0.7421978021978022,2.6665934065934067
4.590140091000649,0.7849084249084248,0.7421978021978022,2.6665934065934067
4.595900095002435,0.7849084249084248,0.7421978021978022,2.6665934065934067
4.596029353000631,0.7849084249084248,0.7421978021978022,2.6665934065934067
4.602210985001875,0.7849084249084248,0.7421978021978022,2.6665934065934067
4.6067299069982255,0.21999999999999997,0.03142857142857143,1.0315018315018314
4.606909141002689,0.0,0.09912087912087912,0.8993406593406592
4.6123602830048185,0.0,0.09912087912087912,0.8993406593406592
4.614591477999056,0.0,0.09912087912087912,0.8993406593406592
4.6148116440017475,0.0,0.09912087912087912,0.8993406593406592
4.624066440999741,0.0,0.09912087912087912,0.8993406593406592
4.628444173999014,0.0,0.04673992673992674,0.8026373626373626
4.629410768000525,1.2039560439560437,1.0008791208791208,2.6738461538461538
4.6302871920051984,1.2039560439560437,1.0008791208791208,2.6738461538461538
4.631857491003757,1.2039560439560437,1.0008791208791208,2.6738461538461538
4.6373798080021515,1.3482051282051282,0.5431501831501832,2.433699633699634
4.637673716999416,0.6656410256410257,0.6205128205128204,0.8751648351648351
4.642330316004518,0.6656410256410257,0.6205128205128204,0.8751648351648351
4.642579094004759,1.0564835164835162,0.5213919413919413,1.751135531135531
4.64727897800185,0.09589743589743589,0.25142857142857145,0.9468864468864467
4.64753844900406,0.09589743589743589,0.25142857142857145,0.9468864468864467
4.654820387004293,0.09589743589743589,0.25142857142857145,0.9468864468864467
4.658339902998705,1.7479120879120877,1.062930402930403,0.6253479853479853
4.658626590004133,0.0,0.2635164835164835,1.3095238095238093
4.664254809998965,0.0,0.2635164835164835,1.3095238095238093
4.664531435002573,0.0419047619047619,0.2369230769230769,1.0274725274725274
4.674743399002182,0.0419047619047619,0.2369230769230769,1.0274725274725274
4.682134414004395,0.0419047619047619,0.2369230769230769,1.0274725274725274
4.688537884998368,0.0419047619047619,0.2369230769230769,1.0274725274725274
4.691976023997995,0.0419047619047619,0.2369230769230769,1.0274725274725274
4.692279045004398,0.0419047619047619,0.2369230769230769,1.0274725274725274
4.6969890800028224,0.0419047619047619,0.2369230769230769,1.0274725274725274
4.697270935001143,0.0419047619047619,0.2369230769230769,1.0274725274725274
4.7038155010013725,0.0419047619047619,0.2369230769230769,1.0274725274725274
4.709848757003783,0.0419047619047619,0.2369230769230769,1.0274725274725274
4.71481442500226,0.0419047619047619,0.2369230769230769,1.0274725274725274
4.723467440002423,0.0419047619047619,0.2369230769230769,1.0274725274725274
4.728297836998536,0.0419047619047619,0.2369230769230769,1.0274725274725274
4.733175089000724,0.0419047619047619,0.2369230769230769,1.0274725274725274
4.740863619001175,0.0419047619047619,0.2369230769230769,1.0274725274725274
4.745436233999499,0.0419047619047619,0.2369230769230769,1.0274725274725274
4.746297910001886,0.0419047619047619,0.2369230769230769,1.0274725274725274
4.747278565999295,0.0419047619047619,0.2369230769230769,1.0274725274725274
4.748159344999294,0.0419047619047619,0.2369230769230769,1.0274725274725274
4.749915717999102,0.0419047619047619,0.2369230769230769,1.0274725274725274
4.7540134099981515,0.0419047619047619,0.2369230769230769,1.0274725274725274
4.756460305005021,1.2176556776556777,0.42468864468864465,2.1927472527472527
4.756644792003499,0.19179487179487179,0.4158241758241758,1.3272527472527473
4.762134706004872,0.19179487179487179,0.4158241758241758,1.3272527472527473
4.763787121999485,0.19179487179487179,0.4158241758241758,1.3272527472527473
4.767189008001878,0.19179487179487179,0.4158241758241758,1.3272527472527473
4.768540955999924,0.19179487179487179,0.4158241758241758,1.3272527472527473
4.77524351500324,0.19179487179487179,0.4158241758241758,1.3272527472527473
4.779823447999661,0.19179487179487179,0.4158241758241758,1.3272527472527473
4.780176748005033,0.0,0.09509157509157509,1.2345787545787545
4.788490384999022,0.0,0.09509157509157509,1.2345787545787545
4.7924831100026495,0.0,0.09509157509157509,1.2345787545787545
4.7964667760024895,0.0,0.09509157509157509,1.2345787545787545
4.80090796299919,0.2651282051282051,0.46417582417582415,1.1765567765567766
4.802290111001639,0.13296703296703297,0.3932600732600733,1.3643223443223442
4.809677015000489,0.13296703296703297,0.3932600732600733,1.3643223443223442
4.8136909090026165,0.13296703296703297,0.3932600732600733,1.3643223443223442
4.817677095998079,0.13296703296703297,0.3932600732600733,1.3643223443223442
4.822652251998079,0.13296703296703297,0.3932600732600733,1.3643223443223442
4.825776687001053,0.0,0.1692307692307692,1.5085714285714285
4.8274373809981626,0.0,0.1692307692307692,1.5085714285714285
4.831154100000276,0.0,0.1692307692307692,1.5085714285714285
4.840738602004421,1.195091575091575,1.0564835164835162,2.897069597069597
4.84534597700258,1.8655677655677654,1.1088644688644689,0.7486446886446886
4.8455673520002165,1.8655677655677654,1.1088644688644689,0.7486446886446886
4.8521792180035845,1.8655677655677654,1.1088644688644689,0.7486446886446886
4.8581752110039815,1.8655677655677654,1.1088644688644689,0.7486446886446886
4.861597369999799,1.8655677655677654,1.1088644688644689,0.7486446886446886
4.861880911004846,1.8655677655677654,1.1088644688644689,0.7486446886446886
4.867060438002227,1.8655677655677654,1.1088644688644689,0.7486446886446886
4.872089632001007,1.8655677655677654,1.1088644688644689,0.7486446886446886
4.874646340002073,1.8655677655677654,1.1088644688644689,0.7486446886446886
4.879538393004623,1.8655677655677654,1.1088644688644689,0.7486446886446886
4.885580950001895,0.19824175824175824,0.46175824175824176,1.5303296703296703
4.890973546003806,1.4924542124542124,0.4891575091575091,2.137142857142857
4.8912478310012375,1.124981684981685,0.3763369963369963,2.1806593406593406
4.896663047999027,1.124981684981685,0.3763369963369963,2.1806593406593406
4.899789656999928,1.124981684981685,0.3763369963369963,2.1806593406593406
4.903765157003363,1.124981684981685,0.3763369963369963,2.1806593406593406
4.905353135000041,0.052380952380952375,0.13619047619047617,0.9767032967032967
4.910011159001442,0.052380952380952375,0.13619047619047617,0.9767032967032967
4.910182067003916,0.052380952380952375,0.13619047619047617,0.9767032967032967
4.915678736004338,0.052380952380952375,0.13619047619047617,0.9767032967032967
4.91746955900453,1.7559706959706958,0.8002197802197801,3.107399267399267
4.92110449699976,1.7559706959706958,0.8002197802197801,3.107399267399267
4.926676478004083,1.7414652014652015,0.7276923076923076,2.698827838827839
4.926836794998962,0.0,0.1104029304029304,1.0073260073260073
4.932739554998989,0.0,0.1104029304029304,1.0073260073260073
4.941057094998541,0.0,0.1104029304029304,1.0073260073260073
4.945953775000817,0.0,0.1104029304029304,1.0073260073260073
4.946068641998863,2.0235164835164836,0.971062271062271,3.3
4.952491704003478,2.0235164835164836,0.971062271062271,3.3
4.957136575001641,2.0235164835164836,0.971062271062271,3.3
4.962768281002354,2.0235164835164836,0.971062271062271,3.3
4.963048409001203,2.0235164835164836,0.971062271062271,3.3
4.970637331003672,2.0235164835164836,0.971062271062271,3.3
4.974591067999427,2.0235164835164836,0.971062271062271,3.3
4.9792899759995635,1.6495970695970694,0.9855677655677655,0.2836630036630036
4.979449860999011,0.13941391941391942,0.028205128205128206,1.1217582417582417
4.985834990002331,0.13941391941391942,0.028205128205128206,1.1217582417582417
4.990502159002062,0.13941391941391942,0.028205128205128206,1.1217582417582417
4.996184315001301,0.13941391941391942,0.028205128205128206,1.1217582417582417
4.997094605001621,0.13941391941391942,0.028205128205128206,1.1217582417582417
4.998737087000336,0.13941391941391942,0.028205128205128206,1.1217582417582417
5.005145788003574,0.13941391941391942,0.028205128205128206,1.1217582417582417
5.0090425980015425,0.13941391941391942,0.028205128205128206,1.1217582417582417
5.012807582003006,1.1781684981684981,1.008937728937729,2.8656410256410254
5.020574988004228,0.6648351648351648,0.21032967032967032,2.5279853479853482
5.028183740003442,1.315970695970696,0.9541391941391941,0.42710622710622714
5.032715091001592,1.315970695970696,0.9541391941391941,0.42710622710622714
5.032870367998839,1.315970695970696,0.9541391941391941,0.42710622710622714
5.039527599001303,1.315970695970696,0.9541391941391941,0.42710622710622714
5.043178489002457,1.315970695970696,0.9541391941391941,0.42710622710622714
5.048626360003254,1.1668864468864468,0.4778754578754579,1.6036630036630035
5.051373523005168,1.6415384615384614,1.1539926739926738,2.174212454212454
5.056189486000221,1.6415384615384614,1.1539926739926738,2.174212454212454
5.059456562004925,1.6415384615384614,1.1539926739926738,2.174212454212454
5.0603523469981155,1.6415384615384614,1.1539926739926738,2.174212454212454
5.06130746800045,1.6415384615384614,1.1539926739926738,2.174212454212454
5.062960866998765,1.6415384615384614,1.1539926739926738,2.174212454212454
5.066247027003556,1.9526007326007324,0.9976556776556775,3.262124542124542
5.069294991000788,1.9526007326007324,0.9976556776556775,3.262124542124542
5.071028446000128,1.9526007326007324,0.9976556776556775,3.262124542124542
5.073065657998086,1.9526007326007324,0.9976556776556775,3.262124542124542
5.074677789001726,1.9526007326007324,0.9976556776556775,3.262124542124542
5.078565059004177,1.9526007326007324,0.9976556776556775,3.262124542124542
5.082444441002735,1.9526007326007324,0.9976556776556775,3.262124542124542
5.087993979999737,1.9526007326007324,0.9976556776556775,3.262124542124542
5.08825623300072,1.4126739926739926,1.1926739926739927,2.577142857142857
5.092805678999866,1.4126739926739926,1.1926739926739927,2.577142857142857
5.093064284003049,1.4126739926739926,1.1926739926739927,2.577142857142857
5.098362919998181,1.4126739926739926,1.1926739926739927,2.577142857142857
5.101556982001057,1.4126739926739926,1.1926739926739927,2.577142857142857
5.102839824001421,1.4126739926739926,1.1926739926739927,2.577142857142857
5.108141231998161,1.4126739926739926,1.1926739926739927,2.577142857142857
5.11110331400414,1.4126739926739926,1.1926739926739927,2.577142857142857
5.1134207990035065,1.4126739926739926,1.1926739926739927,2.577142857142857
5.113696245003666,1.4126739926739926,1.1926739926739927,2.577142857142857
5.118850610000663,1.4126739926739926,1.1926739926739927,2.577142857142857
5.121956100003445,1.4126739926739926,1.1926739926739927,2.577142857142857
5.123429876002774,1.4126739926739926,1.1926739926739927,2.577142857142857
5.127939776000858,1.4126739926739926,1.1926739926739927,2.577142857142857
5.128291701003036,1.4126739926739926,1.1926739926739927,2.577142857142857
5.133232594998844,1.4126739926739926,1.1926739926739927,2.577142857142857
5.138166618999094,1.4126739926739926,1.1926739926739927,2.577142857142857
5.141844416000822,1.4126739926739926,1.1926739926739927,2.577142857142857
5.146864963004191,1.4126739926739926,1.1926739926739927,2.577142857142857
5.150476561000687,1.5077655677655677,1.046007326007326,1.9276190476190476
5.150695474003442,1.5077655677655677,1.046007326007326,1.9276190476190476
5.156926449999446,1.5077655677655677,1.046007326007326,1.9276190476190476
5.160391304001678,1.8357509157509158,1.008937728937729,3.2879120879120878
5.160580062998633,1.8357509157509158,1.008937728937729,3.2879120879120878
5.166117109001789,1.8357509157509158,1.008937728937729,3.2879120879120878
5.1691017690027365,0.0,0.045128205128205125,0.7389743589743589
5.171704109998245,0.0,0.045128205128205125,0.7389743589743589
5.175232565001352,0.0,0.045128205128205125,0.7389743589743589
5.175498331002018,0.0,0.045128205128205125,0.7389743589743589
5.180872723001812,0.0,0.045128205128205125,0.7389743589743589
5.181681201000174,0.0,0.045128205128205125,0.7389743589743589
5.184413285001938,0.0,0.045128205128205125,0.7389743589743589
5.188709813002788,0.0,0.045128205128205125,0.7389743589743589
5.19027079600346,0.0,0.045128205128205125,0.7389743589743589
5.193455633998383,0.0,0.045128205128205125,0.7389743589743589
5.195121681004821,1.1636630036630036,0.42952380952380953,2.2523809523809524
5.199024107998412,1.1636630036630036,0.42952380952380953,2.2523809523809524
5.204596699004469,1.1636630036630036,0.42952380952380953,2.2523809523809524
5.20474392700271,0.3191208791208791,0.20146520146520144,1.0597069597069597
5.210124255005212,0.0,0.04915750915750916,0.90014652014652
5.213560854004754,0.0,0.04915750915750916,0.90014652014652
5.213736345001962,0.7744322344322344,0.3432967032967033,2.0186813186813186
5.218379655001627,1.1008058608058606,0.8719413919413919,0.46175824175824176
5.218661464998149,1.1008058608058606,0.8719413919413919,0.46175824175824176
5.223315028000798,0.30945054945054945,0.5616849816849817,1.49003663003663
5.223561869999685,0.30945054945054945,0.5616849816849817,1.49003663003663
5.227892419999989,0.30945054945054945,0.5616849816849817,1.49003663003663
5.230123248002201,1.7527472527472527,1.1177289377289377,2.1830769230769227
5.231058609999309,1.7527472527472527,1.1177289377289377,2.1830769230769227
5.231909807000193,1.7527472527472527,1.1177289377289377,2.1830769230769227
5.233418902003905,1.7527472527472527,1.1177289377289377,2.1830769230769227
5.237677654004074,1.7527472527472527,1.1177289377289377,2.1830769230769227
5.239829969999846,1.7527472527472527,1.1177289377289377,2.1830769230769227
5.240668678001384,1.7527472527472527,1.1177289377289377,2.1830769230769227
5.242306575004477,1.7527472527472527,1.1177289377289377,2.1830769230769227
5.2464930710048066,1.7527472527472527,1.1177289377289377,2.1830769230769227
5.24880580700119,1.7527472527472527,1.1177289377289377,2.1830769230769227
5.249028233003628,1.7527472527472527,1.1177289377289377,2.1830769230769227
5.254160270000284,1.7527472527472527,1.1177289377289377,2.1830769230769227
5.258244661003118,1.7527472527472527,1.1177289377289377,2.1830769230769227
5.2612652919997345,1.7527472527472527,1.1177289377289377,2.1830769230769227
5.263600917998701,1.7527472527472527,1.1177289377289377,2.1830769230769227
5.2638275920035085,1.7527472527472527,1.1177289377289377,2.1830769230769227
5.268342221002968,1.7527472527472527,1.1177289377289377,2.1830769230769227
5.26923342399823,1.7527472527472527,1.1177289377289377,2.1830769230769227
5.270809432004171,1.7527472527472527,1.1177289377289377,2.1830769230769227
5.274573868999141,1.7527472527472527,1.1177289377289377,2.1830769230769227
5.279107556998497,1.1789743589743589,0.921098901098901,0.9186813186813186
5.279418449004879,1.1789743589743589,0.921098901098901,0.9186813186813186
5.284006922003755,1.1789743589743589,0.921098901098901,0.9186813186813186
5.284341835002124,1.1789743589743589,0.921098901098901,0.9186813186813186
5.288932071998715,1.1789743589743589,0.921098901098901,0.9186813186813186
5.289287651001359,1.1789743589743589,0.921098901098901,0.9186813186813186
5.293878153002879,1.1789743589743589,0.921098901098901,0.9186813186813186
5.294058134000807,1.1789743589743589,0.921098901098901,0.9186813186813186
5.2993729560039355,1.1789743589743589,0.921098901098901,0.9186813186813186
5.301074167000479,1.1789743589743589,0.921098901098901,0.9186813186813186
5.305016696001985,1.1789743589743589,0.921098901098901,0.9186813186813186
5.308932523003023,1.9058608058608055,0.9017582417582416,3.050989010989011
5.312028701999225,1.9058608058608055,0.9017582417582416,3.050989010989011
5.314510404001339,1.9058608058608055,0.9017582417582416,3.050989010989011
5.31987520599796,1.9058608058608055,0.9017582417582416,3.050989010989011
5.321467362999101,1.9058608058608055,0.9017582417582416,3.050989010989011
5.326941791005083,2.378095238095238,0.7808791208791208,3.1227106227106223
5.327803284002584,0.0,0.06446886446886446,1.1419047619047618
5.32938739599922,0.0,0.06446886446886446,1.1419047619047618
5.33315549800318,0.0,0.06446886446886446,1.1419047619047618
5.338549316002172,1.9445421245421244,1.124981684981685,0.9952380952380951
5.3401075410001795,1.9445421245421244,1.124981684981685,0.9952380952380951
5.343966667998757,1.9445421245421244,1.124981684981685,0.9952380952380951
5.348568430999876,1.9445421245421244,1.124981684981685,0.9952380952380951
5.348834823002107,1.236996336996337,1.216043956043956,2.9035164835164835
5.353373596000893,1.236996336996337,1.216043956043956,2.9035164835164835
5.3542461920005735,1.236996336996337,1.216043956043956,2.9035164835164835
5.355219779004983,1.236996336996337,1.216043956043956,2.9035164835164835
5.356908465000743,1.236996336996337,1.216043956043956,2.9035164835164835
5.361510062000889,1.236996336996337,1.216043956043956,2.9035164835164835
5.372366795003472,1.236996336996337,1.216043956043956,2.9035164835164835
5.380754730998888,0.0,0.09186813186813186,0.7534798534798535
5.387561362003908,0.0,0.28930402930402926,1.2901831501831502
5.393132026001695,0.17648351648351646,0.35135531135531134,0.8534065934065934
5.393330179002078,0.17648351648351646,0.35135531135531134,0.8534065934065934
5.398882877001597,0.17648351648351646,0.35135531135531134,0.8534065934065934
5.399239814003522,0.2361172161172161,0.5238095238095237,1.4860073260073259
5.404687617003219,0.2361172161172161,0.5238095238095237,1.4860073260073259
5.406672812001489,0.2361172161172161,0.5238095238095237,1.4860073260073259
5.408309841004666,0.2361172161172161,0.5238095238095237,1.4860073260073259
5.413235138003074,1.3465934065934064,1.1475457875457875,2.598095238095238
5.417808758000319,1.3465934065934064,1.1475457875457875,2.598095238095238
5.424240054002439,0.02498168498168498,0.5012454212454212,1.2144322344322345
5.429881639000087,0.0,0.1241025641025641,0.9347985347985347
5.439168643002631,2.1234432234432234,1.4650549450549448,2.5038095238095237
5.448578560004535,2.1234432234432234,1.4650549450549448,2.5038095238095237
5.4588563540019095,2.1234432234432234,1.4650549450549448,2.5038095238095237
5.463734358003421,1.3514285714285714,0.6132600732600733,2.4546520146520145
5.47148618799838,1.3514285714285714,0.6132600732600733,2.4546520146520145
5.475668093000422,1.3514285714285714,0.6132600732600733,2.4546520146520145
5.478089844000351,1.3514285714285714,0.6132600732600733,2.4546520146520145
5.478244655998424,1.3514285714285714,0.6132600732600733,2.4546520146520145
5.484648082005151,1.3514285714285714,0.6132600732600733,2.4546520146520145
5.4889081090004765,1.3514285714285714,0.6132600732600733,2.4546520146520145
5.489829980004288,1.3514285714285714,0.6132600732600733,2.4546520146520145
5.491644465000718,1.3514285714285714,0.6132600732600733,2.4546520146520145
5.494073385001684,1.3514285714285714,0.6132600732600733,2.4546520146520145
5.494245291003608,1.3514285714285714,0.6132600732600733,2.4546520146520145
5.498912761999236,1.3514285714285714,0.6132600732600733,2.4546520146520145
5.499261611999827,1.3514285714285714,0.6132600732600733,2.4546520146520145
5.505774520999694,1.3514285714285714,0.6132600732600733,2.4546520146520145
5.509632514003897,1.3514285714285714,0.6132600732600733,2.4546520146520145
5.514207628002623,1.3514285714285714,0.6132600732600733,2.4546520146520145
5.515258740000718,1.3514285714285714,0.6132600732600733,2.4546520146520145
5.516175757999008,1.3514285714285714,0.6132600732600733,2.4546520146520145
5.5178791799989995,1.3514285714285714,0.6132600732600733,2.4546520146520145
5.521754362001957,1.3514285714285714,0.6132600732600733,2.4546520146520145
5.524836401003995,0.07978021978021978,0.1249084249084249,1.5641758241758241
5.527265169999737,0.0,0.09347985347985348,1.2345787545787545
5.527402448999055,0.0,0.09347985347985348,1.2345787545787545
5.533179864003614,0.0,0.09347985347985348,1.2345787545787545
5.5334205820036,0.0,0.09347985347985348,1.2345787545787545
5.539106715004891,0.0,0.09347985347985348,1.2345787545787545
5.539209230002598,0.0,0.09347985347985348,1.2345787545787545
5.543913597000937,0.0,0.09347985347985348,1.2345787545787545
5.544771565000701,0.0,0.09347985347985348,1.2345787545787545
5.548850334002054,0.0,0.09347985347985348,1.2345787545787545
5.549055431998568,0.0,0.09347985347985348,1.2345787545787545
5.561604406000697,0.0,0.09347985347985348,1.2345787545787545
5.576102498998807,0.0,0.09347985347985348,1.2345787545787545
5.576407084998209,0.0,0.09347985347985348,1.2345787545787545
5.587240450004174,0.024175824175824173,0.06769230769230769,1.1797802197802196
5.597363562999817,0.024175824175824173,0.06769230769230769,1.1797802197802196
5.606636786003946,0.024175824175824173,0.06769230769230769,1.1797802197802196
5.612160826000036,0.03868131868131868,0.09025641025641025,1.4787545787545788
5.613787838999997,0.7534798534798535,0.4778754578754579,2.3378021978021977
5.616619993001223,0.7534798534798535,0.4778754578754579,2.3378021978021977
5.626592033004272,0.7534798534798535,0.4778754578754579,2.3378021978021977
5.637228504005179,1.4650549450549448,0.5487912087912087,2.488498168498168
5.643668850003451,1.4650549450549448,0.5487912087912087,2.488498168498168
5.648074923003151,1.4650549450549448,0.5487912087912087,2.488498168498168
5.6504036340047605,0.17809523809523808,0.0410989010989011,1.0258608058608059
5.662171855998167,1.1805860805860806,0.3771428571428571,2.419194139194139
5.672387580998475,1.4207326007326007,0.6068131868131869,2.6835164835164833
5.681266236999363,1.4207326007326007,0.6068131868131869,2.6835164835164833
5.68967664000229,1.4207326007326007,0.6068131868131869,2.6835164835164833
5.697415998001816,1.4207326007326007,0.6068131868131869,2.6835164835164833
5.705858392000664,1.4207326007326007,0.6068131868131869,2.6835164835164833
5.712491037003929,0.0,0.0,1.344981684981685
5.719154042002629,1.0564835164835162,1.0363369963369962,2.5948717948717945
5.723645227000816,1.7446886446886447,1.2353846153846153,0.25787545787545785
5.723829062000732,1.7446886446886447,1.2353846153846153,0.25787545787545785
5.7285014529988985,1.7446886446886447,1.2353846153846153,0.25787545787545785
5.728716012003133,0.0,0.07413919413919413,0.9871794871794871
5.735491804000048,0.0,0.07413919413919413,0.9871794871794871
5.743103147004149,0.0,0.07413919413919413,0.9871794871794871
5.747680833999766,0.0,0.07413919413919413,0.9871794871794871
5.7585594820047845,0.0,0.07413919413919413,0.9871794871794871
5.7633951239986345,0.0,0.07413919413919413,0.9871794871794871
5.769462249998469,0.08139194139194139,0.13538461538461538,1.5947985347985347
5.7727130920029595,1.6584615384615384,1.0105494505494506,2.6657875457875457
5.773603934001585,0.9702564102564102,0.30139194139194136,2.3160439560439556
5.775218884999049,0.9702564102564102,0.30139194139194136,2.3160439560439556
5.779082325003401,0.9702564102564102,0.30139194139194136,2.3160439560439556
5.783810613000242,0.9702564102564102,0.30139194139194136,2.3160439560439556
5.790193357002863,0.45772893772893775,0.10556776556776555,1.7890109890109889
5.794041434004612,0.45772893772893775,0.10556776556776555,1.7890109890109889
5.798608943005092,1.5956043956043955,1.0693772893772893,0.2683516483516483
5.798897533000854,1.5956043956043955,1.0693772893772893,0.2683516483516483
5.804781676000857,1.5956043956043955,1.0693772893772893,0.2683516483516483
5.810228952002944,0.0,0.0693040293040293,1.0395604395604394
5.812560743004724,1.0234432234432234,0.8598534798534798,3.0493772893772895
5.812703955998586,2.004175824175824,1.2531135531135529,3.3
5.819061549998878,2.004175824175824,1.2531135531135529,3.3
5.824022357999638,2.004175824175824,1.2531135531135529,3.3
5.8266006449994165,2.004175824175824,1.2531135531135529,3.3
5.832089572002587,2.004175824175824,1.2531135531135529,3.3
5.834189164997952,2.004175824175824,1.2531135531135529,3.3
5.83452183999907,2.004175824175824,1.2531135531135529,3.3
5.840903504999005,2.004175824175824,1.2531135531135529,3.3
5.844726934999926,0.3384615384615384,0.1523076923076923,1.739047619047619
5.849780624004779,0.38278388278388276,0.051575091575091575,0.8292307692307692
5.8580665810004575,1.0153846153846153,0.10315018315018315,0.6745054945054945
5.8672625410035835,1.9646886446886445,1.1467399267399265,0.29413919413919415
5.874032193001767,1.9646886446886445,1.1467399267399265,0.29413919413919415
5.878060139002628,1.9646886446886445,1.1467399267399265,0.29413919413919415
5.881919220999407,0.11846153846153845,0.04029304029304029,1.494871794871795
5.887178301003587,0.6132600732600733,0.2949450549450549,1.5988278388278387
5.889483206003206,0.6132600732600733,0.2949450549450549,1.5988278388278387
5.8896950720009045,0.6132600732600733,0.2949450549450549,1.5988278388278387
5.894937609999033,0.6132600732600733,0.2949450549450549,1.5988278388278387
5.898249121004483,1.4690842490842488,0.73010989010989,2.0662271062271063
5.899485574998835,0.9484981684981684,0.5705494505494505,1.7495238095238095
5.8995961920008995,0.9484981684981684,0.5705494505494505,1.7495238095238095
5.9068461550050415,0.9484981684981684,0.5705494505494505,1.7495238095238095
5.910948009004642,1.079047619047619,0.14263736263736262,1.7446886446886447
5.914012309003738,1.079047619047619,0.14263736263736262,1.7446886446886447
5.917475212998397,1.9195604395604395,1.0443956043956042,2.9526739926739927
5.917770227999426,1.9195604395604395,1.0443956043956042,2.9526739926739927
5.923297875000571,0.19985347985347984,0.04593406593406593,1.1419047619047618
5.923552154003119,1.8913553113553112,1.079047619047619,3.228278388278388
5.928471033999813,1.8913553113553112,1.079047619047619,3.228278388278388
5.935518668004079,1.8913553113553112,1.079047619047619,3.228278388278388
5.941801687004045,1.8913553113553112,1.079047619047619,3.228278388278388
5.94653512199875,1.8913553113553112,1.079047619047619,3.228278388278388
5.956259101003525,1.8913553113553112,1.079047619047619,3.228278388278388
5.962735227003577,1.8913553113553112,1.079047619047619,3.228278388278388
5.969205375004094,0.26996336996336995,0.3642490842490842,1.7148717948717949
5.972632859004079,1.1628571428571428,0.8058608058608058,2.262857142857143
5.972863854003663,1.1628571428571428,0.8058608058608058,2.262857142857143
5.978084125999885,1.1628571428571428,0.8058608058608058,2.262857142857143
5.982735559002322,1.1628571428571428,0.8058608058608058,2.262857142857143
5.988857848002226,1.1628571428571428,0.8058608058608058,2.262857142857143
5.992931986998883,1.627032967032967,0.9235164835164835,2.295091575091575
5.996209845005069,1.569010989010989,0.7986080586080586,1.552087912087912
5.997215162002249,1.569010989010989,0.7986080586080586,1.552087912087912
5.998067084998183,1.569010989010989,0.7986080586080586,1.552087912087912
6.000992639004835,1.569010989010989,0.7986080586080586,1.552087912087912
6.004052274998685,1.569010989010989,0.7986080586080586,1.552087912087912
6.005264049999823,1.569010989010989,0.7986080586080586,1.552087912087912
6.005492987998878,1.569010989010989,0.7986080586080586,1.552087912087912
6.010348898998927,1.569010989010989,0.7986080586080586,1.552087912087912
6.01500849200238,1.307106227106227,0.8816117216117215,2.776190476190476
6.015256755003065,1.307106227106227,0.8816117216117215,2.776190476190476
6.024818858000799,1.3224175824175823,0.6753113553113552,1.378021978021978
6.033174255004269,1.3224175824175823,0.6753113553113552,1.378021978021978
6.0400814460008405,1.3224175824175823,0.6753113553113552,1.378021978021978
6.044731672998751,1.3224175824175823,0.6753113553113552,1.378021978021978
6.056457744001818,0.8542124542124543,0.3384615384615384,1.523882783882784
6.0652356290011085,0.5431501831501832,0.6197069597069597,2.007399267399267
6.0742383760007215,0.5431501831501832,0.6197069597069597,2.007399267399267
6.081347179999284,0.5431501831501832,0.6197069597069597,2.007399267399267
6.087568711998756,0.5431501831501832,0.6197069597069597,2.007399267399267
6.090714632002346,0.0,0.0419047619047619,1.2023443223443222
6.093186293001054,0.0,0.0419047619047619,1.2023443223443222
6.098884479004482,0.0,0.0419047619047619,1.2023443223443222
6.099057031002303,0.0,0.0419047619047619,1.2023443223443222
6.1088634690022445,0.0,0.0419047619047619,1.2023443223443222
6.114120586003992,0.0,0.0419047619047619,1.2023443223443222
6.1176490020006895,0.0,0.0419047619047619,1.2023443223443222
6.124544163998507,0.0,0.0419047619047619,1.2023443223443222
6.129585351998685,0.0,0.0419047619047619,1.2023443223443222
6.134812898002565,0.0,0.0419047619047619,1.2023443223443222
6.137012375998893,0.0,0.0419047619047619,1.2023443223443222
6.137195864001114,0.0,0.0419047619047619,1.2023443223443222
6.1428029730013805,0.32476190476190475,0.018534798534798533,1.3232234432234433
6.14299769000354,0.32476190476190475,0.018534798534798533,1.3232234432234433
6.148776428002748,0.32476190476190475,0.018534798534798533,1.3232234432234433
6.1489892750032595,0.15956043956043955,0.03706959706959707,1.203150183150183
6.15555639500235,0.15956043956043955,0.03706959706959707,1.203150183150183
6.159668780004722,2.153260073260073,1.1394871794871795,3.001831501831502
6.162054396001622,2.153260073260073,1.1394871794871795,3.001831501831502
6.162251469999319,2.153260073260073,1.1394871794871795,3.001831501831502
6.167263283001375,2.153260073260073,1.1394871794871795,3.001831501831502
6.173401883002953,2.153260073260073,1.1394871794871795,3.001831501831502
6.177272922002885,2.153260073260073,1.1394871794871795,3.001831501831502
6.181190781004261,2.153260073260073,1.1394871794871795,3.001831501831502
6.188357267004903,2.153260073260073,1.1394871794871795,3.001831501831502
6.1923366589981015,2.9953846153846153,1.1652747252747253,3.092087912087912
6.197245376002684,2.9953846153846153,1.1652747252747253,3.092087912087912
6.2035418930026935,2.9953846153846153,1.1652747252747253,3.092087912087912
6.206790041003842,2.9953846153846153,1.1652747252747253,3.092087912087912
6.207637514002272,2.9953846153846153,1.1652747252747253,3.092087912087912
6.2092616420050035,2.9953846153846153,1.1652747252747253,3.092087912087912
6.213067110002157,2.9953846153846153,1.1652747252747253,3.092087912087912
6.218970417001401,2.9953846153846153,1.1652747252747253,3.092087912087912
6.224503445999289,2.9953846153846153,1.1652747252747253,3.092087912087912
6.2253968410004745,2.9953846153846153,1.1652747252747253,3.092087912087912
6.226956113001506,2.9953846153846153,1.1652747252747253,3.092087912087912
6.231791616999544,2.9953846153846153,1.1652747252747253,3.092087912087912
6.238799666003615,0.6745054945054945,0.16036630036630037,2.8906227106227105
6.243329996003013,1.0476190476190474,0.5238095238095237,1.8518681318681318
6.244111772000906,1.0476190476190474,0.5238095238095237,1.8518681318681318
6.246367437001027,1.0476190476190474,0.5238095238095237,1.8518681318681318
6.247156000004907,0.20388278388278389,0.06688644688644689,1.1322344322344322
6.249016934001702,0.20388278388278389,0.06688644688644689,1.1322344322344322
6.252405493003607,0.20388278388278389,0.06688644688644689,1.1322344322344322
6.252643167004862,0.8356776556776556,0.5004395604395604,2.729450549450549
6.25815075400169,2.1008791208791204,0.7558974358974359,2.6126007326007326
6.2597223710035905,2.1008791208791204,0.7558974358974359,2.6126007326007326
6.263456190004945,2.1008791208791204,0.7558974358974359,2.6126007326007326
6.2687188670024625,1.888131868131868,0.6914285714285714,2.892234432234432
6.271098677003465,1.888131868131868,0.6914285714285714,2.892234432234432
6.271310533003998,1.888131868131868,0.6914285714285714,2.892234432234432
6.275900165004714,1.888131868131868,0.6914285714285714,2.892234432234432
6.276211074000457,1.888131868131868,0.6914285714285714,2.892234432234432
6.280925751001632,1.888131868131868,0.6914285714285714,2.892234432234432
6.287811261005118,0.10476190476190475,0.25384615384615383,1.365128205128205
6.292816154003958,0.10476190476190475,0.25384615384615383,1.365128205128205
6.297279503000027,0.10476190476190475,0.25384615384615383,1.365128205128205
6.297434241998417,0.10476190476190475,0.25384615384615383,1.365128205128205
6.307770890998654,0.10476190476190475,0.25384615384615383,1.365128205128205
6.313114270000369,1.834945054945055,1.7833699633699631,2.606153846153846
6.314803483001015,1.834945054945055,1.7833699633699631,2.606153846153846
6.320514529004868,1.834945054945055,1.7833699633699631,2.606153846153846
6.326120844998513,1.0564835164835162,0.5753846153846153,1.248278388278388
6.326500401002704,1.0564835164835162,0.5753846153846153,1.248278388278388
6.331114799999341,1.0564835164835162,0.5753846153846153,1.248278388278388
6.331333538000763,1.0564835164835162,0.5753846153846153,1.248278388278388
6.338899205999041,1.0564835164835162,0.5753846153846153,1.248278388278388
6.343535681000503,1.0564835164835162,0.5753846153846153,1.248278388278388
6.343801009999879,1.0564835164835162,0.5753846153846153,1.248278388278388
6.348995967004157,1.0564835164835162,0.5753846153846153,1.248278388278388
6.352495275001274,2.5747252747252745,0.4158241758241758,2.8253479853479853
6.352614961004292,2.5747252747252745,0.4158241758241758,2.8253479853479853
6.357444287001272,2.9019047619047615,1.1564102564102563,2.9317216117216116
6.3576194510023925,2.9019047619047615,1.1564102564102563,2.9317216117216116
6.362533402003464,2.9019047619047615,1.1564102564102563,2.9317216117216116
6.366818303002219,2.9019047619047615,1.1564102564102563,2.9317216117216116
6.368333610000263,2.9019047619047615,1.1564102564102563,2.9317216117216116
6.373291189003794,1.9477655677655676,1.0564835164835162,2.6375824175824176
6.377447443002893,1.9477655677655676,1.0564835164835162,2.6375824175824176
6.379624582004908,1.9477655677655676,1.0564835164835162,2.6375824175824176
6.38046825100173,1.9477655677655676,1.0564835164835162,2.6375824175824176
6.382588405998831,1.9477655677655676,1.0564835164835162,2.6375824175824176
6.383458290001727,1.9477655677655676,1.0564835164835162,2.6375824175824176
6.384920076998242,1.9477655677655676,1.0564835164835162,2.6375824175824176
6.3891297390000545,1.9477655677655676,1.0564835164835162,2.6375824175824176
6.391935812003794,1.9477655677655676,1.0564835164835162,2.6375824175824176
6.395682120004494,1.9477655677655676,1.0564835164835162,2.6375824175824176
6.400896469000145,1.9477655677655676,1.0564835164835162,2.6375824175824176
6.404011338003329,1.9477655677655676,1.0564835164835162,2.6375824175824176
6.405641397999716,1.9477655677655676,1.0564835164835162,2.6375824175824176
6.4095736509989365,1.9477655677655676,1.0564835164835162,2.6375824175824176
6.412701870998717,1.9477655677655676,1.0564835164835162,2.6375824175824176
6.414856511000835,1.5867399267399267,0.1942124542124542,2.166153846153846
6.416350061997946,1.5867399267399267,0.1942124542124542,2.166153846153846
6.420560887003376,1.5867399267399267,0.1942124542124542,2.166153846153846
6.422750265002833,1.5867399267399267,0.1942124542124542,2.166153846153846
6.423573006999504,1.5867399267399267,0.1942124542124542,2.166153846153846
6.425764133004122,1.5867399267399267,0.1942124542124542,2.166153846153846
6.426083708000078,0.0,0.09186813186813186,0.9734798534798534
6.430956101001357,0.0,0.09186813186813186,0.9734798534798534
6.435901335004019,0.0,0.09186813186813186,0.9734798534798534
6.436045264003042,0.0,0.09186813186813186,0.9734798534798534
6.441930979999597,0.0,0.09186813186813186,0.9734798534798534
6.442086674003804,0.0,0.09186813186813186,0.9734798534798534
6.447525026000221,0.0,0.09186813186813186,0.9734798534798534
6.448552045003453,0.0,0.09186813186813186,0.9734798534798534
6.449449129999266,2.6343589743589746,1.7745054945054943,2.5594139194139194
6.451060188999691,2.6343589743589746,1.7745054945054943,2.5594139194139194
6.455102922998776,0.9178754578754579,1.0846886446886446,2.8495238095238093
6.457459761004429,0.9178754578754579,1.0846886446886446,2.8495238095238093
6.457710316004523,0.9178754578754579,1.0846886446886446,2.8495238095238093
6.462533183002961,0.9178754578754579,1.0846886446886446,2.8495238095238093
6.4677750160044525,0.9178754578754579,1.0846886446886446,2.8495238095238093
6.470957498000644,2.4425641025641025,0.5141391941391941,1.6189743589743588
6.471837481003604,2.4425641025641025,0.5141391941391941,1.6189743589743588
6.473542159998033,2.4425641025641025,0.5141391941391941,1.6189743589743588
6.477451185004611,2.4425641025641025,0.5141391941391941,1.6189743589743588
6.481268424002337,2.4425641025641025,0.5141391941391941,1.6189743589743588
6.485212402003526,2.4425641025641025,0.5141391941391941,1.6189743589743588
6.489285151998047,2.4425641025641025,0.5141391941391941,1.6189743589743588
6.492458243999863,2.4425641025641025,0.5141391941391941,1.6189743589743588
6.49332690799929,2.4425641025641025,0.5141391941391941,1.6189743589743588
6.494955667003524,2.4425641025641025,0.5141391941391941,1.6189743589743588
6.498998880000727,2.4425641025641025,0.5141391941391941,1.6189743589743588
6.502236540000013,2.4425641025641025,0.5141391941391941,1.6189743589743588
6.50433555500058,2.4425641025641025,0.5141391941391941,1.6189743589743588
6.505824706000567,2.4425641025641025,0.5141391941391941,1.6189743589743588
6.510025804003817,2.4425641025641025,0.5141391941391941,1.6189743589743588
6.5122812960034935,2.4425641025641025,0.5141391941391941,1.6189743589743588
6.512563018004585,2.4425641025641025,0.5141391941391941,1.6189743589743588
6.517411498003639,2.4425641025641025,0.5141391941391941,1.6189743589743588
6.517531028999656,3.1646153846153844,0.5915018315018314,0.2361172161172161
6.522485676003271,3.1646153846153844,0.5915018315018314,0.2361172161172161
6.526722761998826,3.1646153846153844,0.5915018315018314,0.2361172161172161
6.5296097960017505,3.1646153846153844,0.5915018315018314,0.2361172161172161
6.533157855003083,3.1646153846153844,0.5915018315018314,0.2361172161172161
6.5333030890033115,3.1646153846153844,0.5915018315018314,0.2361172161172161
6.5381689140049275,3.1646153846153844,0.5915018315018314,0.2361172161172161
6.54304485800094,3.1646153846153844,0.5915018315018314,0.2361172161172161
6.548028463999799,0.14102564102564102,0.1676190476190476,0.5383150183150183
6.553040355000121,0.14102564102564102,0.1676190476190476,0.5383150183150183
