time,emg1,emg2,emg3
0.02575752800476039,1.0975824175824174,0.3537728937728937,1.7616117216117215
0.04512607600190677,1.0975824175824174,0.3537728937728937,1.7616117216117215
0.04540339100640267,1.0975824175824174,0.3537728937728937,1.7616117216117215
0.05716099200071767,1.0975824175824174,0.3537728937728937,1.7616117216117215
0.06621656700008316,0.6543589743589743,0.43435897435897436,2.5803663003663004
0.07318104099977063,0.6543589743589743,0.43435897435897436,2.5803663003663004
0.07756374500604579,0.6503296703296703,0.24739926739926738,1.9461538461538461
0.07858453800145071,0.6503296703296703,0.24739926739926738,1.9461538461538461
0.07966068500536494,0.6503296703296703,0.24739926739926738,1.9461538461538461
0.0800287760066567,0.6503296703296703,0.24739926739926738,1.9461538461538461
0.08848778600076912,0.6503296703296703,0.24739926739926738,1.9461538461538461
0.09352227700583171,0.6503296703296703,0.24739926739926738,1.9461538461538461
0.09736203800275689,0.6503296703296703,0.24739926739926738,1.9461538461538461
0.1055056540062651,0.46739926739926735,0.24256410256410255,0.8590476190476191
0.11165510800492484,0.46739926739926735,0.24256410256410255,0.8590476190476191
0.11549200700392248,0.46739926739926735,0.24256410256410255,0.8590476190476191
0.12335296300443588,1.4457142857142857,0.07816849816849816,0.9356043956043956
0.1307469720049994,1.4457142857142857,0.07816849816849816,0.9356043956043956
0.1346480749998591,1.4457142857142857,0.07816849816849816,0.9356043956043956
0.138472818005539,1.4457142857142857,0.07816849816849816,0.9356043956043956
0.1442817360002664,0.08542124542124542,0.29655677655677654,1.2055677655677655
0.1445410960004665,0.11282051282051282,0.27318681318681315,1.1580219780219778
0.15353183400293346,1.108058608058608,0.09347985347985348,2.121831501831502
0.161793134000618,0.014505494505494505,0.051575091575091575,1.1048351648351646
0.16593140700570075,0.0,0.30864468864468864,1.17010989010989
0.1689888860055362,1.6818315018315015,0.21999999999999997,3.211355311355311
0.17136207300063688,0.08139194139194139,0.052380952380952375,1.0484249084249082
0.17161161100375466,0.08139194139194139,0.052380952380952375,1.0484249084249082
0.17736106899974402,0.08139194139194139,0.052380952380952375,1.0484249084249082
0.18271825200645253,0.21435897435897436,0.27076923076923076,1.0242490842490841
0.18584931900113588,0.21435897435897436,0.27076923076923076,1.0242490842490841
0.18820047600456746,0.21435897435897436,0.27076923076923076,1.0242490842490841
0.18840352700499352,0.09186813186813186,0.045128205128205125,0.9106227106227106
0.19377469300525263,0.09186813186813186,0.045128205128205125,0.9106227106227106
0.19640425200486789,0.09186813186813186,0.045128205128205125,0.9106227106227106
0.20168806800211314,0.9114285714285715,0.09589743589743589,0.22564102564102564
0.20596445700357435,0.9114285714285715,0.09589743589743589,0.22564102564102564
0.20872539700212656,0.9114285714285715,0.09589743589743589,0.22564102564102564
0.21272929700353416,0.9114285714285715,0.09589743589743589,0.22564102564102564
0.21442485700390534,0.9114285714285715,0.09589743589743589,0.22564102564102564
0.22010076400329126,0.9114285714285715,0.09589743589743589,0.22564102564102564
0.22037783200357808,1.3369230769230769,0.03223443223443223,2.327326007326007
0.22938153900031466,1.3369230769230769,0.03223443223443223,2.327326007326007
0.2405668620049255,1.3369230769230769,0.03223443223443223,2.327326007326007
0.24987194800633006,1.7326007326007327,0.10798534798534798,3.1767032967032964
0.25885094300610945,1.295018315018315,0.2345054945054945,2.2354578754578753
0.26378884500445565,1.295018315018315,0.2345054945054945,2.2354578754578753
0.2693631270012702,1.295018315018315,0.2345054945054945,2.2354578754578753
0.2696867930062581,0.15472527472527473,0.06043956043956044,0.6043956043956044
0.2770164070025203,0.15472527472527473,0.06043956043956044,0.6043956043956044
0.2824948449997464,0.7365567765567765,0.664029304029304,2.469157509157509
0.28282137300266186,0.7365567765567765,0.664029304029304,2.469157509157509
0.2892554880017997,0.7365567765567765,0.664029304029304,2.469157509157509
0.29332346800219966,0.7365567765567765,0.664029304029304,2.469157509157509
0.2964238030035631,0.7365567765567765,0.664029304029304,2.469157509157509
0.29873082900303416,0.7365567765567765,0.664029304029304,2.469157509157509
0.2990107430014177,0.356996336996337,0.22805860805860806,0.9347985347985347
0.3082978760066908,0.356996336996337,0.22805860805860806,0.9347985347985347
0.3129347870053607,0.356996336996337,0.22805860805860806,0.9347985347985347
0.31325688100332627,0.356996336996337,0.22805860805860806,0.9347985347985347
0.32030014800693607,0.356996336996337,0.22805860805860806,0.9347985347985347
0.3267675960014458,0.356996336996337,0.22805860805860806,0.9347985347985347
0.33258205500169424,0.356996336996337,0.22805860805860806,0.9347985347985347
0.33962330700160237,0.356996336996337,0.22805860805860806,0.9347985347985347
0.34378621200448833,0.14505494505494507,0.29333333333333333,1.0484249084249082
0.34636838800361147,0.14505494505494507,0.29333333333333333,1.0484249084249082
0.35297699100192403,0.14505494505494507,0.29333333333333333,1.0484249084249082
0.3570680010016076,0.0709157509157509,0.08622710622710622,0.8687179487179487
0.35961080600100104,0.0709157509157509,0.08622710622710622,0.8687179487179487
0.3643802900041919,0.0709157509157509,0.08622710622710622,0.8687179487179487
0.37248971400549635,0.0709157509157509,0.08622710622710622,0.8687179487179487
0.37716771499981405,0.0709157509157509,0.08622710622710622,0.8687179487179487
0.3774565670028096,0.0709157509157509,0.08622710622710622,0.8687179487179487
0.38304888600396225,0.0709157509157509,0.08622710622710622,0.8687179487179487
0.38423554000473814,0.0,0.18937728937728937,0.9968498168498168
0.3845707200016477,0.0,0.18937728937728937,0.9968498168498168
0.39038578800682444,0.0,0.18937728937728937,0.9968498168498168
0.39523175800422905,0.0,0.18937728937728937,0.9968498168498168
0.3953977199998917,0.8582417582417583,0.11846153846153845,3.0147252747252744
0.40044963400578126,0.8582417582417583,0.11846153846153845,3.0147252747252744
0.4068094860049314,0.010476190476190476,0.29978021978021974,1.1628571428571428
0.4110123350037611,0.010476190476190476,0.29978021978021974,1.1628571428571428
0.4134172620033496,0.010476190476190476,0.29978021978021974,1.1628571428571428
0.4135403810068965,0.010476190476190476,0.29978021978021974,1.1628571428571428
0.4215450870033237,0.010476190476190476,0.29978021978021974,1.1628571428571428
0.42526948700106004,0.010476190476190476,0.29978021978021974,1.1628571428571428
0.4301657210016856,0.010476190476190476,0.29978021978021974,1.1628571428571428
0.43026341299992055,0.010476190476190476,0.29978021978021974,1.1628571428571428
0.4387099470040994,0.010476190476190476,0.29978021978021974,1.1628571428571428
0.44479161600611405,1.0967765567765566,0.21435897435897436,2.3853479853479853
0.44879791600396857,1.0967765567765566,0.21435897435897436,2.3853479853479853
0.45533972100383835,1.0967765567765566,0.21435897435897436,2.3853479853479853
0.45869058400421636,1.4868131868131869,0.09347985347985348,3.2717948717948717
0.45963507700071204,1.4868131868131869,0.09347985347985348,3.2717948717948717
0.4605693270059419,1.4868131868131869,0.09347985347985348,3.2717948717948717
0.46217924000666244,1.4868131868131869,0.09347985347985348,3.2717948717948717
0.4660897339999792,1.4868131868131869,0.09347985347985348,3.2717948717948717
0.4740388200007146,1.4868131868131869,0.09347985347985348,3.2717948717948717
0.4787774750002427,1.4868131868131869,0.09347985347985348,3.2717948717948717
0.47897129600460175,1.4868131868131869,0.09347985347985348,3.2717948717948717
0.48364661500090733,1.4868131868131869,0.09347985347985348,3.2717948717948717
0.48389238100207876,1.4868131868131869,0.09347985347985348,3.2717948717948717
0.49143472900323104,1.4868131868131869,0.09347985347985348,3.2717948717948717
0.49639093200676143,0.0,0.09670329670329669,0.734139194139194
0.5027924599999096,1.1693040293040293,0.1942124542124542,2.323296703296703
0.5092523860002984,1.1693040293040293,0.1942124542124542,2.323296703296703
0.5139568209997378,1.1693040293040293,0.1942124542124542,2.323296703296703
0.5201566210016608,1.1693040293040293,0.1942124542124542,2.323296703296703
0.5267671780020464,0.44402930402930396,0.19824175824175824,0.4899633699633699
0.5309916180049186,1.854285714285714,0.14586080586080585,3.1460805860805863
0.5326702240054146,1.854285714285714,0.14586080586080585,3.1460805860805863
0.5373629860041547,0.7325274725274724,0.48835164835164835,2.3716483516483513
0.5449802150033065,0.7325274725274724,0.48835164835164835,2.3716483516483513
0.5495473150003818,0.0,0.30058608058608055,1.216849816849817
0.5616028470030869,0.0,0.30058608058608055,1.216849816849817
0.5733254510050756,1.3812454212454213,0.08139194139194139,3.2024908424908425
0.582142126004328,1.3812454212454213,0.08139194139194139,3.2024908424908425
0.5894955650001066,1.1886446886446886,0.15311355311355312,2.398241758241758
0.5942012420055107,1.1886446886446886,0.15311355311355312,2.398241758241758
0.5943673040019348,1.1886446886446886,0.15311355311355312,2.398241758241758
0.598864711006172,1.1886446886446886,0.15311355311355312,2.398241758241758
0.5996942609999678,1.1886446886446886,0.15311355311355312,2.398241758241758
0.6008826520046568,1.1886446886446886,0.15311355311355312,2.398241758241758
0.6013137720001396,1.1886446886446886,0.15311355311355312,2.398241758241758
0.6068420550000155,1.1886446886446886,0.15311355311355312,2.398241758241758
0.6070270730051561,1.1886446886446886,0.15311355311355312,2.398241758241758
0.611868415006029,1.1886446886446886,0.15311355311355312,2.398241758241758
0.612021093002113,1.1886446886446886,0.15311355311355312,2.398241758241758
0.6168645120051224,1.1886446886446886,0.15311355311355312,2.398241758241758
0.6169825850010966,1.1886446886446886,0.15311355311355312,2.398241758241758
0.6243055760060088,1.1886446886446886,0.15311355311355312,2.398241758241758
0.6289250800036825,1.1886446886446886,0.15311355311355312,2.398241758241758
0.6292189290034003,1.1886446886446886,0.15311355311355312,2.398241758241758
0.6365374030065141,1.1886446886446886,0.15311355311355312,2.398241758241758
0.6414316830050666,1.1886446886446886,0.15311355311355312,2.398241758241758
0.6446630110003753,1.1886446886446886,0.15311355311355312,2.398241758241758
0.6463903790063341,1.1886446886446886,0.15311355311355312,2.398241758241758
0.6488031500048237,1.1886446886446886,0.15311355311355312,2.398241758241758
0.649011456000153,0.09992673992673992,0.0975091575091575,0.8115018315018314
0.6568598940066295,0.09992673992673992,0.0975091575091575,0.8115018315018314
0.6614365460045519,0.09992673992673992,0.0975091575091575,0.8115018315018314
0.6617873490031343,0.09992673992673992,0.0975091575091575,0.8115018315018314
0.6675326750046224,0.09992673992673992,0.0975091575091575,0.8115018315018314
0.6677981530010584,0.09992673992673992,0.0975091575091575,0.8115018315018314
0.6784511310033849,0.09992673992673992,0.0975091575091575,0.8115018315018314
0.6852828150003916,0.09992673992673992,0.0975091575091575,0.8115018315018314
0.6894418650044827,0.09992673992673992,0.0975091575091575,0.8115018315018314
0.691082274002838,0.09992673992673992,0.0975091575091575,0.8115018315018314
0.6948759920051089,0.09992673992673992,0.0975091575091575,0.8115018315018314
0.6994931549998,0.09992673992673992,0.0975091575091575,0.8115018315018314
0.6997647140015033,0.0,0.32153846153846155,1.2426373626373626
0.7083093680048478,0.0,0.32153846153846155,1.2426373626373626
0.7136534150049556,0.0,0.32153846153846155,1.2426373626373626
0.7167502000011154,0.7631501831501831,0.5052747252747253,2.5271794871794873
0.7211707150054281,0.7631501831501831,0.5052747252747253,2.5271794871794873
0.7214287810056703,0.20146520146520144,0.23047619047619047,0.925128205128205
0.7266048420060542,0.20146520146520144,0.23047619047619047,0.925128205128205
0.7307414570022956,0.20146520146520144,0.23047619047619047,0.925128205128205
0.7331672690052073,0.20146520146520144,0.23047619047619047,0.925128205128205
0.7334367230068892,0.20146520146520144,0.23047619047619047,0.925128205128205
0.7430947330067283,0.20146520146520144,0.23047619047619047,0.925128205128205
0.7519100320059806,0.20146520146520144,0.23047619047619047,0.925128205128205
0.7581256750054308,0.20146520146520144,0.23047619047619047,0.925128205128205
0.7622680380009115,0.20146520146520144,0.23047619047619047,0.925128205128205
0.7645969000004698,0.20146520146520144,0.23047619047619047,0.925128205128205
0.7648080240032868,0.20146520146520144,0.23047619047619047,0.925128205128205
0.7730828290004865,0.20146520146520144,0.23047619047619047,0.925128205128205
0.7796923730056733,0.08139194139194139,0.11362637362637362,0.7067399267399267
0.7827716370011331,0.08139194139194139,0.11362637362637362,0.7067399267399267
0.7866690540031414,0.08139194139194139,0.11362637362637362,0.7067399267399267
0.7904143890045816,0.08139194139194139,0.11362637362637362,0.7067399267399267
0.7951510610000696,0.06688644688644689,0.1104029304029304,0.7317216117216117
0.7952864480030257,0.7357509157509158,0.4085714285714286,2.411135531135531
0.8018989500051248,0.7357509157509158,0.4085714285714286,2.411135531135531
0.806693840000662,0.3223443223443223,0.28205128205128205,1.2345787545787545
0.8112643720014603,0.11765567765567764,0.008864468864468863,1.066959706959707
0.8120911530058947,0.11765567765567764,0.008864468864468863,1.066959706959707
0.813746619001904,0.11765567765567764,0.008864468864468863,1.066959706959707
0.8172189840042847,0.11765567765567764,0.008864468864468863,1.066959706959707
0.8176166090051993,0.11765567765567764,0.008864468864468863,1.066959706959707
0.8247811700057355,0.11765567765567764,0.008864468864468863,1.066959706959707
0.8288928900001338,0.1942124542124542,0.27882783882783885,1.129010989010989
0.8320276720041875,0.1942124542124542,0.27882783882783885,1.129010989010989
0.8339824620052241,0.1942124542124542,0.27882783882783885,1.129010989010989
0.8392130390056991,0.1942124542124542,0.27882783882783885,1.129010989010989
0.839558763000241,0.1942124542124542,0.27882783882783885,1.129010989010989
0.8457693119999021,0.1942124542124542,0.27882783882783885,1.129010989010989
0.8497700130028534,0.1942124542124542,0.27882783882783885,1.129010989010989
0.8574659070000052,0.1942124542124542,0.27882783882783885,1.129010989010989
0.8615876590047264,0.1942124542124542,0.27882783882783885,1.129010989010989
0.8653220780033735,0.0,0.22564102564102564,1.0613186813186812
0.8723842950057588,0.0,0.22564102564102564,1.0613186813186812
0.8766027410019888,0.04593406593406593,0.051575091575091575,1.1016117216117214
0.8781708770038676,0.04593406593406593,0.051575091575091575,1.1016117216117214
0.883612539000751,0.04593406593406593,0.051575091575091575,1.1016117216117214
0.8852856110024732,0.04593406593406593,0.051575091575091575,1.1016117216117214
0.8900942450054572,0.04593406593406593,0.051575091575091575,1.1016117216117214
0.8971293860013247,0.083003663003663,0.1241025641025641,0.8139194139194139
0.904156069002056,0.083003663003663,0.1241025641025641,0.8139194139194139
0.9101887550059473,0.083003663003663,0.1241025641025641,0.8139194139194139
0.9138390020016232,0.083003663003663,0.1241025641025641,0.8139194139194139
0.9139630620047683,0.083003663003663,0.1241025641025641,0.8139194139194139
0.9228845120014739,0.083003663003663,0.1241025641025641,0.8139194139194139
0.9297373540030094,0.083003663003663,0.1241025641025641,0.8139194139194139
0.9358402450016001,0.083003663003663,0.1241025641025641,0.8139194139194139
0.9399515780023648,1.5698168498168497,0.06608058608058608,3.265347985347985
0.9415614320023451,1.5698168498168497,0.06608058608058608,3.265347985347985
0.9459968130031484,0.06043956043956044,0.24175824175824176,1.1926739926739927
0.9469162310051615,0.2796336996336996,0.025787545787545788,1.1862271062271061
0.948534617004043,0.2796336996336996,0.025787545787545788,1.1862271062271061
0.955008775999886,0.07575091575091575,0.0821978021978022,0.772014652014652
0.9597917630017037,0.6801465201465201,0.39567765567765567,2.071062271062271
0.9644292630036944,0.3473260073260073,0.2989743589743589,1.1918681318681317
0.9653082720033126,0.3473260073260073,0.2989743589743589,1.1918681318681317
0.967185370005609,0.3473260073260073,0.2989743589743589,1.1918681318681317
0.9726178830023855,0.3473260073260073,0.2989743589743589,1.1918681318681317
0.9727578630045173,0.3473260073260073,0.2989743589743589,1.1918681318681317
0.9777054100050009,0.3473260073260073,0.2989743589743589,1.1918681318681317
0.9829046600061702,0.3473260073260073,0.2989743589743589,1.1918681318681317
0.989235296001425,0.3473260073260073,0.2989743589743589,1.1918681318681317
0.9931014360045083,0.3473260073260073,0.2989743589743589,1.1918681318681317
0.9990635020003538,0.9493040293040291,0.3376556776556776,2.5803663003663004
1.0059382540057413,0.9493040293040291,0.3376556776556776,2.5803663003663004
1.0098567470049602,0.9493040293040291,0.3376556776556776,2.5803663003663004
1.014392842000234,0.9493040293040291,0.3376556776556776,2.5803663003663004
1.0146995600007358,0.9493040293040291,0.3376556776556776,2.5803663003663004
1.0225085670026601,0.9493040293040291,0.3376556776556776,2.5803663003663004
1.0265077860021847,1.39010989010989,0.05802197802197802,1.1894505494505494
1.0306896070032963,0.6688644688644688,0.2498168498168498,1.4634432234432233
1.0330257050009095,0.6688644688644688,0.2498168498168498,1.4634432234432233
1.0332681620056974,0.6688644688644688,0.2498168498168498,1.4634432234432233
1.043845432002854,0.6688644688644688,0.2498168498168498,1.4634432234432233
1.0505184080029721,0.6688644688644688,0.2498168498168498,1.4634432234432233
1.056268390006153,0.6688644688644688,0.2498168498168498,1.4634432234432233
1.0617893770031515,0.6865934065934066,0.4005128205128205,2.1403663003663005
1.0636450450037955,0.0,0.2562637362637363,1.0532600732600732
1.0660622510040412,0.0,0.2562637362637363,1.0532600732600732
1.0663208830010262,0.0,0.2562637362637363,1.0532600732600732
1.0745933030048036,0.0,0.2562637362637363,1.0532600732600732
1.0788778730056947,0.0,0.2562637362637363,1.0532600732600732
1.080473232002987,0.11282051282051282,0.2836630036630036,1.0242490842490841
1.0861429530050373,0.0,0.30622710622710625,1.2506959706959706
1.0864310460019624,0.0,0.30622710622710625,1.2506959706959706
1.091527002005023,0.0,0.30622710622710625,1.2506959706959706
1.0953465960046742,0.0,0.30622710622710625,1.2506959706959706
1.100167117001547,0.0,0.30622710622710625,1.2506959706959706
1.1003582010016544,0.0,0.30622710622710625,1.2506959706959706
1.107290517000365,0.0,0.30622710622710625,1.2506959706959706
1.1123212250022334,0.0,0.30622710622710625,1.2506959706959706
1.1185480670028483,0.0,0.30622710622710625,1.2506959706959706
1.1227065510029206,1.7092307692307693,0.026593406593406595,2.896263736263736
1.124363330003689,1.7092307692307693,0.026593406593406595,2.896263736263736
1.1283853240020107,1.2821245421245422,0.23531135531135527,2.162124542124542
1.1329553540053894,0.0,0.07575091575091575,0.9839560439560439
1.1331311120011378,0.7905494505494506,0.04029304029304029,1.547252747252747
1.1389501830053632,0.7905494505494506,0.04029304029304029,1.547252747252747
1.144515557003615,1.2652014652014651,0.01934065934065934,0.5278388278388277
1.1454827930065221,1.2652014652014651,0.01934065934065934,0.5278388278388277
1.1471070520055946,1.2652014652014651,0.01934065934065934,0.5278388278388277
1.150936519006791,1.2652014652014651,0.01934065934065934,0.5278388278388277
1.1565955510013737,1.2652014652014651,0.01934065934065934,0.5278388278388277
1.156843070006289,0.6736996336996337,0.40615384615384614,2.0114285714285716
1.1623680150005384,0.6736996336996337,0.40615384615384614,2.0114285714285716
1.1641444520064397,0.0,0.27641025641025635,1.3659340659340657
1.1689543620013865,0.0,0.27641025641025635,1.3659340659340657
1.1727792960009538,0.18695970695970696,0.05721611721611722,1.0919413919413918
1.1779133540039766,0.6084249084249085,0.46417582417582415,2.437728937728938
1.1817067130032228,0.6084249084249085,0.46417582417582415,2.437728937728938
1.1903500000044005,0.0,0.3537728937728937,1.2893772893772892
1.195201246002398,0.0,0.3537728937728937,1.2893772893772892
1.1953478170034941,0.0,0.3537728937728937,1.2893772893772892
1.2019195100001525,0.0,0.3537728937728937,1.2893772893772892
1.2057398030010518,0.42710622710622714,0.2248351648351648,0.8397069597069596
1.2088486240027123,0.42710622710622714,0.2248351648351648,0.8397069597069596
1.2121462550057913,0.42710622710622714,0.2248351648351648,0.8397069597069596
1.2124384660055512,0.42710622710622714,0.2248351648351648,0.8397069597069596
1.2184481820004294,0.6293772893772893,0.4456410256410256,2.386959706959707
1.224376056001347,1.3063003663003663,0.06446886446886446,1.1709157509157508
1.2296090430027107,1.3063003663003663,0.06446886446886446,1.1709157509157508
1.2325397439999506,1.3063003663003663,0.06446886446886446,1.1709157509157508
1.2370703790002153,1.3063003663003663,0.06446886446886446,1.1709157509157508
1.2372937150066718,1.3063003663003663,0.06446886446886446,1.1709157509157508
1.2423834270011866,1.3063003663003663,0.06446886446886446,1.1709157509157508
1.2455402960040374,1.3063003663003663,0.06446886446886446,1.1709157509157508
1.2472561190006672,1.3063003663003663,0.06446886446886446,1.1709157509157508
1.2514151430004858,1.3063003663003663,0.06446886446886446,1.1709157509157508
1.2539289640044444,1.3063003663003663,0.06446886446886446,1.1709157509157508
1.2597615180056891,1.3063003663003663,0.06446886446886446,1.1709157509157508
1.2598764750000555,1.3063003663003663,0.06446886446886446,1.1709157509157508
1.2656740650054417,1.3063003663003663,0.06446886446886446,1.1709157509157508
1.2658317930035992,1.3063003663003663,0.06446886446886446,1.1709157509157508
1.271168117003981,1.3063003663003663,0.06446886446886446,1.1709157509157508
1.2728442780062323,1.3063003663003663,0.06446886446886446,1.1709157509157508
1.27682011500292,1.3063003663003663,0.06446886446886446,1.1709157509157508
1.2806717940038652,1.3063003663003663,0.06446886446886446,1.1709157509157508
1.2854370160057442,1.3063003663003663,0.06446886446886446,1.1709157509157508
1.285649932004162,1.3063003663003663,0.06446886446886446,1.1709157509157508
1.2905587890054449,1.3063003663003663,0.06446886446886446,1.1709157509157508
1.296927928000514,1.3063003663003663,0.06446886446886446,1.1709157509157508
1.3003520030033542,1.3063003663003663,0.06446886446886446,1.1709157509157508
1.3006384260006598,1.3063003663003663,0.06446886446886446,1.1709157509157508
1.3052880760005792,1.3063003663003663,0.06446886446886446,1.1709157509157508
1.305705056001898,1.3063003663003663,0.06446886446886446,1.1709157509157508
1.3107780480058864,1.3063003663003663,0.06446886446886446,1.1709157509157508
1.3150027010051417,1.3063003663003663,0.06446886446886446,1.1709157509157508
1.3177738900049007,1.3063003663003663,0.06446886446886446,1.1709157509157508
1.3221148750017164,1.3063003663003663,0.06446886446886446,1.1709157509157508
1.3245219990058104,1.3063003663003663,0.06446886446886446,1.1709157509157508
1.3300542420038255,1.6189743589743588,0.23531135531135527,2.3853479853479853
1.3316670550048002,1.6189743589743588,0.23531135531135527,2.3853479853479853
1.3361369830017793,0.7212454212454212,0.469010989010989,2.522344322344322
1.3371218930042232,0.7212454212454212,0.469010989010989,2.522344322344322
1.3381749489999493,0.7212454212454212,0.469010989010989,2.522344322344322
1.3384434610052267,0.7212454212454212,0.469010989010989,2.522344322344322
1.3445047130007879,0.7212454212454212,0.469010989010989,2.522344322344322
1.3484409040029277,0.7212454212454212,0.469010989010989,2.522344322344322
1.3517546780058183,0.7212454212454212,0.469010989010989,2.522344322344322
1.3520624350057915,0.7212454212454212,0.469010989010989,2.522344322344322
1.3576593450052314,0.7228571428571429,0.4504761904761904,2.7342857142857144
1.3580076200014446,0.5528205128205127,0.15956043956043955,0.4424175824175824
1.363534336000157,0.5528205128205127,0.15956043956043955,0.4424175824175824
1.3637393150056596,0.5528205128205127,0.15956043956043955,0.4424175824175824
1.3690896590051125,0.5528205128205127,0.15956043956043955,0.4424175824175824
1.3719510500013712,0.025787545787545788,0.09347985347985348,0.7357509157509158
1.3754512000014074,0.025787545787545788,0.09347985347985348,0.7357509157509158
1.375626083005045,0.025787545787545788,0.09347985347985348,0.7357509157509158
1.3807246270007454,0.025787545787545788,0.09347985347985348,0.7357509157509158
1.3843596450024052,0.025787545787545788,0.09347985347985348,0.7357509157509158
1.3845607330003986,0.22967032967032966,0.2627106227106227,1.2023443223443222
1.3894793770014076,0.22967032967032966,0.2627106227106227,1.2023443223443222
1.39443976199982,0.22967032967032966,0.2627106227106227,1.2023443223443222
1.3994827550050104,0.22967032967032966,0.2627106227106227,1.2023443223443222
1.4044062580069294,0.22967032967032966,0.2627106227106227,1.2023443223443222
1.409418066003127,0.22967032967032966,0.2627106227106227,1.2023443223443222
1.4137139370068326,0.22967032967032966,0.2627106227106227,1.2023443223443222
1.4152110740033095,0.22967032967032966,0.2627106227106227,1.2023443223443222
1.420177161002357,0.22967032967032966,0.2627106227106227,1.2023443223443222
1.4252792620027321,0.15875457875457877,0.3021978021978022,1.079047619047619
1.4291670920065371,0.06124542124542124,0.2917216117216117,1.3046886446886445
1.432969868001237,0.06124542124542124,0.2917216117216117,1.3046886446886445
1.43777786600549,0.7728205128205128,0.2095238095238095,2.1435897435897435
1.442621854999743,0.7728205128205128,0.2095238095238095,2.1435897435897435
1.4480244380029035,0.0,0.3158974358974359,1.2506959706959706
1.4512069810007233,0.0,0.3158974358974359,1.2506959706959706
1.4527572180013522,0.0,0.3158974358974359,1.2506959706959706
1.4565214210015256,0.0,0.3158974358974359,1.2506959706959706
1.4619298480029101,0.4859340659340659,0.16278388278388278,0.35135531135531134
1.4644165790014085,0.4859340659340659,0.16278388278388278,0.35135531135531134
1.4645706150040496,0.37875457875457874,0.2506227106227106,1.2426373626373626
1.4698871850050637,0.37875457875457874,0.2506227106227106,1.2426373626373626
1.4731968760024756,0.37875457875457874,0.2506227106227106,1.2426373626373626
1.4734848340012832,0.37875457875457874,0.2506227106227106,1.2426373626373626
1.4787724990019342,0.37875457875457874,0.2506227106227106,1.2426373626373626
1.4813313620034023,0.37875457875457874,0.2506227106227106,1.2426373626373626
1.4869007730012527,0.37875457875457874,0.2506227106227106,1.2426373626373626
1.488517153004068,1.411062271062271,0.18373626373626373,2.1838827838827837
1.4923059089996968,1.411062271062271,0.18373626373626373,2.1838827838827837
1.4975932270026533,0.8445421245421244,0.18937728937728937,2.125054945054945
1.5015075240007718,0.8445421245421244,0.18937728937728937,2.125054945054945
1.5054274710055324,0.0,0.2715750915750916,1.2837362637362637
1.5085042749997228,1.1813919413919414,0.22564102564102564,2.129084249084249
1.5108019360050093,1.1813919413919414,0.22564102564102564,2.129084249084249
1.5110834250008338,1.1813919413919414,0.22564102564102564,2.129084249084249
1.5156395020021591,1.1813919413919414,0.22564102564102564,2.129084249084249
1.515969888001564,1.1813919413919414,0.22564102564102564,2.129084249084249
1.5207377820042893,1.1813919413919414,0.22564102564102564,2.129084249084249
1.520915260000038,1.1813919413919414,0.22564102564102564,2.129084249084249
1.5266506990010384,1.1813919413919414,0.22564102564102564,2.129084249084249
1.5322664120030822,1.1813919413919414,0.22564102564102564,2.129084249084249
1.5339918760000728,0.048351648351648346,0.08542124542124542,0.6898168498168498
1.537047297002573,0.048351648351648346,0.08542124542124542,0.6898168498168498
1.5393953760067234,0.048351648351648346,0.08542124542124542,0.6898168498168498
1.5395324320052168,0.048351648351648346,0.08542124542124542,0.6898168498168498
1.5449627390044043,0.048351648351648346,0.08542124542124542,0.6898168498168498
1.5475025110063143,0.048351648351648346,0.08542124542124542,0.6898168498168498
1.5520853800044279,0.048351648351648346,0.08542124542124542,0.6898168498168498
1.552377644002263,0.048351648351648346,0.08542124542124542,0.6898168498168498
1.5578403340041405,0.048351648351648346,0.08542124542124542,0.6898168498168498
1.5594707600030233,0.048351648351648346,0.08542124542124542,0.6898168498168498
1.5633660170060466,0.048351648351648346,0.08542124542124542,0.6898168498168498
1.5679084740040707,0.4279120879120879,0.26754578754578756,1.2958241758241758
1.5688022100002854,0.13699633699633698,0.09992673992673992,0.8622710622710623
1.5705740100020193,0.06285714285714286,0.10153846153846154,0.8864468864468864
1.5730187830049545,0.06285714285714286,0.10153846153846154,0.8864468864468864
1.5732543880003504,0.06285714285714286,0.10153846153846154,0.8864468864468864
1.578713474002143,0.7816849816849816,0.3465201465201465,1.9534065934065934
1.5795462380046956,0.43677655677655675,0.1652014652014652,0.4545054945054945
1.5812083430064376,0.43677655677655675,0.1652014652014652,0.4545054945054945
1.5850060140001005,0.0,0.2224175824175824,0.9605860805860806
1.5895949240002665,0.0,0.2224175824175824,0.9605860805860806
1.5898940560000483,0.0,0.2224175824175824,0.9605860805860806
1.5954945260018576,0.0,0.2224175824175824,0.9605860805860806
1.5963129380033934,0.0,0.2224175824175824,0.9605860805860806
1.5979670300002908,0.0,0.2224175824175824,0.9605860805860806
1.601750208006706,0.0,0.2224175824175824,0.9605860805860806
1.6065090330012026,0.0,0.2224175824175824,0.9605860805860806
1.6066954410052858,0.9364102564102563,0.24578754578754577,1.7301831501831502
1.6112947180008632,0.9364102564102563,0.24578754578754577,1.7301831501831502
1.6115700110021862,0.9364102564102563,0.24578754578754577,1.7301831501831502
1.6164092660037568,0.7276923076923076,0.4214652014652014,2.933333333333333
1.616593537000881,0.7276923076923076,0.4214652014652014,2.933333333333333
1.6213856250033132,0.7276923076923076,0.4214652014652014,2.933333333333333
1.6267579760024091,0.2191941391941392,0.29655677655677654,0.8775824175824175
1.6296294100029627,0.13135531135531134,0.008864468864468863,1.0975824175824174
1.6332391320029274,0.07333333333333333,0.11846153846153845,0.850989010989011
1.633517178001057,0.7397802197802198,0.523003663003663,2.5505494505494504
1.6385404700049548,0.7397802197802198,0.523003663003663,2.5505494505494504
1.6420875080002588,0.7397802197802198,0.523003663003663,2.5505494505494504
1.6423785380029585,0.1555311355311355,0.28769230769230764,1.1120879120879121
1.6473385620047338,0.1555311355311355,0.28769230769230764,1.1120879120879121
1.6521392480062786,0.08783882783882783,0.08058608058608058,0.9742857142857142
1.6569622770039132,0.08783882783882783,0.08058608058608058,0.9742857142857142
1.6571757380006602,1.7156776556776556,0.06608058608058608,3.1460805860805863
1.6620224730068003,0.527032967032967,0.18534798534798536,0.39809523809523806
1.6621949070031405,0.0,0.31267399267399265,1.1838095238095236
1.6671115780045511,0.0,0.31267399267399265,1.1838095238095236
1.6713632350001717,0.0,0.31267399267399265,1.1838095238095236
1.6735663060026127,0.0,0.31267399267399265,1.1838095238095236
1.6743350840042694,0.0,0.31267399267399265,1.1838095238095236
1.6765439900045749,0.0,0.31267399267399265,1.1838095238095236
1.676854325000022,0.0,0.31267399267399265,1.1838095238095236
1.681837328003894,0.0,0.31267399267399265,1.1838095238095236
1.6866813380038366,0.0,0.31267399267399265,1.1838095238095236
1.691614366005524,0.0,0.31267399267399265,1.1838095238095236
1.6963507700056653,0.0,0.31267399267399265,1.1838095238095236
1.6965765900022234,0.0,0.31267399267399265,1.1838095238095236
1.701390790003643,0.0,0.31267399267399265,1.1838095238095236
1.7062673210020876,0.1418315018315018,0.2836630036630036,0.9428571428571427
1.7063766720020794,1.6189743589743588,0.21516483516483517,2.3724542124542123
1.7111868080028216,1.6189743589743588,0.21516483516483517,2.3724542124542123
1.711310594000679,0.946080586080586,0.15472527472527473,2.0388278388278387
1.7160819590062601,0.946080586080586,0.15472527472527473,2.0388278388278387
1.7162287610044586,0.946080586080586,0.15472527472527473,2.0388278388278387
1.721012566005811,0.946080586080586,0.15472527472527473,2.0388278388278387
1.7262071680015652,0.946080586080586,0.15472527472527473,2.0388278388278387
1.7297797160063055,0.946080586080586,0.15472527472527473,2.0388278388278387
1.7299601710037678,0.946080586080586,0.15472527472527473,2.0388278388278387
1.7348382500058506,0.946080586080586,0.15472527472527473,2.0388278388278387
1.7398464270008844,0.946080586080586,0.15472527472527473,2.0388278388278387
1.7437251060036942,0.5737728937728938,0.2079120879120879,0.4722344322344322
1.7482409330041264,0.5737728937728938,0.2079120879120879,0.4722344322344322
1.749158595004701,0.5737728937728938,0.2079120879120879,0.4722344322344322
1.750915848002478,0.5737728937728938,0.2079120879120879,0.4722344322344322
1.7541054750035983,0.5737728937728938,0.2079120879120879,0.4722344322344322
1.7556588090010337,0.5737728937728938,0.2079120879120879,0.4722344322344322
1.7594386100026895,0.5737728937728938,0.2079120879120879,0.4722344322344322
1.7649515100056306,0.5737728937728938,0.2079120879120879,0.4722344322344322
1.7665091939998092,0.0,0.2594871794871795,0.9613919413919414
1.770326442005171,0.0,0.2594871794871795,0.9613919413919414
1.7757237030018587,0.9952380952380951,0.13216117216117215,1.9864468864468863
1.778132364001067,1.5625641025641024,0.06124542124542124,3.3
1.7782646760024363,1.5625641025641024,0.06124542124542124,3.3
1.7837440330040408,1.5625641025641024,0.06124542124542124,3.3
1.7848515350051457,1.5625641025641024,0.06124542124542124,3.3
1.7856859660023474,1.2595604395604394,0.22644688644688646,1.9066666666666663
1.7872811120032566,1.2595604395604394,0.22644688644688646,1.9066666666666663
1.7910718580023968,1.2595604395604394,0.22644688644688646,1.9066666666666663
1.796521953001502,1.2595604395604394,0.22644688644688646,1.9066666666666663
1.7980834660047549,1.2595604395604394,0.22644688644688646,1.9066666666666663
1.8020003480050946,1.2595604395604394,0.22644688644688646,1.9066666666666663
1.8066976700065425,0.0,0.26754578754578756,1.2152380952380952
1.8120572860061657,0.0,0.26754578754578756,1.2152380952380952
1.814276355005859,0.0,0.26754578754578756,1.2152380952380952
1.8150943920045393,0.7599267399267399,0.4810989010989011,2.3652014652014652
1.8166597100062063,0.7599267399267399,0.4810989010989011,2.3652014652014652
1.8212246830007643,0.7599267399267399,0.4810989010989011,2.3652014652014652
1.8220959280006355,0.7599267399267399,0.4810989010989011,2.3652014652014652
1.8238556950018392,0.7599267399267399,0.4810989010989011,2.3652014652014652
1.8269693580004969,0.07655677655677656,0.2917216117216117,1.257142857142857
1.8285990510048578,0.07655677655677656,0.2917216117216117,1.257142857142857
1.8322428170067724,0.07655677655677656,0.2917216117216117,1.257142857142857
1.8324439340067329,0.08783882783882783,0.09912087912087912,0.7147985347985348
1.8374680720007746,0.08783882783882783,0.09912087912087912,0.7147985347985348
1.841724009005702,0.622124542124542,0.1789010989010989,0.42065934065934063
1.8445699340009014,0.622124542124542,0.1789010989010989,0.42065934065934063
1.848081837000791,0.622124542124542,0.1789010989010989,0.42065934065934063
1.8483270659999107,0.622124542124542,0.1789010989010989,0.42065934065934063
1.8532245380047243,0.622124542124542,0.1789010989010989,0.42065934065934063
1.8581350110034691,0.622124542124542,0.1789010989010989,0.42065934065934063
1.8623783310031286,0.622124542124542,0.1789010989010989,0.42065934065934063
1.8645231930058799,0.622124542124542,0.1789010989010989,0.42065934065934063
1.8653393700005836,0.622124542124542,0.1789010989010989,0.42065934065934063
1.8674748560006265,0.622124542124542,0.1789010989010989,0.42065934065934063
1.868909174001601,0.622124542124542,0.1789010989010989,0.42065934065934063
1.873946664003597,0.622124542124542,0.1789010989010989,0.42065934065934063
1.8788666230029776,1.046007326007326,0.24659340659340656,2.230622710622711
1.8790009010044741,1.0137728937728938,0.0709157509157509,0.37150183150183147
1.8839587210022728,1.0137728937728938,0.0709157509157509,0.37150183150183147
1.8888942490011686,1.0137728937728938,0.0709157509157509,0.37150183150183147
1.8938044140013517,1.0137728937728938,0.0709157509157509,0.37150183150183147
1.8939487040042877,1.0137728937728938,0.0709157509157509,0.37150183150183147
1.8987601490007364,1.0137728937728938,0.0709157509157509,0.37150183150183147
1.898949515001732,1.0137728937728938,0.0709157509157509,0.37150183150183147
1.9040983810045873,1.0137728937728938,0.0709157509157509,0.37150183150183147
1.9080873350030743,1.0137728937728938,0.0709157509157509,0.37150183150183147
1.9120988680006121,1.0137728937728938,0.0709157509157509,0.37150183150183147
1.9161023080014274,1.0137728937728938,0.0709157509157509,0.37150183150183147
1.9200717080020695,1.0605128205128205,0.03948717948717949,0.40776556776556777
1.9241330690056202,1.0605128205128205,0.03948717948717949,0.40776556776556777
1.9279107690017554,1.0605128205128205,0.03948717948717949,0.40776556776556777
1.933443948000786,1.0605128205128205,0.03948717948717949,0.40776556776556777
1.9352119150062208,1.0605128205128205,0.03948717948717949,0.40776556776556777
1.9383277450033347,1.0605128205128205,0.03948717948717949,0.40776556776556777
1.9407983000055538,1.0605128205128205,0.03948717948717949,0.40776556776556777
1.940956301004917,1.0605128205128205,0.03948717948717949,0.40776556776556777
1.946478833000583,1.0605128205128205,0.03948717948717949,0.40776556776556777
1.948139763000654,1.0605128205128205,0.03948717948717949,0.40776556776556777
1.9520494640019024,1.0605128205128205,0.03948717948717949,0.40776556776556777
1.9560448830015957,1.0605128205128205,0.03948717948717949,0.40776556776556777
1.9592019290066673,1.0605128205128205,0.03948717948717949,0.40776556776556777
1.961718690006819,0.47062271062271055,0.25223443223443226,1.079047619047619
1.9663952870032517,0.47062271062271055,0.25223443223443226,1.079047619047619
1.9665938060061308,0.47062271062271055,0.25223443223443226,1.079047619047619
1.971441029003472,0.47062271062271055,0.25223443223443226,1.079047619047619
1.9769148810009938,1.0315018315018314,0.17567765567765567,2.24996336996337
1.9784715170026175,1.0315018315018314,0.17567765567765567,2.24996336996337
1.9820911000060732,1.0315018315018314,0.17567765567765567,2.24996336996337
1.9822035130055156,1.0315018315018314,0.17567765567765567,2.24996336996337
1.9870886910066474,1.0315018315018314,0.17567765567765567,2.24996336996337
1.9920265360051417,0.17487179487179486,0.06527472527472526,0.9202930402930403
1.9969897060000221,0.17487179487179486,0.06527472527472526,0.9202930402930403
1.9971184700043523,0.17487179487179486,0.06527472527472526,0.9202930402930403
2.0020788030014955,0.17487179487179486,0.06527472527472526,0.9202930402930403
2.0068336990007083,0.17487179487179486,0.06527472527472526,0.9202930402930403
2.006956586999877,0.17487179487179486,0.06527472527472526,0.9202930402930403
2.012286054006836,0.17487179487179486,0.06527472527472526,0.9202930402930403
2.014816429000348,0.17487179487179486,0.06527472527472526,0.9202930402930403
2.0149547700057155,0.17487179487179486,0.06527472527472526,0.9202930402930403
2.020392795006046,0.17487179487179486,0.06527472527472526,0.9202930402930403
2.0219171260032454,0.07978021978021978,0.2796336996336996,1.3046886446886445
2.0277662740045344,0.07978021978021978,0.2796336996336996,1.3046886446886445
2.027871761005372,0.07978021978021978,0.2796336996336996,1.3046886446886445
2.0334485400017,0.07978021978021978,0.2796336996336996,1.3046886446886445
2.035138878003636,0.07978021978021978,0.2796336996336996,1.3046886446886445
2.038205418000871,0.07978021978021978,0.2796336996336996,1.3046886446886445
2.040596313003334,0.07978021978021978,0.2796336996336996,1.3046886446886445
2.040760391006188,0.07978021978021978,0.2796336996336996,1.3046886446886445
2.04611503900378,0.07978021978021978,0.2796336996336996,1.3046886446886445
2.049117632006528,0.07978021978021978,0.2796336996336996,1.3046886446886445
2.0521112020069268,0.07978021978021978,0.2796336996336996,1.3046886446886445
2.0551446490062517,0.0,0.07978021978021978,0.7558974358974359
2.0576939580059843,0.6535531135531135,0.43597069597069593,2.5094505494505492
2.0628836000032607,0.6535531135531135,0.43597069597069593,2.5094505494505492
2.065969811999821,0.6535531135531135,0.43597069597069593,2.5094505494505492
2.0683149739998044,0.6535531135531135,0.43597069597069593,2.5094505494505492
2.068620074001956,0.6535531135531135,0.43597069597069593,2.5094505494505492
2.0741377910017036,0.6535531135531135,0.43597069597069593,2.5094505494505492
2.075849957000173,0.6535531135531135,0.43597069597069593,2.5094505494505492
2.0795790540068992,0.6535531135531135,0.43597069597069593,2.5094505494505492
2.085158058005618,0.6535531135531135,0.43597069597069593,2.5094505494505492
2.08671691800555,0.6535531135531135,0.43597069597069593,2.5094505494505492
2.0913141860000906,1.9131135531135532,0.13216117216117215,3.033260073260073
2.0915434270063997,1.9131135531135532,0.13216117216117215,3.033260073260073
2.09676239300461,1.9131135531135532,0.13216117216117215,3.033260073260073
2.1000458980051917,1.9131135531135532,0.13216117216117215,3.033260073260073
2.1009370440006023,0.28285714285714286,0.24578754578754577,0.9863736263736262
2.102555070006929,0.28285714285714286,0.24578754578754577,0.9863736263736262
2.1071359460038366,0.28285714285714286,0.24578754578754577,0.9863736263736262
2.1080024290058645,1.232967032967033,0.09831501831501832,2.282197802197802
2.109753240001737,1.232967032967033,0.09831501831501832,2.282197802197802
2.112832562001131,1.232967032967033,0.09831501831501832,2.282197802197802
2.115278417004447,1.232967032967033,0.09831501831501832,2.282197802197802
2.1206726020027418,1.232967032967033,0.09831501831501832,2.282197802197802
2.123046657005034,1.232967032967033,0.09831501831501832,2.282197802197802
2.1232860640011495,1.232967032967033,0.09831501831501832,2.282197802197802
2.1278542750005727,1.232967032967033,0.09831501831501832,2.282197802197802
2.1294347590010148,1.232967032967033,0.09831501831501832,2.282197802197802
2.133484063000651,1.232967032967033,0.09831501831501832,2.282197802197802
2.1351268910002545,1.0516483516483515,0.05318681318681319,1.9437362637362636
2.138978375005536,1.0516483516483515,0.05318681318681319,1.9437362637362636
2.1430022370041115,1.0516483516483515,0.05318681318681319,1.9437362637362636
2.1469574230068247,0.03706959706959707,0.22644688644688646,1.2555311355311354
2.1509260830061976,0.03706959706959707,0.22644688644688646,1.2555311355311354
2.1548518970012083,0.03062271062271062,0.07413919413919413,0.8574358974358974
2.1593668530040304,0.03062271062271062,0.07413919413919413,0.8574358974358974
2.159664729006181,0.03062271062271062,0.07413919413919413,0.8574358974358974
2.1650980340054957,0.03062271062271062,0.07413919413919413,0.8574358974358974
2.1666807970032096,0.21516483516483517,0.25465201465201465,1.1765567765567766
2.170489506999729,1.4352380952380952,0.09267399267399268,2.4860805860805857
2.1749985060014296,1.4352380952380952,0.09267399267399268,2.4860805860805857
2.175855006003985,0.8711355311355311,0.28608058608058606,2.7076923076923074
2.177475664000667,1.5867399267399267,0.0556043956043956,3.2750183150183148
2.1812735090061324,0.8953113553113552,0.09670329670329669,0.2562637362637363
2.1868303930023103,0.09025641025641025,0.30945054945054945,1.2353846153846153
2.187872929003788,0.09025641025641025,0.30945054945054945,1.2353846153846153
2.188758306001546,0.09025641025641025,0.30945054945054945,1.2353846153846153
2.1904492350004148,0.09025641025641025,0.30945054945054945,1.2353846153846153
2.1944676210041507,0.09025641025641025,0.30945054945054945,1.2353846153846153
2.198251401001471,0.09025641025641025,0.30945054945054945,1.2353846153846153
2.2030842950043734,0.09025641025641025,0.30945054945054945,1.2353846153846153
2.2032046480017016,0.09025641025641025,0.30945054945054945,1.2353846153846153
2.208474330000172,0.09025641025641025,0.30945054945054945,1.2353846153846153
2.2115260390055482,0.017728937728937726,0.0975091575091575,0.8638827838827838
2.2131785420060623,0.017728937728937726,0.0975091575091575,0.8638827838827838
2.216937189004966,0.017728937728937726,0.0975091575091575,0.8638827838827838
2.222362244006945,0.017728937728937726,0.0975091575091575,0.8638827838827838
2.2247044110044953,0.0,0.27318681318681315,1.3562637362637362
2.2249520270052017,0.0,0.27318681318681315,1.3562637362637362
2.230238336000184,0.0,0.27318681318681315,1.3562637362637362
2.2326055350058596,0.0,0.27318681318681315,1.3562637362637362
2.23281922100432,0.0,0.27318681318681315,1.3562637362637362
2.2381183890029206,0.0,0.27318681318681315,1.3562637362637362
2.2413927120069275,1.0323076923076921,0.029816849816849816,0.3658608058608058
2.24225092400593,1.0323076923076921,0.029816849816849816,0.3658608058608058
2.2439003980034613,1.0323076923076921,0.029816849816849816,0.3658608058608058
2.247701179003343,0.0,0.2796336996336996,1.3224175824175823
2.252328740003577,1.3103296703296703,0.21274725274725276,2.02029304029304
2.252622922002047,0.9887912087912087,0.07413919413919413,1.7575824175824175
2.257305148006708,0.9887912087912087,0.07413919413919413,1.7575824175824175
2.2576210500046727,1.1854212454212454,0.21597069597069596,2.3893772893772893
2.2623325330059743,1.1854212454212454,0.21597069597069596,2.3893772893772893
2.262584522002726,1.1854212454212454,0.21597069597069596,2.3893772893772893
2.2672572920055245,1.1854212454212454,0.21597069597069596,2.3893772893772893
2.267455665001762,0.08542124542124542,0.04996336996336996,1.066959706959707
2.272906532001798,0.08542124542124542,0.04996336996336996,1.066959706959707
2.2751677480046055,0.08542124542124542,0.04996336996336996,1.066959706959707
2.2754659180063754,0.6414652014652015,0.4279120879120879,2.3813186813186813
2.280778886000917,0.6414652014652015,0.4279120879120879,2.3813186813186813
2.2838672409998253,0.0419047619047619,0.25868131868131866,0.9871794871794871
2.2861831320042256,0.0,0.24739926739926738,1.2966300366300365
2.286429619001865,0.0,0.24739926739926738,1.2966300366300365
2.2917038790037623,0.0,0.24739926739926738,1.2966300366300365
2.2940394660035963,0.0,0.24739926739926738,1.2966300366300365
2.2948833880000166,0.0,0.24739926739926738,1.2966300366300365
2.2965108630014583,0.0,0.24739926739926738,1.2966300366300365
2.300473316005082,1.6495970695970694,0.06285714285714286,3.1621978021978023
2.304478003003169,1.6495970695970694,0.06285714285714286,3.1621978021978023
2.3082264050026424,1.6495970695970694,0.06285714285714286,3.1621978021978023
2.3136961330019403,0.13377289377289378,0.09186813186813186,1.0194139194139193
2.315415387005487,0.664029304029304,0.4287179487179487,2.24996336996337
2.318504353002936,0.7583150183150182,0.32556776556776557,1.8913553113553112
2.3210811450044275,0.7583150183150182,0.32556776556776557,1.8913553113553112
2.326442235003924,0.7583150183150182,0.32556776556776557,1.8913553113553112
2.3295933270055684,0.7583150183150182,0.32556776556776557,1.8913553113553112
2.330476123999688,0.06688644688644689,0.0975091575091575,0.9057875457875458
2.3320759250054834,0.06688644688644689,0.0975091575091575,0.9057875457875458
2.336591279003187,0.06688644688644689,0.0975091575091575,0.9057875457875458
2.3374481850041775,0.06688644688644689,0.0975091575091575,0.9057875457875458
2.3390550940021058,0.06688644688644689,0.0975091575091575,0.9057875457875458
2.3435509560003993,0.06688644688644689,0.0975091575091575,0.9057875457875458
2.344435730999976,0.06688644688644689,0.0975091575091575,0.9057875457875458
2.3460060470024473,0.06688644688644689,0.0975091575091575,0.9057875457875458
2.3505989820041577,0.06688644688644689,0.0975091575091575,0.9057875457875458
2.350956160000351,0.06688644688644689,0.0975091575091575,0.9057875457875458
2.356456371002423,0.06688644688644689,0.0975091575091575,0.9057875457875458
2.3573468160029734,0.06688644688644689,0.0975091575091575,0.9057875457875458
2.35896836000029,0.06688644688644689,0.0975091575091575,0.9057875457875458
2.3628150440054014,0.06688644688644689,0.0975091575091575,0.9057875457875458
2.3672896920033963,0.0,0.26915750915750913,1.2756776556776557
2.3681901730014943,0.1265201465201465,0.0821978021978022,1.1684981684981686
2.369749604004028,0.1265201465201465,0.0821978021978022,1.1684981684981686
2.373570567004208,0.1265201465201465,0.0821978021978022,1.1684981684981686
2.3780083540041232,0.7728205128205128,0.3465201465201465,2.690769230769231
2.3796230890002334,0.7728205128205128,0.3465201465201465,2.690769230769231
2.3836054500061437,0.7728205128205128,0.3465201465201465,2.690769230769231
2.3866529910010286,0.7776556776556776,0.2248351648351648,1.4795604395604396
2.3889543220066116,1.191062271062271,0.19743589743589743,1.8857142857142855
2.389945125003578,1.191062271062271,0.19743589743589743,1.8857142857142855
2.3902361070067855,1.191062271062271,0.19743589743589743,1.8857142857142855
2.3956642630000715,1.191062271062271,0.19743589743589743,1.8857142857142855
2.39728886600642,1.191062271062271,0.19743589743589743,1.8857142857142855
2.4019438970062765,1.191062271062271,0.19743589743589743,1.8857142857142855
2.4022104980031145,0.0,0.3078388278388278,1.0895238095238093
2.407164181000553,0.0,0.3078388278388278,1.0895238095238093
2.41144077500212,0.0,0.3078388278388278,1.0895238095238093
2.412979445005476,0.0,0.3078388278388278,1.0895238095238093
2.4178142710006796,0.0,0.3078388278388278,1.0895238095238093
2.417947992005793,0.0,0.3078388278388278,1.0895238095238093
2.422881115002383,0.0,0.3078388278388278,1.0895238095238093
2.4281127760041272,0.0,0.3078388278388278,1.0895238095238093
2.4311532480060123,0.0,0.3078388278388278,1.0895238095238093
2.434131961003004,0.0,0.3078388278388278,1.0895238095238093
2.4364283100003377,0.0,0.3078388278388278,1.0895238095238093
2.436702969003818,0.0,0.3078388278388278,1.0895238095238093
2.441447841003537,0.0,0.3078388278388278,1.0895238095238093
2.441650020002271,0.0,0.3078388278388278,1.0895238095238093
2.4463905800002976,0.0,0.3078388278388278,1.0895238095238093
2.4466436420043465,0.9686446886446887,0.20388278388278389,1.5166300366300365
2.451437937001174,0.9686446886446887,0.20388278388278389,1.5166300366300365
2.451623766006378,0.9493040293040291,0.12168498168498168,1.93003663003663
2.4564006220025476,0.9493040293040291,0.12168498168498168,1.93003663003663
2.4565402290027123,0.9493040293040291,0.12168498168498168,1.93003663003663
2.461323674004234,0.9493040293040291,0.12168498168498168,1.93003663003663
2.4614646110057947,0.9493040293040291,0.12168498168498168,1.93003663003663
2.4662326850011596,0.9493040293040291,0.12168498168498168,1.93003663003663
2.466336475001299,1.3256410256410256,0.2111355311355311,1.9356776556776556
2.4711183160034125,1.3256410256410256,0.2111355311355311,1.9356776556776556
2.4713053760060575,0.7147985347985348,0.10556776556776555,1.6125274725274723
2.476038608001545,0.7147985347985348,0.10556776556776555,1.6125274725274723
2.476223571000446,0.7147985347985348,0.10556776556776555,1.6125274725274723
2.4809945830056677,0.7147985347985348,0.10556776556776555,1.6125274725274723
2.481240291002905,0.7147985347985348,0.10556776556776555,1.6125274725274723
2.485411675006617,0.7147985347985348,0.10556776556776555,1.6125274725274723
2.4888206680043368,0.7147985347985348,0.10556776556776555,1.6125274725274723
2.4890898530065897,0.112014652014652,0.09428571428571428,0.90014652014652
2.4938867240052787,0.112014652014652,0.09428571428571428,0.90014652014652
2.494121466006618,0.6503296703296703,0.4835164835164835,2.414358974358974
2.4988333550063544,0.6503296703296703,0.4835164835164835,2.414358974358974
2.4990148020006018,0.6503296703296703,0.4835164835164835,2.414358974358974
2.5039312560038525,0.6503296703296703,0.4835164835164835,2.414358974358974
2.5087967890067375,0.6503296703296703,0.4835164835164835,2.414358974358974
2.5090054490065086,0.6503296703296703,0.4835164835164835,2.414358974358974
2.513787048002996,0.6503296703296703,0.4835164835164835,2.414358974358974
2.5139547630024026,0.6503296703296703,0.4835164835164835,2.414358974358974
2.5187816040051985,0.6503296703296703,0.4835164835164835,2.414358974358974
2.5230803360027494,0.6503296703296703,0.4835164835164835,2.414358974358974
2.525302076006483,0.6503296703296703,0.4835164835164835,2.414358974358974
2.5261856740035,0.6503296703296703,0.4835164835164835,2.414358974358974
2.5276997100008884,0.09831501831501832,0.04271062271062271,1.0298901098901099
2.532825579000928,0.09831501831501832,0.04271062271062271,1.0298901098901099
2.5377352700015763,0.09831501831501832,0.04271062271062271,1.0298901098901099
2.54344629800471,0.09831501831501832,0.04271062271062271,1.0298901098901099
2.5437210670061177,0.09831501831501832,0.04271062271062271,1.0298901098901099
2.5490584800063516,0.09831501831501832,0.04271062271062271,1.0298901098901099
2.5520185150016914,0.09831501831501832,0.04271062271062271,1.0298901098901099
2.555040674000338,0.09831501831501832,0.04271062271062271,1.0298901098901099
2.5580216920061503,0.09831501831501832,0.04271062271062271,1.0298901098901099
2.5610389040011796,0.09831501831501832,0.04271062271062271,1.0298901098901099
2.5640358200034825,0.09831501831501832,0.04271062271062271,1.0298901098901099
2.5669318130021566,0.09831501831501832,0.04271062271062271,1.0298901098901099
2.5704251040006056,0.09831501831501832,0.04271062271062271,1.0298901098901099
2.570673643000191,0.09831501831501832,0.04271062271062271,1.0298901098901099
2.5754993250011466,0.09831501831501832,0.04271062271062271,1.0298901098901099
2.575710570999945,0.09831501831501832,0.04271062271062271,1.0298901098901099
2.580570260004606,0.09831501831501832,0.04271062271062271,1.0298901098901099
2.5806791280047037,0.09831501831501832,0.04271062271062271,1.0298901098901099
2.5855757520039333,0.09831501831501832,0.04271062271062271,1.0298901098901099
2.585723793003126,0.09831501831501832,0.04271062271062271,1.0298901098901099
2.5912015380017692,0.09831501831501832,0.04271062271062271,1.0298901098901099
2.5930000620064675,0.09831501831501832,0.04271062271062271,1.0298901098901099
2.5961875950015383,0.09831501831501832,0.04271062271062271,1.0298901098901099
2.5978406200010795,0.09831501831501832,0.04271062271062271,1.0298901098901099
2.602517806000833,0.09831501831501832,0.04271062271062271,1.0298901098901099
2.607904103002511,0.09831501831501832,0.04271062271062271,1.0298901098901099
2.6103479860030347,0.09831501831501832,0.04271062271062271,1.0298901098901099
2.610460226002033,0.09831501831501832,0.04271062271062271,1.0298901098901099
2.615757575003954,0.09831501831501832,0.04271062271062271,1.0298901098901099
2.6181624210003065,0.805054945054945,0.47706959706959706,2.618241758241758
2.6183463590059546,0.805054945054945,0.47706959706959706,2.618241758241758
2.6229205090057803,0.805054945054945,0.47706959706959706,2.618241758241758
2.623196498003381,0.805054945054945,0.47706959706959706,2.618241758241758
2.627668305001862,0.2208058608058608,0.28608058608058606,1.1805860805860806
2.6285767260051216,0.2208058608058608,0.28608058608058606,1.1805860805860806
2.630170904005354,0.2208058608058608,0.28608058608058606,1.1805860805860806
2.63492325200059,0.2208058608058608,0.28608058608058606,1.1805860805860806
2.6351277270005085,0.805054945054945,0.43355311355311354,2.796336996336996
2.6404047630057903,0.805054945054945,0.43355311355311354,2.796336996336996
2.642672713001957,0.805054945054945,0.43355311355311354,2.796336996336996
2.6430174130000523,0.805054945054945,0.43355311355311354,2.796336996336996
2.6482223330021952,0.805054945054945,0.43355311355311354,2.796336996336996
2.6520268260064768,0.805054945054945,0.43355311355311354,2.796336996336996
2.6565649830008624,0.805054945054945,0.43355311355311354,2.796336996336996
2.656850456005486,0.805054945054945,0.43355311355311354,2.796336996336996
2.6624084350041812,0.805054945054945,0.43355311355311354,2.796336996336996
2.6633091300027445,0.805054945054945,0.43355311355311354,2.796336996336996
2.6649781800006167,0.805054945054945,0.43355311355311354,2.796336996336996
2.668759541003965,1.386080586080586,0.2063003663003663,2.1484249084249085
2.673554236003838,1.386080586080586,0.2063003663003663,2.1484249084249085
2.6789251640002476,1.386080586080586,0.2063003663003663,2.1484249084249085
2.6821656040046946,1.386080586080586,0.2063003663003663,2.1484249084249085
2.683104327006731,1.386080586080586,0.2063003663003663,2.1484249084249085
2.6848395000051823,1.386080586080586,0.2063003663003663,2.1484249084249085
2.6885241780037177,1.386080586080586,0.2063003663003663,2.1484249084249085
2.6937227830057964,1.386080586080586,0.2063003663003663,2.1484249084249085
2.6960479130066233,1.386080586080586,0.2063003663003663,2.1484249084249085
2.696894560001965,1.386080586080586,0.2063003663003663,2.1484249084249085
2.6985012420045678,1.386080586080586,0.2063003663003663,2.1484249084249085
2.7028980090035475,0.48835164835164835,0.19904761904761903,0.4198534798534798
2.7045083090051776,0.48835164835164835,0.19904761904761903,0.4198534798534798
2.708921637000458,0.48835164835164835,0.19904761904761903,0.4198534798534798
2.7098404630014556,1.8929670329670327,0.11282051282051282,3.001025641025641
2.7114487210055813,1.8929670329670327,0.11282051282051282,3.001025641025641
2.7151996000029612,1.8929670329670327,0.11282051282051282,3.001025641025641
2.7204283120008768,1.8929670329670327,0.11282051282051282,3.001025641025641
2.7227829010007554,1.8929670329670327,0.11282051282051282,3.001025641025641
2.7231471510021947,1.8929670329670327,0.11282051282051282,3.001025641025641
2.727702232004958,1.8929670329670327,0.11282051282051282,3.001025641025641
2.7285499530044035,1.8929670329670327,0.11282051282051282,3.001025641025641
2.730166202003602,0.21194139194139192,0.07252747252747253,0.8880586080586079
2.7347861060043215,0.21194139194139192,0.07252747252747253,0.8880586080586079
2.7350981370036607,0.21194139194139192,0.07252747252747253,0.8880586080586079
2.7410231180037954,0.21194139194139192,0.07252747252747253,0.8880586080586079
2.7411183700023685,0.21194139194139192,0.07252747252747253,0.8880586080586079
2.745627850003075,0.21194139194139192,0.07252747252747253,0.8880586080586079
2.746582114006742,0.09589743589743589,0.28205128205128205,1.2974358974358973
2.7481790890014963,0.09589743589743589,0.28205128205128205,1.2974358974358973
2.752697955002077,0.11282051282051282,0.08542124542124542,0.8816117216117215
2.7535520830060705,0.025787545787545788,0.09992673992673992,0.751062271062271
2.755129945006047,0.025787545787545788,0.09992673992673992,0.751062271062271
2.7596200309999404,1.4545787545787545,0.10798534798534798,3.3
2.759967568999855,1.4545787545787545,0.10798534798534798,3.3
2.765264435001882,1.4545787545787545,0.10798534798534798,3.3
2.7675400170046487,1.4545787545787545,0.10798534798534798,3.3
2.76774353300425,1.4545787545787545,0.10798534798534798,3.3
2.7729396380018443,1.4545787545787545,0.10798534798534798,3.3
2.7761326270046993,0.7381684981684982,0.46659340659340653,2.3756776556776553
2.7777077440041467,0.7381684981684982,0.46659340659340653,2.3756776556776553
2.782329531000869,0.7381684981684982,0.46659340659340653,2.3756776556776553
2.782619114004774,0.7381684981684982,0.46659340659340653,2.3756776556776553
2.78735366500041,0.7381684981684982,0.46659340659340653,2.3756776556776553
2.787620089002303,0.7381684981684982,0.46659340659340653,2.3756776556776553
2.795393417000014,0.07172161172161172,0.0693040293040293,0.9686446886446887
2.799172978004208,0.7663736263736264,0.29655677655677654,2.501391941391941
2.80357562500285,0.7663736263736264,0.29655677655677654,2.501391941391941
2.804452594005852,0.7663736263736264,0.29655677655677654,2.501391941391941
2.8060597319999943,0.7663736263736264,0.29655677655677654,2.501391941391941
2.810515201999806,0.7663736263736264,0.29655677655677654,2.501391941391941
2.8120601500049816,0.7663736263736264,0.29655677655677654,2.501391941391941
2.8166783380002016,0.7196336996336996,0.46175824175824176,2.5642490842490844
2.8170124670068617,0.7196336996336996,0.46175824175824176,2.5642490842490844
2.822442906006472,0.7196336996336996,0.46175824175824176,2.5642490842490844
2.8242025200015632,0.7196336996336996,0.46175824175824176,2.5642490842490844
2.8273195729998406,0.7196336996336996,0.46175824175824176,2.5642490842490844
2.8289252300019143,0.7196336996336996,0.46175824175824176,2.5642490842490844
2.832985455999733,0.7196336996336996,0.46175824175824176,2.5642490842490844
2.837736201006919,0.7035164835164834,0.34813186813186814,2.565860805860806
2.8433805140011827,0.7035164835164834,0.34813186813186814,2.565860805860806
2.8442356330051553,0.0,0.30139194139194136,1.2652014652014651
2.8462777900058427,0.0,0.30139194139194136,1.2652014652014651
2.847901578999881,1.851062271062271,0.19824175824175824,2.7044688644688644
2.852337480006099,1.851062271062271,0.19824175824175824,2.7044688644688644
2.853289073005726,1.851062271062271,0.19824175824175824,2.7044688644688644
2.854271079006139,1.851062271062271,0.19824175824175824,2.7044688644688644
2.855398524006887,1.851062271062271,0.19824175824175824,2.7044688644688644
2.855693206001888,1.851062271062271,0.19824175824175824,2.7044688644688644
2.8638199440028984,1.851062271062271,0.19824175824175824,2.7044688644688644
2.8728389560055803,0.0,0.3199267399267399,1.174139194139194
2.8798538830014877,0.0,0.09025641025641025,0.792967032967033
2.8862179090065183,0.5520146520146519,0.30058608058608055,1.1789743589743589
2.8901062540026032,0.5520146520146519,0.30058608058608055,1.1789743589743589
2.8944476890028454,0.12813186813186814,0.01531135531135531,0.971062271062271
2.894811075006146,0.6986813186813187,0.4851282051282051,2.5062271062271058
2.900584675000573,0.6986813186813187,0.4851282051282051,2.5062271062271058
2.910755886005063,0.6986813186813187,0.4851282051282051,2.5062271062271058
2.916395428001124,0.40615384615384614,0.25465201465201465,1.3643223443223442
2.916928774000553,1.598021978021978,0.0709157509157509,3.0775824175824176
2.9221344320030767,1.598021978021978,0.0709157509157509,3.0775824175824176
2.9239203830002225,1.598021978021978,0.0709157509157509,3.0775824175824176
2.9271410840010503,1.598021978021978,0.0709157509157509,3.0775824175824176
2.928725772006146,1.598021978021978,0.0709157509157509,3.0775824175824176
2.9329501550018904,1.598021978021978,0.0709157509157509,3.0775824175824176
2.93861471600394,0.8002197802197801,0.27399267399267396,2.573919413919414
2.94413755700225,0.8002197802197801,0.27399267399267396,2.573919413919414
2.9449918160025845,0.6156776556776556,0.2361172161172161,1.5005128205128204
2.9466209200036246,0.6156776556776556,0.2361172161172161,1.5005128205128204
2.9521559740023804,0.029816849816849816,0.04593406593406593,1.0758241758241758
2.9536080620018765,1.1225641025641024,0.09589743589743589,1.8994139194139192
2.9587091550056357,1.1225641025641024,0.09589743589743589,1.8994139194139192
2.9620049160002964,1.1225641025641024,0.09589743589743589,1.8994139194139192
2.96229348199995,1.1225641025641024,0.09589743589743589,1.8994139194139192
2.9688273900028435,1.1225641025641024,0.09589743589743589,1.8994139194139192
2.975047767002252,0.03626373626373627,0.08703296703296703,0.9154578754578755
2.980815632006852,0.03626373626373627,0.08703296703296703,0.9154578754578755
2.988926617006655,0.03626373626373627,0.08703296703296703,0.9154578754578755
2.993621109002561,0.5334798534798535,0.24901098901098898,1.3788278388278388
2.9937455000035698,0.5334798534798535,0.24901098901098898,1.3788278388278388
2.9994476410065545,0.5334798534798535,0.24901098901098898,1.3788278388278388
2.999630917001923,0.614065934065934,0.2087179487179487,0.8582417582417583
3.006320703003439,0.614065934065934,0.2087179487179487,0.8582417582417583
3.010401998006273,0.614065934065934,0.2087179487179487,0.8582417582417583
3.0144498830049997,0.614065934065934,0.2087179487179487,0.8582417582417583
3.0176188470068155,0.614065934065934,0.2087179487179487,0.8582417582417583
3.0202615240050363,1.344981684981685,0.06769230769230769,1.0726007326007325
3.0257182530040154,1.344981684981685,0.06769230769230769,1.0726007326007325
3.0260217510003713,0.1087912087912088,0.25223443223443226,0.8558241758241758
3.0307528720004484,0.1087912087912088,0.25223443223443226,0.8558241758241758
3.0310536500037415,0.1087912087912088,0.25223443223443226,0.8558241758241758
3.0379091540016816,0.1087912087912088,0.25223443223443226,0.8558241758241758
3.041811802002485,1.1362637362637362,0.07172161172161172,1.3635164835164835
3.04576773300505,1.1362637362637362,0.07172161172161172,1.3635164835164835
3.0496670070060645,1.1362637362637362,0.07172161172161172,1.3635164835164835
3.0556627550031408,1.1362637362637362,0.07172161172161172,1.3635164835164835
3.060200416002772,1.6109157509157508,0.09025641025641025,3.2943589743589743
3.06104172400228,1.6109157509157508,0.09025641025641025,3.2943589743589743
3.0627074930016533,1.6109157509157508,0.09025641025641025,3.2943589743589743
3.067543850003858,1.6109157509157508,0.09025641025641025,3.2943589743589743
3.076545084004465,1.9928937728937726,0.20468864468864467,2.924468864468864
3.0835692400069092,1.9928937728937726,0.20468864468864467,2.924468864468864
3.0903762730013113,1.9928937728937726,0.20468864468864467,2.924468864468864
3.0955069170013303,1.9928937728937726,0.20468864468864467,2.924468864468864
3.0995143320033094,0.8026373626373626,0.3723076923076923,2.8624175824175824
3.1031833680026466,0.8026373626373626,0.3723076923076923,2.8624175824175824
3.1110537620043033,0.8026373626373626,0.3723076923076923,2.8624175824175824
3.118144696003583,0.8026373626373626,0.3723076923076923,2.8624175824175824
3.122649373006425,0.85018315018315,0.1523076923076923,0.4005128205128205
3.1229867130023194,0.85018315018315,0.1523076923076923,0.4005128205128205
3.129846086005273,0.85018315018315,0.1523076923076923,0.4005128205128205
3.136596124000789,0.85018315018315,0.1523076923076923,0.4005128205128205
3.141599443006271,0.85018315018315,0.1523076923076923,0.4005128205128205
3.143994353005837,0.85018315018315,0.1523076923076923,0.4005128205128205
3.1441889420020743,0.85018315018315,0.1523076923076923,0.4005128205128205
3.150112112001807,0.85018315018315,0.1523076923076923,0.4005128205128205
3.161284235000494,0.85018315018315,0.1523076923076923,0.4005128205128205
3.170564470005047,0.85018315018315,0.1523076923076923,0.4005128205128205
3.17539318400668,0.85018315018315,0.1523076923076923,0.4005128205128205
3.180956751006306,0.85018315018315,0.1523076923076923,0.4005128205128205
3.1818821280030534,0.32717948717948714,0.2345054945054945,0.9033699633699634
3.1840740340048796,0.32717948717948714,0.2345054945054945,0.9033699633699634
3.184390724003606,0.32717948717948714,0.2345054945054945,0.9033699633699634
3.1913614310033154,0.32717948717948714,0.2345054945054945,0.9033699633699634
3.194523525002296,0.32717948717948714,0.2345054945054945,0.9033699633699634
3.196236799005419,0.8799999999999999,0.3263736263736263,2.8422710622710623
3.2001712640048936,0.8799999999999999,0.3263736263736263,2.8422710622710623
3.204624372003309,0.6164835164835165,0.17809523809523808,0.5947252747252747
3.204962168005295,0.6164835164835165,0.17809523809523808,0.5947252747252747
3.2102393380046124,0.6164835164835165,0.17809523809523808,0.5947252747252747
3.2132830660048057,0.6164835164835165,0.17809523809523808,0.5947252747252747
3.2157797690015286,0.6164835164835165,0.17809523809523808,0.5947252747252747
3.216083699000592,0.6164835164835165,0.17809523809523808,0.5947252747252747
3.2223330280030495,0.6164835164835165,0.17809523809523808,0.5947252747252747
3.225631831002829,0.6164835164835165,0.17809523809523808,0.5947252747252747
3.2267946140054846,0.6164835164835165,0.17809523809523808,0.5947252747252747
3.227128608006751,0.6164835164835165,0.17809523809523808,0.5947252747252747
3.231637053002487,0.6164835164835165,0.17809523809523808,0.5947252747252747
3.2330875400002697,0.6164835164835165,0.17809523809523808,0.5947252747252747
3.2450722480061813,0.6164835164835165,0.17809523809523808,0.5947252747252747
3.2575270290035405,0.6164835164835165,0.17809523809523808,0.5947252747252747
3.2654485530001693,0.6164835164835165,0.17809523809523808,0.5947252747252747
3.27257056900271,0.6164835164835165,0.17809523809523808,0.5947252747252747
3.276430842000991,0.03304029304029304,0.03868131868131868,1.0323076923076921
3.281470349000301,0.03304029304029304,0.03868131868131868,1.0323076923076921
3.2893297990012798,0.03304029304029304,0.03868131868131868,1.0323076923076921
3.292738644006022,0.03304029304029304,0.03868131868131868,1.0323076923076921
3.2931669340032386,0.7792673992673992,0.361025641025641,2.8583882783882784
3.2978158250043634,0.8147252747252747,0.4520879120879121,2.4199999999999995
3.2981456330016954,1.2176556776556777,0.05882783882783882,1.1902564102564102
3.305080780002754,1.2176556776556777,0.05882783882783882,1.1902564102564102
3.308939756003383,1.2176556776556777,0.05882783882783882,1.1902564102564102
3.3135676990059437,1.2176556776556777,0.05882783882783882,1.1902564102564102
3.3137903770038974,1.2176556776556777,0.05882783882783882,1.1902564102564102
3.3231359310011612,1.2176556776556777,0.05882783882783882,1.1902564102564102
3.3278506740025477,0.0,0.27882783882783885,1.278901098901099
3.328028305004409,0.0,0.27882783882783885,1.278901098901099
3.33438954900339,0.06124542124542124,0.10153846153846154,1.1136996336996337
3.3410418890052824,0.718021978021978,0.47142857142857136,2.361172161172161
3.346681767005066,0.0,0.2917216117216117,1.2184615384615385
3.3552971790049924,0.11684981684981684,0.020146520146520144,1.1958974358974357
3.359904283002834,0.11684981684981684,0.020146520146520144,1.1958974358974357
3.3601774710041354,0.11684981684981684,0.020146520146520144,1.1958974358974357
3.3656013870058814,0.11684981684981684,0.020146520146520144,1.1958974358974357
3.3697098860066035,0.11684981684981684,0.020146520146520144,1.1958974358974357
3.3709678270024597,0.11684981684981684,0.020146520146520144,1.1958974358974357
3.3711553430039203,0.11684981684981684,0.020146520146520144,1.1958974358974357
3.3771258540000417,0.11684981684981684,0.020146520146520144,1.1958974358974357
3.3862683070037747,0.11684981684981684,0.020146520146520144,1.1958974358974357
3.390495802006626,0.11684981684981684,0.020146520146520144,1.1958974358974357
3.3931550230045104,0.11684981684981684,0.020146520146520144,1.1958974358974357
3.3982960320063285,0.11684981684981684,0.020146520146520144,1.1958974358974357
3.4044173670044984,0.11684981684981684,0.020146520146520144,1.1958974358974357
3.407925001003605,0.1772893772893773,0.2804395604395604,1.2506959706959706
3.4135064000001876,1.8091575091575092,0.17164835164835165,3.1283516483516483
3.4144289440009743,1.8091575091575092,0.17164835164835165,3.1283516483516483
3.41605295699992,0.6326007326007326,0.4222710622710622,2.457069597069597
3.4219826290063793,0.6326007326007326,0.4222710622710622,2.457069597069597
3.425943944006576,0.08783882783882783,0.2957509157509157,1.1096703296703296
3.4297927229999914,0.08783882783882783,0.2957509157509157,1.1096703296703296
3.4337809510034276,0.08783882783882783,0.2957509157509157,1.1096703296703296
3.438804715005972,0.6334065934065934,0.4142124542124542,2.348278388278388
3.4406777520052856,1.041978021978022,0.03626373626373627,2.1476190476190475
3.4432091070048045,1.041978021978022,0.03626373626373627,2.1476190476190475
3.443375067006855,1.041978021978022,0.03626373626373627,2.1476190476190475
3.448057306006376,1.041978021978022,0.03626373626373627,2.1476190476190475
3.4482698020001408,1.0323076923076921,0.2191941391941392,1.606080586080586
3.455764194004587,0.195018315018315,0.09428571428571428,0.8445421245421244
3.4603640100031043,0.195018315018315,0.09428571428571428,0.8445421245421244
3.4606406220045756,0.0,0.2772161172161172,1.1136996336996337
3.4662252880007145,0.0,0.2772161172161172,1.1136996336996337
3.4672069610023755,0.0,0.2772161172161172,1.1136996336996337
3.468317021004623,0.0,0.2772161172161172,1.1136996336996337
3.46850418500253,0.0,0.2772161172161172,1.1136996336996337
3.4746489850003854,0.0,0.2772161172161172,1.1136996336996337
3.4784730310057057,0.7357509157509158,0.3167032967032967,1.967106227106227
3.4842498540019733,0.7357509157509158,0.3167032967032967,1.967106227106227
3.4844382390001556,0.7357509157509158,0.3167032967032967,1.967106227106227
3.4902235660047154,0.7357509157509158,0.3167032967032967,1.967106227106227
3.490367039004923,0.7357509157509158,0.3167032967032967,1.967106227106227
3.4960659420030424,0.7357509157509158,0.3167032967032967,1.967106227106227
3.496237764004036,0.7357509157509158,0.3167032967032967,1.967106227106227
3.5023964720021468,0.7357509157509158,0.3167032967032967,1.967106227106227
3.505986288000713,0.7357509157509158,0.3167032967032967,1.967106227106227
3.511214502999792,0.7357509157509158,0.3167032967032967,1.967106227106227
3.5142394760041498,0.7357509157509158,0.3167032967032967,1.967106227106227
3.5159799470056896,0.7147985347985348,0.32153846153846155,2.4079120879120874
3.520407715004694,1.1048351648351646,0.21194139194139192,2.258827838827839
3.521276437000779,1.1048351648351646,0.21194139194139192,2.258827838827839
3.5228911810045247,1.1048351648351646,0.21194139194139192,2.258827838827839
3.5262177900003735,1.1048351648351646,0.21194139194139192,2.258827838827839
3.5270921100018313,1.7301831501831502,0.13377289377289378,3.262124542124542
3.528678544003924,1.7301831501831502,0.13377289377289378,3.262124542124542
3.5325104000003194,1.7301831501831502,0.13377289377289378,3.262124542124542
3.5385152510061744,0.751062271062271,0.43999999999999995,2.722197802197802
3.5430038240010617,1.153186813186813,0.0,1.0016849816849815
3.544563052004378,1.153186813186813,0.0,1.0016849816849815
3.549192139005754,1.153186813186813,0.0,1.0016849816849815
3.549431909006671,0.1539194139194139,0.09831501831501832,1.0290842490842491
3.557247440003266,0.15875457875457877,0.10798534798534798,0.8042490842490841
3.5619729370009736,0.15875457875457877,0.10798534798534798,0.8042490842490841
3.562211328004196,0.3916483516483516,0.21999999999999997,0.7147985347985348
3.569619545000023,0.3916483516483516,0.21999999999999997,0.7147985347985348
3.5751895170033094,0.3916483516483516,0.21999999999999997,0.7147985347985348
3.5754671090035117,0.3916483516483516,0.21999999999999997,0.7147985347985348
3.581216835002124,0.3916483516483516,0.21999999999999997,0.7147985347985348
3.581358530005673,0.3916483516483516,0.21999999999999997,0.7147985347985348
3.5893663440001546,0.12007326007326008,0.2643223443223443,0.8622710622710623
3.5942608510013088,0.12007326007326008,0.2643223443223443,0.8622710622710623
3.6034627330009243,0.12007326007326008,0.2643223443223443,0.8622710622710623
3.6079332450026413,0.6906227106227106,0.13538461538461538,0.195018315018315
3.6081941280062892,0.6906227106227106,0.13538461538461538,0.195018315018315
3.613878537005803,0.6906227106227106,0.13538461538461538,0.195018315018315
3.6140138400005526,0.8034432234432234,0.25545787545787546,2.1685714285714286
3.622796861003735,0.8034432234432234,0.25545787545787546,2.1685714285714286
3.6277069490024587,0.8034432234432234,0.25545787545787546,2.1685714285714286
3.6344921170020825,1.6995604395604393,0.08703296703296703,3.2629304029304027
3.6380940020026173,1.6995604395604393,0.08703296703296703,3.2629304029304027
3.6428572650038404,1.6995604395604393,0.08703296703296703,3.2629304029304027
3.6429697920029867,1.6995604395604393,0.08703296703296703,3.2629304029304027
3.647542392005562,1.6995604395604393,0.08703296703296703,3.2629304029304027
3.648417739001161,1.6995604395604393,0.08703296703296703,3.2629304029304027
3.65041592700436,1.6995604395604393,0.08703296703296703,3.2629304029304027
3.6533568400045624,1.6995604395604393,0.08703296703296703,3.2629304029304027
3.655754576000618,1.6995604395604393,0.08703296703296703,3.2629304029304027
3.661505121002847,1.6995604395604393,0.08703296703296703,3.2629304029304027
3.66162394300045,1.6995604395604393,0.08703296703296703,3.2629304029304027
3.6663117860007333,1.6995604395604393,0.08703296703296703,3.2629304029304027
3.666608329003793,1.6995604395604393,0.08703296703296703,3.2629304029304027
3.6734063410040108,1.6995604395604393,0.08703296703296703,3.2629304029304027
3.6774085390061373,0.7921611721611721,0.23208791208791207,2.2483516483516484
3.681236701006128,0.7921611721611721,0.23208791208791207,2.2483516483516484
3.6896504190008272,0.7921611721611721,0.23208791208791207,2.2483516483516484
3.694243333004124,1.4586080586080585,0.07575091575091575,3.032454212454212
3.6945394840004155,0.7567032967032966,0.31186813186813184,2.4554578754578755
3.701156686001923,0.7567032967032966,0.31186813186813184,2.4554578754578755
3.7063981740066083,0.0,0.29816849816849816,1.0838827838827838
3.708154452004237,0.0,0.29816849816849816,1.0838827838827838
3.7113936150053632,0.13619047619047617,0.10556776556776555,1.0677655677655677
3.713193298004626,0.13619047619047617,0.10556776556776555,1.0677655677655677
3.716919823003991,0.13619047619047617,0.10556776556776555,1.0677655677655677
3.7240335870010313,0.8252014652014652,0.07494505494505493,0.30139194139194136
3.728799542004708,0.22886446886446887,0.29736263736263735,1.1821978021978021
3.728965539005003,0.22886446886446887,0.29736263736263735,1.1821978021978021
3.735748452003463,0.22886446886446887,0.29736263736263735,1.1821978021978021
3.741568305005785,0.22886446886446887,0.29736263736263735,1.1821978021978021
3.7465701380060636,0.22886446886446887,0.29736263736263735,1.1821978021978021
3.753924062002625,0.22886446886446887,0.29736263736263735,1.1821978021978021
3.7578161630008253,0.07978021978021978,0.09428571428571428,0.7937728937728937
3.7626627450008527,0.07978021978021978,0.09428571428571428,0.7937728937728937
3.771851928002434,0.00967032967032967,0.2909157509157509,1.2418315018315018
3.7763229940028396,0.00967032967032967,0.2909157509157509,1.2418315018315018
3.77737688900379,0.00967032967032967,0.2909157509157509,1.2418315018315018
3.7776817040066817,0.00967032967032967,0.2909157509157509,1.2418315018315018
3.782534702004341,0.00967032967032967,0.2909157509157509,1.2418315018315018
3.7909453510001185,0.00967032967032967,0.2909157509157509,1.2418315018315018
3.796385282999836,0.00967032967032967,0.2909157509157509,1.2418315018315018
3.7986714150029,0.00967032967032967,0.2909157509157509,1.2418315018315018
3.7989734660004615,0.00967032967032967,0.2909157509157509,1.2418315018315018
3.805802193004638,0.00967032967032967,0.2909157509157509,1.2418315018315018
3.8098243750064285,0.00967032967032967,0.2909157509157509,1.2418315018315018
3.814149444006034,0.03868131868131868,0.08058608058608058,0.7663736263736264
3.8160366580050322,0.03868131868131868,0.08058608058608058,0.7663736263736264
3.8199361030056025,0.03868131868131868,0.08058608058608058,0.7663736263736264
3.8226281470051617,0.03868131868131868,0.08058608058608058,0.7663736263736264
3.827381172006426,0.03868131868131868,0.08058608058608058,0.7663736263736264
3.8330189030020847,0.03868131868131868,0.08058608058608058,0.7663736263736264
3.836063037000713,0.03868131868131868,0.08058608058608058,0.7663736263736264
3.8373404430021765,0.6495238095238095,0.365054945054945,1.9389010989010989
3.8427073680068133,0.6495238095238095,0.365054945054945,1.9389010989010989
3.8443235880040447,0.6495238095238095,0.365054945054945,1.9389010989010989
3.849768980006047,0.6495238095238095,0.365054945054945,1.9389010989010989
3.8523181400014437,0.6495238095238095,0.365054945054945,1.9389010989010989
3.8569934200058924,0.6495238095238095,0.365054945054945,1.9389010989010989
3.8572117530056858,0.6495238095238095,0.365054945054945,1.9389010989010989
3.862567582000338,0.6495238095238095,0.365054945054945,1.9389010989010989
3.864813256004709,0.6495238095238095,0.365054945054945,1.9389010989010989
3.865114664004068,0.6495238095238095,0.365054945054945,1.9389010989010989
3.8713242890007677,0.6495238095238095,0.365054945054945,1.9389010989010989
3.875165081000887,0.2361172161172161,0.017728937728937726,1.2023443223443222
3.8805781280025258,0.2361172161172161,0.017728937728937726,1.2023443223443222
3.881390371003363,0.2361172161172161,0.017728937728937726,1.2023443223443222
3.883285419004096,0.2361172161172161,0.017728937728937726,1.2023443223443222
3.8883655259996885,0.2361172161172161,0.017728937728937726,1.2023443223443222
3.89099736600474,0.2361172161172161,0.017728937728937726,1.2023443223443222
3.895565331004036,0.2361172161172161,0.017728937728937726,1.2023443223443222
3.8965596170019126,0.2361172161172161,0.017728937728937726,1.2023443223443222
3.8974770450004144,0.2361172161172161,0.017728937728937726,1.2023443223443222
3.8992848490015604,0.2361172161172161,0.017728937728937726,1.2023443223443222
3.9053126640064875,0.2361172161172161,0.017728937728937726,1.2023443223443222
3.908627588003583,0.0,0.23853479853479853,0.9662271062271062
3.9094523490057327,0.0,0.23853479853479853,0.9662271062271062
3.9117333060057717,0.0,0.23853479853479853,0.9662271062271062
3.9120010690021445,0.9871794871794871,0.1249084249084249,2.1161904761904764
3.9203806840014295,0.9871794871794871,0.1249084249084249,2.1161904761904764
3.924067276006099,0.9871794871794871,0.1249084249084249,2.1161904761904764
3.9296360350053874,0.9871794871794871,0.1249084249084249,2.1161904761904764
3.9299595600023167,0.0547985347985348,0.08622710622710622,0.7647619047619048
3.93683945399971,0.0547985347985348,0.08622710622710622,0.7647619047619048
3.941121206000389,0.0547985347985348,0.08622710622710622,0.7647619047619048
3.9427613520019804,0.5802197802197803,0.190989010989011,0.7188278388278388
3.947751989006065,0.5802197802197803,0.190989010989011,0.7188278388278388
3.953818776004482,0.5802197802197803,0.190989010989011,0.7188278388278388
3.9583803250061464,0.5802197802197803,0.190989010989011,0.7188278388278388
3.9638232980069006,0.5802197802197803,0.190989010989011,0.7188278388278388
3.9679101450019516,0.5802197802197803,0.190989010989011,0.7188278388278388
3.970392074006668,0.5802197802197803,0.190989010989011,0.7188278388278388
3.9749783690058393,0.5802197802197803,0.190989010989011,0.7188278388278388
3.9752579090054496,0.6164835164835165,0.3021978021978022,2.5360439560439563
3.980923122006061,0.6164835164835165,0.3021978021978022,2.5360439560439563
3.9812131150029018,1.3054945054945053,0.05641025641025641,1.1362637362637362
3.9881979650017456,1.3054945054945053,0.05641025641025641,1.1362637362637362
3.9920735780033283,1.4432967032967032,0.21435897435897436,2.0855677655677654
3.9966582730048685,1.4432967032967032,0.21435897435897436,2.0855677655677654
3.9968764940058463,1.4432967032967032,0.21435897435897436,2.0855677655677654
4.004939045000356,1.4432967032967032,0.21435897435897436,2.0855677655677654
4.008753442001762,0.5657142857142857,0.20307692307692307,0.8751648351648351
4.013474636005412,0.5657142857142857,0.20307692307692307,0.8751648351648351
4.013695749003091,0.5657142857142857,0.20307692307692307,0.8751648351648351
4.0213311850020546,0.5657142857142857,0.20307692307692307,0.8751648351648351
4.025129626003036,0.014505494505494505,0.3287912087912088,1.1564102564102563
4.030658734001918,0.014505494505494505,0.3287912087912088,1.1564102564102563
4.03153569400456,0.014505494505494505,0.3287912087912088,1.1564102564102563
4.034718592003628,0.014505494505494505,0.3287912087912088,1.1564102564102563
4.036044615000719,0.014505494505494505,0.3287912087912088,1.1564102564102563
4.042701286001829,0.014505494505494505,0.3287912087912088,1.1564102564102563
4.046961636006017,0.014505494505494505,0.3287912087912088,1.1564102564102563
4.050333865001448,0.014505494505494505,0.3287912087912088,1.1564102564102563
4.050678928004345,0.014505494505494505,0.3287912087912088,1.1564102564102563
4.056351707004069,0.014505494505494505,0.3287912087912088,1.1564102564102563
4.056542644000729,0.014505494505494505,0.3287912087912088,1.1564102564102563
4.061969292000867,0.014505494505494505,0.3287912087912088,1.1564102564102563
4.064291918002709,0.014505494505494505,0.3287912087912088,1.1564102564102563
4.064539520004473,0.014505494505494505,0.3287912087912088,1.1564102564102563
4.072144549005316,0.014505494505494505,0.3287912087912088,1.1564102564102563
4.076812225001049,0.0709157509157509,0.07172161172161172,0.7276923076923076
4.076999185002933,0.0709157509157509,0.07172161172161172,0.7276923076923076
4.083114157001546,0.8945054945054944,0.07333333333333333,0.2191941391941392
4.090059740003198,0.8945054945054944,0.07333333333333333,0.2191941391941392
4.095306627001264,0.07816849816849816,0.08058608058608058,0.9984615384615383
4.096892373003357,0.8195604395604396,0.3038095238095238,1.9824175824175823
4.107275829999708,0.8195604395604396,0.3038095238095238,1.9824175824175823
4.112337912003568,0.8195604395604396,0.3038095238095238,1.9824175824175823
4.117553704003512,0.0032234432234432234,0.09428571428571428,0.7978021978021977
4.119470120000187,1.1757509157509156,0.0,0.5729670329670329
4.120484751001641,1.1757509157509156,0.0,0.5729670329670329
4.12138117300492,1.1757509157509156,0.0,0.5729670329670329
4.123061320002307,1.1757509157509156,0.0,0.5729670329670329
4.126938847002748,1.1757509157509156,0.0,0.5729670329670329
4.131443666003179,1.1757509157509156,0.0,0.5729670329670329
4.1316691970059765,1.1757509157509156,0.0,0.5729670329670329
4.138244047004264,1.1757509157509156,0.0,0.5729670329670329
4.142369949004205,1.1757509157509156,0.0,0.5729670329670329
4.1454725510047865,1.1757509157509156,0.0,0.5729670329670329
4.1472066920032375,0.9275457875457875,0.22564102564102564,1.5923809523809522
4.151184176000243,0.14263736263736262,0.06446886446886446,1.0927472527472526
4.156249536004907,0.14263736263736262,0.06446886446886446,1.0927472527472526
4.159372139001789,0.14263736263736262,0.06446886446886446,1.0927472527472526
4.16097404500033,0.14263736263736262,0.06446886446886446,1.0927472527472526
4.1656458570068935,0.14263736263736262,0.06446886446886446,1.0927472527472526
4.166105094001978,0.14263736263736262,0.06446886446886446,1.0927472527472526
4.172304161002103,0.14263736263736262,0.06446886446886446,1.0927472527472526
4.1755584530037595,0.14263736263736262,0.06446886446886446,1.0927472527472526
4.176428880004096,0.14263736263736262,0.06446886446886446,1.0927472527472526
4.178051669005072,0.14263736263736262,0.06446886446886446,1.0927472527472526
4.182073372001469,0.14263736263736262,0.06446886446886446,1.0927472527472526
4.189600112003973,0.0,0.28608058608058606,1.1733333333333333
4.193462070004898,0.0,0.27238095238095233,1.2982417582417582
4.19915534699976,0.0,0.27238095238095233,1.2982417582417582
4.199452348002524,0.0,0.27238095238095233,1.2982417582417582
4.205859767003858,0.0,0.27238095238095233,1.2982417582417582
4.209788741005468,0.0,0.27238095238095233,1.2982417582417582
4.2136055280061555,0.0,0.27238095238095233,1.2982417582417582
4.220338801002072,0.7067399267399267,0.4214652014652014,2.295091575091575
4.224524591001682,1.0049084249084248,0.048351648351648346,1.5504761904761903
4.2268871960041,0.5262271062271061,0.24739926739926738,1.3957509157509156
4.2270218250050675,0.5262271062271061,0.24739926739926738,1.3957509157509156
4.232914994005114,0.5262271062271061,0.24739926739926738,1.3957509157509156
4.233068346002256,0.07736263736263736,0.0821978021978022,1.0137728937728938
4.239169990003575,0.07736263736263736,0.0821978021978022,1.0137728937728938
4.243010440004582,0.13538461538461538,0.2836630036630036,1.2458608058608058
4.247764742001891,0.13538461538461538,0.2836630036630036,1.2458608058608058
4.255616020003799,0.0846153846153846,0.05963369963369963,1.0371428571428571
4.260548684003879,0.0846153846153846,0.05963369963369963,1.0371428571428571
4.266900661001273,0.21677655677655677,0.23934065934065935,0.9025641025641026
4.271010733005824,0.21677655677655677,0.23934065934065935,0.9025641025641026
4.27334679300111,0.04673992673992674,0.08542124542124542,0.7276923076923076
4.273533846004284,0.04673992673992674,0.08542124542124542,0.7276923076923076
4.2787263420032104,0.04673992673992674,0.08542124542124542,0.7276923076923076
4.283873540000059,1.24021978021978,0.17406593406593407,2.378901098901099
4.2863157500032685,0.0709157509157509,0.2683516483516483,1.2676190476190476
4.291978535002272,0.0709157509157509,0.2683516483516483,1.2676190476190476
4.2928738280024845,0.0709157509157509,0.2683516483516483,1.2676190476190476
4.293790292002086,0.7357509157509158,0.4512820512820513,2.589230769230769
4.294742523001332,0.7357509157509158,0.4512820512820513,2.589230769230769
4.296399535000091,0.7357509157509158,0.4512820512820513,2.589230769230769
4.301577486003225,0.7357509157509158,0.4512820512820513,2.589230769230769
4.304954598002951,0.14505494505494507,0.27641025641025635,1.1717216117216116
4.305201146002219,0.14505494505494507,0.27641025641025635,1.1717216117216116
4.3098626130013145,0.14505494505494507,0.27641025641025635,1.1717216117216116
4.310104233001766,0.14505494505494507,0.27641025641025635,1.1717216117216116
4.315608583005087,0.14505494505494507,0.27641025641025635,1.1717216117216116
4.317445941000187,0.14505494505494507,0.27641025641025635,1.1717216117216116
4.319496572999924,0.14505494505494507,0.27641025641025635,1.1717216117216116
4.319807519001188,0.14505494505494507,0.27641025641025635,1.1717216117216116
4.325412024001707,0.14505494505494507,0.27641025641025635,1.1717216117216116
4.325700266999775,0.14505494505494507,0.27641025641025635,1.1717216117216116
4.330684170003224,0.14505494505494507,0.27641025641025635,1.1717216117216116
4.337379232005333,0.14505494505494507,0.27641025641025635,1.1717216117216116
4.340647561002697,0.14505494505494507,0.27641025641025635,1.1717216117216116
4.341016214006231,0.14505494505494507,0.27641025641025635,1.1717216117216116
4.347218541006441,0.14505494505494507,0.27641025641025635,1.1717216117216116
4.354424898003344,0.14505494505494507,0.27641025641025635,1.1717216117216116
4.358255101004033,0.14505494505494507,0.27641025641025635,1.1717216117216116
4.362898480001604,0.14505494505494507,0.27641025641025635,1.1717216117216116
4.363086553006724,0.14505494505494507,0.27641025641025635,1.1717216117216116
4.370010167003784,0.14505494505494507,0.27641025641025635,1.1717216117216116
4.373261833003198,0.14505494505494507,0.27641025641025635,1.1717216117216116
4.374147530004848,0.14505494505494507,0.27641025641025635,1.1717216117216116
4.376657766006247,0.14505494505494507,0.27641025641025635,1.1717216117216116
4.382216433004942,0.14505494505494507,0.27641025641025635,1.1717216117216116
4.384609691005608,0.14505494505494507,0.27641025641025635,1.1717216117216116
4.39434552500461,1.5126007326007325,0.16358974358974357,2.4707692307692306
4.401379358001577,1.5126007326007325,0.16358974358974357,2.4707692307692306
4.405476484003884,1.5126007326007325,0.16358974358974357,2.4707692307692306
4.408322957002383,0.0,0.2482051282051282,1.1652747252747253
4.411678874006611,0.0,0.2482051282051282,1.1652747252747253
4.412056425004266,0.0,0.2482051282051282,1.1652747252747253
4.421088565002719,0.0,0.2482051282051282,1.1652747252747253
4.427975291000621,0.0,0.2482051282051282,1.1652747252747253
4.434725568004069,0.0,0.2482051282051282,1.1652747252747253
4.439111497005797,0.0,0.2482051282051282,1.1652747252747253
4.439397440000903,0.8098901098901098,0.0693040293040293,0.29816849816849816
4.4472610790035105,0.8098901098901098,0.0693040293040293,0.29816849816849816
4.455619480002497,0.8098901098901098,0.0693040293040293,0.29816849816849816
4.45952520800347,0.8098901098901098,0.0693040293040293,0.29816849816849816
4.464420126001642,0.8098901098901098,0.0693040293040293,0.29816849816849816
4.472484612000699,0.8098901098901098,0.0693040293040293,0.29816849816849816
4.477855195000302,0.1676190476190476,0.09670329670329669,0.9162637362637363
4.480140700004995,0.1676190476190476,0.09670329670329669,0.9162637362637363
4.480392805002339,0.1676190476190476,0.09670329670329669,0.9162637362637363
4.487236467000912,0.1676190476190476,0.09670329670329669,0.9162637362637363
4.491142928003683,0.1676190476190476,0.09670329670329669,0.9162637362637363
4.4949586230068235,0.1676190476190476,0.09670329670329669,0.9162637362637363
4.50280791100522,0.1676190476190476,0.09670329670329669,0.9162637362637363
4.507413814004394,0.1676190476190476,0.09670329670329669,0.9162637362637363
4.507664906006539,0.1676190476190476,0.09670329670329669,0.9162637362637363
4.512381422006001,0.1676190476190476,0.09670329670329669,0.9162637362637363
4.512531946005765,0.1676190476190476,0.09670329670329669,0.9162637362637363
4.520055906003108,0.1676190476190476,0.09670329670329669,0.9162637362637363
4.5249862110067625,0.7978021978021977,0.09428571428571428,0.2715750915750916
4.533203586004674,0.7978021978021977,0.09428571428571428,0.2715750915750916
4.540638530001161,0.10315018315018315,0.09509157509157509,1.099194139194139
4.544835046006483,0.10315018315018315,0.09509157509157509,1.099194139194139
4.54743493800197,0.10315018315018315,0.09509157509157509,1.099194139194139
4.555957617005333,0.10315018315018315,0.09509157509157509,1.099194139194139
4.5619837650010595,0.8638827838827838,0.13538461538461538,2.0049816849816846
4.571731633004674,0.8638827838827838,0.13538461538461538,2.0049816849816846
4.575823287006642,0.8638827838827838,0.13538461538461538,2.0049816849816846
4.578938089005533,1.6318681318681318,0.07816849816849816,3.042930402930403
4.580667655005527,0.2111355311355311,0.2643223443223443,0.805054945054945
4.5860009620009805,0.2111355311355311,0.2643223443223443,0.805054945054945
4.587823042005766,1.7559706959706958,0.08945054945054945,2.8164835164835162
4.592095443003927,1.7559706959706958,0.08945054945054945,2.8164835164835162
4.5924078980024206,0.04996336996336996,0.09186813186813186,0.7704029304029304
4.597874606006371,0.04996336996336996,0.09186813186813186,0.7704029304029304
4.601226019003661,0.04996336996336996,0.09186813186813186,0.7704029304029304
4.601436857999943,0.04996336996336996,0.09186813186813186,0.7704029304029304
4.60861520900653,0.04996336996336996,0.09186813186813186,0.7704029304029304
4.613535641001363,0.17164835164835165,0.03062271062271062,1.1225641025641024
4.622085025999695,0.7986080586080586,0.1829304029304029,2.0855677655677654
4.626390409001033,0.7986080586080586,0.1829304029304029,2.0855677655677654
4.628037365000637,0.7986080586080586,0.1829304029304029,2.0855677655677654
4.631997796001087,0.7986080586080586,0.1829304029304029,2.0855677655677654
4.638221367000369,0.7986080586080586,0.1829304029304029,2.0855677655677654
4.641389954005717,0.7986080586080586,0.1829304029304029,2.0855677655677654
4.643090019002557,0.2756043956043956,0.28769230769230764,0.9082051282051282
4.64695850499993,0.2756043956043956,0.28769230769230764,0.9082051282051282
4.653503544999694,0.2756043956043956,0.28769230769230764,0.9082051282051282
4.657843126005901,0.2756043956043956,0.28769230769230764,0.9082051282051282
4.659331189002842,0.2756043956043956,0.28769230769230764,0.9082051282051282
4.659500036999816,0.2756043956043956,0.28769230769230764,0.9082051282051282
4.663417887000833,0.2756043956043956,0.28769230769230764,0.9082051282051282
4.6694835490052355,0.2756043956043956,0.28769230769230764,0.9082051282051282
4.6729062070007785,0.2756043956043956,0.28769230769230764,0.9082051282051282
4.673756257005152,0.2756043956043956,0.28769230769230764,0.9082051282051282
4.675446862005629,0.2756043956043956,0.28769230769230764,0.9082051282051282
4.679465644003358,0.2756043956043956,0.28769230769230764,0.9082051282051282
4.684633389006194,0.2756043956043956,0.28769230769230764,0.9082051282051282
4.687665890000062,0.2756043956043956,0.28769230769230764,0.9082051282051282
4.689400729002955,0.14505494505494507,0.06769230769230769,1.0766300366300365
4.692792476002069,0.14505494505494507,0.06769230769230769,1.0766300366300365
4.693111131004116,0.14505494505494507,0.06769230769230769,1.0766300366300365
4.6986385230047745,0.14505494505494507,0.06769230769230769,1.0766300366300365
4.700543688006292,0.14505494505494507,0.06769230769230769,1.0766300366300365
4.70385425400309,0.14505494505494507,0.06769230769230769,1.0766300366300365
4.704069033003179,0.14505494505494507,0.06769230769230769,1.0766300366300365
4.710553733006236,0.14505494505494507,0.06769230769230769,1.0766300366300365
4.714741216004768,0.14505494505494507,0.06769230769230769,1.0766300366300365
4.716531765006948,0.7236630036630036,0.3626373626373626,2.83018315018315
4.7199067040055525,0.7236630036630036,0.3626373626373626,2.83018315018315
4.720819553003821,0.1805128205128205,0.29978021978021974,1.1878388278388277
4.7217896670044865,0.1805128205128205,0.29978021978021974,1.1878388278388277
4.722805773002619,0.1805128205128205,0.29978021978021974,1.1878388278388277
4.723879785000463,0.1805128205128205,0.29978021978021974,1.1878388278388277
4.724781927005097,0.1805128205128205,0.29978021978021974,1.1878388278388277
4.726510784006678,0.1805128205128205,0.29978021978021974,1.1878388278388277
4.72976674700476,1.6536263736263734,0.051575091575091575,2.9156043956043955
4.7314880280027865,0.11443223443223444,0.1112087912087912,1.1378754578754577
4.737842533002549,0.11443223443223444,0.1112087912087912,1.1378754578754577
4.7414021830045385,0.7599267399267399,0.3964835164835165,2.386959706959707
4.747605572003522,0.7599267399267399,0.3964835164835165,2.386959706959707
4.754185588004475,0.7599267399267399,0.3964835164835165,2.386959706959707
4.758182281002519,0.7051282051282051,0.3537728937728937,1.888131868131868
4.76131644200359,0.7051282051282051,0.3537728937728937,1.888131868131868
4.763932048001152,0.7051282051282051,0.3537728937728937,1.888131868131868
4.770207712004776,0.7051282051282051,0.3537728937728937,1.888131868131868
4.774154108003131,0.7051282051282051,0.3537728937728937,1.888131868131868
4.776606274004735,0.7051282051282051,0.3537728937728937,1.888131868131868
4.7867300670041,0.7051282051282051,0.3537728937728937,1.888131868131868
4.791623033001088,0.0,0.43274725274725273,1.2410256410256408
4.791714281003806,0.0,0.43274725274725273,1.2410256410256408
4.797244657005649,0.0,0.43274725274725273,1.2410256410256408
4.798357005005528,0.0,0.43274725274725273,1.2410256410256408
4.798734708005213,0.0,0.43274725274725273,1.2410256410256408
4.8063180560056935,0.0,0.43274725274725273,1.2410256410256408
4.810294624003291,0.0,0.43274725274725273,1.2410256410256408
4.814054518006742,0.0,0.43274725274725273,1.2410256410256408
4.823623035001219,0.0,0.43274725274725273,1.2410256410256408
4.829281858001195,0.0,0.43274725274725273,1.2410256410256408
4.829577298005461,0.0,0.43274725274725273,1.2410256410256408
4.8390596360040945,0.0,0.43274725274725273,1.2410256410256408
4.84465659900161,0.0,0.43274725274725273,1.2410256410256408
4.846209999006533,0.0,0.26915750915750913,1.3216117216117216
4.851836416004517,1.382051282051282,0.20307692307692307,1.971135531135531
4.857702348002931,0.9202930402930403,0.18695970695970696,2.186300366300366
4.857918830006383,0.9202930402930403,0.18695970695970696,2.186300366300366
4.8632685280026635,0.9202930402930403,0.18695970695970696,2.186300366300366
4.866548876001616,0.9202930402930403,0.18695970695970696,2.186300366300366
4.866829393002263,0.9202930402930403,0.18695970695970696,2.186300366300366
4.872662057001435,0.9202930402930403,0.18695970695970696,2.186300366300366
4.872805506005534,0.9202930402930403,0.18695970695970696,2.186300366300366
4.878164831003232,0.9202930402930403,0.18695970695970696,2.186300366300366
4.879901160005829,0.9202930402930403,0.18695970695970696,2.186300366300366
4.885067514005641,0.9202930402930403,0.18695970695970696,2.186300366300366
4.88933486300084,0.9202930402930403,0.18695970695970696,2.186300366300366
4.8895255790048395,0.17406593406593407,0.08945054945054945,1.1024175824175824
4.894185459001164,0.17406593406593407,0.08945054945054945,1.1024175824175824
4.894288796000183,0.17406593406593407,0.08945054945054945,1.1024175824175824
4.901421108006616,0.17406593406593407,0.08945054945054945,1.1024175824175824
4.906942394001817,0.17406593406593407,0.08945054945054945,1.1024175824175824
4.9071281000069575,0.17406593406593407,0.08945054945054945,1.1024175824175824
4.911921732003975,0.17406593406593407,0.08945054945054945,1.1024175824175824
4.920608880005602,0.0846153846153846,0.10717948717948718,0.9323809523809523
4.924884911000845,0.9871794871794871,0.037875457875457874,1.7052014652014653
4.926506765004888,0.9871794871794871,0.037875457875457874,1.7052014652014653
4.93016068200086,0.9871794871794871,0.037875457875457874,1.7052014652014653
4.9304081150039565,0.9871794871794871,0.037875457875457874,1.7052014652014653
4.938431400005356,0.9871794871794871,0.037875457875457874,1.7052014652014653
4.943280386003607,0.5963369963369963,0.4279120879120879,2.307179487179487
4.94880305800325,0.5963369963369963,0.4279120879120879,2.307179487179487
4.950385300006019,0.5963369963369963,0.4279120879120879,2.307179487179487
4.956562406005105,0.09186813186813186,0.1095970695970696,0.8904761904761904
4.962084509003034,0.09186813186813186,0.1095970695970696,0.8904761904761904
4.962384169004508,0.09186813186813186,0.1095970695970696,0.8904761904761904
4.969784988003084,0.09186813186813186,0.1095970695970696,0.8904761904761904
4.973662604003039,1.904249084249084,0.14827838827838827,2.962344322344322
4.978549391002161,1.904249084249084,0.14827838827838827,2.962344322344322
4.985107623004296,0.7405860805860806,0.32798534798534795,1.9324542124542123
4.988705980002123,0.7405860805860806,0.32798534798534795,1.9324542124542123
4.994147780002095,0.7405860805860806,0.32798534798534795,1.9324542124542123
4.995814671005064,0.7405860805860806,0.32798534798534795,1.9324542124542123
4.999815027003933,0.7405860805860806,0.32798534798534795,1.9324542124542123
5.003707063006004,0.7405860805860806,0.32798534798534795,1.9324542124542123
5.006889595002576,0.06608058608058608,0.30058608058608055,1.1733333333333333
5.009239076003723,0.06608058608058608,0.30058608058608055,1.1733333333333333
5.009410982005647,0.06608058608058608,0.30058608058608055,1.1733333333333333
5.014753540002857,0.06608058608058608,0.30058608058608055,1.1733333333333333
5.018315084002097,0.06608058608058608,0.30058608058608055,1.1733333333333333
5.01845038200554,0.06608058608058608,0.30058608058608055,1.1733333333333333
5.023564406001242,0.06608058608058608,0.30058608058608055,1.1733333333333333
5.027340930006176,0.06608058608058608,0.30058608058608055,1.1733333333333333
5.032869351001864,0.06608058608058608,0.30058608058608055,1.1733333333333333
5.034457236004528,0.06608058608058608,0.30058608058608055,1.1733333333333333
5.0382121770016965,0.06608058608058608,0.30058608058608055,1.1733333333333333
5.038331480005581,0.06608058608058608,0.30058608058608055,1.1733333333333333
5.043617947005259,0.06608058608058608,0.30058608058608055,1.1733333333333333
5.045893649999925,0.0,0.21194139194139192,1.3345054945054944
5.046170526002243,0.0,0.21194139194139192,1.3345054945054944
5.051848207003786,0.0,0.21194139194139192,1.3345054945054944
5.05268247800268,0.0,0.12893772893772892,0.9098168498168498
5.053585281006235,0.0,0.12893772893772892,0.9098168498168498
5.055166310005006,0.0,0.12893772893772892,0.9098168498168498
5.0587427179998485,0.5898901098901098,0.4126007326007326,2.3885714285714283
5.059012030003942,0.5898901098901098,0.4126007326007326,2.3885714285714283
5.063915567006916,0.5898901098901098,0.4126007326007326,2.3885714285714283
5.064009581001301,0.5898901098901098,0.4126007326007326,2.3885714285714283
5.068771543003095,0.5898901098901098,0.4126007326007326,2.3885714285714283
5.069006634999823,0.5898901098901098,0.4126007326007326,2.3885714285714283
5.0745631710015005,0.5898901098901098,0.4126007326007326,2.3885714285714283
5.075394084000436,0.7204395604395604,0.4794871794871795,2.3926007326007324
5.076968034001766,1.6592673992673992,0.1789010989010989,3.005860805860806
5.081389265003963,1.6592673992673992,0.1789010989010989,3.005860805860806
5.081649230000039,1.6592673992673992,0.1789010989010989,3.005860805860806
5.086750152004242,1.6592673992673992,0.1789010989010989,3.005860805860806
5.090708922005433,1.6592673992673992,0.1789010989010989,3.005860805860806
5.094679569003347,1.6592673992673992,0.1789010989010989,3.005860805860806
5.098389866005164,1.6592673992673992,0.1789010989010989,3.005860805860806
5.107186028006254,1.6592673992673992,0.1789010989010989,3.005860805860806
5.114314623002429,0.0,0.2949450549450549,1.3546520146520145
5.122035424006754,0.0,0.2949450549450549,1.3546520146520145
5.126154301004135,0.0,0.2949450549450549,1.3546520146520145
5.12916658600443,0.0,0.2949450549450549,1.3546520146520145
5.131590005999897,0.0,0.2949450549450549,1.3546520146520145
5.131698131001031,0.0,0.2949450549450549,1.3546520146520145
5.139552079002897,0.0,0.2949450549450549,1.3546520146520145
5.1453553330065915,0.03868131868131868,0.32798534798534795,1.299047619047619
5.145627542005968,0.8517948717948718,0.1958241758241758,1.527912087912088
5.15305975600495,0.8517948717948718,0.1958241758241758,1.527912087912088
5.156923435002682,0.8517948717948718,0.1958241758241758,1.527912087912088
5.161439031006012,0.8517948717948718,0.1958241758241758,1.527912087912088
5.161723672004882,0.8517948717948718,0.1958241758241758,1.527912087912088
5.1674633150032605,0.8517948717948718,0.1958241758241758,1.527912087912088
5.167601564004144,0.8517948717948718,0.1958241758241758,1.527912087912088
5.173166990003665,0.8517948717948718,0.1958241758241758,1.527912087912088
5.174875814002007,0.8517948717948718,0.1958241758241758,1.527912087912088
5.177982864006481,0.8517948717948718,0.1958241758241758,1.527912087912088
5.180442582000978,0.8517948717948718,0.1958241758241758,1.527912087912088
5.180551802004629,0.8517948717948718,0.1958241758241758,1.527912087912088
5.185881922006956,0.8517948717948718,0.1958241758241758,1.527912087912088
5.1883930760013754,2.021904761904762,0.18695970695970696,2.992161172161172
5.194092735000595,2.021904761904762,0.18695970695970696,2.992161172161172
5.194392893004988,2.021904761904762,0.18695970695970696,2.992161172161172
5.199635705001128,2.021904761904762,0.18695970695970696,2.992161172161172
5.2019661990052555,0.6769230769230768,0.14263736263736262,0.51010989010989
5.2027866520002135,0.6769230769230768,0.14263736263736262,0.51010989010989
5.205322052999691,0.6769230769230768,0.14263736263736262,0.51010989010989
5.209864275006112,1.8905494505494502,0.14827838827838827,2.8978754578754575
5.210726923003676,0.08622710622710622,0.10556776556776555,0.7873260073260073
5.212275728001259,0.08622710622710622,0.10556776556776555,0.7873260073260073
5.216062393999891,0.08622710622710622,0.10556776556776555,0.7873260073260073
5.221477921004407,0.08622710622710622,0.10556776556776555,0.7873260073260073
5.223817918005807,0.08622710622710622,0.10556776556776555,0.7873260073260073
5.2241012470040005,0.08622710622710622,0.10556776556776555,0.7873260073260073
5.22933597300289,0.08622710622710622,0.10556776556776555,0.7873260073260073
5.2323573530011345,0.08622710622710622,0.10556776556776555,0.7873260073260073
5.234692777004966,0.08622710622710622,0.10556776556776555,0.7873260073260073
5.234872555003676,0.08622710622710622,0.10556776556776555,0.7873260073260073
5.240169274002255,0.08622710622710622,0.10556776556776555,0.7873260073260073
5.2424842239997815,0.9887912087912087,0.23369963369963367,2.2241758241758243
5.2426231910067145,0.9887912087912087,0.23369963369963367,2.2241758241758243
5.248064304003492,0.9887912087912087,0.23369963369963367,2.2241758241758243
5.249732131000201,0.9887912087912087,0.23369963369963367,2.2241758241758243
5.2543442210007925,0.9887912087912087,0.23369963369963367,2.2241758241758243
5.259593032002158,0.9887912087912087,0.23369963369963367,2.2241758241758243
5.263293752002937,0.9887912087912087,0.23369963369963367,2.2241758241758243
5.263399671006482,0.0,0.2216117216117216,1.0387545787545787
5.26868869500322,0.0,0.2216117216117216,1.0387545787545787
5.270936520006217,0.0,0.2216117216117216,1.0387545787545787
5.271225440999842,0.0,0.2216117216117216,1.0387545787545787
5.276492993005377,1.1153113553113554,0.23853479853479853,2.3216849816849816
5.2802546880047885,1.1153113553113554,0.23853479853479853,2.3216849816849816
5.284782329006703,1.1153113553113554,0.23853479853479853,2.3216849816849816
5.285105331000523,1.1153113553113554,0.23853479853479853,2.3216849816849816
5.28974925300281,1.1153113553113554,0.23853479853479853,2.3216849816849816
5.290021062006417,1.1153113553113554,0.23853479853479853,2.3216849816849816
5.294602385001781,1.1153113553113554,0.23853479853479853,2.3216849816849816
5.294860269001219,1.1153113553113554,0.23853479853479853,2.3216849816849816
5.300357841006189,1.1153113553113554,0.23853479853479853,2.3216849816849816
5.30129201800446,1.1153113553113554,0.23853479853479853,2.3216849816849816
5.302656877000118,1.1153113553113554,0.23853479853479853,2.3216849816849816
5.311770570006047,1.1153113553113554,0.23853479853479853,2.3216849816849816
5.317412873002468,1.7172893772893774,0.5834432234432234,3.158974358974359
5.318275010002253,1.7172893772893774,0.5834432234432234,3.158974358974359
5.3201101740050944,1.7172893772893774,0.5834432234432234,3.158974358974359
5.322547674004454,1.7172893772893774,0.5834432234432234,3.158974358974359
5.32269399100187,1.7172893772893774,0.5834432234432234,3.158974358974359
5.327289697001106,1.7172893772893774,0.5834432234432234,3.158974358974359
5.327627956001379,1.8768498168498167,0.17084249084249084,3.0654945054945055
5.332936448001419,1.8768498168498167,0.17084249084249084,3.0654945054945055
5.334573496002122,1.8768498168498167,0.17084249084249084,3.0654945054945055
5.338426645001164,0.7583150183150182,0.4383882783882784,2.4304761904761905
5.343725972001266,0.7583150183150182,0.4383882783882784,2.4304761904761905
5.346050382002431,0.7583150183150182,0.4383882783882784,2.4304761904761905
5.346265221000067,0.7583150183150182,0.4383882783882784,2.4304761904761905
5.351241496005969,0.7583150183150182,0.4383882783882784,2.4304761904761905
5.355930101002741,0.0,0.22967032967032966,0.8348717948717947
5.356098104006378,0.0,0.22967032967032966,0.8348717948717947
5.36148610800592,0.0,0.22967032967032966,0.8348717948717947
5.363100120004674,0.0,0.22967032967032966,0.8348717948717947
5.369162023001991,0.8727472527472527,0.0419047619047619,1.3506227106227104
5.377484366006684,0.8727472527472527,0.0419047619047619,1.3506227106227104
5.385334279002564,0.9065934065934066,0.05802197802197802,0.28608058608058606
5.391257842005871,0.9065934065934066,0.05802197802197802,0.28608058608058606
5.394444396006293,0.9065934065934066,0.05802197802197802,0.28608058608058606
5.396308069000952,0.9065934065934066,0.05802197802197802,0.28608058608058606
5.399798109006952,0.9065934065934066,0.05802197802197802,0.28608058608058606
5.407127791004314,0.9065934065934066,0.05802197802197802,0.28608058608058606
5.411983605001296,0.1095970695970696,0.40776556776556777,1.3554578754578754
5.419752552006685,0.7421978021978022,0.30622710622710625,2.561831501831502
5.423832475004019,0.7421978021978022,0.30622710622710625,2.561831501831502
5.427213072005543,0.7421978021978022,0.30622710622710625,2.561831501831502
5.427489114001219,0.6172893772893773,0.47706959706959706,1.3667399267399267
5.436062184002367,0.6172893772893773,0.47706959706959706,1.3667399267399267
5.439421227005369,0.6172893772893773,0.47706959706959706,1.3667399267399267
5.440354042002582,0.6172893772893773,0.47706959706959706,1.3667399267399267
5.441299587000685,0.6172893772893773,0.47706959706959706,1.3667399267399267
5.44226442600484,0.6172893772893773,0.47706959706959706,1.3667399267399267
5.443187671000487,0.6172893772893773,0.47706959706959706,1.3667399267399267
5.444882177005638,0.0,0.23208791208791207,1.124981684981685
5.448323321004864,0.7293040293040293,0.21194139194139192,1.3473992673992674
5.4485099980011,0.5326739926739926,0.08783882783882783,1.539194139194139
5.457223053999769,0.5326739926739926,0.08783882783882783,1.539194139194139
5.464063412000542,0.5326739926739926,0.08783882783882783,1.539194139194139
5.470939808001276,0.5326739926739926,0.08783882783882783,1.539194139194139
5.476957419006794,0.5326739926739926,0.08783882783882783,1.539194139194139
5.483142856006452,0.5326739926739926,0.08783882783882783,1.539194139194139
5.487544445000822,0.5326739926739926,0.08783882783882783,1.539194139194139
5.487647175999882,0.5326739926739926,0.08783882783882783,1.539194139194139
5.492953478002164,0.5326739926739926,0.08783882783882783,1.539194139194139
5.495985494002525,0.5326739926739926,0.08783882783882783,1.539194139194139
5.500150623003719,0.5326739926739926,0.08783882783882783,1.539194139194139
5.503154578000249,0.8082783882783882,0.09025641025641025,0.33926739926739924
5.505759589999798,0.8082783882783882,0.09025641025641025,0.33926739926739924
5.510551795006904,0.8082783882783882,0.09025641025641025,0.33926739926739924
5.514227315004973,0.8082783882783882,0.09025641025641025,0.33926739926739924
5.524273634000565,0.755091575091575,0.45692307692307693,2.3885714285714283
5.5300569660030305,0.755091575091575,0.45692307692307693,2.3885714285714283
5.530265062006947,0.03948717948717949,0.03545787545787545,1.0943589743589743
5.540567859003204,0.03948717948717949,0.03545787545787545,1.0943589743589743
5.545255668999744,0.689010989010989,0.5213919413919413,2.357142857142857
5.545381822004856,0.31347985347985347,0.1418315018315018,1.3836630036630035
5.553521973000898,1.688278388278388,0.30945054945054945,2.7979487179487177
5.557441062999715,1.688278388278388,0.30945054945054945,2.7979487179487177
5.562231643001724,0.5608791208791208,0.48754578754578753,2.361172161172161
5.562340753000171,0.5608791208791208,0.48754578754578753,2.361172161172161
5.570453062005981,0.5608791208791208,0.48754578754578753,2.361172161172161
5.5754633610049495,1.8655677655677654,0.11523809523809524,3.0195604395604394
5.579533444004483,1.8655677655677654,0.11523809523809524,3.0195604395604394
5.584977593003714,1.8655677655677654,0.11523809523809524,3.0195604395604394
5.58525928700692,1.8655677655677654,0.11523809523809524,3.0195604395604394
5.5915245070063975,1.8655677655677654,0.11523809523809524,3.0195604395604394
5.5955418220037245,1.8655677655677654,0.11523809523809524,3.0195604395604394
5.601611234000302,0.747032967032967,0.5552380952380952,2.6682051282051282
5.6052442110012635,1.3997802197802196,0.06446886446886446,2.399047619047619
5.611048843005847,0.6882051282051282,0.0701098901098901,1.6302564102564103
5.611302536002768,0.3747252747252747,0.7824908424908424,1.3707692307692307
5.6233345979999285,0.3747252747252747,0.7824908424908424,1.3707692307692307
5.629317920000176,0.3747252747252747,0.7824908424908424,1.3707692307692307
5.638590668000688,0.3747252747252747,0.7824908424908424,1.3707692307692307
5.649777360005828,0.3747252747252747,0.7824908424908424,1.3707692307692307
5.661516831001791,0.3747252747252747,0.7824908424908424,1.3707692307692307
5.674477541004308,0.3747252747252747,0.7824908424908424,1.3707692307692307
5.683313953006291,0.3747252747252747,0.7824908424908424,1.3707692307692307
5.6933040950025315,0.3747252747252747,0.7824908424908424,1.3707692307692307
5.70271329600655,0.3747252747252747,0.7824908424908424,1.3707692307692307
5.70734609500505,0.3747252747252747,0.7824908424908424,1.3707692307692307
5.707630020006036,0.8235897435897436,0.04915750915750916,1.2547252747252746
5.713153814001998,0.8235897435897436,0.04915750915750916,1.2547252747252746
5.7141116020065965,0.8235897435897436,0.04915750915750916,1.2547252747252746
5.715402354006073,0.8235897435897436,0.04915750915750916,1.2547252747252746
5.722417226003017,0.8235897435897436,0.04915750915750916,1.2547252747252746
5.726907599004335,0.8235897435897436,0.04915750915750916,1.2547252747252746
5.727884337000432,0.8235897435897436,0.04915750915750916,1.2547252747252746
5.728926403004152,0.8235897435897436,0.04915750915750916,1.2547252747252746
5.729225186005351,0.8235897435897436,0.04915750915750916,1.2547252747252746
5.737802544004808,0.8235897435897436,0.04915750915750916,1.2547252747252746
5.744721639006457,0.1402197802197802,0.016923076923076923,0.855018315018315
5.751840508004534,0.1402197802197802,0.016923076923076923,0.855018315018315
5.75604305100569,0.1402197802197802,0.016923076923076923,0.855018315018315
5.75770183300483,0.1402197802197802,0.016923076923076923,0.855018315018315
5.760951077005302,0.6261538461538461,0.0410989010989011,1.2772893772893772
5.7625046460016165,0.6261538461538461,0.0410989010989011,1.2772893772893772
5.772138131003885,0.26915750915750913,0.8364835164835164,1.6117216117216115
5.777674035001837,0.0,0.14989010989010987,1.7761172161172158
5.777957358004642,0.0,0.14989010989010987,1.7761172161172158
5.784765829004755,0.0,0.14989010989010987,1.7761172161172158
5.78977139100607,0.0,0.14989010989010987,1.7761172161172158
5.792774665002071,0.13457875457875457,0.19018315018315018,0.8437362637362636
5.7951832430044306,0.13457875457875457,0.19018315018315018,0.8437362637362636
5.79544298700057,0.13457875457875457,0.19018315018315018,0.8437362637362636
5.804406871000538,1.2450549450549449,0.18937728937728937,2.7463736263736265
5.809674162002921,1.2450549450549449,0.18937728937728937,2.7463736263736265
5.811941561005369,0.1378021978021978,0.016923076923076923,1.0564835164835162
5.812226483001723,0.1378021978021978,0.016923076923076923,1.0564835164835162
5.8207444270010456,0.1378021978021978,0.016923076923076923,1.0564835164835162
5.824670280002465,0.1378021978021978,0.016923076923076923,1.0564835164835162
5.828635674006364,0.1378021978021978,0.016923076923076923,1.0564835164835162
5.83752819300571,0.1378021978021978,0.016923076923076923,1.0564835164835162
5.844021465003607,0.1378021978021978,0.016923076923076923,1.0564835164835162
5.850666593003552,0.0032234432234432234,0.32476190476190475,1.9356776556776556
5.856461217001197,0.0032234432234432234,0.32476190476190475,1.9356776556776556
5.865708242003166,0.0032234432234432234,0.32476190476190475,1.9356776556776556
5.8709973900040495,0.0032234432234432234,0.32476190476190475,1.9356776556776556
5.872761322003498,0.0032234432234432234,0.32476190476190475,1.9356776556776556
5.875184973003343,0.0032234432234432234,0.32476190476190475,1.9356776556776556
5.875486680000904,1.3772161172161173,0.2224175824175824,2.8189010989010987
5.883823076001136,1.3772161172161173,0.2224175824175824,2.8189010989010987
5.8892448200058425,1.3772161172161173,0.2224175824175824,2.8189010989010987
5.889392349003174,1.3772161172161173,0.2224175824175824,2.8189010989010987
5.895894039000268,1.3772161172161173,0.2224175824175824,2.8189010989010987
5.902931716002058,1.3772161172161173,0.2224175824175824,2.8189010989010987
5.906517161005468,1.3772161172161173,0.2224175824175824,2.8189010989010987
5.912595166002575,0.8163369963369963,0.12087912087912088,2.075897435897436
5.919292502003373,0.6245421245421244,0.16036630036630037,2.1186080586080585
5.923068480005895,0.954945054945055,0.17164835164835165,0.43677655677655675
5.928559274005238,0.954945054945055,0.17164835164835165,0.43677655677655675
5.930793838000682,0.9952380952380951,0.05318681318681319,2.348278388278388
5.931044875003863,0.9952380952380951,0.05318681318681319,2.348278388278388
5.938291531005234,0.9952380952380951,0.05318681318681319,2.348278388278388
5.942280991002917,0.9952380952380951,0.05318681318681319,2.348278388278388
5.945366485000704,0.9952380952380951,0.05318681318681319,2.348278388278388
5.947285544003535,0.9952380952380951,0.05318681318681319,2.348278388278388
5.949938462006685,0.9952380952380951,0.05318681318681319,2.348278388278388
5.955035076003696,0.9952380952380951,0.05318681318681319,2.348278388278388
