time,emg1,emg2,emg3
0.020702027992228977,1.4553846153846153,2.5150915750915748,1.099194139194139
0.030967481987318024,1.4553846153846153,2.5150915750915748,1.099194139194139
0.0382692059938563,1.4175091575091574,3.3,1.5633699633699631
0.04253824798797723,1.4175091575091574,3.3,1.5633699633699631
0.04370240498974454,1.4175091575091574,3.3,1.5633699633699631
0.04396369699679781,1.4175091575091574,3.3,1.5633699633699631
0.051344263993087225,1.4175091575091574,3.3,1.5633699633699631
0.0572622159961611,1.4175091575091574,3.3,1.5633699633699631
0.06309680199774448,1.4175091575091574,3.3,1.5633699633699631
0.07074877498962451,1.4175091575091574,3.3,1.5633699633699631
0.07680135499686003,1.4175091575091574,3.3,1.5633699633699631
0.08623179799178615,0.10637362637362638,1.1604395604395605,0.5375091575091575
0.09156469999288674,0.10637362637362638,1.1604395604395605,0.5375091575091575
0.09478752898576204,0.10637362637362638,1.1604395604395605,0.5375091575091575
0.09520952998718712,0.10637362637362638,1.1604395604395605,0.5375091575091575
0.10360463899269234,0.10637362637362638,1.1604395604395605,0.5375091575091575
0.10816945499391295,1.7253479853479854,2.9357509157509156,1.0999999999999999
0.10835696398862638,1.7253479853479854,2.9357509157509156,1.0999999999999999
0.11902577299042605,1.7253479853479854,2.9357509157509156,1.0999999999999999
0.12888521899003536,1.7253479853479854,2.9357509157509156,1.0999999999999999
0.13501534999522846,1.7253479853479854,2.9357509157509156,1.0999999999999999
0.13975703998585232,1.7253479853479854,2.9357509157509156,1.0999999999999999
0.14802368599339388,2.449010989010989,3.3,1.7245421245421246
0.15391976899991278,2.449010989010989,3.3,1.7245421245421246
0.15988976099470165,1.236996336996337,2.5441025641025643,1.8051282051282052
0.16518725198693573,1.236996336996337,2.5441025641025643,1.8051282051282052
0.16549939899414312,0.29816849816849816,0.4553113553113553,0.2715750915750916
0.17131712699483614,0.29816849816849816,0.4553113553113553,0.2715750915750916
0.17833729898848105,0.29816849816849816,0.4553113553113553,0.2715750915750916
0.18441076899762265,0.29816849816849816,0.4553113553113553,0.2715750915750916
0.1880642529868055,0.29816849816849816,0.4553113553113553,0.2715750915750916
0.1945132689870661,0.29816849816849816,0.4553113553113553,0.2715750915750916
0.19986257499840576,1.2724542124542124,2.545714285714286,1.8744322344322342
0.2001234859926626,0.18937728937728937,1.9896703296703295,0.8534065934065934
0.20694361699861474,0.18937728937728937,1.9896703296703295,0.8534065934065934
0.21393994998652488,0.18937728937728937,1.9896703296703295,0.8534065934065934
0.22042258898727596,0.18937728937728937,1.9896703296703295,0.8534065934065934
0.2241229709907202,0.5028571428571429,3.3,1.4070329670329669
0.2342362229974242,0.5028571428571429,3.3,1.4070329670329669
0.24301777199434582,0.5028571428571429,3.3,1.4070329670329669
0.25241790899599437,0.5028571428571429,3.3,1.4070329670329669
0.2593062879896024,0.5028571428571429,3.3,1.4070329670329669
0.26478381498600356,0.5028571428571429,3.3,1.4070329670329669
0.2658580299903406,2.0444688644688642,3.3,1.2184615384615385
0.2661230839876225,2.0444688644688642,3.3,1.2184615384615385
0.271520131995203,2.0444688644688642,3.3,1.2184615384615385
0.27328054698591586,2.0444688644688642,3.3,1.2184615384615385
0.27606833999743685,2.0444688644688642,3.3,1.2184615384615385
0.2822474529966712,2.0444688644688642,3.3,1.2184615384615385
0.28586454199103173,2.7326739926739925,2.545714285714286,1.7035897435897436
0.2922995549888583,2.7326739926739925,2.545714285714286,1.7035897435897436
0.299570387986023,2.7326739926739925,2.545714285714286,1.7035897435897436
0.305263695991016,2.7326739926739925,2.545714285714286,1.7035897435897436
0.315091725991806,0.07897435897435898,0.4166300366300366,0.19179487179487179
0.32138106699858326,0.07897435897435898,0.4166300366300366,0.19179487179487179
0.3247847579914378,0.07897435897435898,0.4166300366300366,0.19179487179487179
0.3250131329987198,0.07897435897435898,0.4166300366300366,0.19179487179487179
0.33347340099862777,0.07897435897435898,0.4166300366300366,0.19179487179487179
0.33860451499640476,1.5126007326007325,3.3,1.4594139194139193
0.3427050889877137,0.0547985347985348,1.0315018315018314,0.5246153846153846
0.34869085099489894,0.0547985347985348,1.0315018315018314,0.5246153846153846
0.35230426699854434,0.0547985347985348,1.0315018315018314,0.5246153846153846
0.3525666219939012,0.0547985347985348,1.0315018315018314,0.5246153846153846
0.3579123259987682,0.0547985347985348,1.0315018315018314,0.5246153846153846
0.3601671459909994,0.78007326007326,3.3,1.7108424908424908
0.3605061699927319,0.78007326007326,3.3,1.7108424908424908
0.3669529229955515,0.78007326007326,3.3,1.7108424908424908
0.3705073419987457,0.78007326007326,3.3,1.7108424908424908
0.37065807898761705,0.78007326007326,3.3,1.7108424908424908
0.3761698879970936,0.78007326007326,3.3,1.7108424908424908
0.3779273879918037,0.469010989010989,2.5908424908424905,1.2063736263736262
0.3817073119862471,0.469010989010989,2.5908424908424905,1.2063736263736262
0.3852594469935866,0.469010989010989,2.5908424908424905,1.2063736263736262
0.39173628798744176,0.469010989010989,2.5908424908424905,1.2063736263736262
0.3995494579867227,0.469010989010989,2.5908424908424905,1.2063736263736262
0.40453819899994414,0.469010989010989,2.5908424908424905,1.2063736263736262
0.4083237309969263,0.469010989010989,2.5908424908424905,1.2063736263736262
0.415326128990273,0.6841758241758242,3.3,2.0356043956043957
0.41976598899054807,0.6841758241758242,3.3,2.0356043956043957
0.4200329439918278,0.17245421245421244,1.9848351648351645,0.7881318681318681
0.42555326799629256,0.17245421245421244,1.9848351648351645,0.7881318681318681
0.4266600959963398,0.17245421245421244,1.9848351648351645,0.7881318681318681
0.42718792498635594,0.17245421245421244,1.9848351648351645,0.7881318681318681
0.43453602099907584,0.17245421245421244,1.9848351648351645,0.7881318681318681
0.4388318849960342,0.17245421245421244,1.9848351648351645,0.7881318681318681
0.439860245998716,0.17245421245421244,1.9848351648351645,0.7881318681318681
0.440788709995104,0.17245421245421244,1.9848351648351645,0.7881318681318681
0.4417964089952875,0.17245421245421244,1.9848351648351645,0.7881318681318681
0.44269276098930277,0.17245421245421244,1.9848351648351645,0.7881318681318681
0.4453717209980823,0.17245421245421244,1.9848351648351645,0.7881318681318681
0.44998127399594523,0.17245421245421244,1.9848351648351645,0.7881318681318681
0.45010154199553654,0.17245421245421244,1.9848351648351645,0.7881318681318681
0.45539827599714044,0.17245421245421244,1.9848351648351645,0.7881318681318681
0.4580574499996146,0.17245421245421244,1.9848351648351645,0.7881318681318681
0.4653595569980098,0.12893772893772892,1.8317216117216117,0.7784615384615384
0.46985832598875277,0.35619047619047617,0.6245421245421244,0.18615384615384614
0.47017206699820235,0.35619047619047617,0.6245421245421244,0.18615384615384614
0.47619062999729067,0.35619047619047617,0.6245421245421244,0.18615384615384614
0.4843926269968506,0.7518681318681318,3.3,1.5883516483516482
0.4899654049950186,0.010476190476190476,0.4214652014652014,0.17809523809523808
0.49024205999739934,0.010476190476190476,0.4214652014652014,0.17809523809523808
0.4977405469981022,0.010476190476190476,0.4214652014652014,0.17809523809523808
0.5016318499983754,0.010476190476190476,0.4214652014652014,0.17809523809523808
0.5053607309964718,0.010476190476190476,0.4214652014652014,0.17809523809523808
0.5131117529963376,0.010476190476190476,0.4214652014652014,0.17809523809523808
0.5197232299979078,0.010476190476190476,0.4214652014652014,0.17809523809523808
0.5238432989863213,0.010476190476190476,0.4214652014652014,0.17809523809523808
0.5263894609961426,0.010476190476190476,0.4214652014652014,0.17809523809523808
0.5349538489972474,0.010476190476190476,0.4214652014652014,0.17809523809523808
0.5413711569999577,0.010476190476190476,0.4214652014652014,0.17809523809523808
0.5467053169995779,0.42710622710622714,1.1556043956043955,0.8235897435897436
0.5488445199880516,1.1378754578754577,3.3,1.361098901098901
0.549916393996682,1.1378754578754577,3.3,1.361098901098901
0.5502406869927654,1.1378754578754577,3.3,1.361098901098901
0.5548149139940506,2.609377289377289,3.3,1.8945787545787542
0.5549875409924425,2.609377289377289,3.3,1.8945787545787542
0.5605986259906786,2.609377289377289,3.3,1.8945787545787542
0.5608356209995691,2.609377289377289,3.3,1.8945787545787542
0.5708914629940409,0.21032967032967032,0.5826373626373627,0.24498168498168496
0.5788555939943762,0.21032967032967032,0.5826373626373627,0.24498168498168496
0.5835111059859628,0.21032967032967032,0.5826373626373627,0.24498168498168496
0.5897631659900071,2.283003663003663,3.3,1.6697435897435895
0.593188292987179,0.007252747252747252,0.6406593406593406,0.224029304029304
0.5937177179876016,0.007252747252747252,0.6406593406593406,0.224029304029304
0.6008800999989035,0.007252747252747252,0.6406593406593406,0.224029304029304
0.6059182739991229,0.16197802197802197,1.0145787545787546,0.5705494505494505
0.6119192599871894,0.0,0.7228571428571429,0.31347985347985347
0.6161208179983078,0.0,0.7228571428571429,0.31347985347985347
0.6164827719912864,0.7784615384615384,3.3,1.701978021978022
0.621931923989905,0.7784615384615384,3.3,1.701978021978022
0.6228591049875831,0.7784615384615384,3.3,1.701978021978022
0.6238060499890707,0.7784615384615384,3.3,1.701978021978022
0.6255345789977582,0.7784615384615384,3.3,1.701978021978022
0.6318551659933291,0.7784615384615384,3.3,1.701978021978022
0.6354611989954719,0.7784615384615384,3.3,1.701978021978022
0.6417858179920586,0.7784615384615384,3.3,1.701978021978022
0.6480788819899317,0.7784615384615384,3.3,1.701978021978022
0.6516688269912265,0.0,0.6358241758241758,0.2063003663003663
0.6570551889890339,1.4706959706959708,3.3,1.7873992673992671
0.658058204993722,1.075018315018315,3.3,1.8357509157509158
0.6591711539949756,1.075018315018315,3.3,1.8357509157509158
0.6594932959997095,1.075018315018315,3.3,1.8357509157509158
0.6665043299872195,1.075018315018315,3.3,1.8357509157509158
0.6708381449861918,1.075018315018315,3.3,1.8357509157509158
0.6725736089865677,1.075018315018315,3.3,1.8357509157509158
0.6761073349916842,1.551282051282051,3.3,1.6898901098901096
0.676268238996272,1.551282051282051,3.3,1.6898901098901096
0.6834139989950927,1.551282051282051,3.3,1.6898901098901096
0.6878373439976713,1.551282051282051,3.3,1.6898901098901096
0.688158928998746,1.551282051282051,3.3,1.6898901098901096
0.6934033259894932,1.551282051282051,3.3,1.6898901098901096
0.6999979289976181,1.551282051282051,3.3,1.6898901098901096
0.7036095029907301,1.551282051282051,3.3,1.6898901098901096
0.7038291239878163,1.551282051282051,3.3,1.6898901098901096
0.7091521339898463,1.551282051282051,3.3,1.6898901098901096
0.7114228399877902,1.551282051282051,3.3,1.6898901098901096
0.7116475479997462,1.551282051282051,3.3,1.6898901098901096
0.7172591119888239,1.551282051282051,3.3,1.6898901098901096
0.7174886889988557,1.551282051282051,3.3,1.6898901098901096
0.7226538559916662,1.551282051282051,3.3,1.6898901098901096
0.725210705990321,1.551282051282051,3.3,1.6898901098901096
0.7339824839873472,1.551282051282051,3.3,1.6898901098901096
0.7419859179935884,1.2740659340659342,2.5602197802197804,2.445787545787546
0.7494299179961672,1.2740659340659342,2.5602197802197804,2.445787545787546
0.7551720880001085,1.2555311355311354,3.3,1.3715750915750915
0.7631368549918989,1.2555311355311354,3.3,1.3715750915750915
0.7694432039861567,2.648058608058608,3.3,1.5005128205128204
0.7747063479910139,2.648058608058608,3.3,1.5005128205128204
0.7756443839898566,2.648058608058608,3.3,1.5005128205128204
0.7773972249997314,2.648058608058608,3.3,1.5005128205128204
0.7843605509988265,2.648058608058608,3.3,1.5005128205128204
0.7892813959915657,2.648058608058608,3.3,1.5005128205128204
0.7987429699860513,2.648058608058608,3.3,1.5005128205128204
0.8065847849939018,2.648058608058608,3.3,1.5005128205128204
0.8128950369864469,2.648058608058608,3.3,1.5005128205128204
0.8172604169958504,2.648058608058608,3.3,1.5005128205128204
0.817617271997733,2.648058608058608,3.3,1.5005128205128204
0.8231437459908193,2.648058608058608,3.3,1.5005128205128204
0.8234864359983476,2.648058608058608,3.3,1.5005128205128204
0.8323120039858622,2.648058608058608,3.3,1.5005128205128204
0.8386177069914993,2.648058608058608,3.3,1.5005128205128204
0.8419671059964458,2.648058608058608,3.3,1.5005128205128204
0.8429798849974759,2.648058608058608,3.3,1.5005128205128204
0.8436550619953778,2.648058608058608,3.3,1.5005128205128204
0.850660843992955,2.648058608058608,3.3,1.5005128205128204
0.8554349959886167,2.648058608058608,3.3,1.5005128205128204
0.8623496609943686,1.0516483516483515,3.3,1.8172161172161172
0.8673584579955786,1.0516483516483515,3.3,1.8172161172161172
0.8706757289910456,1.0516483516483515,3.3,1.8172161172161172
0.8709304169897223,1.0516483516483515,3.3,1.8172161172161172
0.8806336809939239,1.0516483516483515,3.3,1.8172161172161172
0.8884212559933076,1.0516483516483515,3.3,1.8172161172161172
0.8934345679881517,1.0516483516483515,3.3,1.8172161172161172
0.8975158819957869,1.0516483516483515,3.3,1.8172161172161172
0.900083808999625,1.0516483516483515,3.3,1.8172161172161172
0.9052115469967248,1.0516483516483515,3.3,1.8172161172161172
0.9085989489976782,1.0516483516483515,3.3,1.8172161172161172
0.9089070599875413,1.4545787545787545,2.5561904761904763,2.3724542124542123
0.9149049379921053,1.2152380952380952,2.1605128205128206,0.8517948717948718
0.9191903519968037,2.805201465201465,2.548937728937729,1.6906959706959706
0.921273381987703,2.805201465201465,2.548937728937729,1.6906959706959706
0.9222967569949105,2.805201465201465,2.548937728937729,1.6906959706959706
0.9232764179905644,2.805201465201465,2.548937728937729,1.6906959706959706
0.924242664987105,2.805201465201465,2.548937728937729,1.6906959706959706
0.9252610609983094,2.805201465201465,2.548937728937729,1.6906959706959706
0.9255905119935051,2.805201465201465,2.548937728937729,1.6906959706959706
0.9320433149987366,2.805201465201465,2.548937728937729,1.6906959706959706
0.935612814995693,0.6116483516483516,3.3,1.9687179487179485
0.9358208819903666,0.6116483516483516,3.3,1.9687179487179485
0.9407712789979996,0.6116483516483516,3.3,1.9687179487179485
0.9469983249873621,0.6116483516483516,3.3,1.9687179487179485
0.9505961779941572,0.03868131868131868,0.6326007326007326,0.166007326007326
0.9507101479975972,0.03868131868131868,0.6326007326007326,0.166007326007326
0.9566051909932867,0.03868131868131868,0.6326007326007326,0.166007326007326
0.9661769019876374,0.8429304029304028,3.3,1.7575824175824175
0.9733451809879625,0.28124542124542123,0.6769230769230768,0.2216117216117216
0.9811020199995255,0.5665201465201465,3.3,1.6987545787545786
0.9871778959932271,0.5665201465201465,3.3,1.6987545787545786
0.9920702009985689,0.190989010989011,0.5439560439560439,0.14505494505494507
0.9989840919879498,1.3836630036630035,3.3,1.2877655677655677
1.0058171040000161,1.3836630036630035,3.3,1.2877655677655677
1.0122899949928978,1.3836630036630035,3.3,1.2877655677655677
1.0166564889950678,1.3836630036630035,3.3,1.2877655677655677
1.0170008029963356,1.2192673992673992,2.5473260073260073,1.8728205128205127
1.0230053099949146,1.2192673992673992,2.5473260073260073,1.8728205128205127
1.0275683329964522,0.29333333333333333,0.6616117216117217,0.1821245421245421
1.0278014340001391,0.29333333333333333,0.6616117216117217,0.1821245421245421
1.0364042629953474,0.29333333333333333,0.6616117216117217,0.1821245421245421
1.0429605209938018,0.29333333333333333,0.6616117216117217,0.1821245421245421
1.049139615992317,0.29333333333333333,0.6616117216117217,0.1821245421245421
1.053074793991982,0.29333333333333333,0.6616117216117217,0.1821245421245421
1.057977177988505,0.29333333333333333,0.6616117216117217,0.1821245421245421
1.0649468359915772,0.5987545787545787,3.3,1.4779487179487178
1.0694549159961753,0.10637362637362638,1.307106227106227,0.3465201465201465
1.0697448769933544,0.10637362637362638,1.307106227106227,0.3465201465201465
1.0748073709983146,0.10637362637362638,1.307106227106227,0.3465201465201465
1.0814275849988917,0.7373626373626374,3.3,1.6334798534798534
1.0856157059897669,0.7373626373626374,3.3,1.6334798534798534
1.0881253979896428,0.7373626373626374,3.3,1.6334798534798534
1.0929162619868293,0.7373626373626374,3.3,1.6334798534798534
1.0930296579899732,0.7373626373626374,3.3,1.6334798534798534
1.0994729009980801,0.7373626373626374,3.3,1.6334798534798534
1.105653540987987,0.7373626373626374,3.3,1.6334798534798534
1.1129668429930462,0.2683516483516483,0.49721611721611714,0.18615384615384614
1.1188211329863407,0.2683516483516483,0.49721611721611714,0.18615384615384614
1.1242024889943423,0.9533333333333331,2.545714285714286,1.8212454212454212
1.1244919919990934,0.9533333333333331,2.545714285714286,1.8212454212454212
1.1336670499877073,0.9533333333333331,2.545714285714286,1.8212454212454212
1.1395297999988543,0.9509157509157508,3.3,1.6729670329670328
1.1495859939896036,1.999340659340659,3.0687179487179486,1.1088644688644689
1.1551457659952575,1.999340659340659,3.0687179487179486,1.1088644688644689
1.1552822749945335,1.999340659340659,3.0687179487179486,1.1088644688644689
1.162273579990142,1.999340659340659,3.0687179487179486,1.1088644688644689
1.1694303179974668,1.999340659340659,3.0687179487179486,1.1088644688644689
1.1752673739974853,1.999340659340659,3.0687179487179486,1.1088644688644689
1.1836234289949061,0.4142124542124542,2.8060073260073257,1.0943589743589743
1.191238228988368,0.365054945054945,2.947032967032967,1.1024175824175824
1.1989126359985676,0.365054945054945,2.947032967032967,1.1024175824175824
1.206155593987205,0.365054945054945,2.947032967032967,1.1024175824175824
1.212729237988242,0.365054945054945,2.947032967032967,1.1024175824175824
1.2176896719902288,1.4368498168498167,3.3,1.805934065934066
1.2213063569943188,1.4368498168498167,3.3,1.805934065934066
1.2283199109951966,0.6801465201465201,0.5737728937728938,0.40534798534798533
1.2343210879917024,0.6801465201465201,0.5737728937728938,0.40534798534798533
1.238715493993368,0.6801465201465201,0.5737728937728938,0.40534798534798533
1.2390925669897115,0.6801465201465201,0.5737728937728938,0.40534798534798533
1.245553854998434,0.6801465201465201,0.5737728937728938,0.40534798534798533
1.251036983987433,0.6801465201465201,0.5737728937728938,0.40534798534798533
1.2511899229866685,0.5947252747252747,3.3,1.303076923076923
1.2566170479985885,0.5947252747252747,3.3,1.303076923076923
1.2593689839995932,0.5947252747252747,3.3,1.303076923076923
1.2636837589961942,0.5947252747252747,3.3,1.303076923076923
1.2640595519915223,0.5947252747252747,3.3,1.303076923076923
1.2697113049944164,0.5947252747252747,3.3,1.303076923076923
1.2698402979876846,0.5947252747252747,3.3,1.303076923076923
1.2753438759973506,0.5947252747252747,3.3,1.303076923076923
1.2774846209940733,1.0863003663003663,2.5521611721611723,2.0275457875457876
1.2778263689979212,1.0863003663003663,2.5521611721611723,2.0275457875457876
1.2847477729956154,1.0863003663003663,2.5521611721611723,2.0275457875457876
1.2901054099929752,1.0863003663003663,2.5521611721611723,2.0275457875457876
1.2930918989877682,1.0863003663003663,2.5521611721611723,2.0275457875457876
1.2952165839960799,1.0863003663003663,2.5521611721611723,2.0275457875457876
1.2956179519969737,1.0863003663003663,2.5521611721611723,2.0275457875457876
1.3063684409862617,1.0863003663003663,2.5521611721611723,2.0275457875457876
1.3225949839979876,1.0863003663003663,2.5521611721611723,2.0275457875457876
1.3398772879882017,1.0863003663003663,2.5521611721611723,2.0275457875457876
1.340290936990641,1.0863003663003663,2.5521611721611723,2.0275457875457876
1.3506122989929281,1.0863003663003663,2.5521611721611723,2.0275457875457876
1.3666681359900394,1.0863003663003663,2.5521611721611723,2.0275457875457876
1.3691274559969315,1.510989010989011,3.3,1.775311355311355
1.3838221289915964,1.510989010989011,3.3,1.775311355311355
1.3842194089957047,1.510989010989011,3.3,1.775311355311355
1.393167538990383,1.510989010989011,3.3,1.775311355311355
1.4072699709940935,0.49721611721611714,2.6367765567765566,1.1588278388278386
1.4206054219976068,0.49721611721611714,2.6367765567765566,1.1588278388278386
1.4333898639888503,0.49721611721611714,2.6367765567765566,1.1588278388278386
1.4335918099968694,0.01531135531135531,0.7567032967032966,0.17406593406593407
1.4393151039985241,0.01531135531135531,0.7567032967032966,0.17406593406593407
1.4394223129929742,0.01531135531135531,0.7567032967032966,0.17406593406593407
1.4476446769986069,0.01531135531135531,0.7567032967032966,0.17406593406593407
1.4547250749892555,0.01531135531135531,0.7567032967032966,0.17406593406593407
1.4609827359963674,0.01531135531135531,0.7567032967032966,0.17406593406593407
1.466495065993513,0.01531135531135531,0.7567032967032966,0.17406593406593407
1.466637361998437,0.01531135531135531,0.7567032967032966,0.17406593406593407
1.4728933869919274,0.01531135531135531,0.7567032967032966,0.17406593406593407
1.4821097599924542,0.01531135531135531,0.7567032967032966,0.17406593406593407
1.490909105996252,0.01531135531135531,0.7567032967032966,0.17406593406593407
1.4989059699873906,0.01531135531135531,0.7567032967032966,0.17406593406593407
1.5033638439927017,0.01531135531135531,0.7567032967032966,0.17406593406593407
1.5052032969979336,0.01531135531135531,0.7567032967032966,0.17406593406593407
1.5072066059947247,0.01531135531135531,0.7567032967032966,0.17406593406593407
1.5091240299952915,1.8333333333333333,2.5553846153846154,2.1282783882783884
1.5130821159982588,1.8333333333333333,2.5553846153846154,2.1282783882783884
1.5160220509860665,1.8333333333333333,2.5553846153846154,2.1282783882783884
1.5187077159935143,1.8333333333333333,2.5553846153846154,2.1282783882783884
1.523028160998365,1.8333333333333333,2.5553846153846154,2.1282783882783884
1.5240474339952925,1.8333333333333333,2.5553846153846154,2.1282783882783884
1.5250368109991541,1.8333333333333333,2.5553846153846154,2.1282783882783884
1.5253478279919364,1.8333333333333333,2.5553846153846154,2.1282783882783884
1.5333229339885293,1.8333333333333333,2.5553846153846154,2.1282783882783884
1.5384234949888196,0.5931135531135531,3.3,1.5126007326007325
1.542483473996981,0.5931135531135531,3.3,1.5126007326007325
1.54645910099498,0.5931135531135531,3.3,1.5126007326007325
1.5493543209886411,0.5931135531135531,3.3,1.5126007326007325
1.5532914499926846,0.5931135531135531,3.3,1.5126007326007325
1.556652272993233,1.3175824175824176,2.540879120879121,1.9663003663003662
1.5568537379876943,1.3175824175824176,2.540879120879121,1.9663003663003662
1.5640878989943303,1.3175824175824176,2.540879120879121,1.9663003663003662
1.5685132489888929,1.3175824175824176,2.540879120879121,1.9663003663003662
1.5695032689982327,1.3175824175824176,2.540879120879121,1.9663003663003662
1.5705209969892167,1.3175824175824176,2.540879120879121,1.9663003663003662
1.570912180992309,1.3175824175824176,2.540879120879121,1.9663003663003662
1.5759454059880227,1.3175824175824176,2.540879120879121,1.9663003663003662
1.5814117769914446,1.3175824175824176,2.540879120879121,1.9663003663003662
1.5815786809980636,1.3175824175824176,2.540879120879121,1.9663003663003662
1.586773306989926,1.3175824175824176,2.540879120879121,1.9663003663003662
1.5900284899980761,2.273333333333333,2.556996336996337,2.2757509157509155
1.5903129809885286,2.273333333333333,2.556996336996337,2.2757509157509155
1.598048777988879,2.273333333333333,2.556996336996337,2.2757509157509155
1.6022030729945982,2.273333333333333,2.556996336996337,2.2757509157509155
1.6048837399866898,2.273333333333333,2.556996336996337,2.2757509157509155
1.6099323509988608,0.2079120879120879,0.5761904761904761,0.1676190476190476
1.6157326319953427,0.2079120879120879,0.5761904761904761,0.1676190476190476
1.6215814509923803,0.9726739926739927,3.3,1.9397069597069596
1.6271611509873765,2.5553846153846154,3.3,1.8728205128205127
1.6276336559967604,2.5553846153846154,3.3,1.8728205128205127
1.6321898449969012,2.5553846153846154,3.3,1.8728205128205127
1.6384296329924837,2.5553846153846154,3.3,1.8728205128205127
1.6417462139943382,0.2747985347985348,2.182271062271062,0.7623443223443224
1.6427463029976934,0.2747985347985348,2.182271062271062,0.7623443223443224
1.6432028879935388,0.2747985347985348,2.182271062271062,0.7623443223443224
1.6493704109889222,0.2747985347985348,2.182271062271062,0.7623443223443224
1.6536120849923464,0.2747985347985348,2.182271062271062,0.7623443223443224
1.655275974990218,0.2747985347985348,2.182271062271062,0.7623443223443224
1.6594182649860159,0.2747985347985348,2.182271062271062,0.7623443223443224
1.6642897899873788,0.2747985347985348,2.182271062271062,0.7623443223443224
1.6685727009898983,0.2747985347985348,2.182271062271062,0.7623443223443224
1.6695370149973314,1.7446886446886447,2.5666666666666664,2.29025641025641
1.670468381998944,1.7446886446886447,2.5666666666666664,2.29025641025641
1.6721664679935202,1.7446886446886447,2.5666666666666664,2.29025641025641
1.6753933589934604,1.7446886446886447,2.5666666666666664,2.29025641025641
1.676708143990254,1.7446886446886447,2.5666666666666664,2.29025641025641
1.6848757629923057,0.3843956043956044,2.822124542124542,1.0742124542124543
1.691156818997115,0.3843956043956044,2.822124542124542,1.0742124542124543
1.699111420995905,1.6294505494505493,2.5715018315018314,2.5038095238095237
1.705151684989687,0.6293772893772893,3.3,1.506959706959707
1.7121071519941324,0.09347985347985348,0.4456410256410256,0.22564102564102564
1.7182715679955436,0.09347985347985348,0.4456410256410256,0.22564102564102564
1.722807553000166,0.09347985347985348,0.4456410256410256,0.22564102564102564
1.7230699299980188,0.49238095238095236,0.4391941391941392,0.29333333333333333
1.7314703639858635,0.12249084249084248,0.7865201465201466,0.2498168498168498
1.7357838019961491,0.4996336996336996,3.3,1.4505494505494505
1.7377439689880703,0.4996336996336996,3.3,1.4505494505494505
1.7403259949933272,0.1241025641025641,1.3336996336996336,0.6398534798534798
1.7501092919992516,0.12007326007326008,1.3796336996336995,0.5745787545787545
1.7575557839882094,0.12007326007326008,1.3796336996336995,0.5745787545787545
1.7646271279954817,1.012967032967033,3.3,1.830915750915751
1.7681480079918401,1.012967032967033,3.3,1.830915750915751
1.774230262992205,1.012967032967033,3.3,1.830915750915751
1.7830669749964727,1.012967032967033,3.3,1.830915750915751
1.7876689650001936,0.32556776556776557,2.3652014652014652,0.9920146520146519
1.7879479919938603,0.32556776556776557,2.3652014652014652,0.9920146520146519
1.79369573299482,0.32556776556776557,2.3652014652014652,0.9920146520146519
1.7939958479983034,0.32556776556776557,2.3652014652014652,0.9920146520146519
1.804343797994079,0.32556776556776557,2.3652014652014652,0.9920146520146519
1.8141603669937467,0.689010989010989,3.3,1.6568498168498167
1.8202387169876602,0.689010989010989,3.3,1.6568498168498167
1.823823213999276,0.689010989010989,3.3,1.6568498168498167
1.8239972769952146,0.689010989010989,3.3,1.6568498168498167
1.8335021419916302,0.689010989010989,3.3,1.6568498168498167
1.8397180359897902,1.813992673992674,2.5682783882783884,2.2104761904761903
1.8459950069955084,1.813992673992674,2.5682783882783884,2.2104761904761903
1.8496459819871234,1.3659340659340657,3.3,1.4416849816849817
1.8551117449969752,1.3659340659340657,3.3,1.4416849816849817
1.8554371299978811,1.3659340659340657,3.3,1.4416849816849817
1.8629218179994496,1.3659340659340657,3.3,1.4416849816849817
1.8686402959865518,0.09509157509157509,1.6375091575091574,0.5906959706959707
1.8740361499949358,0.09509157509157509,1.6375091575091574,0.5906959706959707
1.8750517049920745,0.09509157509157509,1.6375091575091574,0.5906959706959707
1.8753342859999975,0.09509157509157509,1.6375091575091574,0.5906959706959707
1.884059960997547,0.09509157509157509,1.6375091575091574,0.5906959706959707
1.8903592169954209,0.09509157509157509,1.6375091575091574,0.5906959706959707
1.8945382599922596,0.09509157509157509,1.6375091575091574,0.5906959706959707
1.897414912993554,0.8171428571428572,2.548937728937729,2.0347985347985347
1.9012143169966293,0.8171428571428572,2.548937728937729,2.0347985347985347
1.904687958987779,0.3473260073260073,1.0355311355311354,0.6962637362637363
1.9048080569918966,0.3473260073260073,1.0355311355311354,0.6962637362637363
1.9128011319990037,0.36666666666666664,1.8494505494505493,0.6382417582417582
1.9177258669951698,2.526373626373626,3.3,1.851062271062271
1.9220383369975025,0.35619047619047617,2.9776556776556777,1.0323076923076921
1.9230750849965261,0.35619047619047617,2.9776556776556777,1.0323076923076921
1.9241990289883688,0.35619047619047617,2.9776556776556777,1.0323076923076921
1.924382222990971,0.35619047619047617,2.9776556776556777,1.0323076923076921
1.9336789369990584,0.35619047619047617,2.9776556776556777,1.0323076923076921
1.9388649159955094,0.26673992673992675,2.008205128205128,0.7172161172161172
1.9427623679948738,0.26673992673992675,2.008205128205128,0.7172161172161172
1.9479021649895003,0.26673992673992675,2.008205128205128,0.7172161172161172
1.949758363989531,0.26673992673992675,2.008205128205128,0.7172161172161172
1.9534245609975187,0.26673992673992675,2.008205128205128,0.7172161172161172
1.9597835779859452,0.26673992673992675,2.008205128205128,0.7172161172161172
1.9644585449859733,0.26673992673992675,2.008205128205128,0.7172161172161172
1.9706016039999668,0.26673992673992675,2.008205128205128,0.7172161172161172
1.9740431859972887,0.26673992673992675,2.008205128205128,0.7172161172161172
1.9743407299974933,0.26673992673992675,2.008205128205128,0.7172161172161172
1.9824333719880087,0.26673992673992675,2.008205128205128,0.7172161172161172
1.98763234699436,0.26673992673992675,2.008205128205128,0.7172161172161172
1.990950580991921,0.26673992673992675,2.008205128205128,0.7172161172161172
1.9918971479928587,0.26673992673992675,2.008205128205128,0.7172161172161172
1.9934555959916906,0.26673992673992675,2.008205128205128,0.7172161172161172
2.000151812986587,0.26673992673992675,2.008205128205128,0.7172161172161172
2.004482480988372,0.24739926739926738,2.266886446886447,0.904981684981685
2.0062612569890916,0.24739926739926738,2.266886446886447,0.904981684981685
2.008972169991466,0.24739926739926738,2.266886446886447,0.904981684981685
2.0162694699974963,0.3852014652014652,2.1750183150183147,0.9783150183150182
2.0200309999927413,0.3852014652014652,2.1750183150183147,0.9783150183150182
2.024854934992618,0.9597802197802198,1.5996336996336995,1.0468131868131867
2.0250076319935033,1.5126007326007325,2.629523809523809,1.0484249084249082
2.033138594997581,1.5126007326007325,2.629523809523809,1.0484249084249082
2.037873995999689,1.5126007326007325,2.629523809523809,1.0484249084249082
2.0380412669910584,1.5126007326007325,2.629523809523809,1.0484249084249082
2.0444089559896383,0.017728937728937726,2.332967032967033,0.9315750915750916
2.0490499009902123,0.017728937728937726,2.332967032967033,0.9315750915750916
2.053934350988129,0.017728937728937726,2.332967032967033,0.9315750915750916
2.05861777899554,2.440952380952381,3.3,1.5013186813186812
2.0588708609866444,2.440952380952381,3.3,1.5013186813186812
2.0686173949943623,2.440952380952381,3.3,1.5013186813186812
2.075520764992689,2.440952380952381,3.3,1.5013186813186812
2.0844009359861957,2.440952380952381,3.3,1.5013186813186812
2.0896313339908374,2.5706959706959704,3.3,1.6632967032967032
2.094310336993658,2.5706959706959704,3.3,1.6632967032967032
2.104191305988934,2.5706959706959704,3.3,1.6632967032967032
2.1111602319870144,2.5706959706959704,3.3,1.6632967032967032
2.1163624529872322,2.5706959706959704,3.3,1.6632967032967032
2.118933751989971,2.5706959706959704,3.3,1.6632967032967032
2.1238548249966698,2.5706959706959704,3.3,1.6632967032967032
2.131598812993616,2.5706959706959704,3.3,1.6632967032967032
2.1366658409970114,2.5706959706959704,3.3,1.6632967032967032
2.1398179559910204,2.5706959706959704,3.3,1.6632967032967032
2.141433300988865,2.5706959706959704,3.3,1.6632967032967032
2.1488831309980014,2.5706959706959704,3.3,1.6632967032967032
2.152822264994029,2.5706959706959704,3.3,1.6632967032967032
2.155933123998693,2.5706959706959704,3.3,1.6632967032967032
2.157601014987449,1.232967032967033,2.5473260073260073,1.9663003663003662
2.1649808669899357,1.232967032967033,2.5473260073260073,1.9663003663003662
2.1694105969945667,1.232967032967033,2.5473260073260073,1.9663003663003662
2.1696471119939815,1.232967032967033,2.5473260073260073,1.9663003663003662
2.17449602499255,1.232967032967033,2.5473260073260073,1.9663003663003662
2.1833539119979832,1.232967032967033,2.5473260073260073,1.9663003663003662
2.1892470919992775,1.232967032967033,2.5473260073260073,1.9663003663003662
2.196252005000133,0.7728205128205128,2.541684981684982,2.033992673992674
2.20095833898813,2.4796336996336996,3.3,1.9646886446886445
2.2066874809970614,0.4545054945054945,0.5262271062271061,0.38278388278388276
2.206877448988962,0.10637362637362638,0.6728937728937728,0.2216117216117216
2.214827666990459,0.10637362637362638,0.6728937728937728,0.2216117216117216
2.2195163929864066,0.10637362637362638,0.6728937728937728,0.2216117216117216
2.2196717099868692,0.10637362637362638,0.6728937728937728,0.2216117216117216
2.2248770569858607,0.10637362637362638,0.6728937728937728,0.2216117216117216
2.231017294994672,0.10637362637362638,0.6728937728937728,0.2216117216117216
2.2344995259918505,2.6843223443223443,2.5432967032967033,1.8857142857142855
2.2348121569957584,2.6843223443223443,2.5432967032967033,1.8857142857142855
2.239450257999124,2.6843223443223443,2.5432967032967033,1.8857142857142855
2.239690193993738,2.6843223443223443,2.5432967032967033,1.8857142857142855
2.246294564989512,2.6843223443223443,2.5432967032967033,1.8857142857142855
2.2499709369876655,2.6843223443223443,2.5432967032967033,1.8857142857142855
2.255448247989989,0.3537728937728937,2.0863736263736263,0.9106227106227106
2.257093263993738,1.2805128205128204,2.5473260073260073,1.9856410256410255
2.2627648919878993,1.2805128205128204,2.5473260073260073,1.9856410256410255
2.2689798699866515,0.6374358974358975,0.5584615384615385,0.4561172161172161
2.273213410997414,0.6374358974358975,0.5584615384615385,0.4561172161172161
2.275819207992754,0.6374358974358975,0.5584615384615385,0.4561172161172161
2.282645387997036,0.6374358974358975,0.5584615384615385,0.4561172161172161
2.286584645989933,0.6374358974358975,0.5584615384615385,0.4561172161172161
2.2908989829884376,0.6374358974358975,0.5584615384615385,0.4561172161172161
2.2927626419987064,0.6374358974358975,0.5584615384615385,0.4561172161172161
2.296937535997131,0.6374358974358975,0.5584615384615385,0.4561172161172161
2.2978668049909174,0.6374358974358975,0.5584615384615385,0.4561172161172161
2.298778250988107,0.6374358974358975,0.5584615384615385,0.4561172161172161
2.300467826993554,0.6374358974358975,0.5584615384615385,0.4561172161172161
2.305023236986017,0.6374358974358975,0.5584615384615385,0.4561172161172161
2.305139832998975,0.6374358974358975,0.5584615384615385,0.4561172161172161
2.3133157909906004,0.6374358974358975,0.5584615384615385,0.4561172161172161
2.3174957129958784,0.6374358974358975,0.5584615384615385,0.4561172161172161
2.320519692992093,0.6374358974358975,0.5584615384615385,0.4561172161172161
2.322410160995787,0.6374358974358975,0.5584615384615385,0.4561172161172161
2.32582619698951,0.6374358974358975,0.5584615384615385,0.4561172161172161
2.326184398989426,0.8018315018315018,3.026007326007326,1.0572893772893772
2.3320202289905865,0.8018315018315018,3.026007326007326,1.0572893772893772
2.3369026799919084,0.8663003663003663,2.553772893772894,2.1234432234432234
2.340958236993174,0.8663003663003663,2.553772893772894,2.1234432234432234
2.3459512009867467,0.8663003663003663,2.553772893772894,2.1234432234432234
2.3487013719859533,0.8663003663003663,2.553772893772894,2.1234432234432234
2.3517940789897693,0.8663003663003663,2.553772893772894,2.1234432234432234
2.3541121739981463,2.8180952380952378,2.5432967032967033,1.967106227106227
2.354325128995697,2.8180952380952378,2.5432967032967033,1.967106227106227
2.360788756996044,2.8180952380952378,2.5432967032967033,1.967106227106227
2.3643133099976694,2.8180952380952378,2.5432967032967033,1.967106227106227
2.369918541997322,2.8180952380952378,2.5432967032967033,1.967106227106227
2.370828143990366,0.42065934065934063,2.075091575091575,0.7792673992673992
2.371863748994656,0.42065934065934063,2.075091575091575,0.7792673992673992
2.3721504509885563,0.42065934065934063,2.075091575091575,0.7792673992673992
2.3803755619883304,0.42065934065934063,2.075091575091575,0.7792673992673992
2.385031710990006,0.4021245421245421,2.8164835164835162,1.0282783882783881
2.3897597689938266,0.43677655677655675,1.7326007326007327,0.5818315018315018
2.3898921129875816,0.43677655677655675,1.7326007326007327,0.5818315018315018
2.3991592039965326,0.43677655677655675,1.7326007326007327,0.5818315018315018
2.406176088989014,0.43677655677655675,1.7326007326007327,0.5818315018315018
2.4135316479951143,0.19018315018315018,0.36827838827838827,0.1829304029304029
2.4195662299898686,0.19018315018315018,0.36827838827838827,0.1829304029304029
2.4252805649884976,0.19018315018315018,0.36827838827838827,0.1829304029304029
2.433027808991028,0.045128205128205125,0.6672527472527472,0.11765567765567764
2.4393840549892047,0.045128205128205125,0.6672527472527472,0.11765567765567764
2.445156865986064,1.1886446886446886,1.8575091575091573,0.8082783882783882
2.4491235579916975,0.04593406593406593,0.921098901098901,0.13296703296703297
2.452427420997992,0.8429304029304028,2.557802197802198,1.8494505494505493
2.4541555429896107,0.8429304029304028,2.557802197802198,1.8494505494505493
2.4573418849904556,0.8429304029304028,2.557802197802198,1.8494505494505493
2.4590271549968747,0.2328937728937729,1.8744322344322342,0.5608791208791208
2.4621879929909483,0.2328937728937729,1.8744322344322342,0.5608791208791208
2.4639221739926143,0.2328937728937729,1.8744322344322342,0.5608791208791208
2.4679503639927134,0.2328937728937729,1.8744322344322342,0.5608791208791208
2.4717022009863285,1.8994139194139192,2.5723076923076924,2.2145054945054943
2.4767608319962164,1.8994139194139192,2.5723076923076924,2.2145054945054943
2.4810878329881234,1.8994139194139192,2.5723076923076924,2.2145054945054943
2.48195751599269,1.8994139194139192,2.5723076923076924,2.2145054945054943
2.483481771996594,1.8994139194139192,2.5723076923076924,2.2145054945054943
2.488255908989231,1.8994139194139192,2.5723076923076924,2.2145054945054943
2.4935050289932406,1.8994139194139192,2.5723076923076924,2.2145054945054943
2.4974354329897324,1.3361172161172161,2.5505494505494504,1.6826373626373625
2.5007465069938917,1.3361172161172161,2.5505494505494504,1.6826373626373625
2.501109844990424,1.3361172161172161,2.5505494505494504,1.6826373626373625
2.509105267992709,1.3361172161172161,2.5505494505494504,1.6826373626373625
2.5132771429925924,0.33282051282051284,0.8687179487179487,0.18373626373626373
2.5164060779934516,1.9348717948717948,3.3,1.1693040293040293
2.518246930994792,1.9348717948717948,3.3,1.1693040293040293
2.5209762759914156,1.9348717948717948,3.3,1.1693040293040293
2.5251374039944494,1.9348717948717948,3.3,1.1693040293040293
2.526842947991099,1.9348717948717948,3.3,1.1693040293040293
2.5343226859986316,1.9348717948717948,3.3,1.1693040293040293
2.5411741729913047,1.9348717948717948,3.3,1.1693040293040293
2.5456930459913565,1.9348717948717948,3.3,1.1693040293040293
2.546020783993299,1.9348717948717948,3.3,1.1693040293040293
2.554549019987462,1.9348717948717948,3.3,1.1693040293040293
2.561241204995895,1.9348717948717948,3.3,1.1693040293040293
2.5647750129865017,1.9348717948717948,3.3,1.1693040293040293
2.5649603179917904,1.9348717948717948,3.3,1.1693040293040293
2.5696842039906187,0.07333333333333333,1.4432967032967032,0.30139194139194136
2.5698671019927133,0.5181684981684981,3.3,1.274871794871795
2.574682093996671,0.5181684981684981,3.3,1.274871794871795
2.580270386999473,0.5181684981684981,3.3,1.274871794871795
2.581292011993355,0.5181684981684981,3.3,1.274871794871795
2.582132379990071,0.5181684981684981,3.3,1.274871794871795
2.583053239999572,0.5181684981684981,3.3,1.274871794871795
2.584806758997729,0.5181684981684981,3.3,1.274871794871795
2.587898984987987,0.0419047619047619,0.7913553113553113,0.1797069597069597
2.590441184991505,0.0419047619047619,0.7913553113553113,0.1797069597069597
2.5962094409915153,0.0419047619047619,0.7913553113553113,0.1797069597069597
2.596397788991453,0.0419047619047619,0.7913553113553113,0.1797069597069597
2.601956724989577,0.0419047619047619,0.7913553113553113,0.1797069597069597
2.6029754339979263,0.0419047619047619,0.7913553113553113,0.1797069597069597
2.6038443639990874,0.0419047619047619,0.7913553113553113,0.1797069597069597
2.6054912859981414,0.0419047619047619,0.7913553113553113,0.1797069597069597
2.6101127849979093,0.0419047619047619,0.7913553113553113,0.1797069597069597
2.610396652991767,0.0419047619047619,0.7913553113553113,0.1797069597069597
2.6176657369942404,0.0419047619047619,0.7913553113553113,0.1797069597069597
2.6215947619930375,1.398168498168498,2.541684981684982,1.6133333333333333
2.6256350339972414,1.398168498168498,2.541684981684982,1.6133333333333333
2.629842769994866,1.398168498168498,2.541684981684982,1.6133333333333333
2.632072849999531,1.398168498168498,2.541684981684982,1.6133333333333333
2.632328425999731,1.398168498168498,2.541684981684982,1.6133333333333333
2.637321520000114,1.398168498168498,2.541684981684982,1.6133333333333333
2.641726783986087,0.19824175824175824,1.519047619047619,0.4899633699633699
2.6432459589996142,0.19824175824175824,1.519047619047619,0.4899633699633699
2.6484167379967403,0.19824175824175824,1.519047619047619,0.4899633699633699
2.651646329992218,0.19824175824175824,1.519047619047619,0.4899633699633699
2.6531193159898976,0.19824175824175824,1.519047619047619,0.4899633699633699
2.6612864829949103,0.19824175824175824,1.519047619047619,0.4899633699633699
2.6675991949887248,0.4496703296703296,3.082417582417582,1.0975824175824174
2.6705414109892445,0.4496703296703296,3.082417582417582,1.0975824175824174
2.674114246998215,0.4496703296703296,3.082417582417582,1.0975824175824174
2.674322191000101,0.4496703296703296,3.082417582417582,1.0975824175824174
2.679354493986466,0.4496703296703296,3.082417582417582,1.0975824175824174
2.684037200990133,0.2506227106227106,2.307179487179487,0.8276190476190476
2.684246369986795,0.2506227106227106,2.307179487179487,0.8276190476190476
2.6892355189920636,0.2506227106227106,2.307179487179487,0.8276190476190476
2.6941620989964576,1.7108424908424908,2.56989010989011,2.339413919413919
2.698032162996242,1.7108424908424908,2.56989010989011,2.339413919413919
2.703745994993369,1.7108424908424908,2.56989010989011,2.339413919413919
2.712728023994714,1.7108424908424908,2.56989010989011,2.339413919413919
2.717378835994168,0.4754578754578754,3.3,1.4062271062271061
2.7176285529858433,0.4754578754578754,3.3,1.4062271062271061
2.7222750869987067,0.4754578754578754,3.3,1.4062271062271061
2.7225821299944073,0.4754578754578754,3.3,1.4062271062271061
2.727180617992417,0.4754578754578754,3.3,1.4062271062271061
2.7274708839977393,0.4754578754578754,3.3,1.4062271062271061
2.732298690985772,0.4754578754578754,3.3,1.4062271062271061
2.738445569993928,0.4754578754578754,3.3,1.4062271062271061
2.7423231979919365,0.7381684981684982,3.3,1.494871794871795
2.7470153239992214,0.7381684981684982,3.3,1.494871794871795
2.747250972999609,0.7381684981684982,3.3,1.494871794871795
2.752585285998066,0.7381684981684982,3.3,1.494871794871795
2.754374285999802,2.826153846153846,2.5473260073260073,1.779340659340659
2.7575570729968604,2.826153846153846,2.5473260073260073,1.779340659340659
2.7592517999873962,2.826153846153846,2.5473260073260073,1.779340659340659
2.762422551997588,2.826153846153846,2.5473260073260073,1.779340659340659
2.76406613898871,2.826153846153846,2.5473260073260073,1.779340659340659
2.7680180209863465,2.826153846153846,2.5473260073260073,1.779340659340659
2.7717705219984055,0.24901098901098898,2.063003663003663,0.684981684981685
2.7766514719987754,0.24901098901098898,2.063003663003663,0.684981684981685
2.7815095979894977,0.4488644688644688,3.129157509157509,1.3232234432234433
2.7870000319962855,0.4488644688644688,3.129157509157509,1.3232234432234433
2.787925559998257,1.834945054945055,2.5666666666666664,2.332967032967033
2.789545156992972,1.834945054945055,2.5666666666666664,2.332967032967033
2.7934896429942455,1.834945054945055,2.5666666666666664,2.332967032967033
2.7975147379911505,1.075018315018315,2.5521611721611723,1.9413186813186813
2.8008395029901294,1.075018315018315,2.5521611721611723,1.9413186813186813
2.801221544999862,1.075018315018315,2.5521611721611723,1.9413186813186813
2.806896288995631,1.075018315018315,2.5521611721611723,1.9413186813186813
2.815414239987149,1.858315018315018,2.552967032967033,2.233846153846154
2.8236134319886332,1.573846153846154,3.3,1.7454945054945055
2.8310828209941974,1.573846153846154,3.3,1.7454945054945055
2.8371716479887255,1.573846153846154,3.3,1.7454945054945055
2.842481369996676,1.573846153846154,3.3,1.7454945054945055
2.8448088269942673,0.01531135531135531,1.672161172161172,0.7059340659340658
2.8449802639952395,0.01531135531135531,1.672161172161172,0.7059340659340658
2.8532906279870076,0.01531135531135531,1.672161172161172,0.7059340659340658
2.8595788369857473,1.506153846153846,2.5626373626373624,2.4272527472527474
2.8648581309971632,0.31750915750915754,2.468351648351648,0.921098901098901
2.8652088469971204,2.6085714285714285,3.3,1.4626373626373625
2.874172901996644,2.6085714285714285,3.3,1.4626373626373625
2.884284100990044,0.5439560439560439,3.3,1.2885714285714285
2.8908197439886862,0.1523076923076923,1.9252014652014653,0.8179487179487179
2.8997247199877165,0.1523076923076923,1.9252014652014653,0.8179487179487179
2.9046606159972725,0.1523076923076923,1.9252014652014653,0.8179487179487179
2.9113668859936297,0.1523076923076923,1.9252014652014653,0.8179487179487179
2.9163266589894192,1.8704029304029302,2.565054945054945,2.318461538461538
2.919646454989561,1.8704029304029302,2.565054945054945,2.318461538461538
2.919951261996175,1.8704029304029302,2.565054945054945,2.318461538461538
2.924665026992443,1.5915750915750915,2.5795604395604395,1.037948717948718
2.9249026699981187,1.5915750915750915,2.5795604395604395,1.037948717948718
2.932284152993816,1.5915750915750915,2.5795604395604395,1.037948717948718
2.9371256009908393,1.5915750915750915,2.5795604395604395,1.037948717948718
2.9420788579882355,1.5915750915750915,2.5795604395604395,1.037948717948718
2.950906613987172,1.5915750915750915,2.5795604395604395,1.037948717948718
2.9577439529966796,2.324908424908425,3.3,1.7463003663003662
2.9634375309979077,2.324908424908425,3.3,1.7463003663003662
2.9697748709877487,2.324908424908425,3.3,1.7463003663003662
2.973802017993876,2.324908424908425,3.3,1.7463003663003662
2.976431175993639,2.324908424908425,3.3,1.7463003663003662
2.982122843997786,2.324908424908425,3.3,1.7463003663003662
2.9823115179897286,2.324908424908425,3.3,1.7463003663003662
2.987786874989979,2.324908424908425,3.3,1.7463003663003662
2.9894057929923292,0.7534798534798535,2.76007326007326,0.9597802197802198
2.995045936986571,0.3344322344322344,1.7696703296703296,0.7389743589743589
2.995239738986129,1.1821978021978021,2.545714285714286,1.8905494505494502
3.00042467599269,1.1821978021978021,2.545714285714286,1.8905494505494502
3.0052524359925883,1.261978021978022,1.963076923076923,0.9944322344322343
3.0112277459993493,0.006446886446886447,0.6616117216117217,0.19179487179487179
3.016133111988893,0.5979487179487178,3.3,1.7221245421245421
3.021773572996608,0.5979487179487178,3.3,1.7221245421245421
3.0226274469896453,0.12813186813186814,2.685128205128205,1.016996336996337
3.0235963629966136,0.12813186813186814,2.685128205128205,1.016996336996337
3.0252074249874568,0.12813186813186814,2.685128205128205,1.016996336996337
3.0315608809905825,0.12813186813186814,2.685128205128205,1.016996336996337
3.0357495849893894,0.12813186813186814,2.685128205128205,1.016996336996337
3.0374069059907924,0.12813186813186814,2.685128205128205,1.016996336996337
3.0413338109938195,0.12813186813186814,2.685128205128205,1.016996336996337
3.0480435229983414,2.556996336996337,3.3,1.8357509157509158
3.051602373991045,2.556996336996337,3.3,1.8357509157509158
3.0518204719992355,2.556996336996337,3.3,1.8357509157509158
3.05648084198765,2.556996336996337,3.3,1.8357509157509158
3.0567125099914847,1.2966300366300365,2.5513553113553114,1.818827838827839
3.0658694159938022,1.2966300366300365,2.5513553113553114,1.818827838827839
3.070384026999818,0.419047619047619,0.8711355311355311,0.7309157509157509
3.0708716009976342,1.8816849816849814,2.9309157509157506,1.1419047619047618
3.0750288859999273,1.8816849816849814,2.9309157509157506,1.1419047619047618
3.077487663991633,0.4351648351648352,3.3,1.7946520146520144
3.0843965639942326,0.4351648351648352,3.3,1.7946520146520144
3.0883636319922516,0.13135531135531134,1.9389010989010989,0.7857142857142856
3.094009605993051,0.13135531135531134,1.9389010989010989,0.7857142857142856
3.094208027992863,0.13135531135531134,1.9389010989010989,0.7857142857142856
3.0999869289953494,0.13135531135531134,1.9389010989010989,0.7857142857142856
3.1001468019967433,0.3142857142857142,2.755238095238095,0.9863736263736262
3.1048923039925285,0.3142857142857142,2.755238095238095,0.9863736263736262
3.10514275598689,0.8066666666666666,1.1338461538461537,0.5987545787545787
3.1133874889928848,0.8066666666666666,1.1338461538461537,0.5987545787545787
3.118956544989487,0.5939194139194138,3.3,1.3667399267399267
3.119109113991726,0.5939194139194138,3.3,1.3667399267399267
3.1239502969983732,0.5939194139194138,3.3,1.3667399267399267
3.1336365809984272,0.5939194139194138,3.3,1.3667399267399267
3.140735417997348,0.5939194139194138,3.3,1.3667399267399267
3.147109952988103,0.13699633699633698,2.2362637362637363,0.7631501831501831
3.151626946986653,0.13699633699633698,2.2362637362637363,0.7631501831501831
3.1518827699910617,2.5134798534798533,3.3,1.8768498168498167
3.1565507929917658,2.5134798534798533,3.3,1.8768498168498167
3.1567974359932123,2.5134798534798533,3.3,1.8768498168498167
3.1621585919929203,2.5134798534798533,3.3,1.8768498168498167
3.1638766299874987,2.5134798534798533,3.3,1.8768498168498167
3.1671155019867,2.5134798534798533,3.3,1.8768498168498167
3.167478957999265,1.0306959706959706,3.3,1.1838095238095236
3.1721550339862006,1.0306959706959706,3.3,1.1838095238095236
3.172372983986861,1.0306959706959706,3.3,1.1838095238095236
3.177605250995839,1.0306959706959706,3.3,1.1838095238095236
3.1821465539978817,0.39003663003663,2.984102564102564,1.2515018315018314
3.182275335988379,0.39003663003663,2.984102564102564,1.2515018315018314
3.19039150000026,0.39003663003663,2.984102564102564,1.2515018315018314
3.197556087994599,0.39003663003663,2.984102564102564,1.2515018315018314
3.2030078359966865,0.39003663003663,2.984102564102564,1.2515018315018314
3.203199635987403,0.39003663003663,2.984102564102564,1.2515018315018314
3.2078314159880392,0.39003663003663,2.984102564102564,1.2515018315018314
3.208813338991604,0.39003663003663,2.984102564102564,1.2515018315018314
3.209932341997046,0.39003663003663,2.984102564102564,1.2515018315018314
3.210240314991097,0.39003663003663,2.984102564102564,1.2515018315018314
3.21564997099631,0.39003663003663,2.984102564102564,1.2515018315018314
3.2165483309945557,0.39003663003663,2.984102564102564,1.2515018315018314
3.218247247990803,0.39003663003663,2.984102564102564,1.2515018315018314
3.221505145993433,0.39003663003663,2.984102564102564,1.2515018315018314
3.2230802699923515,0.39003663003663,2.984102564102564,1.2515018315018314
3.22776321398851,0.39003663003663,2.984102564102564,1.2515018315018314
3.227993765991414,0.1378021978021978,0.5141391941391941,0.224029304029304
3.237096679993556,0.1378021978021978,0.5141391941391941,0.224029304029304
3.24434169199958,1.0758241758241758,1.88007326007326,0.7631501831501831
3.2510934269957943,2.1911355311355307,3.3,1.2095970695970695
3.2564434009982506,2.1911355311355307,3.3,1.2095970695970695
3.256826988988905,0.39003663003663,2.996996336996337,1.1104761904761904
3.266168606991414,0.39003663003663,2.996996336996337,1.1104761904761904
3.2714301539963344,0.0,2.0589743589743588,0.8147252747252747
3.27733328899194,0.0,2.0589743589743588,0.8147252747252747
3.285883657998056,0.0,2.0589743589743588,0.8147252747252747
3.2906851789884968,0.0,2.0589743589743588,0.8147252747252747
3.2996890889917267,0.0,2.0589743589743588,0.8147252747252747
3.3049852089898195,0.4786813186813187,3.3,1.3619047619047617
3.308475002995692,0.4786813186813187,3.3,1.3619047619047617
3.318884836990037,0.4786813186813187,3.3,1.3619047619047617
3.324097464996157,0.4786813186813187,3.3,1.3619047619047617
3.3301222049922217,0.4786813186813187,3.3,1.3619047619047617
3.335605358995963,0.4005128205128205,2.233040293040293,0.9098168498168498
3.3447467109945137,0.4005128205128205,2.233040293040293,0.9098168498168498
3.351338290987769,0.0008058608058608059,0.4319413919413919,0.17406593406593407
3.355231877998449,0.0008058608058608059,0.4319413919413919,0.17406593406593407
3.359947207994992,1.6657142857142855,3.3,1.3063003663003663
3.36009893399023,0.06849816849816849,1.6786080586080585,0.5471794871794872
3.3664268869906664,0.06849816849816849,1.6786080586080585,0.5471794871794872
3.3705609289900167,0.06849816849816849,1.6786080586080585,0.5471794871794872
3.3737534879910527,0.06849816849816849,1.6786080586080585,0.5471794871794872
3.37555002499721,0.06849816849816849,1.6786080586080585,0.5471794871794872
3.382343420991674,0.06849816849816849,1.6786080586080585,0.5471794871794872
3.3864788379869424,0.06849816849816849,1.6786080586080585,0.5471794871794872
3.38963437199709,0.06849816849816849,1.6786080586080585,0.5471794871794872
3.3913753169908887,0.06849816849816849,1.6786080586080585,0.5471794871794872
3.398560098998132,0.06849816849816849,1.6786080586080585,0.5471794871794872
3.404209774991614,0.1821245421245421,1.7261538461538461,0.5560439560439561
3.4107611369981896,0.1821245421245421,1.7261538461538461,0.5560439560439561
3.4166728459968,0.0,0.7276923076923076,0.13216117216117215
3.420702363990131,0.0,0.7276923076923076,0.13216117216117215
3.4231110389955575,0.0,0.7276923076923076,0.13216117216117215
3.42324981999991,0.0,0.7276923076923076,0.13216117216117215
3.432794020991423,0.0,0.7276923076923076,0.13216117216117215
3.438526303987601,0.0,0.8324542124542124,0.10798534798534798
3.4387993369891774,0.0,0.8324542124542124,0.10798534798534798
3.4484437849896494,0.0,0.8324542124542124,0.10798534798534798
3.4533619989961153,2.004175824175824,3.1807326007326004,0.929157509157509
3.4592093189858133,1.4142857142857141,2.5513553113553114,1.3884981684981685
3.4669256059860345,1.4142857142857141,2.5513553113553114,1.3884981684981685
3.4718063279869966,1.4142857142857141,2.5513553113553114,1.3884981684981685
3.4796272579988,0.6213186813186813,1.4142857142857141,0.5068864468864469
3.4864011329918867,1.3433699633699634,2.540879120879121,1.373992673992674
3.490683228999842,0.5109157509157509,0.7446153846153846,0.35619047619047617
3.4910434919875115,0.5109157509157509,0.7446153846153846,0.35619047619047617
3.5004571939934976,0.5109157509157509,0.7446153846153846,0.35619047619047617
3.5054507489985554,0.5109157509157509,0.7446153846153846,0.35619047619047617
3.5128716549952514,0.5109157509157509,0.7446153846153846,0.35619047619047617
3.5185773199918913,0.5109157509157509,0.7446153846153846,0.35619047619047617
3.5283194319927134,0.5109157509157509,0.7446153846153846,0.35619047619047617
3.53363471099874,0.5109157509157509,0.7446153846153846,0.35619047619047617
3.535972507990664,1.6431501831501831,3.3,1.361098901098901
3.536149393999949,1.6431501831501831,3.3,1.361098901098901
3.5409949449967826,1.6431501831501831,3.3,1.361098901098901
3.541109207988484,1.6431501831501831,3.3,1.361098901098901
3.549259337989497,1.6431501831501831,3.3,1.361098901098901
3.554214386997046,1.6431501831501831,3.3,1.361098901098901
3.5599695769924438,1.6431501831501831,3.3,1.361098901098901
3.5600914739916334,0.2232234432234432,2.5594139194139194,0.8993406593406592
3.5663678589917254,0.2232234432234432,2.5594139194139194,0.8993406593406592
3.5702690149919363,0.3763369963369963,0.6084249084249085,0.166007326007326
3.5751640279922867,0.3763369963369963,0.6084249084249085,0.166007326007326
3.5853682679880876,2.4473992673992675,3.3,1.672161172161172
3.590962526999647,0.0,0.585054945054945,0.381978021978022
3.5911263579910155,1.332087912087912,3.3,1.5609523809523809
3.5980230949935503,1.332087912087912,3.3,1.5609523809523809
3.601262775991927,0.21677655677655677,1.7253479853479854,0.7156043956043956
3.6029584589996375,0.21677655677655677,1.7253479853479854,0.7156043956043956
3.6074776949972147,0.21677655677655677,1.7253479853479854,0.7156043956043956
3.6086578639951767,0.19663003663003664,0.6035897435897435,0.17567765567765567
3.6089148549945094,0.19663003663003664,0.6035897435897435,0.17567765567765567
3.616547740995884,0.19663003663003664,0.6035897435897435,0.17567765567765567
3.6234330279985443,1.4868131868131869,3.3,1.6286446886446886
3.629429018998053,1.4868131868131869,3.3,1.6286446886446886
3.6322417479968863,1.4868131868131869,3.3,1.6286446886446886
3.635574251995422,1.4868131868131869,3.3,1.6286446886446886
3.635874168990995,1.4868131868131869,3.3,1.6286446886446886
3.642161200987175,1.4868131868131869,3.3,1.6286446886446886
3.6465133229939966,1.4868131868131869,3.3,1.6286446886446886
3.6475296309945406,1.4868131868131869,3.3,1.6286446886446886
3.6485562919988297,1.4868131868131869,3.3,1.6286446886446886
3.649446909999824,1.4868131868131869,3.3,1.6286446886446886
3.650386349996552,1.4868131868131869,3.3,1.6286446886446886
3.6521047499991255,1.4868131868131869,3.3,1.6286446886446886
3.6552362839865964,1.4868131868131869,3.3,1.6286446886446886
3.6568814979982562,1.4868131868131869,3.3,1.6286446886446886
3.661764314994798,1.4868131868131869,3.3,1.6286446886446886
3.6700506189954467,1.4868131868131869,3.3,1.6286446886446886
3.676959409000119,1.4868131868131869,3.3,1.6286446886446886
3.683649696991779,1.4868131868131869,3.3,1.6286446886446886
3.6877563139860285,1.4868131868131869,3.3,1.6286446886446886
3.6908024129952537,0.0,0.8195604395604396,0.2063003663003663
3.69345444899227,0.0,0.8195604395604396,0.2063003663003663
3.6996233239915455,0.0,0.8195604395604396,0.2063003663003663
3.7028827789908974,0.10073260073260072,1.481172161172161,0.6366300366300366
3.703822928990121,0.10073260073260072,1.481172161172161,0.6366300366300366
3.705480988995987,0.40695970695970696,0.47706959706959706,0.27802197802197803
3.7116925089940196,0.40695970695970696,0.47706959706959706,0.27802197802197803
3.716607591995853,0.40695970695970696,0.47706959706959706,0.27802197802197803
3.7204745989874937,0.40695970695970696,0.47706959706959706,0.27802197802197803
3.724391725991154,0.17326007326007326,1.90021978021978,0.90014652014652
3.731908437999664,0.17326007326007326,1.90021978021978,0.90014652014652
3.7368225929967593,0.17326007326007326,1.90021978021978,0.90014652014652
3.7418046679958934,1.0806593406593406,3.3,1.9848351648351645
3.7492559969978174,1.0806593406593406,3.3,1.9848351648351645
3.7548213789996225,1.0806593406593406,3.3,1.9848351648351645
3.755028143990785,1.0806593406593406,3.3,1.9848351648351645
3.764494492992526,1.0806593406593406,3.3,1.9848351648351645
3.7693692949978868,0.09428571428571428,2.0090109890109886,0.9227106227106227
3.7748324619897176,0.09428571428571428,2.0090109890109886,0.9227106227106227
3.7763567629881436,1.3345054945054944,2.5441025641025643,1.9308424908424908
3.7821766629931517,1.3345054945054944,2.5441025641025643,1.9308424908424908
3.7864614769932814,1.3345054945054944,2.5441025641025643,1.9308424908424908
3.7896335249970434,1.3345054945054944,2.5441025641025643,1.9308424908424908
3.7906211179943057,1.3345054945054944,2.5441025641025643,1.9308424908424908
3.7917318669933593,1.3345054945054944,2.5441025641025643,1.9308424908424908
3.79218373799813,1.3345054945054944,2.5441025641025643,1.9308424908424908
3.7981656880001538,1.3345054945054944,2.5441025641025643,1.9308424908424908
3.801522224996006,1.3345054945054944,2.5441025641025643,1.9308424908424908
3.802442894986598,1.3345054945054944,2.5441025641025643,1.9308424908424908
3.803387592997751,1.3345054945054944,2.5441025641025643,1.9308424908424908
3.8050977009988856,1.3345054945054944,2.5441025641025643,1.9308424908424908
3.808215550991008,1.3345054945054944,2.5441025641025643,1.9308424908424908
3.8114755299902754,1.7527472527472527,2.5706959706959704,2.581172161172161
3.811788050996256,1.7527472527472527,2.5706959706959704,2.581172161172161
3.818138105998514,1.7527472527472527,2.5706959706959704,2.581172161172161
3.8237573679944035,1.7527472527472527,2.5706959706959704,2.581172161172161
3.8239923819928663,0.3771428571428571,0.6164835164835165,0.19985347985347984
3.831619286997011,0.3771428571428571,0.6164835164835165,0.19985347985347984
3.8363600939919706,0.3771428571428571,0.6164835164835165,0.19985347985347984
3.836557524991804,1.365128205128205,3.3,1.851062271062271
3.841278201987734,1.365128205128205,3.3,1.851062271062271
3.841479240989429,1.365128205128205,3.3,1.851062271062271
3.848122216993943,2.5715018315018314,3.3,1.7688644688644688
3.8523318499937886,2.5715018315018314,3.3,1.7688644688644688
3.85550839699863,0.5407326007326007,3.3,1.6238095238095236
3.8578317569918,0.5407326007326007,3.3,1.6238095238095236
3.8581220129999565,0.5407326007326007,3.3,1.6238095238095236
3.8652565449883696,0.5407326007326007,3.3,1.6238095238095236
3.869121098992764,0.2683516483516483,0.855018315018315,0.6591941391941392
3.8731309619906824,0.2683516483516483,0.855018315018315,0.6591941391941392
3.879975285992259,0.2683516483516483,0.855018315018315,0.6591941391941392
3.8836265909922076,0.14263736263736262,2.104102564102564,0.9638095238095238
3.889320301997941,0.14263736263736262,2.104102564102564,0.9638095238095238
3.8895561289973557,0.14263736263736262,2.104102564102564,0.9638095238095238
3.897991115998593,0.14263736263736262,2.104102564102564,0.9638095238095238
3.903297914992436,0.14263736263736262,2.104102564102564,0.9638095238095238
3.9064847879926674,0.14263736263736262,2.104102564102564,0.9638095238095238
3.908254832000239,0.14263736263736262,2.104102564102564,0.9638095238095238
3.9125868959963555,0.14263736263736262,2.104102564102564,0.9638095238095238
3.9138300489867106,0.14263736263736262,2.104102564102564,0.9638095238095238
3.91971130798629,0.14263736263736262,2.104102564102564,0.9638095238095238
3.9261210179975023,0.14263736263736262,2.104102564102564,0.9638095238095238
3.930853076992207,1.6238095238095236,2.522344322344322,0.7937728937728937
3.936079159990186,1.6238095238095236,2.522344322344322,0.7937728937728937
3.938534676999552,1.6238095238095236,2.522344322344322,0.7937728937728937
3.938663295994047,1.6238095238095236,2.522344322344322,0.7937728937728937
3.9446160859952215,1.6238095238095236,2.522344322344322,0.7937728937728937
3.9543212129938183,1.6238095238095236,2.522344322344322,0.7937728937728937
3.9634514679928543,0.3158974358974359,1.3643223443223442,0.6632234432234432
3.9676232539932244,0.3158974358974359,1.3643223443223442,0.6632234432234432
3.969308904997888,0.3158974358974359,1.3643223443223442,0.6632234432234432
3.9739010199991753,0.3158974358974359,1.3643223443223442,0.6632234432234432
3.974218226998346,0.3158974358974359,1.3643223443223442,0.6632234432234432
3.982119045991567,0.3158974358974359,1.3643223443223442,0.6632234432234432
3.9867386109981453,0.3046153846153846,2.803589743589743,1.0290842490842491
3.9877420669945423,0.3046153846153846,2.803589743589743,1.0290842490842491
3.988610810993123,0.3046153846153846,2.803589743589743,1.0290842490842491
3.9902428789937403,0.3046153846153846,2.803589743589743,1.0290842490842491
3.9950076029927004,0.3046153846153846,2.803589743589743,1.0290842490842491
4.000699469994288,1.3272527472527473,3.3,1.6246153846153846
4.001571675995365,0.4448351648351648,3.3,1.415091575091575
4.003326280988404,0.4448351648351648,3.3,1.415091575091575
4.0065864239877556,0.4448351648351648,3.3,1.415091575091575
4.007607050996739,0.4448351648351648,3.3,1.415091575091575
4.00856430499698,0.4448351648351648,3.3,1.415091575091575
4.00963125799899,0.4448351648351648,3.3,1.415091575091575
4.010020799993072,0.4448351648351648,3.3,1.415091575091575
4.0164901909884065,0.4448351648351648,3.3,1.415091575091575
4.020401431000209,0.4448351648351648,3.3,1.415091575091575
4.0256026849965565,0.4448351648351648,3.3,1.415091575091575
4.02951673399366,0.4448351648351648,3.3,1.415091575091575
4.033211998990737,0.4504761904761904,3.3,1.6786080586080585
4.037896294990787,1.311135531135531,3.3,1.6334798534798534
4.038027205999242,1.311135531135531,3.3,1.6334798534798534
4.043307860993082,1.311135531135531,3.3,1.6334798534798534
4.046972862997791,0.5657142857142857,1.2982417582417582,0.7873260073260073
4.05108744399331,0.5657142857142857,1.2982417582417582,0.7873260073260073
4.054211479990045,0.5657142857142857,1.2982417582417582,0.7873260073260073
4.05608648499765,0.5657142857142857,1.2982417582417582,0.7873260073260073
4.058766463000211,0.5657142857142857,1.2982417582417582,0.7873260073260073
4.06587895899429,0.5657142857142857,1.2982417582417582,0.7873260073260073
4.070761106995633,0.5657142857142857,1.2982417582417582,0.7873260073260073
4.076438623989816,0.5657142857142857,1.2982417582417582,0.7873260073260073
4.0778782019915525,0.5657142857142857,1.2982417582417582,0.7873260073260073
4.082345307993819,0.07172161172161172,1.0194139194139193,0.40534798534798533
4.083216590996017,2.2717216117216115,3.3,1.133040293040293
4.084830731997499,2.2717216117216115,3.3,1.133040293040293
4.089090358000249,2.2717216117216115,3.3,1.133040293040293
4.089951308997115,2.2717216117216115,3.3,1.133040293040293
4.091700390999904,2.2717216117216115,3.3,1.133040293040293
4.095695307987626,2.2717216117216115,3.3,1.133040293040293
4.098153154991451,2.2717216117216115,3.3,1.133040293040293
4.103585741991992,2.2717216117216115,3.3,1.133040293040293
4.105953284990392,2.2717216117216115,3.3,1.133040293040293
4.106128136991174,2.2717216117216115,3.3,1.133040293040293
4.1124244519887725,2.2717216117216115,3.3,1.133040293040293
4.116357834995142,2.2717216117216115,3.3,1.133040293040293
4.119586040993454,2.2717216117216115,3.3,1.133040293040293
4.1205651219934225,2.2717216117216115,3.3,1.133040293040293
4.121498362990678,2.2717216117216115,3.3,1.133040293040293
4.123124507998,2.2717216117216115,3.3,1.133040293040293
4.128068303994951,2.2717216117216115,3.3,1.133040293040293
4.135874266998144,1.5722344322344322,2.5473260073260073,1.6504029304029304
4.140318325997214,1.5722344322344322,2.5473260073260073,1.6504029304029304
4.141800510988105,1.5722344322344322,2.5473260073260073,1.6504029304029304
4.148565752999275,1.5722344322344322,2.5473260073260073,1.6504029304029304
4.151924966994557,1.5722344322344322,2.5473260073260073,1.6504029304029304
4.15305551799247,1.5722344322344322,2.5473260073260073,1.6504029304029304
4.1533091769961175,1.5722344322344322,2.5473260073260073,1.6504029304029304
4.160087365991785,1.5722344322344322,2.5473260073260073,1.6504029304029304
4.164742711989675,1.5722344322344322,2.5473260073260073,1.6504029304029304
4.169374286997481,2.537655677655678,3.3,1.6705494505494505
4.16960948499036,1.2805128205128204,2.565054945054945,2.1468131868131866
4.174282941996353,1.2805128205128204,2.565054945054945,2.1468131868131866
4.1745078659878345,1.2805128205128204,2.565054945054945,2.1468131868131866
4.1819796259951545,1.2805128205128204,2.565054945054945,2.1468131868131866
4.186571489990456,1.2805128205128204,2.565054945054945,2.1468131868131866
4.186851753998781,1.2805128205128204,2.565054945054945,2.1468131868131866
4.1916286859923275,1.2805128205128204,2.565054945054945,2.1468131868131866
4.191931457986357,1.2805128205128204,2.565054945054945,2.1468131868131866
4.198506538989022,1.2805128205128204,2.565054945054945,2.1468131868131866
4.20239949299139,1.2805128205128204,2.565054945054945,2.1468131868131866
4.2070515519881155,1.2805128205128204,2.565054945054945,2.1468131868131866
4.207210080989171,1.2805128205128204,2.565054945054945,2.1468131868131866
4.214078256991343,1.2805128205128204,2.565054945054945,2.1468131868131866
4.218068946996937,1.2805128205128204,2.565054945054945,2.1468131868131866
4.221870646986645,1.2805128205128204,2.565054945054945,2.1468131868131866
4.225964856988867,0.9565567765567766,1.4739194139194138,0.7389743589743589
4.2311115249904105,0.9565567765567766,1.4739194139194138,0.7389743589743589
4.232242277998012,0.9565567765567766,1.4739194139194138,0.7389743589743589
4.232657472995925,0.9565567765567766,1.4739194139194138,0.7389743589743589
4.237631058989791,0.9565567765567766,1.4739194139194138,0.7389743589743589
4.241868584998883,0.9565567765567766,1.4739194139194138,0.7389743589743589
4.244598658988252,0.1418315018315018,2.233846153846154,0.8364835164835164
4.2493596539861755,0.1418315018315018,2.233846153846154,0.8364835164835164
4.254750228996272,0.02095238095238095,0.8316483516483516,0.2063003663003663
4.257045392994769,0.02095238095238095,0.8316483516483516,0.2063003663003663
4.2572997939860215,0.02095238095238095,0.8316483516483516,0.2063003663003663
4.267961988996831,0.02095238095238095,0.8316483516483516,0.2063003663003663
4.276359565992607,0.02095238095238095,0.8316483516483516,0.2063003663003663
4.282931524998276,0.02095238095238095,0.8316483516483516,0.2063003663003663
4.286886098998366,1.942124542124542,3.067106227106227,1.1652747252747253
4.290750086991466,1.942124542124542,3.067106227106227,1.1652747252747253
4.297559834987624,1.942124542124542,3.067106227106227,1.1652747252747253
4.301837381994119,1.942124542124542,3.067106227106227,1.1652747252747253
4.303538233987638,1.942124542124542,3.067106227106227,1.1652747252747253
4.306641348986886,1.942124542124542,3.067106227106227,1.1652747252747253
4.309311177989002,1.942124542124542,3.067106227106227,1.1652747252747253
4.314898943994194,0.3908424908424908,3.026007326007326,1.174139194139194
4.315026335985749,0.3908424908424908,3.026007326007326,1.174139194139194
4.319883612988633,0.3908424908424908,3.026007326007326,1.174139194139194
4.32728647699696,0.3908424908424908,3.026007326007326,1.174139194139194
4.332739671997842,0.3908424908424908,3.026007326007326,1.174139194139194
4.333001819992205,0.3158974358974359,1.4569963369963368,0.5818315018315018
4.339240467990749,0.3158974358974359,1.4569963369963368,0.5818315018315018
4.344287319996511,1.1459340659340658,2.561831501831502,2.1049084249084244
4.347415333992103,1.1459340659340658,2.561831501831502,2.1049084249084244
4.3482916109933285,1.1459340659340658,2.561831501831502,2.1049084249084244
4.34989075899648,1.1459340659340658,2.561831501831502,2.1049084249084244
4.3539242039987585,1.1459340659340658,2.561831501831502,2.1049084249084244
4.356469721999019,1.1459340659340658,2.561831501831502,2.1049084249084244
4.363874165996094,1.1459340659340658,2.561831501831502,2.1049084249084244
4.367922215998988,1.1459340659340658,2.561831501831502,2.1049084249084244
4.371059888988384,1.6931135531135528,2.573919413919414,2.6617582417582417
4.373507289987174,1.6931135531135528,2.573919413919414,2.6617582417582417
4.384118211994064,1.6931135531135528,2.573919413919414,2.6617582417582417
4.393556988987257,1.6931135531135528,2.573919413919414,2.6617582417582417
4.404636977997143,1.7164835164835166,2.577948717948718,2.799560439560439
4.414896782996948,1.7164835164835166,2.577948717948718,2.799560439560439
4.424873031995958,1.7164835164835166,2.577948717948718,2.799560439560439
4.4351194060000125,1.7164835164835166,2.577948717948718,2.799560439560439
4.444708081995486,1.7164835164835166,2.577948717948718,2.799560439560439
4.453640561987413,0.33684981684981685,3.175897435897436,1.4384615384615385
4.4609741819876945,0.523003663003663,3.3,1.373992673992674
4.467875559988897,0.523003663003663,3.3,1.373992673992674
4.471789830990019,0.008864468864468863,0.9920146520146519,0.26109890109890105
4.477476404994377,0.008864468864468863,0.9920146520146519,0.26109890109890105
4.477592764000292,0.008864468864468863,0.9920146520146519,0.26109890109890105
4.482399392989464,0.008864468864468863,0.9920146520146519,0.26109890109890105
4.482648872988648,0.008864468864468863,0.9920146520146519,0.26109890109890105
4.487798581991228,0.008864468864468863,0.9920146520146519,0.26109890109890105
4.490543509993586,0.27076923076923076,0.5673260073260072,0.30622710622710625
4.496337362987106,1.9235897435897436,3.171868131868132,1.3667399267399267
4.502812860999256,0.5052747252747253,3.3,1.838974358974359
4.506849508994492,0.5052747252747253,3.3,1.838974358974359
4.510473174988874,0.13054945054945052,0.39567765567765567,0.21999999999999997
4.51063970499672,0.49802197802197795,3.3,1.3957509157509156
4.516505020990735,0.49802197802197795,3.3,1.3957509157509156
4.5210830829892075,0.49802197802197795,3.3,1.3957509157509156
4.521230052996543,0.49802197802197795,3.3,1.3957509157509156
4.526508330993238,0.49802197802197795,3.3,1.3957509157509156
4.532458319998113,0.0008058608058608059,0.7655677655677655,0.4254945054945055
4.537134796992177,0.0008058608058608059,0.7655677655677655,0.4254945054945055
4.543898338990402,1.1185347985347984,2.548937728937729,1.9461538461538461
4.548058708998724,2.3716483516483513,3.3,2.0154578754578756
4.548961747990688,2.3716483516483513,3.3,2.0154578754578756
4.549859148988617,2.3716483516483513,3.3,2.0154578754578756
4.551495127991075,2.3716483516483513,3.3,2.0154578754578756
4.55530477699358,2.3716483516483513,3.3,2.0154578754578756
4.5604664189886535,2.3716483516483513,3.3,2.0154578754578756
4.564290288995835,2.3716483516483513,3.3,2.0154578754578756
4.568281455998658,0.19018315018315018,0.9533333333333331,0.26673992673992675
4.572291562988539,0.08703296703296703,0.6736996336996337,0.356996336996337
4.576687806998962,0.5133333333333333,3.3,1.5794871794871794
4.576917565995245,0.5133333333333333,3.3,1.5794871794871794
4.582606080992264,0.5133333333333333,3.3,1.5794871794871794
4.583465043993783,0.5133333333333333,3.3,1.5794871794871794
4.585063687991351,0.5133333333333333,3.3,1.5794871794871794
4.588812294998206,0.5133333333333333,3.3,1.5794871794871794
4.595258708999609,0.5608791208791208,3.3,1.5528937728937728
4.598488535993965,0.5608791208791208,3.3,1.5528937728937728
4.599445465995814,0.5608791208791208,3.3,1.5528937728937728
4.601357050996739,0.5608791208791208,3.3,1.5528937728937728
4.6036770079954294,0.747032967032967,1.3756043956043955,0.9847619047619047
4.603807430990855,0.747032967032967,1.3756043956043955,0.9847619047619047
4.609589738000068,0.747032967032967,1.3756043956043955,0.9847619047619047
4.609781959996326,0.747032967032967,1.3756043956043955,0.9847619047619047
4.615927011996973,0.747032967032967,1.3756043956043955,0.9847619047619047
4.619773503000033,0.747032967032967,1.3756043956043955,0.9847619047619047
4.624943071990856,0.747032967032967,1.3756043956043955,0.9847619047619047
4.628579763986636,0.747032967032967,1.3756043956043955,0.9847619047619047
4.635681092986488,0.747032967032967,1.3756043956043955,0.9847619047619047
4.6402737889875425,0.747032967032967,1.3756043956043955,0.9847619047619047
4.640568709990475,0.747032967032967,1.3756043956043955,0.9847619047619047
4.647831593989395,0.747032967032967,1.3756043956043955,0.9847619047619047
4.652290850994177,0.747032967032967,1.3756043956043955,0.9847619047619047
4.652562115996261,0.747032967032967,1.3756043956043955,0.9847619047619047
4.658014134998666,1.5408058608058608,3.3,1.8365567765567765
4.659323497995501,0.09025641025641025,1.5464468864468863,0.850989010989011
4.659669756991207,0.09025641025641025,1.5464468864468863,0.850989010989011
4.666374452994205,0.09025641025641025,1.5464468864468863,0.850989010989011
4.67138910999347,0.09025641025641025,1.5464468864468863,0.850989010989011
4.680384613995557,0.09025641025641025,1.5464468864468863,0.850989010989011
4.686800994997611,0.09025641025641025,1.5464468864468863,0.850989010989011
4.690869189988007,0.09025641025641025,1.5464468864468863,0.850989010989011
4.698200332990382,1.1064468864468864,2.56989010989011,2.523150183150183
4.702306568986387,1.779340659340659,3.3,1.6238095238095236
4.705397802987136,1.779340659340659,3.3,1.6238095238095236
4.707967881986406,1.779340659340659,3.3,1.6238095238095236
4.714109179985826,1.779340659340659,3.3,1.6238095238095236
4.717578380994382,0.3658608058608058,1.9477655677655676,0.7615384615384615
4.717797677993076,0.3658608058608058,1.9477655677655676,0.7615384615384615
4.722569914985797,0.3658608058608058,1.9477655677655676,0.7615384615384615
4.722762660996523,0.36666666666666664,0.8606593406593407,0.7937728937728937
4.731418069990468,0.36666666666666664,0.8606593406593407,0.7937728937728937
4.736044648991083,0.0,0.9839560439560439,0.2643223443223443
4.7363226159941405,0.0,0.9839560439560439,0.2643223443223443
4.741844158997992,0.0,0.9839560439560439,0.2643223443223443
4.743310220990679,2.8745054945054944,3.3,1.846227106227106
4.74891326398938,2.8745054945054944,3.3,1.846227106227106
4.749154624994844,0.8179487179487179,2.5602197802197804,2.2169230769230768
4.7539304079982685,0.8179487179487179,2.5602197802197804,2.2169230769230768
4.7540820539870765,0.9565567765567766,2.046080586080586,0.9557509157509158
4.759221361993696,1.0903296703296703,2.5521611721611723,2.00014652014652
4.7630904849938815,1.0903296703296703,2.5521611721611723,2.00014652014652
4.766286292986479,1.0903296703296703,2.5521611721611723,2.00014652014652
4.767884125991259,1.0903296703296703,2.5521611721611723,2.00014652014652
4.771919805993093,1.0903296703296703,2.5521611721611723,2.00014652014652
4.775004838986206,1.0903296703296703,2.5521611721611723,2.00014652014652
4.7775370859890245,1.0903296703296703,2.5521611721611723,2.00014652014652
4.783605050994083,0.6197069597069597,3.3,1.4666666666666666
4.787449551993632,0.38278388278388276,3.032454212454212,0.9025641025641026
4.792165154998656,0.38278388278388276,3.032454212454212,0.9025641025641026
4.798097535996931,0.38278388278388276,3.032454212454212,0.9025641025641026
4.8027118839963805,0.38278388278388276,3.032454212454212,0.9025641025641026
4.803667770000175,0.38278388278388276,3.032454212454212,0.9025641025641026
4.8045823849970475,0.38278388278388276,3.032454212454212,0.9025641025641026
4.806191930998466,0.38278388278388276,3.032454212454212,0.9025641025641026
4.811344187997747,0.38278388278388276,3.032454212454212,0.9025641025641026
4.815397680999013,0.3432967032967033,2.1717948717948716,0.8832234432234431
4.816929893990164,0.3432967032967033,2.1717948717948716,0.8832234432234431
4.823329968989128,0.7567032967032966,3.3,1.6173626373626373
4.8312719329987885,0.7567032967032966,3.3,1.6173626373626373
4.836032128994702,0.7567032967032966,3.3,1.6173626373626373
4.841195118991891,0.7567032967032966,3.3,1.6173626373626373
4.846062958997209,0.7567032967032966,3.3,1.6173626373626373
4.849730174988508,0.7567032967032966,3.3,1.6173626373626373
4.85459607699886,0.7567032967032966,3.3,1.6173626373626373
4.862662193991127,2.5473260073260073,2.548937728937729,1.9348717948717948
4.866147000997444,2.5473260073260073,2.548937728937729,1.9348717948717948
4.866311740988749,2.5473260073260073,2.548937728937729,1.9348717948717948
4.871982810989721,2.5473260073260073,2.548937728937729,1.9348717948717948
4.872348138989764,2.5473260073260073,2.548937728937729,1.9348717948717948
4.879789730999619,2.5473260073260073,2.548937728937729,1.9348717948717948
4.883090325994999,2.5473260073260073,2.548937728937729,1.9348717948717948
4.883999711993965,2.5473260073260073,2.548937728937729,1.9348717948717948
4.887046223986545,2.5473260073260073,2.548937728937729,1.9348717948717948
4.888009650996537,2.5473260073260073,2.548937728937729,1.9348717948717948
4.888917687989306,1.818827838827839,2.565054945054945,2.2838095238095235
4.890557905993774,1.818827838827839,2.565054945054945,2.2838095238095235
4.898567627999,1.818827838827839,2.565054945054945,2.2838095238095235
4.9030959800002165,0.26996336996336995,2.772967032967033,1.0806593406593406
4.903216753999004,0.26996336996336995,2.772967032967033,1.0806593406593406
4.90904500799661,0.26996336996336995,2.772967032967033,1.0806593406593406
4.919968071990297,0.26996336996336995,2.772967032967033,1.0806593406593406
4.930107788997702,2.149230769230769,3.3,1.3191941391941393
4.937908385996707,2.149230769230769,3.3,1.3191941391941393
4.944434150995221,2.149230769230769,3.3,1.3191941391941393
4.950091613995028,2.149230769230769,3.3,1.3191941391941393
4.954657256996143,0.6446886446886446,1.51018315018315,0.6704761904761904
4.954942484997446,0.6446886446886446,1.51018315018315,0.6704761904761904
4.964622525993036,0.6446886446886446,1.51018315018315,0.6704761904761904
4.970048332994338,0.6446886446886446,1.51018315018315,0.6704761904761904
4.970971523987828,0.6446886446886446,1.51018315018315,0.6704761904761904
4.972738985990873,0.6446886446886446,1.51018315018315,0.6704761904761904
4.9770660499925725,0.6446886446886446,1.51018315018315,0.6704761904761904
4.9782704429962905,0.6446886446886446,1.51018315018315,0.6704761904761904
4.978520441989531,0.6446886446886446,1.51018315018315,0.6704761904761904
4.983230382989859,0.6446886446886446,1.51018315018315,0.6704761904761904
4.988760550986626,0.21032967032967032,2.1105494505494504,0.8469597069597068
4.990402040988556,0.21032967032967032,2.1105494505494504,0.8469597069597068
4.996551778996945,0.21032967032967032,2.1105494505494504,0.8469597069597068
4.999959167995257,0.21032967032967032,2.1105494505494504,0.8469597069597068
5.000830656994367,0.21032967032967032,2.1105494505494504,0.8469597069597068
5.001761896986864,0.21032967032967032,2.1105494505494504,0.8469597069597068
5.003357149995281,0.21032967032967032,2.1105494505494504,0.8469597069597068
5.0072656639968045,0.21032967032967032,2.1105494505494504,0.8469597069597068
5.014088842988713,0.21032967032967032,2.1105494505494504,0.8469597069597068
5.018022513992037,0.21032967032967032,2.1105494505494504,0.8469597069597068
5.021906279987888,0.21032967032967032,2.1105494505494504,0.8469597069597068
5.028667718986981,0.21032967032967032,2.1105494505494504,0.8469597069597068
5.033089395990828,0.21032967032967032,2.1105494505494504,0.8469597069597068
5.0333190109959105,1.5198534798534797,3.3,1.4005860805860806
5.038855261998833,1.5198534798534797,3.3,1.4005860805860806
5.039710840996122,0.28930402930402926,2.8745054945054944,1.025054945054945
5.041901725999196,0.28930402930402926,2.8745054945054944,1.025054945054945
5.043391460989369,1.955018315018315,3.175091575091575,1.2724542124542124
5.0481898579892,2.2636630036630034,3.3,1.5907692307692307
5.052113008991,2.2636630036630034,3.3,1.5907692307692307
5.056010133994278,2.2636630036630034,3.3,1.5907692307692307
5.061177221999969,2.2636630036630034,3.3,1.5907692307692307
5.06378983099421,2.2636630036630034,3.3,1.5907692307692307
5.067670634991373,2.2636630036630034,3.3,1.5907692307692307
5.071711911994498,2.2636630036630034,3.3,1.5907692307692307
5.074751516993274,0.5479853479853479,3.3,1.3933333333333333
5.077075135995983,1.498095238095238,3.3,1.7414652014652015
5.077265946994885,1.498095238095238,3.3,1.7414652014652015
5.082515001995489,1.498095238095238,3.3,1.7414652014652015
5.08589503300027,0.04673992673992674,2.8366300366300368,1.099194139194139
5.086751670998638,0.04673992673992674,2.8366300366300368,1.099194139194139
5.088312855994445,0.04673992673992674,2.8366300366300368,1.099194139194139
5.093062035986804,0.04673992673992674,2.8366300366300368,1.099194139194139
5.0985599599953275,0.04673992673992674,2.8366300366300368,1.099194139194139
5.100282073995913,0.04673992673992674,2.8366300366300368,1.099194139194139
5.104408606988727,0.04673992673992674,2.8366300366300368,1.099194139194139
5.107430670992471,0.04673992673992674,2.8366300366300368,1.099194139194139
5.109769280999899,0.04673992673992674,2.8366300366300368,1.099194139194139
5.110042736996547,0.04673992673992674,2.8366300366300368,1.099194139194139
5.116034749997198,0.04673992673992674,2.8366300366300368,1.099194139194139
5.122854152999935,1.8284981684981685,2.83985347985348,1.3465934065934064
5.129757455986692,1.8284981684981685,2.83985347985348,1.3465934065934064
5.134216405989719,1.8284981684981685,2.83985347985348,1.3465934065934064
5.13434608199168,1.8284981684981685,2.83985347985348,1.3465934065934064
5.144894719996955,1.8284981684981685,2.83985347985348,1.3465934065934064
5.154989487986313,0.24095238095238095,2.291062271062271,0.8896703296703296
5.163154954992933,1.0355311355311354,2.5561904761904763,2.1024908424908424
5.16798837899114,1.0355311355311354,2.5561904761904763,2.1024908424908424
5.175083977999748,1.0355311355311354,2.5561904761904763,2.1024908424908424
5.179072197992355,1.0355311355311354,2.5561904761904763,2.1024908424908424
5.183497739999439,1.0355311355311354,2.5561904761904763,2.1024908424908424
5.184608332987409,1.0355311355311354,2.5561904761904763,2.1024908424908424
5.184798453992698,1.0355311355311354,2.5561904761904763,2.1024908424908424
5.190128489994095,1.0355311355311354,2.5561904761904763,2.1024908424908424
5.1919947959977435,1.0355311355311354,2.5561904761904763,2.1024908424908424
5.194571165993693,1.0355311355311354,2.5561904761904763,2.1024908424908424
5.194737691999762,1.0355311355311354,2.5561904761904763,2.1024908424908424
5.20006021799054,1.0355311355311354,2.5561904761904763,2.1024908424908424
5.201882052992005,1.0355311355311354,2.5561904761904763,2.1024908424908424
5.204603025995311,2.0589743589743588,3.09047619047619,1.2837362637362637
5.208907966996776,2.0589743589743588,3.09047619047619,1.2837362637362637
5.21056794199103,1.3756043956043955,2.565054945054945,2.713333333333333
5.214386923995335,1.3756043956043955,2.565054945054945,2.713333333333333
5.219264657993335,1.3756043956043955,2.565054945054945,2.713333333333333
5.22596146298747,1.3756043956043955,2.565054945054945,2.713333333333333
5.231680069991853,1.3756043956043955,2.565054945054945,2.713333333333333
5.238146178991883,0.4722344322344322,3.3,1.6399267399267399
5.242369984989637,0.7816849816849816,3.3,1.9171428571428573
5.2441082049917895,1.0887179487179486,1.8204395604395605,0.8542124542124543
5.247279055998661,0.0821978021978022,0.5769963369963369,0.21194139194139192
5.250617850993876,0.0821978021978022,1.1104761904761904,0.3642490842490842
5.250787630997365,0.0821978021978022,1.1104761904761904,0.3642490842490842
5.259684117991128,0.0821978021978022,1.1104761904761904,0.3642490842490842
5.266119260995765,0.0821978021978022,1.1104761904761904,0.3642490842490842
5.271925239998382,0.0821978021978022,1.1104761904761904,0.3642490842490842
5.282079636992421,2.6029304029304026,3.3,1.9171428571428573
5.290694263996556,0.5358974358974359,3.171062271062271,1.7052014652014653
5.298392050986877,0.5358974358974359,3.171062271062271,1.7052014652014653
5.30396058599581,0.5358974358974359,3.171062271062271,1.7052014652014653
5.304080302987131,0.5358974358974359,3.171062271062271,1.7052014652014653
5.309546063988819,0.5358974358974359,3.171062271062271,1.7052014652014653
5.310421232992667,0.5358974358974359,3.171062271062271,1.7052014652014653
5.311370024995995,0.5358974358974359,3.171062271062271,1.7052014652014653
5.313017961991136,0.5358974358974359,3.171062271062271,1.7052014652014653
5.320624681990012,0.5358974358974359,3.171062271062271,1.7052014652014653
5.328102679995936,1.4513553113553113,2.548937728937729,2.374871794871795
5.333327413987718,1.4513553113553113,2.548937728937729,2.374871794871795
5.334903682989534,1.4513553113553113,2.548937728937729,2.374871794871795
5.338265592989046,1.4513553113553113,2.548937728937729,2.374871794871795
5.339143459990737,0.5624908424908425,3.3,1.9985347985347983
5.340748581991647,0.5624908424908425,3.3,1.9985347985347983
5.344705049996264,0.5624908424908425,3.3,1.9985347985347983
5.348613965994446,0.5624908424908425,3.3,1.9985347985347983
5.3524879469914595,0.2909157509157509,1.967106227106227,0.7462271062271062
5.356509172997903,0.2909157509157509,1.967106227106227,0.7462271062271062
5.3617030669993255,1.2797069597069597,2.5521611721611723,2.328131868131868
5.36326707698754,1.2797069597069597,2.5521611721611723,2.328131868131868
5.369299427999067,1.2797069597069597,2.5521611721611723,2.328131868131868
5.3724600249988725,1.2797069597069597,2.5521611721611723,2.328131868131868
5.37413666700013,1.2797069597069597,2.5521611721611723,2.328131868131868
5.377359825986787,1.0242490842490841,2.541684981684982,2.327326007326007
5.3790954379946925,0.42065934065934063,3.3,1.904249084249084
5.382280970996362,0.0,1.1112820512820514,0.6648351648351648
5.383854297993821,0.0,1.1112820512820514,0.6648351648351648
5.390073743998073,0.0,1.1112820512820514,0.6648351648351648
5.395444202993531,0.0,1.1112820512820514,0.6648351648351648
5.397067938989494,0.0,1.1112820512820514,0.6648351648351648
5.401619080992532,0.0,1.1112820512820514,0.6648351648351648
5.413779295995482,0.0,1.1112820512820514,0.6648351648351648
5.423253995992127,0.0,1.1112820512820514,0.6648351648351648
5.432638005993795,0.0,1.1112820512820514,0.6648351648351648
5.4382814149867045,1.6399267399267399,2.5666666666666664,3.15978021978022
5.438554487991496,0.6567765567765567,3.3,2.1306959706959705
5.445741684990935,0.6567765567765567,3.3,2.1306959706959705
5.44954923298792,0.6567765567765567,3.3,2.1306959706959705
5.453838764995453,0.6567765567765567,3.3,2.1306959706959705
5.455718027995317,0.6567765567765567,3.3,2.1306959706959705
5.459699070997885,0.6567765567765567,3.3,2.1306959706959705
5.463782570994226,0.6567765567765567,3.3,2.1306959706959705
5.464816528998199,0.6567765567765567,3.3,2.1306959706959705
5.465102376998402,0.6567765567765567,3.3,2.1306959706959705
5.469636841997271,0.6567765567765567,3.3,2.1306959706959705
5.4714951169880806,0.6567765567765567,3.3,2.1306959706959705
5.474296462998609,0.6567765567765567,3.3,2.1306959706959705
5.4807692149915965,2.437728937728938,3.3,2.238681318681319
5.484371794998879,0.3731135531135531,2.6649816849816848,1.473113553113553
5.484532390997629,0.3731135531135531,2.6649816849816848,1.473113553113553
5.489226704987232,0.3731135531135531,2.6649816849816848,1.473113553113553
5.489419070989243,0.3731135531135531,2.6649816849816848,1.473113553113553
5.497455490985885,0.3731135531135531,2.6649816849816848,1.473113553113553
5.501378518994898,0.3731135531135531,2.6649816849816848,1.473113553113553
5.506185133999679,0.3731135531135531,2.6649816849816848,1.473113553113553
5.5141581509960815,0.3731135531135531,2.6649816849816848,1.473113553113553
5.518681284986087,0.3731135531135531,2.6649816849816848,1.473113553113553
5.519673716989928,0.3731135531135531,2.6649816849816848,1.473113553113553
5.520621008996386,0.3731135531135531,2.6649816849816848,1.473113553113553
5.522195252997335,0.3731135531135531,2.6649816849816848,1.473113553113553
5.528450850993977,0.3731135531135531,2.6649816849816848,1.473113553113553
5.533444398999563,0.3731135531135531,2.6649816849816848,1.473113553113553
5.536068047993467,0.3731135531135531,2.6649816849816848,1.473113553113553
5.540957337987493,0.3731135531135531,2.6649816849816848,1.473113553113553
5.548888643999817,0.3731135531135531,2.6649816849816848,1.473113553113553
5.553569727999275,0.3731135531135531,2.6649816849816848,1.473113553113553
5.553768963989569,0.3731135531135531,2.6649816849816848,1.473113553113553
5.560103095995146,0.3731135531135531,2.6649816849816848,1.473113553113553
5.564520072992309,0.03948717948717949,2.158095238095238,1.1298168498168497
5.564791055992828,0.03948717948717949,2.158095238095238,1.1298168498168497
5.570116783987032,0.007252747252747252,0.9912087912087911,0.21194139194139192
5.57349225699727,1.003296703296703,2.556996336996337,3.12029304029304
5.573776645993348,1.003296703296703,2.556996336996337,3.12029304029304
5.581974855987937,1.003296703296703,2.556996336996337,3.12029304029304
5.585903340994264,1.003296703296703,2.556996336996337,3.12029304029304
5.590075561995036,1.003296703296703,2.556996336996337,3.12029304029304
5.593090476992074,1.6713553113553112,2.5706959706959704,3.2750183150183148
5.596016747993417,1.6713553113553112,2.5706959706959704,3.2750183150183148
5.5981738889968256,1.307106227106227,3.3,2.169377289377289
5.598425062999013,1.307106227106227,3.3,2.169377289377289
5.60347973399621,1.307106227106227,3.3,2.169377289377289
5.607713658988359,1.307106227106227,3.3,2.169377289377289
5.609999128995696,1.307106227106227,3.3,2.169377289377289
5.610230993988807,1.307106227106227,3.3,2.169377289377289
5.616581331996713,1.307106227106227,3.3,2.169377289377289
5.6205171609908575,1.307106227106227,3.3,2.169377289377289
5.626304552992224,0.0,2.294285714285714,1.2756776556776557
5.626408315991284,0.0,2.294285714285714,1.2756776556776557
5.635725194995757,0.0,2.294285714285714,1.2756776556776557
5.64372243899561,0.0,2.294285714285714,1.2756776556776557
5.6491361369990045,0.0,2.294285714285714,1.2756776556776557
5.649408038996626,0.0,2.294285714285714,1.2756776556776557
5.65480577199196,0.0,2.294285714285714,1.2756776556776557
5.656427816997166,0.0,2.294285714285714,1.2756776556776557
5.664405095987604,0.0,2.294285714285714,1.2756776556776557
5.670093972992618,1.6165567765567763,2.4264468864468864,1.2176556776556777
5.674466051990748,1.6165567765567763,2.4264468864468864,1.2176556776556777
5.676346593987546,1.7495238095238095,3.3,2.1830769230769227
5.679571012995439,1.7495238095238095,3.3,2.1830769230769227
5.680880526997498,1.7495238095238095,3.3,2.1830769230769227
5.686436625997885,1.7495238095238095,3.3,2.1830769230769227
5.6873060959915165,1.7495238095238095,3.3,2.1830769230769227
5.688977026991779,1.7495238095238095,3.3,2.1830769230769227
5.692497764990549,1.7495238095238095,3.3,2.1830769230769227
5.7010226949932985,0.4964102564102564,3.3,1.9211721611721613
5.706620745986584,1.3578754578754577,3.3,2.162124542124542
5.707749096996849,1.3578754578754577,3.3,2.162124542124542
5.708043298000121,1.3578754578754577,3.3,2.162124542124542
5.71439912499045,1.3578754578754577,3.3,2.162124542124542
5.719616962000146,0.8034432234432234,2.556996336996337,2.6424175824175826
5.721780576990568,0.8034432234432234,2.556996336996337,2.6424175824175826
5.722078619990498,0.8034432234432234,2.556996336996337,2.6424175824175826
5.72905526899558,0.8034432234432234,2.556996336996337,2.6424175824175826
5.733102309997776,0.8034432234432234,2.556996336996337,2.6424175824175826
5.734827839987702,0.8034432234432234,2.556996336996337,2.6424175824175826
5.7387039519962855,0.8034432234432234,2.556996336996337,2.6424175824175826
5.7475778729858575,0.8034432234432234,2.556996336996337,2.6424175824175826
5.754727368999738,0.8034432234432234,2.556996336996337,2.6424175824175826
5.76193609899201,0.8034432234432234,2.556996336996337,2.6424175824175826
5.765306312998291,0.8034432234432234,2.556996336996337,2.6424175824175826
5.765583186992444,0.8034432234432234,2.556996336996337,2.6424175824175826
5.770203852996929,0.8034432234432234,2.556996336996337,2.6424175824175826
5.77047339398996,0.8034432234432234,2.556996336996337,2.6424175824175826
5.7754479169962,0.8034432234432234,2.556996336996337,2.6424175824175826
5.7821031479979865,0.8034432234432234,2.556996336996337,2.6424175824175826
5.786105449995375,0.8034432234432234,2.556996336996337,2.6424175824175826
5.789532442999189,0.15472527472527473,0.697069597069597,0.2747985347985348
5.789888078987133,0.15472527472527473,0.697069597069597,0.2747985347985348
5.798267654987285,0.3852014652014652,2.2394871794871793,1.0806593406593406
5.803284474997781,0.3852014652014652,2.2394871794871793,1.0806593406593406
5.808976185988286,0.3852014652014652,2.2394871794871793,1.0806593406593406
5.809354664990678,0.3852014652014652,2.2394871794871793,1.0806593406593406
5.815972743992461,0.3852014652014652,2.2394871794871793,1.0806593406593406
5.820297390993801,0.3852014652014652,2.2394871794871793,1.0806593406593406
5.822885968998889,0.3852014652014652,2.2394871794871793,1.0806593406593406
5.82996716699563,0.3852014652014652,2.2394871794871793,1.0806593406593406
5.8340578459901735,0.13054945054945052,0.8356776556776556,0.1571428571428571
5.837101755998447,0.13054945054945052,0.8356776556776556,0.1571428571428571
5.840192363990354,0.13054945054945052,0.8356776556776556,0.1571428571428571
5.842056202993263,0.13054945054945052,0.8356776556776556,0.1571428571428571
5.847035067999968,0.13054945054945052,0.8356776556776556,0.1571428571428571
5.849204344995087,0.13054945054945052,0.8356776556776556,0.1571428571428571
5.849470741988625,0.13054945054945052,0.8356776556776556,0.1571428571428571
5.8558558299992,0.13054945054945052,0.8356776556776556,0.1571428571428571
5.862638561986387,0.13054945054945052,0.8356776556776556,0.1571428571428571
5.865924919999088,2.9389743589743587,3.3,1.4924542124542124
5.866855347994715,2.9389743589743587,3.3,1.4924542124542124
5.867868952991557,2.9389743589743587,3.3,1.4924542124542124
5.868809983992833,2.9389743589743587,3.3,1.4924542124542124
5.870461662998423,2.9389743589743587,3.3,1.4924542124542124
5.874640191992512,2.9389743589743587,3.3,1.4924542124542124
5.8779906969866715,2.9389743589743587,3.3,1.4924542124542124
5.883985408989247,2.9389743589743587,3.3,1.4924542124542124
5.888437471992802,2.2523809523809524,3.3,1.1475457875457875
5.8887491559871705,2.2523809523809524,3.3,1.1475457875457875
5.895432192992303,2.2523809523809524,3.3,1.1475457875457875
5.89869773099781,2.2523809523809524,3.3,1.1475457875457875
5.899624867990497,2.2523809523809524,3.3,1.1475457875457875
5.9013988739898195,2.2523809523809524,3.3,1.1475457875457875
5.904503675992601,2.2523809523809524,3.3,1.1475457875457875
5.906820364994928,2.2523809523809524,3.3,1.1475457875457875
5.907035120995715,2.2523809523809524,3.3,1.1475457875457875
5.915292681995197,2.2523809523809524,3.3,1.1475457875457875
5.919962616986595,2.2523809523809524,3.3,1.1475457875457875
5.92018633299449,2.2523809523809524,3.3,1.1475457875457875
5.925074754995876,2.2523809523809524,3.3,1.1475457875457875
5.932802070994512,0.004029304029304029,1.0049084249084248,0.2191941391941392
5.937104157987051,0.8356776556776556,1.7277655677655677,0.5528205128205127
5.938148012995953,0.8356776556776556,1.7277655677655677,0.5528205128205127
5.938467249987298,0.8356776556776556,1.7277655677655677,0.5528205128205127
5.946641336995526,0.8356776556776556,1.7277655677655677,0.5528205128205127
5.9506845789874205,0.8356776556776556,1.7277655677655677,0.5528205128205127
5.953740975994151,0.8356776556776556,1.7277655677655677,0.5528205128205127
5.956177007989027,0.8356776556776556,1.7277655677655677,0.5528205128205127
5.9648624249966815,0.5383150183150183,3.3,1.087106227106227
5.969962069997564,0.2756043956043956,2.880952380952381,0.8026373626373626
5.974114594995626,0.2756043956043956,2.880952380952381,0.8026373626373626
5.980031764993328,0.2756043956043956,2.880952380952381,0.8026373626373626
5.98326554299274,0.8235897435897436,3.3,1.2506959706959706
5.984450017000199,0.8235897435897436,3.3,1.2506959706959706
5.984763231987017,0.8235897435897436,3.3,1.2506959706959706
5.98980219499208,0.8235897435897436,3.3,1.2506959706959706
5.997655026993016,0.5939194139194138,3.3,0.9484981684981684
6.002050858995062,0.5939194139194138,3.3,0.9484981684981684
6.003658466986963,0.5939194139194138,3.3,0.9484981684981684
6.007684943993809,0.5939194139194138,3.3,0.9484981684981684
6.012678438986768,0.5939194139194138,3.3,0.9484981684981684
6.015419072995428,0.5939194139194138,3.3,0.9484981684981684
6.0194566959980875,0.5939194139194138,3.3,0.9484981684981684
6.023013275000267,0.5939194139194138,3.3,0.9484981684981684
6.032613295988995,1.7237362637362637,2.7125274725274724,0.8026373626373626
6.038255692998064,1.7237362637362637,2.7125274725274724,0.8026373626373626
6.038506015989697,1.7237362637362637,2.7125274725274724,0.8026373626373626
6.045891652989667,1.7237362637362637,2.7125274725274724,0.8026373626373626
6.049826883987407,1.1136996336996337,1.668131868131868,0.7228571428571429
6.053840736989514,0.5624908424908425,3.3,0.8598534798534798
6.058597372990334,0.5624908424908425,3.3,0.8598534798534798
6.065474670991534,0.5624908424908425,3.3,0.8598534798534798
6.069446252993657,0.5624908424908425,3.3,0.8598534798534798
6.0733613789925585,0.5624908424908425,3.3,0.8598534798534798
6.078772027991363,2.605347985347985,3.3,1.5536996336996336
6.079097941998043,2.605347985347985,3.3,1.5536996336996336
6.083874810996349,2.605347985347985,3.3,1.5536996336996336
6.089761251991149,2.8229304029304028,3.3,1.2692307692307692
6.097467357991263,2.8229304029304028,3.3,1.2692307692307692
6.102217331994325,2.8229304029304028,3.3,1.2692307692307692
6.108810078992974,0.26754578754578756,1.796263736263736,0.27882783882783885
6.113095728986082,0.26754578754578756,1.796263736263736,0.27882783882783885
6.114193374000024,2.673040293040293,3.3,1.7785347985347983
6.114575069994316,2.673040293040293,3.3,1.7785347985347983
6.119356646988308,2.673040293040293,3.3,1.7785347985347983
6.12642810199759,2.673040293040293,3.3,1.7785347985347983
6.130724006987293,0.46014652014652013,0.51010989010989,0.2498168498168498
6.131258644993068,0.46014652014652013,0.51010989010989,0.2498168498168498
6.138803350986564,0.46014652014652013,0.51010989010989,0.2498168498168498
6.147225433989661,0.46014652014652013,0.51010989010989,0.2498168498168498
6.151351552995038,0.3755311355311355,0.46498168498168496,0.1652014652014652
6.15515159998904,0.3755311355311355,0.46498168498168496,0.1652014652014652
6.162161117987125,0.3755311355311355,0.46498168498168496,0.1652014652014652
6.165617827995447,0.3755311355311355,0.46498168498168496,0.1652014652014652
6.16591175099893,0.3755311355311355,0.46498168498168496,0.1652014652014652
6.171399987986661,0.3755311355311355,0.46498168498168496,0.1652014652014652
6.172440622991417,0.3755311355311355,0.46498168498168496,0.1652014652014652
6.173312037994037,0.3755311355311355,0.46498168498168496,0.1652014652014652
6.176067165986751,0.3755311355311355,0.46498168498168496,0.1652014652014652
6.180612910990021,0.3755311355311355,0.46498168498168496,0.1652014652014652
6.180829823992099,0.3223443223443223,2.4014652014652014,0.7881318681318681
6.186128180997912,0.3223443223443223,2.4014652014652014,0.7881318681318681
6.1884363729914185,0.3223443223443223,2.4014652014652014,0.7881318681318681
6.188709571986692,0.3223443223443223,2.4014652014652014,0.7881318681318681
6.196201033992111,0.3223443223443223,2.4014652014652014,0.7881318681318681
6.201154370995937,1.942124542124542,3.3,1.340952380952381
6.205410434995429,1.942124542124542,3.3,1.340952380952381
6.207070600998122,1.942124542124542,3.3,1.340952380952381
6.210256580990972,1.942124542124542,3.3,1.340952380952381
6.211917236985755,1.581904761904762,2.5666666666666664,1.656043956043956
6.215837927986286,0.5302564102564102,1.4094505494505494,0.5197802197802197
6.2198580839904025,0.5302564102564102,1.4094505494505494,0.5197802197802197
6.223639889998594,0.5302564102564102,1.4094505494505494,0.5197802197802197
6.228372737998143,0.5302564102564102,1.4094505494505494,0.5197802197802197
6.228514174988959,0.5302564102564102,1.4094505494505494,0.5197802197802197
6.2340629549871664,0.5302564102564102,1.4094505494505494,0.5197802197802197
6.234413291997043,0.5302564102564102,1.4094505494505494,0.5197802197802197
6.239853719991515,0.5302564102564102,1.4094505494505494,0.5197802197802197
6.241579519992229,0.5302564102564102,1.4094505494505494,0.5197802197802197
6.245432841998991,0.5302564102564102,1.4094505494505494,0.5197802197802197
6.249272065993864,0.5302564102564102,1.4094505494505494,0.5197802197802197
6.257364912991761,0.5302564102564102,1.4094505494505494,0.5197802197802197
6.26424752199091,0.5302564102564102,1.4094505494505494,0.5197802197802197
6.268659740992007,0.6172893772893773,0.3344322344322344,0.30542124542124544
6.270340901988675,0.6172893772893773,0.3344322344322344,0.30542124542124544
6.274326877988642,0.6172893772893773,0.3344322344322344,0.30542124542124544
6.279768766995403,1.058901098901099,3.3,1.4908424908424909
6.279980366991367,0.27318681318681315,2.8583882783882784,1.2015384615384614
6.285053961997619,0.27318681318681315,2.8583882783882784,1.2015384615384614
6.288307652997901,0.23208791208791207,0.7704029304029304,0.3618315018315018
6.289812399991206,0.0,0.7776556776556776,0.3336263736263736
6.294824885990238,0.0,0.7776556776556776,0.3336263736263736
6.298950317999697,0.0,0.7776556776556776,0.3336263736263736
6.3015469669917366,0.0,0.7776556776556776,0.3336263736263736
6.306371346989181,0.0,0.7776556776556776,0.3336263736263736
6.312406768993242,0.0,0.7776556776556776,0.3336263736263736
6.31664450399694,2.432893772893773,2.5634432234432234,1.9461538461538461
6.318394353991607,2.432893772893773,2.5634432234432234,1.9461538461538461
6.321973270998569,2.432893772893773,2.5634432234432234,1.9461538461538461
6.3281685919937445,1.556117216117216,2.01062271062271,0.7204395604395604
6.332661502994597,0.5939194139194138,0.28446886446886444,0.2747985347985348
6.333640103999642,2.8293772893772893,3.3,1.668131868131868
6.334618937995401,2.8293772893772893,3.3,1.668131868131868
6.335497887994279,2.8293772893772893,3.3,1.668131868131868
6.337099819997093,2.8293772893772893,3.3,1.668131868131868
6.340358148998348,0.31186813186813184,3.3,1.6649084249084247
6.342044035991421,0.2909157509157509,1.5126007326007325,0.4198534798534798
6.345379682999919,3.0936996336996336,2.589230769230769,1.220879120879121
6.3462608179979725,3.0936996336996336,2.589230769230769,1.220879120879121
6.3478895489970455,3.0936996336996336,2.589230769230769,1.220879120879121
6.351712992996909,3.0936996336996336,2.589230769230769,1.220879120879121
6.356396871997276,3.0936996336996336,2.589230769230769,1.220879120879121
6.3566189679986564,0.971062271062271,2.545714285714286,1.7954578754578752
6.361505465989467,0.971062271062271,2.545714285714286,1.7954578754578752
6.366451587993652,0.971062271062271,2.545714285714286,1.7954578754578752
6.37118612199265,0.971062271062271,2.545714285714286,1.7954578754578752
6.376846457991633,0.971062271062271,2.545714285714286,1.7954578754578752
6.37705774299684,0.971062271062271,2.545714285714286,1.7954578754578752
6.381815625994932,0.971062271062271,2.545714285714286,1.7954578754578752
6.382020188990282,0.971062271062271,2.545714285714286,1.7954578754578752
6.386632880996331,0.971062271062271,2.545714285714286,1.7954578754578752
6.3868849919963395,1.0290842490842491,0.10637362637362638,0.12732600732600732
6.392160977993626,1.0290842490842491,0.10637362637362638,0.12732600732600732
6.395268242995371,1.0290842490842491,0.10637362637362638,0.12732600732600732
6.396914602999459,0.9444688644688644,3.3,1.2603663003663002
6.400549235986546,0.9444688644688644,3.3,1.2603663003663002
6.400705672989716,0.9444688644688644,3.3,1.2603663003663002
6.405097550989012,0.9444688644688644,3.3,1.2603663003663002
6.40622282899858,0.9444688644688644,3.3,1.2603663003663002
6.406538561990601,0.9444688644688644,3.3,1.2603663003663002
6.411337764991913,0.9444688644688644,3.3,1.2603663003663002
6.417214121989673,0.9444688644688644,3.3,1.2603663003663002
6.42259442199429,0.9444688644688644,3.3,1.2603663003663002
6.424438578993431,0.0,1.4932600732600732,0.4810989010989011
6.427597035988583,0.0,1.4932600732600732,0.4810989010989011
6.429245953986538,0.0,1.4932600732600732,0.4810989010989011
6.432557027990697,1.353040293040293,2.5553846153846154,2.033992673992674
6.433471657990594,1.353040293040293,2.5553846153846154,2.033992673992674
6.434582808986306,1.353040293040293,2.5553846153846154,2.033992673992674
6.434874355996726,1.353040293040293,2.5553846153846154,2.033992673992674
6.4397246159933275,1.353040293040293,2.5553846153846154,2.033992673992674
6.445291222989908,1.353040293040293,2.5553846153846154,2.033992673992674
6.445571782998741,0.7389743589743589,0.14505494505494507,0.5141391941391941
6.4509932399960235,0.3997069597069597,0.8840293040293039,0.4126007326007326
6.452716813990264,1.4803663003663003,3.3,1.3973626373626373
6.455866925985902,1.4803663003663003,3.3,1.3973626373626373
6.45748166499834,1.4803663003663003,3.3,1.3973626373626373
6.461451539988047,1.4803663003663003,3.3,1.3973626373626373
6.464654531999258,1.4803663003663003,3.3,1.3973626373626373
6.466280558990547,1.4803663003663003,3.3,1.3973626373626373
6.470260839996627,1.4803663003663003,3.3,1.3973626373626373
6.4735246549971635,0.8453479853479853,3.3,2.1798534798534797
6.474594160987181,0.8453479853479853,3.3,2.1798534798534797
6.474879439992947,0.8453479853479853,3.3,2.1798534798534797
6.479751996987034,0.8453479853479853,3.3,2.1798534798534797
6.484672260994557,0.9041758241758242,2.0444688644688642,1.0597069597069597
6.490151239995612,0.8574358974358974,1.0863003663003663,0.5890842490842491
6.491786026992486,0.8574358974358974,1.0863003663003663,0.5890842490842491
6.496567402995424,2.664175824175824,2.8503296703296703,0.7067399267399267
6.496767960998113,2.664175824175824,2.8503296703296703,0.7067399267399267
6.501593251989107,2.664175824175824,2.8503296703296703,0.7067399267399267
6.501768252986949,2.664175824175824,2.8503296703296703,0.7067399267399267
6.506694052994135,2.664175824175824,2.8503296703296703,0.7067399267399267
6.5122987129871035,0.7381684981684982,0.49802197802197795,0.2087179487179487
6.513256329999422,0.7381684981684982,0.49802197802197795,0.2087179487179487
6.5153888819913846,0.7381684981684982,0.49802197802197795,0.2087179487179487
6.51572188299906,1.1161172161172161,2.545714285714286,2.141172161172161
6.5201179339928785,1.1161172161172161,2.545714285714286,2.141172161172161
6.5216825409879675,1.1161172161172161,2.545714285714286,2.141172161172161
6.528613587986911,1.1161172161172161,2.545714285714286,2.141172161172161
6.532554618999711,0.0547985347985348,1.070989010989011,0.5197802197802197
6.536424402991543,0.0547985347985348,1.070989010989011,0.5197802197802197
6.541139748995192,0.0547985347985348,1.070989010989011,0.5197802197802197
6.5468875669903355,0.0547985347985348,1.070989010989011,0.5197802197802197
6.5471681539929705,0.0547985347985348,1.070989010989011,0.5197802197802197
6.5523161469900515,0.0547985347985348,1.070989010989011,0.5197802197802197
6.556592235996504,0.0547985347985348,1.070989010989011,0.5197802197802197
6.55888214398874,0.0547985347985348,1.070989010989011,0.5197802197802197
6.559159437994822,0.0547985347985348,1.070989010989011,0.5197802197802197
6.56430793099571,0.0547985347985348,1.070989010989011,0.5197802197802197
6.5683771669864655,0.0547985347985348,1.070989010989011,0.5197802197802197
6.571720728999935,0.8147252747252747,1.195091575091575,0.22725274725274724
6.572602846994414,0.8147252747252747,1.195091575091575,0.22725274725274724
6.574270745986723,0.8147252747252747,1.195091575091575,0.22725274725274724
6.578229823993752,0.8147252747252747,1.195091575091575,0.22725274725274724
6.581574355994235,0.8147252747252747,1.195091575091575,0.22725274725274724
6.582502773992019,0.8147252747252747,1.195091575091575,0.22725274725274724
6.5841677819989854,0.8147252747252747,1.195091575091575,0.22725274725274724
6.587538063991815,0.8147252747252747,1.195091575091575,0.22725274725274724
6.587840488995425,0.8147252747252747,1.195091575091575,0.22725274725274724
6.592648851990816,0.8147252747252747,1.195091575091575,0.22725274725274724
6.592894468994928,0.8147252747252747,1.195091575091575,0.22725274725274724
6.597739530989202,0.8147252747252747,1.195091575091575,0.22725274725274724
6.60325305898732,0.8147252747252747,1.195091575091575,0.22725274725274724
6.605099543987308,0.8147252747252747,1.195091575091575,0.22725274725274724
6.6074535339867,0.8147252747252747,1.195091575091575,0.22725274725274724
6.607666863987106,0.8147252747252747,1.195091575091575,0.22725274725274724
6.612321830994915,0.8147252747252747,1.195091575091575,0.22725274725274724
6.61254218799877,1.3707692307692307,2.5586080586080584,2.347472527472527
6.618274605993065,1.3707692307692307,2.5586080586080584,2.347472527472527
6.618424118991243,1.3707692307692307,2.5586080586080584,2.347472527472527
6.623927944994648,1.3707692307692307,2.5586080586080584,2.347472527472527
6.626531294998131,2.2136996336996333,3.04051282051282,0.6326007326007326
6.631308687996352,0.07575091575091575,0.4287179487179487,0.28285714285714286
6.636140133996378,0.07575091575091575,0.4287179487179487,0.28285714285714286
6.641196085998672,1.598021978021978,2.548937728937729,1.5609523809523809
6.644586227994296,1.598021978021978,2.548937728937729,1.5609523809523809
6.645522780992906,1.598021978021978,2.548937728937729,1.5609523809523809
6.647432801997638,1.598021978021978,2.548937728937729,1.5609523809523809
6.649109346995829,0.0,0.6575824175824176,0.2594871794871795
6.653043891987181,0.0,0.6575824175824176,0.2594871794871795
6.6570097869989695,3.037289377289377,3.3,0.9904029304029303
6.661917744990205,1.3345054945054944,2.5432967032967033,1.091135531135531
6.666899799995008,1.3345054945054944,2.5432967032967033,1.091135531135531
6.670731441990938,1.3345054945054944,2.5432967032967033,1.091135531135531
6.67522582798847,0.6535531135531135,2.942197802197802,0.7494505494505495
6.675574126988067,1.224102564102564,2.5505494505494504,1.1378754578754577
6.68017192199477,1.224102564102564,2.5505494505494504,1.1378754578754577
6.680473493994214,1.224102564102564,2.5505494505494504,1.1378754578754577
6.685078398993937,1.224102564102564,2.5505494505494504,1.1378754578754577
6.685333518995321,1.224102564102564,2.5505494505494504,1.1378754578754577
6.690783935991931,1.224102564102564,2.5505494505494504,1.1378754578754577
6.692365142997005,1.8494505494505493,2.5594139194139194,1.2772893772893772
6.696188367990544,3.1194871794871792,3.3,0.8517948717948718
6.700735202990472,1.012161172161172,3.3,0.7704029304029304
6.701076248995378,1.012161172161172,3.3,0.7704029304029304
6.7058395909989486,1.012161172161172,3.3,0.7704029304029304
6.705998058998375,1.012161172161172,3.3,0.7704029304029304
6.710949467989849,1.012161172161172,3.3,0.7704029304029304
6.715880717994878,1.012161172161172,3.3,0.7704029304029304
6.72081073699519,1.3917216117216116,2.8696703296703294,0.6857875457875457
6.720920348991058,1.3917216117216116,2.8696703296703294,0.6857875457875457
6.726445729989791,1.3917216117216116,2.8696703296703294,0.6857875457875457
6.726742508995812,1.3917216117216116,2.8696703296703294,0.6857875457875457
6.731440135990852,1.3917216117216116,2.8696703296703294,0.6857875457875457
6.731607876994531,0.49238095238095236,1.767252747252747,0.4424175824175824
6.7369771049998235,0.49238095238095236,1.767252747252747,0.4424175824175824
6.738536223987467,0.49238095238095236,1.767252747252747,0.4424175824175824
6.742326032996061,0.49238095238095236,1.767252747252747,0.4424175824175824
6.747663150992594,0.49238095238095236,1.767252747252747,0.4424175824175824
6.750728906990844,0.49238095238095236,1.767252747252747,0.4424175824175824
6.753089211997576,0.49238095238095236,1.767252747252747,0.4424175824175824
6.7534105429949705,0.49238095238095236,1.767252747252747,0.4424175824175824
6.758901333989343,0.49238095238095236,1.767252747252747,0.4424175824175824
6.75981840500026,0.49238095238095236,1.767252747252747,0.4424175824175824
6.761439249996329,0.49238095238095236,1.767252747252747,0.4424175824175824
6.765297851990908,0.49238095238095236,1.767252747252747,0.4424175824175824
6.76978691999102,0.49238095238095236,1.767252747252747,0.4424175824175824
6.770704139998998,0.49238095238095236,1.767252747252747,0.4424175824175824
6.772258908997173,0.49238095238095236,1.767252747252747,0.4424175824175824
6.776092650994542,0.49238095238095236,1.767252747252747,0.4424175824175824
6.779880701986258,0.49238095238095236,1.767252747252747,0.4424175824175824
6.784343262988841,0.49238095238095236,1.767252747252747,0.4424175824175824
6.786042345993337,0.49238095238095236,1.767252747252747,0.4424175824175824
6.789084705000278,0.49238095238095236,1.767252747252747,0.4424175824175824
6.791378884998267,0.49238095238095236,1.767252747252747,0.4424175824175824
6.791659772992716,0.49238095238095236,1.767252747252747,0.4424175824175824
6.797168744989904,0.49238095238095236,1.767252747252747,0.4424175824175824
6.798884830990573,0.49238095238095236,1.767252747252747,0.4424175824175824
6.80190443599713,0.49238095238095236,1.767252747252747,0.4424175824175824
6.804230102992733,0.112014652014652,1.290989010989011,0.28446886446886444
6.804599852999672,3.2129670329670326,3.3,0.9557509157509158
6.809536643995671,3.2129670329670326,3.3,0.9557509157509158
6.813822563999565,3.2129670329670326,3.3,0.9557509157509158
6.816120904986747,3.2129670329670326,3.3,0.9557509157509158
6.81641827999556,1.1161172161172161,3.3,0.5616849816849817
6.821077248998336,1.1161172161172161,3.3,0.5616849816849817
6.821308082988253,1.1161172161172161,3.3,0.5616849816849817
6.826746553997509,1.1161172161172161,3.3,0.5616849816849817
6.8276806979993125,1.1161172161172161,3.3,0.5616849816849817
6.829389646998607,1.1161172161172161,3.3,0.5616849816849817
6.8325357509893365,1.1161172161172161,3.3,0.5616849816849817
6.834150955997757,1.1161172161172161,3.3,0.5616849816849817
6.838013676999253,1.1161172161172161,3.3,0.5616849816849817
6.842710878991056,1.1161172161172161,3.3,0.5616849816849817
6.842926342986175,1.1161172161172161,3.3,0.5616849816849817
6.847618932995829,1.1161172161172161,3.3,0.5616849816849817
6.847847705997992,1.1161172161172161,3.3,0.5616849816849817
6.852736234999611,1.1161172161172161,3.3,0.5616849816849817
6.85754659298982,0.8558241758241758,1.1652747252747253,0.4851282051282051
6.863174740996328,1.162051282051282,3.3,0.4722344322344322
6.863478174986085,2.274945054945055,2.4586813186813186,0.5786080586080585
6.868541265997919,2.274945054945055,2.4586813186813186,0.5786080586080585
6.872746949986322,2.274945054945055,2.4586813186813186,0.5786080586080585
6.875318221995258,2.274945054945055,2.4586813186813186,0.5786080586080585
6.880664083990268,2.274945054945055,2.4586813186813186,0.5786080586080585
6.8833572329895105,2.274945054945055,2.4586813186813186,0.5786080586080585
6.887679927996942,2.274945054945055,2.4586813186813186,0.5786080586080585
6.887991469993722,2.274945054945055,2.4586813186813186,0.5786080586080585
6.893431161995977,2.274945054945055,2.4586813186813186,0.5786080586080585
6.895334644999821,3.0936996336996336,3.3,0.9041758241758242
6.898115621996112,3.0936996336996336,3.3,0.9041758241758242
6.901736249987152,0.4496703296703296,3.3,0.7776556776556776
6.908280403993558,0.0419047619047619,1.244249084249084,0.17164835164835165
6.91282465698896,0.0419047619047619,1.244249084249084,0.17164835164835165
6.913162617987837,0.664029304029304,3.3,0.5657142857142857
6.918793523000204,0.664029304029304,3.3,0.5657142857142857
6.919777887989767,0.664029304029304,3.3,0.5657142857142857
6.920063427998684,0.664029304029304,3.3,0.5657142857142857
6.925650865989155,0.664029304029304,3.3,0.5657142857142857
6.925930644996697,0.664029304029304,3.3,0.5657142857142857
6.931480903993361,0.664029304029304,3.3,0.5657142857142857
6.933542464990751,0.585054945054945,3.3,0.8791941391941391
6.934604617999867,2.1524542124542125,2.5295970695970698,0.7712087912087912
6.9348903949867235,1.2152380952380952,3.3,0.6213186813186813
6.94062050699722,1.2152380952380952,3.3,0.6213186813186813
6.940842657990288,1.2152380952380952,3.3,0.6213186813186813
6.946443590990384,1.2152380952380952,3.3,0.6213186813186813
6.946731373987859,0.9895970695970695,0.4182417582417582,0.18534798534798536
6.952150824989076,0.9895970695970695,0.4182417582417582,0.18534798534798536
6.954006918997038,0.9895970695970695,0.4182417582417582,0.18534798534798536
6.956709597987356,0.9895970695970695,0.4182417582417582,0.18534798534798536
6.96205859699694,0.9895970695970695,0.4182417582417582,0.18534798534798536
6.963870457999292,0.9895970695970695,0.4182417582417582,0.18534798534798536
6.967251786991255,0.9895970695970695,0.4182417582417582,0.18534798534798536
