time,emg1,emg2,emg3
0.018505751009797677,1.2893772893772892,2.548937728937729,0.5084981684981685
0.018746124012977816,0.755091575091575,3.0115018315018314,0.2111355311355311
0.02883880300214514,0.755091575091575,3.0115018315018314,0.2111355311355311
0.03577685401251074,0.755091575091575,3.0115018315018314,0.2111355311355311
0.04224811101448722,0.755091575091575,3.0115018315018314,0.2111355311355311
0.046190782013582066,0.755091575091575,3.0115018315018314,0.2111355311355311
0.04996223500347696,0.755091575091575,3.0115018315018314,0.2111355311355311
0.05547056101204362,0.755091575091575,3.0115018315018314,0.2111355311355311
0.056568558007711545,0.755091575091575,3.0115018315018314,0.2111355311355311
0.05679953000799287,0.755091575091575,3.0115018315018314,0.2111355311355311
0.0621368430001894,0.755091575091575,3.0115018315018314,0.2111355311355311
0.06473870201443788,0.5665201465201465,3.3,0.4351648351648352
0.0699615940102376,0.5665201465201465,3.3,0.4351648351648352
0.0726698010112159,0.5665201465201465,3.3,0.4351648351648352
0.07896506901306566,0.5665201465201465,3.3,0.4351648351648352
0.082553063009982,0.6084249084249085,3.3,0.40534798534798533
0.08270038101181854,1.9687179487179485,3.3,0.3658608058608058
0.08790343700093217,1.9687179487179485,3.3,0.3658608058608058
0.09048123800312169,1.9687179487179485,3.3,0.3658608058608058
0.09646679701108951,1.9687179487179485,3.3,0.3658608058608058
0.10114480600168463,1.9687179487179485,3.3,0.3658608058608058
0.10129521200724412,1.9687179487179485,3.3,0.3658608058608058
0.10593292600242421,1.9687179487179485,3.3,0.3658608058608058
0.10622256201168057,1.9687179487179485,3.3,0.3658608058608058
0.11097331601195037,1.9687179487179485,3.3,0.3658608058608058
0.11114590000943281,1.9687179487179485,3.3,0.3658608058608058
0.11569663100817706,1.9687179487179485,3.3,0.3658608058608058
0.11653262600884773,0.5592673992673992,1.8413919413919413,0.26996336996336995
0.11818765800853726,0.5592673992673992,1.8413919413919413,0.26996336996336995
0.1219799570098985,0.5592673992673992,1.8413919413919413,0.26996336996336995
0.1274115550040733,0.5592673992673992,1.8413919413919413,0.26996336996336995
0.1291375550063094,0.21999999999999997,2.071868131868132,0.1652014652014652
0.13409976501134224,0.21999999999999997,2.071868131868132,0.1652014652014652
0.1387184700142825,0.3755311355311355,0.4045421245421245,0.09347985347985348
0.13882407000346575,0.3755311355311355,0.4045421245421245,0.09347985347985348
0.1433516450051684,0.3755311355311355,0.4045421245421245,0.09347985347985348
0.14369561000785325,0.3755311355311355,0.4045421245421245,0.09347985347985348
0.14886569800728466,0.3755311355311355,0.4045421245421245,0.09347985347985348
0.15266222700302023,0.005641025641025641,1.4545787545787545,0.13619047619047617
0.1571603630000027,0.005641025641025641,1.4545787545787545,0.13619047619047617
0.15800615001353435,1.6495970695970694,3.3,0.3465201465201465
0.15962017900892533,1.6495970695970694,3.3,0.3465201465201465
0.163430396001786,1.6495970695970694,3.3,0.3465201465201465
0.16867913500755094,1.3812454212454213,3.3,0.10637362637362638
0.17166033000103198,1.3812454212454213,3.3,0.10637362637362638
0.17411677101335954,1.3812454212454213,3.3,0.10637362637362638
0.17949552700156346,0.1386080586080586,0.7002930402930403,0.08864468864468865
0.18188999600533862,0.1386080586080586,0.7002930402930403,0.08864468864468865
0.18205946500529535,0.1386080586080586,0.7002930402930403,0.08864468864468865
0.18761546300083864,0.1386080586080586,0.7002930402930403,0.08864468864468865
0.1878567740059225,0.1386080586080586,0.7002930402930403,0.08864468864468865
0.193144516000757,0.1386080586080586,0.7002930402930403,0.08864468864468865
0.1953600070119137,0.1386080586080586,0.7002930402930403,0.08864468864468865
0.1956063750112662,0.1386080586080586,0.7002930402930403,0.08864468864468865
0.2039875720074633,0.1386080586080586,0.7002930402930403,0.08864468864468865
0.21344888700696174,2.332967032967033,2.5586080586080584,0.3618315018315018
0.22407236200524494,0.0,1.3216117216117216,0.15794871794871795
0.2297582300088834,0.0,1.3216117216117216,0.15794871794871795
0.22997425100766122,0.06366300366300366,0.9468864468864467,0.3545787545787546
0.23539247100416105,0.06366300366300366,0.9468864468864467,0.3545787545787546
0.23786718100018334,1.6939194139194136,2.9905494505494503,0.5528205128205127
0.24386566701286938,0.46739926739926735,3.111428571428571,0.34087912087912087
0.2483758450107416,0.46739926739926735,3.111428571428571,0.34087912087912087
0.24932245700620115,0.3553846153846154,2.526373626373626,0.1571428571428571
0.25030503400193993,0.3553846153846154,2.526373626373626,0.1571428571428571
0.25126778600679245,0.3553846153846154,2.526373626373626,0.1571428571428571
0.2537879270093981,0.3553846153846154,2.526373626373626,0.1571428571428571
0.26197612201212905,0.3473260073260073,0.3618315018315018,0.1087912087912088
0.26710874801210593,1.3965567765567766,2.553772893772894,0.3642490842490842
0.2702574610011652,1.3965567765567766,2.553772893772894,0.3642490842490842
0.2735210290120449,1.3965567765567766,2.553772893772894,0.3642490842490842
0.2738792880118126,2.2088644688644687,3.3,0.6156776556776556
0.2782690900057787,2.2088644688644687,3.3,0.6156776556776556
0.2792138600052567,0.0136996336996337,0.7776556776556776,0.08622710622710622
0.2801369090011576,0.0136996336996337,0.7776556776556776,0.08622710622710622
0.2811716680007521,0.0136996336996337,0.7776556776556776,0.08622710622710622
0.28212125100253616,0.0136996336996337,0.7776556776556776,0.08622710622710622
0.28375090900226496,0.0136996336996337,0.7776556776556776,0.08622710622710622
0.28757156401115935,0.0136996336996337,0.7776556776556776,0.08622710622710622
0.2948401650064625,0.0136996336996337,0.7776556776556776,0.08622710622710622
0.30059138100477867,0.5528205128205127,0.23208791208791207,0.13054945054945052
0.3094605100050103,0.5649084249084249,3.3,0.3489377289377289
0.31590461201267317,1.6399267399267399,3.3,0.3199267399267399
0.32171915100479964,1.6399267399267399,3.3,0.3199267399267399
0.33116183000674937,1.6399267399267399,3.3,0.3199267399267399
0.33735294100188185,1.6399267399267399,3.3,0.3199267399267399
0.34468783900956623,1.950989010989011,2.557802197802198,0.32073260073260074
0.34942456500721164,2.294285714285714,3.3,0.7244688644688644
0.35940742000821047,0.1821245421245421,1.9501831501831501,0.15069597069597068
0.3661467900092248,0.1821245421245421,1.9501831501831501,0.15069597069597068
0.36933880900323857,0.1821245421245421,1.9501831501831501,0.15069597069597068
0.3709463570121443,0.3602197802197802,1.0806593406593406,0.4496703296703296
0.37843228501151316,0.3602197802197802,1.0806593406593406,0.4496703296703296
0.384206239003106,0.49802197802197795,0.20146520146520144,0.12007326007326008
0.39037127600749955,0.7986080586080586,3.3,0.28849816849816845
0.3972431630099891,0.7986080586080586,3.3,0.28849816849816845
0.4020964100054698,2.1879120879120877,3.3,0.6583882783882784
0.4107262950128643,2.1879120879120877,3.3,0.6583882783882784
0.4179477260040585,2.1879120879120877,3.3,0.6583882783882784
0.4246466850017896,2.1879120879120877,3.3,0.6583882783882784
0.42944671300938353,2.1879120879120877,3.3,0.6583882783882784
0.4337728770042304,2.1879120879120877,3.3,0.6583882783882784
0.4346748680109158,2.1879120879120877,3.3,0.6583882783882784
0.43651284200313967,2.1879120879120877,3.3,0.6583882783882784
0.4390907320048427,2.1879120879120877,3.3,0.6583882783882784
0.4472480690019438,2.258827838827839,2.553772893772894,0.3352380952380952
0.45381938200443983,2.258827838827839,2.553772893772894,0.3352380952380952
0.4599709680041997,2.258827838827839,2.553772893772894,0.3352380952380952
0.46601701401232276,2.258827838827839,2.553772893772894,0.3352380952380952
0.4714275270089274,2.258827838827839,2.553772893772894,0.3352380952380952
0.47176686400780454,2.258827838827839,2.553772893772894,0.3352380952380952
0.47802236801362596,0.4198534798534798,0.3352380952380952,0.12893772893772892
0.4822281690139789,0.4198534798534798,0.3352380952380952,0.12893772893772892
0.48399894101021346,1.66007326007326,3.3,0.29655677655677654
0.4871023570012767,1.66007326007326,3.3,0.29655677655677654
0.49044302600668743,1.66007326007326,3.3,0.29655677655677654
0.4906715310062282,1.66007326007326,3.3,0.29655677655677654
0.4970007180090761,1.66007326007326,3.3,0.29655677655677654
0.5010528780112509,1.66007326007326,3.3,0.29655677655677654
0.5042421580001246,1.66007326007326,3.3,0.29655677655677654
0.5087963430123636,1.66007326007326,3.3,0.29655677655677654
0.5139612380007748,1.66007326007326,3.3,0.29655677655677654
0.5164054590131855,0.7349450549450549,1.3175824175824176,0.4786813186813187
0.5166137990017887,0.7349450549450549,1.3175824175824176,0.4786813186813187
0.522708586009685,0.7349450549450549,1.3175824175824176,0.4786813186813187
0.5302889380109264,0.7349450549450549,1.3175824175824176,0.4786813186813187
0.5350415770080872,0.7349450549450549,1.3175824175824176,0.4786813186813187
0.5351981240091845,0.7349450549450549,1.3175824175824176,0.4786813186813187
0.5425804930127924,0.7349450549450549,1.3175824175824176,0.4786813186813187
0.5459357490035472,0.7349450549450549,1.3175824175824176,0.4786813186813187
0.5468452680070186,0.7349450549450549,1.3175824175824176,0.4786813186813187
0.5484977820015047,0.7349450549450549,1.3175824175824176,0.4786813186813187
0.5523456430091755,0.7349450549450549,1.3175824175824176,0.4786813186813187
0.5566294030140853,0.7349450549450549,1.3175824175824176,0.4786813186813187
0.5597387220041128,0.7349450549450549,1.3175824175824176,0.4786813186813187
0.5607993840094423,0.7349450549450549,1.3175824175824176,0.4786813186813187
0.5616868050128687,0.7349450549450549,1.3175824175824176,0.4786813186813187
0.5633559960115235,0.7349450549450549,1.3175824175824176,0.4786813186813187
0.5673909550096141,0.7349450549450549,1.3175824175824176,0.4786813186813187
0.571324339005514,0.4448351648351648,2.8712820512820514,0.17567765567765567
0.5767768090008758,0.4448351648351648,2.8712820512820514,0.17567765567765567
0.5783901930117281,0.0,0.7397802197802198,0.12893772893772892
0.5817230950051453,0.5326739926739926,3.3,0.3723076923076923
0.5820420200034278,0.5326739926739926,3.3,0.3723076923076923
0.5872677470033523,1.7301831501831502,3.3,0.2796336996336996
0.5909862530097598,1.7301831501831502,3.3,0.2796336996336996
0.5981246950104833,1.7301831501831502,3.3,0.2796336996336996
0.6027976730110822,1.7301831501831502,3.3,0.2796336996336996
0.6031089120078832,1.7301831501831502,3.3,0.2796336996336996
0.6091512110142503,1.7301831501831502,3.3,0.2796336996336996
0.6144104810082354,1.7301831501831502,3.3,0.2796336996336996
0.6153399210015777,1.7301831501831502,3.3,0.2796336996336996
0.6169229730003281,1.7301831501831502,3.3,0.2796336996336996
0.621807768009603,1.7301831501831502,3.3,0.2796336996336996
0.6282612190116197,1.7301831501831502,3.3,0.2796336996336996
0.6322739790048217,0.2216117216117216,1.9010256410256408,0.166007326007326
0.6377086760039674,0.2216117216117216,1.9010256410256408,0.166007326007326
0.6403068390063709,0.2216117216117216,1.9010256410256408,0.166007326007326
0.6477086880040588,0.2216117216117216,1.9010256410256408,0.166007326007326
0.6521720080054365,0.2216117216117216,1.9010256410256408,0.166007326007326
0.652468119005789,0.2216117216117216,1.9010256410256408,0.166007326007326
0.6597763470053906,0.2216117216117216,1.9010256410256408,0.166007326007326
0.6645456000114791,0.2216117216117216,1.9010256410256408,0.166007326007326
0.6698525290121324,0.2216117216117216,1.9010256410256408,0.166007326007326
0.6732685650058556,0.2216117216117216,1.9010256410256408,0.166007326007326
0.6734903210017364,0.2216117216117216,1.9010256410256408,0.166007326007326
0.6795850090129534,0.2216117216117216,1.9010256410256408,0.166007326007326
0.686226104007801,0.5238095238095237,3.3,0.3263736263736263
0.6908332940074615,0.5238095238095237,3.3,0.3263736263736263
0.6911991840024712,0.5238095238095237,3.3,0.3263736263736263
0.695561346001341,1.884102564102564,3.3,0.8147252747252747
0.6971636850066716,1.884102564102564,3.3,0.8147252747252747
0.700931641011266,1.884102564102564,3.3,0.8147252747252747
0.7057464990066364,2.1605128205128206,3.3,0.747032967032967
0.7124721480067819,2.1605128205128206,3.3,0.747032967032967
0.7173342170135584,2.1605128205128206,3.3,0.747032967032967
0.7239176460134331,2.1605128205128206,3.3,0.747032967032967
0.7286555050086463,1.9654945054945054,3.3,0.3287912087912088
0.7376283920020796,1.9654945054945054,3.3,0.3287912087912088
0.7460124420031207,1.9654945054945054,3.3,0.3287912087912088
0.7511595440009842,1.9654945054945054,3.3,0.3287912087912088
0.7540144630038412,1.9654945054945054,3.3,0.3287912087912088
0.760914099009824,1.9654945054945054,3.3,0.3287912087912088
0.7647424470051192,1.9654945054945054,3.3,0.3287912087912088
0.7692517700052122,1.9654945054945054,3.3,0.3287912087912088
0.770124320013565,0.19018315018315018,2.041245421245421,0.1571428571428571
0.7729619140009163,0.19018315018315018,2.041245421245421,0.1571428571428571
0.7761840610037325,0.19018315018315018,2.041245421245421,0.1571428571428571
0.777074828001787,0.19018315018315018,2.041245421245421,0.1571428571428571
0.778646179009229,0.19018315018315018,2.041245421245421,0.1571428571428571
0.7831567140092375,0.19018315018315018,2.041245421245421,0.1571428571428571
0.7834291930048494,0.19018315018315018,2.041245421245421,0.1571428571428571
0.7895621790084988,1.3369230769230769,2.545714285714286,0.29978021978021974
0.7995148220070405,1.0387545787545787,3.3,0.2627106227106227
0.8053286910144379,1.0387545787545787,3.3,0.2627106227106227
0.8058933180000167,1.0387545787545787,3.3,0.2627106227106227
0.811002175003523,1.0387545787545787,3.3,0.2627106227106227
0.8126373650011374,1.0387545787545787,3.3,0.2627106227106227
0.8164572400128236,1.0387545787545787,3.3,0.2627106227106227
0.8209151190094417,1.0387545787545787,3.3,0.2627106227106227
0.8212392670102417,1.0387545787545787,3.3,0.2627106227106227
0.828273444014485,1.0387545787545787,3.3,0.2627106227106227
0.8314733390143374,1.0387545787545787,3.3,0.2627106227106227
0.8344811630086042,2.1975824175824172,3.3,0.5753846153846153
0.8378515480144415,2.1975824175824172,3.3,0.5753846153846153
0.8382577660086099,2.1975824175824172,3.3,0.5753846153846153
0.8445930470043095,2.1975824175824172,3.3,0.5753846153846153
0.8485728400119115,2.1975824175824172,3.3,0.5753846153846153
0.852356111005065,0.07575091575091575,1.5577289377289376,0.12893772893772892
0.8577380890055792,0.07575091575091575,1.5577289377289376,0.12893772893772892
0.8605700180050917,0.07575091575091575,1.5577289377289376,0.12893772893772892
0.8641511190071469,2.313626373626373,2.5787545787545785,0.6543589743589743
0.8696131250035251,2.313626373626373,2.5787545787545785,0.6543589743589743
0.8729789820063161,2.313626373626373,2.5787545787545785,0.6543589743589743
0.8733146560116438,2.313626373626373,2.5787545787545785,0.6543589743589743
0.8790299080137629,2.313626373626373,2.5787545787545785,0.6543589743589743
0.8791583440033719,2.313626373626373,2.5787545787545785,0.6543589743589743
0.8838312910083914,2.313626373626373,2.5787545787545785,0.6543589743589743
0.8841704650112661,2.313626373626373,2.5787545787545785,0.6543589743589743
0.8889309190126369,2.313626373626373,2.5787545787545785,0.6543589743589743
0.8890505520103034,2.313626373626373,2.5787545787545785,0.6543589743589743
0.8955660270003136,2.313626373626373,2.5787545787545785,0.6543589743589743
0.899899734009523,2.313626373626373,2.5787545787545785,0.6543589743589743
0.9015694990084739,1.9171428571428573,2.556996336996337,0.30945054945054945
0.9055718930030707,2.225787545787546,3.3,0.6398534798534798
0.909630123001989,2.225787545787546,3.3,0.6398534798534798
0.912181549007073,0.3473260073260073,2.8430769230769233,0.1821245421245421
0.9176865410117898,0.3473260073260073,2.8430769230769233,0.1821245421245421
0.9185235190088861,0.3473260073260073,2.8430769230769233,0.1821245421245421
0.9201627150032436,0.3473260073260073,2.8430769230769233,0.1821245421245421
0.9261347170104273,2.2016117216117213,3.3,0.614065934065934
0.9309418060001917,2.2016117216117213,3.3,0.614065934065934
0.9362892830104101,2.2016117216117213,3.3,0.614065934065934
0.9387112550029997,2.2016117216117213,3.3,0.614065934065934
0.9388689130137209,2.2016117216117213,3.3,0.614065934065934
0.9457208740059286,2.2016117216117213,3.3,0.614065934065934
0.9499168870097492,1.8558974358974358,3.3,0.2747985347985348
0.9523296160041355,1.8558974358974358,3.3,0.2747985347985348
0.9524433230108116,1.9235897435897436,3.3,0.5834432234432234
0.9596926100057317,1.9235897435897436,3.3,0.5834432234432234
0.963769375011907,1.9235897435897436,3.3,0.5834432234432234
0.9669254750042455,1.9235897435897436,3.3,0.5834432234432234
0.9678249350108672,0.8139194139194139,3.3,0.10315018315018315
0.9687635490117827,0.8139194139194139,3.3,0.10315018315018315
0.9703703070117626,0.13699633699633698,1.7543589743589743,0.16842490842490843
0.9771751680091256,0.13699633699633698,1.7543589743589743,0.16842490842490843
0.980958054002258,0.13699633699633698,1.7543589743589743,0.16842490842490843
0.9865848070039647,1.5593406593406591,2.9873260073260073,0.39406593406593404
0.9879260060115485,1.5593406593406591,2.9873260073260073,0.39406593406593404
0.9971895090129692,1.5593406593406591,2.9873260073260073,0.39406593406593404
1.0040718280069996,1.5593406593406591,2.9873260073260073,0.39406593406593404
1.0095935720019042,0.5479853479853479,3.3,0.30622710622710625
1.0097374460019637,0.5479853479853479,3.3,0.30622710622710625
1.0185832810093416,0.5479853479853479,3.3,0.30622710622710625
1.0270688100135885,0.5479853479853479,3.3,0.30622710622710625
1.031748890003655,0.5479853479853479,3.3,0.30622710622710625
1.031859633003478,0.5479853479853479,3.3,0.30622710622710625
1.0374531190027483,0.5479853479853479,3.3,0.30622710622710625
1.0392723030090565,0.2087179487179487,0.5165567765567766,0.1958241758241758
1.0432146520033712,0.2087179487179487,0.5165567765567766,0.1958241758241758
1.0463721210107906,0.2087179487179487,0.5165567765567766,0.1958241758241758
1.0480268580140546,0.2087179487179487,0.5165567765567766,0.1958241758241758
1.0517291070136707,0.2087179487179487,0.5165567765567766,0.1958241758241758
1.0518809400091413,2.0734798534798533,3.3,0.6092307692307692
1.058610348001821,2.0734798534798533,3.3,0.6092307692307692
1.0624149950017454,0.0,0.6132600732600733,0.07978021978021978
1.0670121220027795,2.2443223443223443,3.3,0.630989010989011
1.067377805011347,2.2443223443223443,3.3,0.630989010989011
1.0721725070034154,2.2443223443223443,3.3,0.630989010989011
1.0774991290090838,2.2443223443223443,3.3,0.630989010989011
1.0805117320123827,2.2443223443223443,3.3,0.630989010989011
1.0830294490006054,2.2443223443223443,3.3,0.630989010989011
1.088183702013339,2.2443223443223443,3.3,0.630989010989011
1.0912517990072956,2.2443223443223443,3.3,0.630989010989011
1.0934746980055934,2.2443223443223443,3.3,0.630989010989011
1.0943187170050805,2.2443223443223443,3.3,0.630989010989011
1.0958188270014944,2.2443223443223443,3.3,0.630989010989011
1.101862739000353,0.0,0.6495238095238095,0.08139194139194139
1.106014122007764,0.0,0.6495238095238095,0.08139194139194139
1.1081133260013303,0.0,0.6495238095238095,0.08139194139194139
1.1089122360135661,0.0,0.6495238095238095,0.08139194139194139
1.1110326440102654,0.0,0.6495238095238095,0.08139194139194139
1.1118454090028536,0.0,0.6495238095238095,0.08139194139194139
1.1136177840089658,0.0,0.6495238095238095,0.08139194139194139
1.1168078770133434,0.0,0.6495238095238095,0.08139194139194139
1.118369422008982,0.0,0.6986813186813187,0.05963369963369963
1.1223110540013295,0.0,0.6986813186813187,0.05963369963369963
1.1261228500079596,2.3200732600732596,3.3,0.697069597069597
1.1307726230006665,2.3200732600732596,3.3,0.697069597069597
1.1310692910046782,2.3200732600732596,3.3,0.697069597069597
1.1363907670020126,2.3200732600732596,3.3,0.697069597069597
1.1386296710115857,2.3200732600732596,3.3,0.697069597069597
1.140144221004448,2.3200732600732596,3.3,0.697069597069597
1.1440997060126392,2.3200732600732596,3.3,0.697069597069597
1.151141088004806,2.3200732600732596,3.3,0.697069597069597
1.1573894520115573,0.02095238095238095,1.514212454212454,0.14344322344322344
1.1617964700126322,1.0919413919413918,3.3,0.3529670329670329
1.1620807140134275,1.581904761904762,3.0534065934065935,0.40534798534798533
1.1672400900133653,1.581904761904762,3.0534065934065935,0.40534798534798533
1.1710199100052705,1.581904761904762,3.0534065934065935,0.40534798534798533
1.1780047660140553,1.581904761904762,3.0534065934065935,0.40534798534798533
1.1820777350076241,1.581904761904762,3.0534065934065935,0.40534798534798533
1.1850299420038937,1.581904761904762,3.0534065934065935,0.40534798534798533
1.1879199400136713,1.581904761904762,3.0534065934065935,0.40534798534798533
1.1913861600041855,1.581904761904762,3.0534065934065935,0.40534798534798533
1.1916743200126803,1.581904761904762,3.0534065934065935,0.40534798534798533
1.1964780680136755,1.581904761904762,3.0534065934065935,0.40534798534798533
1.201317047001794,1.581904761904762,3.0534065934065935,0.40534798534798533
1.201471885011415,1.581904761904762,3.0534065934065935,0.40534798534798533
1.2063064600079088,1.581904761904762,3.0534065934065935,0.40534798534798533
1.2111267040017992,1.581904761904762,3.0534065934065935,0.40534798534798533
1.2160809520137263,1.8792673992673992,3.171868131868132,0.5568498168498168
1.221094450011151,1.8792673992673992,3.171868131868132,0.5568498168498168
1.2251841840043198,1.8792673992673992,3.171868131868132,0.5568498168498168
1.2286289810144808,1.8792673992673992,3.171868131868132,0.5568498168498168
1.2289374380052323,1.8792673992673992,3.171868131868132,0.5568498168498168
1.2337267350085313,1.8792673992673992,3.171868131868132,0.5568498168498168
1.2338517220050562,1.8792673992673992,3.171868131868132,0.5568498168498168
1.238737438005046,1.8792673992673992,3.171868131868132,0.5568498168498168
1.2431592360080685,1.8792673992673992,3.171868131868132,0.5568498168498168
1.2447054730000673,1.8792673992673992,3.171868131868132,0.5568498168498168
1.2491358150000451,1.8792673992673992,3.171868131868132,0.5568498168498168
1.2500491340033477,1.8792673992673992,3.171868131868132,0.5568498168498168
1.2516566010017414,1.8792673992673992,3.171868131868132,0.5568498168498168
1.2560353230073815,1.8792673992673992,3.171868131868132,0.5568498168498168
1.2563388540002052,0.2756043956043956,0.8405128205128204,0.29010989010989013
1.2617648400046164,0.2756043956043956,0.8405128205128204,0.29010989010989013
1.2642354290001094,1.90021978021978,2.5602197802197804,0.3578021978021978
1.269720608004718,1.90021978021978,2.5602197802197804,0.3578021978021978
1.2713655060069868,1.90021978021978,2.5602197802197804,0.3578021978021978
1.2753188330098055,1.90021978021978,2.5602197802197804,0.3578021978021978
1.279145750013413,1.90021978021978,2.5602197802197804,0.3578021978021978
1.2831608390115434,1.90021978021978,2.5602197802197804,0.3578021978021978
1.2862061970081413,1.90021978021978,2.5602197802197804,0.3578021978021978
1.2892733740009135,1.90021978021978,2.5602197802197804,0.3578021978021978
1.2909782390051987,0.10798534798534798,1.9928937728937726,0.13699633699633698
1.294846734002931,0.10798534798534798,1.9928937728937726,0.13699633699633698
1.299505372007843,0.0,0.5955311355311355,0.0693040293040293
1.3003821470047114,0.0,0.5955311355311355,0.0693040293040293
1.301960749013233,0.0,0.5955311355311355,0.0693040293040293
1.3058322940050857,0.0,0.5955311355311355,0.0693040293040293
1.3088628520054044,0.0,0.5955311355311355,0.0693040293040293
1.3119557150057517,0.12087912087912088,1.6463736263736264,0.12893772893772892
1.314361374010332,0.12087912087912088,1.6463736263736264,0.12893772893772892
1.3145578140101861,0.12087912087912088,1.6463736263736264,0.12893772893772892
1.3199862450128421,0.12087912087912088,1.6463736263736264,0.12893772893772892
1.3223568570101634,0.12087912087912088,1.6463736263736264,0.12893772893772892
1.3224678300030064,0.12087912087912088,1.6463736263736264,0.12893772893772892
1.32766354100022,0.12087912087912088,1.6463736263736264,0.12893772893772892
1.3320274190045893,0.12087912087912088,1.6463736263736264,0.12893772893772892
1.3336476790136658,0.12087912087912088,1.6463736263736264,0.12893772893772892
1.3380007520026993,0.12087912087912088,1.6463736263736264,0.12893772893772892
1.3388826760055963,0.12087912087912088,1.6463736263736264,0.12893772893772892
1.3404709570022533,0.12087912087912088,1.6463736263736264,0.12893772893772892
1.3448529400047846,0.12087912087912088,1.6463736263736264,0.12893772893772892
1.3457727800123394,1.120952380952381,3.3,0.15794871794871795
1.3473459640081273,1.120952380952381,3.3,0.15794871794871795
1.3518808650114806,1.120952380952381,3.3,0.15794871794871795
1.3528033820039127,1.120952380952381,3.3,0.15794871794871795
1.354339075012831,1.120952380952381,3.3,0.15794871794871795
1.3583235300029628,1.120952380952381,3.3,0.15794871794871795
1.3621800360124325,1.120952380952381,3.3,0.15794871794871795
1.366894228005549,1.120952380952381,3.3,0.15794871794871795
1.3670370810141321,1.120952380952381,3.3,0.15794871794871795
1.3723194420017535,1.120952380952381,3.3,0.15794871794871795
1.3746577860001707,1.120952380952381,3.3,0.15794871794871795
1.3748894470045343,1.120952380952381,3.3,0.15794871794871795
1.3803846370137762,1.120952380952381,3.3,0.15794871794871795
1.381409171008272,1.120952380952381,3.3,0.15794871794871795
1.3823934410029324,2.107326007326007,3.3,0.7373626373626374
1.3833802240114892,2.107326007326007,3.3,0.7373626373626374
1.3842842610029038,2.107326007326007,3.3,0.7373626373626374
1.3851935190032236,2.107326007326007,3.3,0.7373626373626374
1.3867649360036012,2.107326007326007,3.3,0.7373626373626374
1.391251931010629,2.107326007326007,3.3,0.7373626373626374
1.3915625720110256,2.107326007326007,3.3,0.7373626373626374
1.3967204280052101,2.107326007326007,3.3,0.7373626373626374
1.4007055730035063,2.107326007326007,3.3,0.7373626373626374
1.404549801009125,2.107326007326007,3.3,0.7373626373626374
1.4082557550136698,2.107326007326007,3.3,0.7373626373626374
1.413513203006005,2.107326007326007,3.3,0.7373626373626374
1.4167739210097352,2.107326007326007,3.3,0.7373626373626374
1.4176142690121196,0.0,0.6317948717948718,0.1418315018315018
1.4192574670014437,0.0,0.6317948717948718,0.1418315018315018
1.4230521230056183,0.0,0.6317948717948718,0.1418315018315018
1.4275937620113837,0.0,0.6317948717948718,0.1418315018315018
1.4284693810041063,0.34007326007326005,3.142051282051282,0.10315018315018315
1.430188589001773,0.34007326007326005,3.142051282051282,0.10315018315018315
1.434032819001004,0.34007326007326005,3.142051282051282,0.10315018315018315
1.4384307580039604,1.6109157509157508,3.1775091575091574,0.5616849816849817
1.440063738002209,1.6109157509157508,3.1775091575091574,0.5616849816849817
1.4432676490105223,1.6109157509157508,3.1775091575091574,0.5616849816849817
1.4455446990032215,1.6109157509157508,3.1775091575091574,0.5616849816849817
1.4464859850122593,1.6109157509157508,3.1775091575091574,0.5616849816849817
1.4473238570062676,1.6109157509157508,3.1775091575091574,0.5616849816849817
1.4488828070025193,1.6109157509157508,3.1775091575091574,0.5616849816849817
1.4535915040032705,0.19179487179487179,1.963076923076923,0.1523076923076923
1.4538278550026007,0.19179487179487179,1.963076923076923,0.1523076923076923
1.4589781660033623,0.19179487179487179,1.963076923076923,0.1523076923076923
1.4627363100007642,1.0049084249084248,2.6585347985347987,0.2868864468864469
1.4671723780047614,1.0049084249084248,2.6585347985347987,0.2868864468864469
1.4688059460022487,1.0049084249084248,2.6585347985347987,0.2868864468864469
1.4726373280136613,1.0049084249084248,2.6585347985347987,0.2868864468864469
1.476575449007214,0.5350915750915751,0.2224175824175824,0.15956043956043955
1.4804148400144186,0.5350915750915751,0.2224175824175824,0.15956043956043955
1.4850507440132787,0.5350915750915751,0.2224175824175824,0.15956043956043955
1.4853207590058446,0.5350915750915751,0.2224175824175824,0.15956043956043955
1.4901404340052977,0.5350915750915751,0.2224175824175824,0.15956043956043955
1.4903512930031866,0.5350915750915751,0.2224175824175824,0.15956043956043955
1.4951282580004772,0.5350915750915751,0.2224175824175824,0.15956043956043955
1.4953017120133154,0.5350915750915751,0.2224175824175824,0.15956043956043955
1.5000530800025444,0.5350915750915751,0.2224175824175824,0.15956043956043955
1.5002855000057025,0.5350915750915751,0.2224175824175824,0.15956043956043955
1.505049424013123,0.5350915750915751,0.2224175824175824,0.15956043956043955
1.505307236002409,0.5350915750915751,0.2224175824175824,0.15956043956043955
1.5101071700046305,0.5350915750915751,0.2224175824175824,0.15956043956043955
1.5153808620088967,0.3384615384615384,2.5271794871794873,0.14747252747252745
1.5183902330027195,0.0,0.7405860805860806,0.06446886446886446
1.5206672070053173,0.0,0.7405860805860806,0.06446886446886446
1.520929750011419,0.5431501831501832,1.5569230769230769,0.48835164835164835
1.5260877780092414,0.5431501831501832,1.5569230769230769,0.48835164835164835
1.5291589400003431,1.4545787545787545,3.3,0.2063003663003663
1.5312299280049047,1.4545787545787545,3.3,0.2063003663003663
1.5320756530127255,1.4545787545787545,3.3,0.2063003663003663
1.5342190060036955,1.4545787545787545,3.3,0.2063003663003663
1.534958115007612,0.0,0.7736263736263735,0.0709157509157509
1.5371835060068406,0.0,0.7736263736263735,0.0709157509157509
1.537472351003089,1.9074725274725273,2.54974358974359,0.332014652014652
1.5423515190050239,1.9074725274725273,2.54974358974359,0.332014652014652
1.5471381210081745,1.9074725274725273,2.54974358974359,0.332014652014652
1.547266457011574,1.9074725274725273,2.54974358974359,0.332014652014652
1.5520121920126257,1.9074725274725273,2.54974358974359,0.332014652014652
1.5522202560096048,1.9074725274725273,2.54974358974359,0.332014652014652
1.5563789520092541,1.9074725274725273,2.54974358974359,0.332014652014652
1.5603235300077358,1.7172893772893774,3.3,0.3763369963369963
1.5634704020048957,1.7172893772893774,3.3,0.3763369963369963
1.565073856007075,1.7172893772893774,3.3,0.3763369963369963
1.5704406090080738,1.7172893772893774,3.3,0.3763369963369963
1.5728371650038753,1.7172893772893774,3.3,0.3763369963369963
1.5729639390046941,1.7172893772893774,3.3,0.3763369963369963
1.5782565790141234,1.7172893772893774,3.3,0.3763369963369963
1.5803909260139335,1.7172893772893774,3.3,0.3763369963369963
1.5812640560034197,1.7172893772893774,3.3,0.3763369963369963
1.5830275170010282,1.7172893772893774,3.3,0.3763369963369963
1.586204159000772,1.7172893772893774,3.3,0.3763369963369963
1.587771700011217,1.7172893772893774,3.3,0.3763369963369963
1.5920279220008524,1.7172893772893774,3.3,0.3763369963369963
1.5935845150088426,1.7172893772893774,3.3,0.3763369963369963
1.5983274330064887,1.7172893772893774,3.3,0.3763369963369963
1.603779992001364,1.7172893772893774,3.3,0.3763369963369963
1.6054410730139352,1.7172893772893774,3.3,0.3763369963369963
1.6084880970011,1.7172893772893774,3.3,0.3763369963369963
1.6109165160014527,1.7172893772893774,3.3,0.3763369963369963
1.616295366009581,1.7172893772893774,3.3,0.3763369963369963
1.6185542090097442,1.8857142857142855,2.548937728937729,0.3876190476190476
1.6188373920012964,1.8857142857142855,2.548937728937729,0.3876190476190476
1.6232274620124372,1.8857142857142855,2.548937728937729,0.3876190476190476
1.6247068840020802,1.8857142857142855,2.548937728937729,0.3876190476190476
1.629509805003181,1.8857142857142855,2.548937728937729,0.3876190476190476
1.6296578030014643,1.8857142857142855,2.548937728937729,0.3876190476190476
1.6345665840053698,1.8857142857142855,2.548937728937729,0.3876190476190476
1.639294572014478,1.8857142857142855,2.548937728937729,0.3876190476190476
1.6444829240062973,0.14344322344322344,1.9703296703296702,0.29655677655677654
1.6483964080107398,0.14344322344322344,1.9703296703296702,0.29655677655677654
1.6524598030082416,0.14344322344322344,1.9703296703296702,0.29655677655677654
1.65546570000879,0.14344322344322344,1.9703296703296702,0.29655677655677654
1.6571900600101799,0.14344322344322344,1.9703296703296702,0.29655677655677654
1.660238748008851,0.14344322344322344,1.9703296703296702,0.29655677655677654
1.6633638980129035,0.14344322344322344,1.9703296703296702,0.29655677655677654
1.66497147300106,1.7011721611721609,3.3,0.2715750915750916
1.6695606820139801,1.7011721611721609,3.3,0.2715750915750916
1.6697768430021824,1.7011721611721609,3.3,0.2715750915750916
1.6752594810095616,1.7011721611721609,3.3,0.2715750915750916
1.6775546060089255,1.7011721611721609,3.3,0.2715750915750916
1.6784292440133868,1.8913553113553112,2.553772893772894,0.36666666666666664
1.6800589190097526,1.8913553113553112,2.553772893772894,0.36666666666666664
1.6838531770044938,1.8913553113553112,2.553772893772894,0.36666666666666664
1.688667472000816,1.8913553113553112,2.553772893772894,0.36666666666666664
1.6887979100138182,0.8896703296703296,3.3,0.23531135531135527
1.6929443110129796,0.8896703296703296,3.3,0.23531135531135527
1.6958194320031907,1.0016849816849815,1.6624908424908424,0.43758241758241756
1.6992938540061004,1.0016849816849815,1.6624908424908424,0.43758241758241756
1.6996066590072587,1.0016849816849815,1.6624908424908424,0.43758241758241756
1.7043217690079473,1.0016849816849815,1.6624908424908424,0.43758241758241756
1.7046075710095465,1.0016849816849815,1.6624908424908424,0.43758241758241756
1.709356719002244,1.0016849816849815,1.6624908424908424,0.43758241758241756
1.7094803920044797,1.0016849816849815,1.6624908424908424,0.43758241758241756
1.7146922280080616,1.0016849816849815,1.6624908424908424,0.43758241758241756
1.717895915004192,1.0016849816849815,1.6624908424908424,0.43758241758241756
1.7196196260047145,1.6189743589743588,2.552967032967033,0.3432967032967033
1.7235164040030213,1.6189743589743588,2.552967032967033,0.3432967032967033
1.7273846910102293,1.6189743589743588,2.552967032967033,0.3432967032967033
1.7313746660074685,1.6189743589743588,2.552967032967033,0.3432967032967033
1.735217385008582,1.6189743589743588,2.552967032967033,0.3432967032967033
1.7407201390014961,1.6189743589743588,2.552967032967033,0.3432967032967033
1.742395524008316,2.07992673992674,2.553772893772894,0.303003663003663
1.7456273620045977,2.07992673992674,2.553772893772894,0.303003663003663
1.7472858780092793,2.07992673992674,2.553772893772894,0.303003663003663
1.7503738760133274,2.07992673992674,2.553772893772894,0.303003663003663
1.7527413030038588,2.07992673992674,2.553772893772894,0.303003663003663
1.752946532011265,2.07992673992674,2.553772893772894,0.303003663003663
1.7571358070126735,2.07992673992674,2.553772893772894,0.303003663003663
1.7612443510006415,2.0863736263736263,2.552967032967033,0.3505494505494505
1.7646660090103978,2.0863736263736263,2.552967032967033,0.3505494505494505
1.7649323110090336,2.0863736263736263,2.552967032967033,0.3505494505494505
1.7697057320037857,2.0863736263736263,2.552967032967033,0.3505494505494505
1.7698499000107404,2.0863736263736263,2.552967032967033,0.3505494505494505
1.7746145310084103,2.0863736263736263,2.552967032967033,0.3505494505494505
1.7747466240107315,0.4416117216117216,0.2345054945054945,0.12571428571428572
1.7795227620081278,0.4416117216117216,0.2345054945054945,0.12571428571428572
1.7797065340128029,0.4416117216117216,0.2345054945054945,0.12571428571428572
1.7847586020070594,0.4416117216117216,0.2345054945054945,0.12571428571428572
1.7889297360088676,1.1725274725274726,3.3,0.23208791208791207
1.7917339730047388,1.1725274725274726,3.3,0.23208791208791207
1.7952250090020243,1.1725274725274726,3.3,0.23208791208791207
1.7954706590098795,1.1725274725274726,3.3,0.23208791208791207
1.800280556009966,1.1725274725274726,3.3,0.23208791208791207
1.8003963070077589,1.1725274725274726,3.3,0.23208791208791207
1.8053030940063763,1.1725274725274726,3.3,0.23208791208791207
1.8095236100052716,0.809084249084249,3.3,0.17567765567765567
1.8123243700101739,0.15633699633699633,1.8027106227106224,0.15875457875457877
1.8158247990068048,0.4021245421245421,0.3545787545787546,0.11765567765567764
1.8161479700065684,0.018534798534798533,0.7204395604395604,0.17003663003663003
1.8209388280083658,0.018534798534798533,0.7204395604395604,0.17003663003663003
1.8210955190006644,0.018534798534798533,0.7204395604395604,0.17003663003663003
1.8259032210044097,0.018534798534798533,0.7204395604395604,0.17003663003663003
1.8307508130092174,0.018534798534798533,0.7204395604395604,0.17003663003663003
1.830917657003738,0.018534798534798533,0.7204395604395604,0.17003663003663003
1.8357786850101547,0.018534798534798533,0.7204395604395604,0.17003663003663003
1.8358705220016418,0.018534798534798533,0.7204395604395604,0.17003663003663003
1.8406171230017208,0.018534798534798533,0.7204395604395604,0.17003663003663003
1.84080920300039,0.018534798534798533,0.7204395604395604,0.17003663003663003
1.8455297770124162,0.018534798534798533,0.7204395604395604,0.17003663003663003
1.8457769740052754,0.018534798534798533,0.7204395604395604,0.17003663003663003
1.8504604160116287,0.018534798534798533,0.7204395604395604,0.17003663003663003
1.8511928340012673,0.018534798534798533,0.7204395604395604,0.17003663003663003
1.853558780014282,0.018534798534798533,0.7204395604395604,0.17003663003663003
1.853660963010043,0.018534798534798533,0.7204395604395604,0.17003663003663003
1.858817001004354,0.018534798534798533,0.7204395604395604,0.17003663003663003
1.8618914180115098,0.8638827838827838,2.9486446886446886,0.3384615384615384
1.864311068013194,0.8638827838827838,2.9486446886446886,0.3384615384615384
1.8698664940020535,1.0597069597069597,3.3,0.1692307692307692
1.871453770014341,1.0597069597069597,3.3,0.1692307692307692
1.8758709150133654,1.0597069597069597,3.3,0.1692307692307692
1.8767430480074836,1.0597069597069597,3.3,0.1692307692307692
1.8783458700054325,1.0597069597069597,3.3,0.1692307692307692
1.882930567007861,1.0597069597069597,3.3,0.1692307692307692
1.8832302420050837,1.0597069597069597,3.3,0.1692307692307692
1.8883413200092036,1.0597069597069597,3.3,0.1692307692307692
1.8921082290034974,0.43758241758241756,2.747985347985348,0.1668131868131868
1.8967536130076041,0.43758241758241756,2.747985347985348,0.1668131868131868
1.897568084008526,0.43758241758241756,2.747985347985348,0.1668131868131868
1.8992713210027432,0.43758241758241756,2.747985347985348,0.1668131868131868
1.9030997060035588,0.43758241758241756,2.747985347985348,0.1668131868131868
1.9076401700003771,1.3336996336996336,3.3,0.22967032967032966
1.9091956600022968,1.3336996336996336,3.3,0.22967032967032966
1.913090739006293,1.3336996336996336,3.3,0.22967032967032966
1.9174867470137542,1.3336996336996336,3.3,0.22967032967032966
1.9198901080089854,0.9235164835164835,2.5876190476190475,0.34007326007326005
1.920037512012641,0.9235164835164835,2.5876190476190475,0.34007326007326005
1.925205495004775,0.9235164835164835,2.5876190476190475,0.34007326007326005
1.9281804470083443,0.9235164835164835,2.5876190476190475,0.34007326007326005
1.9311334250087384,0.9235164835164835,2.5876190476190475,0.34007326007326005
1.9340932780032745,0.9235164835164835,2.5876190476190475,0.34007326007326005
1.9370232250075787,0.9235164835164835,2.5876190476190475,0.34007326007326005
1.9393249840068165,0.9235164835164835,2.5876190476190475,0.34007326007326005
1.9397478590108221,0.9235164835164835,2.5876190476190475,0.34007326007326005
1.9448539080040064,0.9235164835164835,2.5876190476190475,0.34007326007326005
1.948053278014413,1.3353113553113554,3.3,0.31750915750915754
1.948998402003781,1.3353113553113554,3.3,0.31750915750915754
1.9506411200127332,1.3353113553113554,3.3,0.31750915750915754
1.9545693600084633,1.411062271062271,2.5868131868131865,0.5109157509157509
1.9582899270026246,0.0,0.5310622710622711,0.17084249084249084
1.9629931570088957,0.0,0.5310622710622711,0.17084249084249084
1.9631486790021881,0.0,0.5310622710622711,0.17084249084249084
1.9686233420070494,0.0,0.5310622710622711,0.17084249084249084
1.9695664670143742,0.0,0.5310622710622711,0.17084249084249084
1.9704597810050473,0.0,0.5310622710622711,0.17084249084249084
1.9728223340061959,0.0,0.5310622710622711,0.17084249084249084
1.9729991130006965,0.0,0.5310622710622711,0.17084249084249084
1.9773663250089157,0.0,0.5310622710622711,0.17084249084249084
1.9789228740119142,0.0,0.5310622710622711,0.17084249084249084
1.9835175020125462,0.0,0.5310622710622711,0.17084249084249084
1.9836755550059024,2.154065934065934,3.3,0.6785347985347985
1.988846991007449,2.154065934065934,3.3,0.6785347985347985
1.9918417250009952,2.154065934065934,3.3,0.6785347985347985
1.9939867400098592,2.154065934065934,3.3,0.6785347985347985
1.994818685008795,2.154065934065934,3.3,0.6785347985347985
1.9969886250037234,2.154065934065934,3.3,0.6785347985347985
1.9977724390046205,2.154065934065934,3.3,0.6785347985347985
1.9999088600015966,2.154065934065934,3.3,0.6785347985347985
2.000722961005522,2.154065934065934,3.3,0.6785347985347985
2.0028332990041235,2.154065934065934,3.3,0.6785347985347985
2.0043202619999647,2.154065934065934,3.3,0.6785347985347985
2.009163939001155,2.154065934065934,3.3,0.6785347985347985
2.0093008290132275,0.2087179487179487,2.033186813186813,0.1386080586080586
2.014784052007599,0.2087179487179487,2.033186813186813,0.1386080586080586
2.016439409009763,0.2087179487179487,2.033186813186813,0.1386080586080586
2.019382149010198,0.2087179487179487,2.033186813186813,0.1386080586080586
2.021757908005384,0.2087179487179487,2.033186813186813,0.1386080586080586
2.0220813550113235,0.2087179487179487,2.033186813186813,0.1386080586080586
2.027404528009356,0.2087179487179487,2.033186813186813,0.1386080586080586
2.0300147400121205,0.03545787545787545,1.5335531135531135,0.12329670329670328
2.0353229100001045,0.17084249084249084,2.063003663003663,0.19340659340659339
2.037545492014033,0.17084249084249084,2.063003663003663,0.19340659340659339
2.037802120001288,0.17084249084249084,2.063003663003663,0.19340659340659339
2.0431030040053884,1.2901831501831502,2.548937728937729,0.3295970695970696
2.0454773730016313,1.2901831501831502,2.548937728937729,0.3295970695970696
2.0456399620015873,1.2901831501831502,2.548937728937729,0.3295970695970696
2.0507675380067667,1.2901831501831502,2.548937728937729,0.3295970695970696
2.0544537950045196,0.028205128205128206,1.3635164835164835,0.11282051282051282
2.054603798009339,0.028205128205128206,1.3635164835164835,0.11282051282051282
2.0597499150026124,0.028205128205128206,1.3635164835164835,0.11282051282051282
2.063415773009183,0.028205128205128206,1.3635164835164835,0.11282051282051282
2.063551820014254,0.028205128205128206,1.3635164835164835,0.11282051282051282
2.06870163900021,0.028205128205128206,1.3635164835164835,0.11282051282051282
2.0726043220056454,0.028205128205128206,1.3635164835164835,0.11282051282051282
2.0763777650136035,0.17567765567765567,0.4126007326007326,0.09670329670329669
2.081029021006543,0.17567765567765567,0.4126007326007326,0.09670329670329669
2.081885298000998,0.4835164835164835,3.3,0.14827838827838827
2.083647823004867,0.4835164835164835,3.3,0.14827838827838827
2.086785249004606,0.4835164835164835,3.3,0.14827838827838827
2.08838940600981,0.4835164835164835,3.3,0.14827838827838827
2.0931650650018128,0.4835164835164835,3.3,0.14827838827838827
2.0994590110058198,0.17809523809523808,0.49238095238095236,0.09106227106227105
2.103388368006563,0.17809523809523808,0.49238095238095236,0.09106227106227105
2.1062995720130857,0.17809523809523808,0.49238095238095236,0.09106227106227105
2.109143628011225,0.17809523809523808,0.49238095238095236,0.09106227106227105
2.112836104002781,0.09025641025641025,1.5222710622710622,0.12007326007326008
2.1129856610059505,0.09025641025641025,1.5222710622710622,0.12007326007326008
2.117993309002486,0.09025641025641025,1.5222710622710622,0.12007326007326008
2.122196142008761,0.09025641025641025,1.5222710622710622,0.12007326007326008
2.1250025570043363,0.6213186813186813,1.7608058608058608,0.4802930402930403
2.1284277100057807,0.6213186813186813,1.7608058608058608,0.4802930402930403
2.1292543210001895,0.6213186813186813,1.7608058608058608,0.4802930402930403
2.1306977410131367,0.6213186813186813,1.7608058608058608,0.4802930402930403
2.135692755007767,0.6213186813186813,1.7608058608058608,0.4802930402930403
2.139817541014054,0.6213186813186813,1.7608058608058608,0.4802930402930403
2.142650333000347,0.6213186813186813,1.7608058608058608,0.4802930402930403
2.1461288110003807,2.158095238095238,3.3,0.6608058608058608
2.1464206050004577,1.3836630036630035,3.3,0.22886446886446887
2.151486394010135,0.25787545787545785,2.063003663003663,0.12329670329670328
2.1553133180132136,0.0,1.1104761904761904,0.17406593406593407
2.159957158000907,0.0,1.1104761904761904,0.17406593406593407
2.1601537730020937,0.0,1.1104761904761904,0.17406593406593407
2.165679692014237,0.1386080586080586,1.5706227106227104,0.3287912087912088
2.1664920260082,1.1378754578754577,3.3,0.32798534798534795
2.1682299730018713,1.1378754578754577,3.3,0.32798534798534795
2.1712449720071163,1.1378754578754577,3.3,0.32798534798534795
2.1742706970107974,1.1378754578754577,3.3,0.32798534798534795
2.1765008730144473,1.1378754578754577,3.3,0.32798534798534795
2.1772620330011705,1.1378754578754577,3.3,0.32798534798534795
2.179385245006415,1.1378754578754577,3.3,0.32798534798534795
2.180212069011759,1.1378754578754577,3.3,0.32798534798534795
2.181707453011768,1.1378754578754577,3.3,0.32798534798534795
2.186605923008756,1.1378754578754577,3.3,0.32798534798534795
2.1913876800099388,0.25223443223443226,2.2233699633699633,0.14344322344322344
2.191603372004465,0.25223443223443226,2.2233699633699633,0.14344322344322344
2.1965793310082518,0.25223443223443226,2.2233699633699633,0.14344322344322344
2.201987866006675,0.25223443223443226,2.2233699633699633,0.14344322344322344
2.203554662002716,0.25223443223443226,2.2233699633699633,0.14344322344322344
2.208157723012846,0.25223443223443226,2.2233699633699633,0.14344322344322344
2.2082816810143413,0.25223443223443226,2.2233699633699633,0.14344322344322344
2.213641278009163,0.25223443223443226,2.2233699633699633,0.14344322344322344
2.215967697004089,0.15311355311355312,1.9566300366300364,0.1515018315018315
2.216244290000759,0.15311355311355312,1.9566300366300364,0.1515018315018315
2.2214703900099266,0.15311355311355312,1.9566300366300364,0.1515018315018315
2.224647321010707,0.15311355311355312,1.9566300366300364,0.1515018315018315
2.225570561000495,0.15311355311355312,1.9566300366300364,0.1515018315018315
2.227263484004652,0.15311355311355312,1.9566300366300364,0.1515018315018315
2.2311552590108477,0.15311355311355312,1.9566300366300364,0.1515018315018315
2.2366531870065955,0.15311355311355312,1.9566300366300364,0.1515018315018315
2.2383485580066917,0.0,0.4528937728937729,0.09186813186813186
2.2416208000067854,2.0468864468864467,2.561831501831502,0.3142857142857142
2.2426563230110332,0.1926007326007326,1.551282051282051,0.36827838827838827
2.2435208610113477,0.1926007326007326,1.551282051282051,0.36827838827838827
2.245160484002554,0.1926007326007326,1.551282051282051,0.36827838827838827
2.248963651014492,0.1926007326007326,1.551282051282051,0.36827838827838827
2.2543275960051687,0.1926007326007326,1.551282051282051,0.36827838827838827
2.2567827320017386,0.1926007326007326,1.551282051282051,0.36827838827838827
2.2569860160001554,0.1926007326007326,1.551282051282051,0.36827838827838827
2.262211968001793,0.1926007326007326,1.551282051282051,0.36827838827838827
2.2649592460074928,1.7817582417582416,3.3,0.5520146520146519
2.2691213660000358,1.7817582417582416,3.3,0.5520146520146519
2.271315255013178,1.7817582417582416,3.3,0.5520146520146519
2.272781608000514,1.7817582417582416,3.3,0.5520146520146519
2.2768985210132087,1.7817582417582416,3.3,0.5520146520146519
2.279646227005287,0.08139194139194139,0.7921611721611721,0.05963369963369963
2.2839656290016137,0.08139194139194139,0.7921611721611721,0.05963369963369963
2.2863346750091296,0.08139194139194139,0.7921611721611721,0.05963369963369963
2.291782267013332,0.7671794871794871,3.3,0.24417582417582417
2.294086435009376,0.18615384615384614,1.9026373626373623,0.12329670329670328
2.2943385500111617,0.18615384615384614,1.9026373626373623,0.12329670329670328
2.299583092011744,0.18615384615384614,1.9026373626373623,0.12329670329670328
2.303275513011613,0.18615384615384614,1.9026373626373623,0.12329670329670328
2.308472362012253,2.3684249084249083,3.3,0.6986813186813187
2.3122915390122216,2.3684249084249083,3.3,0.6986813186813187
2.316042643011315,2.3684249084249083,3.3,0.6986813186813187
2.3206464130053064,0.2095238095238095,0.32717948717948714,0.08542124542124542
2.3215473870077403,1.6769963369963368,2.552967032967033,0.3416849816849817
2.3239677120000124,1.6769963369963368,2.552967032967033,0.3416849816849817
2.324069046007935,1.6769963369963368,2.552967032967033,0.3416849816849817
2.3292614850070095,1.6769963369963368,2.552967032967033,0.3416849816849817
2.3324813560029725,1.6769963369963368,2.552967032967033,0.3416849816849817
2.3340623840049375,1.8752380952380951,2.943003663003663,0.5238095238095237
2.3378974570077844,1.8752380952380951,2.943003663003663,0.5238095238095237
2.3424538430117536,1.5174358974358972,2.5481318681318683,0.35135531135531134
2.342725516005885,1.527106227106227,2.723003663003663,0.630989010989011
2.3479572440119227,1.6415384615384614,3.3,0.2957509157509157
2.3501500180136645,1.6415384615384614,3.3,0.2957509157509157
2.350997040004586,1.6415384615384614,3.3,0.2957509157509157
2.3525048940064153,1.6415384615384614,3.3,0.2957509157509157
2.3526085510093253,1.6415384615384614,3.3,0.2957509157509157
2.3574391340080183,1.6415384615384614,3.3,0.2957509157509157
2.362280824003392,1.6415384615384614,3.3,0.2957509157509157
2.3672343910002382,1.6415384615384614,3.3,0.2957509157509157
2.3720659400132718,0.1087912087912088,1.9663003663003662,0.21032967032967032
2.3768542390025686,0.1087912087912088,1.9663003663003662,0.21032967032967032
2.3770068830053788,0.1087912087912088,1.9663003663003662,0.21032967032967032
2.3820395920047304,0.1087912087912088,1.9663003663003662,0.21032967032967032
2.3867993440071587,0.1087912087912088,1.9663003663003662,0.21032967032967032
2.386958428003709,0.1087912087912088,1.9663003663003662,0.21032967032967032
2.3921499000134645,0.1087912087912088,1.9663003663003662,0.21032967032967032
2.3959201900142943,0.1087912087912088,1.9663003663003662,0.21032967032967032
2.4004218920017593,0.1087912087912088,1.9663003663003662,0.21032967032967032
2.4013291820010636,0.1087912087912088,1.9663003663003662,0.21032967032967032
2.4030104960111203,0.1087912087912088,1.9663003663003662,0.21032967032967032
2.4066929570108186,0.1087912087912088,1.9663003663003662,0.21032967032967032
2.406876850000117,0.1087912087912088,1.9663003663003662,0.21032967032967032
2.4116411360009806,0.1087912087912088,1.9663003663003662,0.21032967032967032
2.4118511120032053,0.1087912087912088,1.9663003663003662,0.21032967032967032
2.4166116360138403,0.1087912087912088,1.9663003663003662,0.21032967032967032
2.4167691730108345,0.1087912087912088,1.9663003663003662,0.21032967032967032
2.4215578500006814,0.1087912087912088,1.9663003663003662,0.21032967032967032
2.4264150530070765,0.1087912087912088,1.9663003663003662,0.21032967032967032
2.426551388009102,0.1087912087912088,1.9663003663003662,0.21032967032967032
2.4313122970052063,0.1087912087912088,1.9663003663003662,0.21032967032967032
2.4316031190101057,0.1087912087912088,1.9663003663003662,0.21032967032967032
2.4364038330095354,0.1087912087912088,1.9663003663003662,0.21032967032967032
2.436542065013782,0.012087912087912087,0.9219047619047619,0.051575091575091575
2.441311005008174,0.012087912087912087,0.9219047619047619,0.051575091575091575
2.441440030001104,1.7011721611721609,3.3,0.6479120879120879
2.4462781220063334,1.7011721611721609,3.3,0.6479120879120879
2.4511178940010723,1.7011721611721609,3.3,0.6479120879120879
2.4559728630119935,0.0,1.5730402930402931,0.0975091575091575
2.4560972440085607,0.0,1.5730402930402931,0.0975091575091575
2.4609031390136806,1.5166300366300365,3.3,0.3505494505494505
2.4610372590104816,1.5166300366300365,3.3,0.3505494505494505
2.4658062600065023,1.5166300366300365,3.3,0.3505494505494505
2.4659600280137965,1.5166300366300365,3.3,0.3505494505494505
2.470730169006856,1.5166300366300365,3.3,0.3505494505494505
2.4708305330132134,1.5166300366300365,3.3,0.3505494505494505
2.4756065790134016,1.5166300366300365,3.3,0.3505494505494505
2.475804774003336,1.5166300366300365,3.3,0.3505494505494505
2.480566781014204,1.5166300366300365,3.3,0.3505494505494505
2.4806676330044866,0.4254945054945055,3.3,0.33926739926739924
2.485577232000651,0.4254945054945055,3.3,0.33926739926739924
2.4930077970057027,0.4254945054945055,3.3,0.33926739926739924
2.4982119360065553,0.43677655677655675,2.752014652014652,0.17809523809523808
2.500636367010884,0.43677655677655675,2.752014652014652,0.17809523809523808
2.500782828006777,0.43677655677655675,2.752014652014652,0.17809523809523808
2.5060252670082264,0.43677655677655675,2.752014652014652,0.17809523809523808
2.5082956120022573,0.43677655677655675,2.752014652014652,0.17809523809523808
2.5085630740068154,0.43677655677655675,2.752014652014652,0.17809523809523808
2.5140646650106646,0.43677655677655675,2.752014652014652,0.17809523809523808
2.5150366730085807,0.43677655677655675,2.752014652014652,0.17809523809523808
2.5164461770036723,0.43677655677655675,2.752014652014652,0.17809523809523808
2.5248257470084354,0.43677655677655675,2.752014652014652,0.17809523809523808
2.531961108004907,0.43677655677655675,2.752014652014652,0.17809523809523808
2.5375921510130865,0.43677655677655675,2.752014652014652,0.17809523809523808
2.5450996510044206,0.5117216117216117,0.2804395604395604,0.14263736263736262
2.5497375520062633,0.5117216117216117,0.2804395604395604,0.14263736263736262
2.5499865150050027,0.5117216117216117,0.2804395604395604,0.14263736263736262
2.5554962170135695,0.5117216117216117,0.2804395604395604,0.14263736263736262
2.5563259810005547,0.5117216117216117,0.2804395604395604,0.14263736263736262
2.5579086750076385,0.5117216117216117,0.2804395604395604,0.14263736263736262
2.561811318009859,0.5117216117216117,0.2804395604395604,0.14263736263736262
2.566610402005608,0.5117216117216117,0.2804395604395604,0.14263736263736262
2.56686172701302,0.5117216117216117,0.2804395604395604,0.14263736263736262
2.571525234001456,0.5117216117216117,0.2804395604395604,0.14263736263736262
2.571776872006012,0.5117216117216117,0.2804395604395604,0.14263736263736262
2.5773650060000364,0.5117216117216117,0.2804395604395604,0.14263736263736262
2.5783171620132634,0.5117216117216117,0.2804395604395604,0.14263736263736262
2.579277640004875,0.5117216117216117,0.2804395604395604,0.14263736263736262
2.580865061012446,0.5117216117216117,0.2804395604395604,0.14263736263736262
2.5847177890100284,0.5117216117216117,0.2804395604395604,0.14263736263736262
2.589185285003623,1.8776556776556774,3.3,0.2796336996336996
2.590049550010008,1.8776556776556774,3.3,0.2796336996336996
2.591615510013071,1.8776556776556774,3.3,0.2796336996336996
2.5961713290016633,1.8776556776556774,3.3,0.2796336996336996
2.5963825630024076,0.048351648351648346,0.8558241758241758,0.07172161172161172
2.601280663002399,0.9968498168498168,2.9776556776556777,0.3505494505494505
2.606820247005089,0.9968498168498168,2.9776556776556777,0.3505494505494505
2.6083634560054634,1.5907692307692307,3.3,0.2643223443223443
2.612213281012373,1.5907692307692307,3.3,0.2643223443223443
2.6169584980088985,1.5907692307692307,3.3,0.2643223443223443
2.6171831140090944,0.40695970695970696,0.3312087912087912,0.09186813186813186
2.6219531990063842,0.40695970695970696,0.3312087912087912,0.09186813186813186
2.6275761390133994,0.40695970695970696,0.3312087912087912,0.09186813186813186
2.6283973210083786,0.40695970695970696,0.3312087912087912,0.09186813186813186
2.630101584014483,0.40695970695970696,0.3312087912087912,0.09186813186813186
2.633293623002828,0.40695970695970696,0.3312087912087912,0.09186813186813186
2.6348479830048745,0.40695970695970696,0.3312087912087912,0.09186813186813186
2.639569124003174,0.40695970695970696,0.3312087912087912,0.09186813186813186
2.639844796009129,0.0,0.8316483516483516,0.18534798534798536
2.6444781190075446,0.0,0.8316483516483516,0.18534798534798536
2.644599941006163,0.0,0.8316483516483516,0.18534798534798536
2.6500291810079943,0.0,0.8316483516483516,0.18534798534798536
2.6517729440092808,0.010476190476190476,1.6076923076923075,0.14827838827838827
2.6549297600140562,0.010476190476190476,1.6076923076923075,0.14827838827838827
2.655839288010611,0.010476190476190476,1.6076923076923075,0.14827838827838827
2.657465956013766,0.010476190476190476,1.6076923076923075,0.14827838827838827
2.6625385240040487,0.0,0.9057875457875458,0.08945054945054945
2.666570799003239,0.7430036630036629,3.3,0.31750915750915754
2.670478287007427,0.7430036630036629,3.3,0.31750915750915754
2.675064627008396,0.41098901098901097,2.5586080586080584,0.18776556776556774
2.675879270012956,0.0273992673992674,0.6519413919413919,0.17648351648351646
2.6774279980018036,0.014505494505494505,0.8727472527472527,0.06366300366300366
2.6820349830086343,0.014505494505494505,0.8727472527472527,0.06366300366300366
2.6822966000036104,0.014505494505494505,0.8727472527472527,0.06366300366300366
2.6872861290030414,0.014505494505494505,0.8727472527472527,0.06366300366300366
2.691766516014468,1.3264468864468864,3.3,0.3465201465201465
2.693313190000481,1.3264468864468864,3.3,0.3465201465201465
2.6977773470134707,1.3264468864468864,3.3,0.3465201465201465
2.6980697360122576,1.3264468864468864,3.3,0.3465201465201465
2.703644000008353,1.3264468864468864,3.3,0.3465201465201465
2.703967964000185,1.3264468864468864,3.3,0.3465201465201465
2.7085338240140118,1.3264468864468864,3.3,0.3465201465201465
2.709390775009524,0.6253479853479853,2.8736996336996334,0.3046153846153846
2.7110626339999726,0.6253479853479853,2.8736996336996334,0.3046153846153846
2.7145494090073043,2.3708424908424908,3.3,0.6608058608058608
2.7153840950049926,2.3708424908424908,3.3,0.6608058608058608
2.7163382090075174,2.3708424908424908,3.3,0.6608058608058608
2.7186309050011914,2.3708424908424908,3.3,0.6608058608058608
2.7188163380051265,1.822051282051282,2.5553846153846154,0.3352380952380952
2.723578481003642,1.822051282051282,2.5553846153846154,0.3352380952380952
2.7238957090012264,1.822051282051282,2.5553846153846154,0.3352380952380952
2.7284771720005665,1.822051282051282,2.5553846153846154,0.3352380952380952
2.7287299130111933,1.822051282051282,2.5553846153846154,0.3352380952380952
2.7340386760042747,1.822051282051282,2.5553846153846154,0.3352380952380952
2.736473429002217,1.822051282051282,2.5553846153846154,0.3352380952380952
2.7418107360135764,1.822051282051282,2.5553846153846154,0.3352380952380952
2.744856476012501,2.3200732600732596,3.3,0.697069597069597
2.746485109004425,0.9154578754578755,3.3,0.2191941391941392
2.7508746510138735,0.9154578754578755,3.3,0.2191941391941392
2.751747486006934,0.9154578754578755,3.3,0.2191941391941392
2.7533786260028137,0.9154578754578755,3.3,0.2191941391941392
2.757163012007368,0.9154578754578755,3.3,0.2191941391941392
2.7626068370009307,0.9154578754578755,3.3,0.2191941391941392
2.7651705290045356,1.797069597069597,3.3,0.5254212454212454
2.774842939004884,1.0339194139194139,3.3,0.20146520146520144
2.7828111320122844,0.19663003663003664,2.0589743589743588,0.13054945054945052
2.7866689400107134,0.19663003663003664,2.0589743589743588,0.13054945054945052
2.7913544650073163,0.19663003663003664,2.0589743589743588,0.13054945054945052
2.79156157100806,0.19663003663003664,2.0589743589743588,0.13054945054945052
2.7979544150002766,0.19663003663003664,2.0589743589743588,0.13054945054945052
2.803612174000591,0.19663003663003664,2.0589743589743588,0.13054945054945052
2.811912631004816,0.19663003663003664,2.0589743589743588,0.13054945054945052
2.8179259810131043,0.19663003663003664,2.0589743589743588,0.13054945054945052
2.8224298620043555,1.8792673992673992,2.5521611721611723,0.3578021978021978
2.8228205620107474,1.7479120879120877,3.3,0.6084249084249085
2.82870962000743,1.7479120879120877,3.3,0.6084249084249085
2.835820432010223,1.7479120879120877,3.3,0.6084249084249085
2.841995653012418,1.7479120879120877,3.3,0.6084249084249085
2.846869503002381,1.7479120879120877,3.3,0.6084249084249085
2.851717676006956,1.7479120879120877,3.3,0.6084249084249085
2.8619670970074367,1.7479120879120877,3.3,0.6084249084249085
2.868631103003281,0.0,0.581025641025641,0.0838095238095238
2.873583631007932,0.0,0.581025641025641,0.0838095238095238
2.8786153120017843,0.43355311355311354,0.23531135531135527,0.09509157509157509
2.8826571840036195,0.43355311355311354,0.23531135531135527,0.09509157509157509
2.8865284730127314,0.43355311355311354,0.23531135531135527,0.09509157509157509
2.892137133007054,0.43355311355311354,0.23531135531135527,0.09509157509157509
2.8923506000137422,0.5802197802197803,0.9726739926739927,0.4351648351648352
2.897161586006405,0.5802197802197803,0.9726739926739927,0.4351648351648352
2.89725451200502,0.0,0.6785347985347985,0.09347985347985348
2.902516241010744,0.0,0.6785347985347985,0.09347985347985348
2.906169124005828,0.0,0.6785347985347985,0.09347985347985348
2.9111453100049403,0.0,0.6785347985347985,0.09347985347985348
2.9158045060030418,0.20227106227106226,1.7052014652014653,0.18776556776556774
2.9160366280120797,0.20227106227106226,1.7052014652014653,0.18776556776556774
2.921356506005395,0.20227106227106226,1.7052014652014653,0.18776556776556774
2.9246771190082654,0.20227106227106226,1.7052014652014653,0.18776556776556774
2.9249988390074577,0.20227106227106226,1.7052014652014653,0.18776556776556774
2.9296822370088194,0.20227106227106226,1.7052014652014653,0.18776556776556774
2.929907577999984,0.3690842490842491,2.61018315018315,0.14505494505494507
2.9347226500103716,0.3690842490842491,2.61018315018315,0.14505494505494507
2.941448969009798,1.8832967032967032,2.9776556776556777,0.5254212454212454
2.9446574580069864,1.8832967032967032,2.9776556776556777,0.5254212454212454
2.9462960370001383,1.8832967032967032,2.9776556776556777,0.5254212454212454
2.949966016007238,0.8389010989010988,3.3,0.10798534798534798
2.9557514560001437,0.26915750915750913,2.149230769230769,0.166007326007326
2.9561397270008456,0.26915750915750913,2.149230769230769,0.166007326007326
2.9616539450071286,0.26915750915750913,2.149230769230769,0.166007326007326
2.962599164005951,2.112161172161172,3.3,0.6946520146520146
2.963551513006678,2.112161172161172,3.3,0.6946520146520146
2.9651048430096125,2.112161172161172,3.3,0.6946520146520146
2.969467798000551,2.112161172161172,3.3,0.6946520146520146
2.9723683560005156,0.008864468864468863,1.3232234432234433,0.14586080586080585
2.9757487950118957,0.008864468864468863,1.3232234432234433,0.14586080586080585
2.9760649270028807,0.008864468864468863,1.3232234432234433,0.14586080586080585
2.980484684012481,0.008864468864468863,1.3232234432234433,0.14586080586080585
2.980777400007355,0.008864468864468863,1.3232234432234433,0.14586080586080585
2.9859545580111444,0.008864468864468863,1.3232234432234433,0.14586080586080585
2.992771437013289,0.008864468864468863,1.3232234432234433,0.14586080586080585
2.9962319250043947,0.008864468864468863,1.3232234432234433,0.14586080586080585
2.9964355990086915,0.008864468864468863,1.3232234432234433,0.14586080586080585
3.001616418012418,0.008864468864468863,1.3232234432234433,0.14586080586080585
3.0049071130051743,0.008864468864468863,1.3232234432234433,0.14586080586080585
3.007448108008248,0.008864468864468863,1.3232234432234433,0.14586080586080585
3.013219864005805,0.008864468864468863,1.3232234432234433,0.14586080586080585
3.018182945001172,0.008864468864468863,1.3232234432234433,0.14586080586080585
3.0259986630117055,0.008864468864468863,1.3232234432234433,0.14586080586080585
3.0301005840010475,0.46739926739926735,3.12029304029304,0.31750915750915754
3.0325268570013577,0.3191208791208791,2.4715750915750916,0.1555311355311355
3.032703211007174,0.3191208791208791,2.4715750915750916,0.1555311355311355
3.0388972250075312,0.5632967032967032,0.4126007326007326,0.2063003663003663
3.043352243010304,0.5632967032967032,0.4126007326007326,0.2063003663003663
3.043490380005096,0.5632967032967032,0.4126007326007326,0.2063003663003663
3.0487706440035254,0.5632967032967032,0.4126007326007326,0.2063003663003663
3.050488012013375,1.2458608058608058,3.3,0.30139194139194136
3.0536573920107912,1.2458608058608058,3.3,0.30139194139194136
3.05578422700637,0.5769963369963369,0.46014652014652013,0.24901098901098898
3.0569672960118623,0.5769963369963369,0.46014652014652013,0.24901098901098898
3.057107309999992,0.0,0.8582417582417583,0.0709157509157509
3.0624860630050534,0.0,0.8582417582417583,0.0709157509157509
3.064828305010451,0.0,0.8582417582417583,0.0709157509157509
3.065049576005549,0.0,0.8582417582417583,0.0709157509157509
3.0708865210035583,0.9315750915750916,3.3,0.26673992673992675
3.077206254005432,0.9315750915750916,3.3,0.26673992673992675
3.0809981580096064,0.9315750915750916,3.3,0.26673992673992675
3.086673473007977,0.9315750915750916,3.3,0.26673992673992675
3.087559161009267,0.9315750915750916,3.3,0.26673992673992675
3.0899500470113708,0.9315750915750916,3.3,0.26673992673992675
3.096110337006394,0.2756043956043956,2.4393406593406595,0.1241025641025641
3.099861878014053,0.2756043956043956,2.4393406593406595,0.1241025641025641
3.099993275012821,0.8791941391941391,3.3,0.3441025641025641
3.106835193000734,0.8791941391941391,3.3,0.3441025641025641
3.1110929940041387,0.8791941391941391,3.3,0.3441025641025641
3.1119979100039927,0.8791941391941391,3.3,0.3441025641025641
3.1136887980101164,0.8791941391941391,3.3,0.3441025641025641
3.117592146008974,0.8791941391941391,3.3,0.3441025641025641
3.1224292300030356,0.8791941391941391,3.3,0.3441025641025641
3.1271109090012033,0.8791941391941391,3.3,0.3441025641025641
3.132437585009029,1.1419047619047618,3.3,0.25465201465201465
3.1347670090035535,1.1419047619047618,3.3,0.25465201465201465
3.13496161600051,1.1419047619047618,3.3,0.25465201465201465
3.1436825540004065,1.1419047619047618,3.3,0.25465201465201465
3.1502190840110416,1.6495970695970694,3.3,0.3537728937728937
3.1559383850108134,0.7792673992673992,3.3,0.21838827838827837
3.1620165910135256,0.7792673992673992,3.3,0.21838827838827837
3.165847461001249,0.7792673992673992,3.3,0.21838827838827837
3.1704331210057717,0.7792673992673992,3.3,0.21838827838827837
3.170776739003486,0.7792673992673992,3.3,0.21838827838827837
3.177552076012944,0.7792673992673992,3.3,0.21838827838827837
3.1814737800013972,1.1040293040293039,1.7736996336996336,0.4029304029304029
3.1852738140005386,1.1040293040293039,1.7736996336996336,0.4029304029304029
3.191158355009975,1.1040293040293039,1.7736996336996336,0.4029304029304029
3.196643954011961,1.1040293040293039,1.7736996336996336,0.4029304029304029
3.198967728007119,1.1040293040293039,1.7736996336996336,0.4029304029304029
3.1991703750099987,1.1040293040293039,1.7736996336996336,0.4029304029304029
3.2055279610067373,1.1040293040293039,1.7736996336996336,0.4029304029304029
3.2097651660005795,1.2917948717948717,3.3,0.2224175824175824
3.211450863003847,0.2683516483516483,2.2394871794871793,0.17406593406593407
3.2151693949999753,0.2683516483516483,2.2394871794871793,0.17406593406593407
3.2206512190023204,0.2683516483516483,2.2394871794871793,0.17406593406593407
3.2245727260014974,0.2683516483516483,2.2394871794871793,0.17406593406593407
3.227708498001448,0.2683516483516483,2.2394871794871793,0.17406593406593407
3.2285878350085113,0.2683516483516483,2.2394871794871793,0.17406593406593407
3.2302115200000117,0.2683516483516483,2.2394871794871793,0.17406593406593407
3.2342116450017784,0.2683516483516483,2.2394871794871793,0.17406593406593407
3.2388568250025855,0.7284981684981684,0.48754578754578753,0.27238095238095233
3.239030635013478,0.7284981684981684,0.48754578754578753,0.27238095238095233
3.2454469940130366,0.7284981684981684,0.48754578754578753,0.27238095238095233
3.2493556160043227,0.7284981684981684,0.48754578754578753,0.27238095238095233
3.254317697006627,0.3779487179487179,2.843882783882784,0.20388278388278389
3.2619097330025397,0.6358241758241758,0.2191941391941392,0.1555311355311355
3.266621781003778,0.0,0.8606593406593407,0.10315018315018315
3.266793521004729,0.0,0.8606593406593407,0.10315018315018315
3.274378157002502,0.0,0.8606593406593407,0.10315018315018315
3.278596126008779,0.0,0.8606593406593407,0.10315018315018315
3.2802209130022675,0.0,0.5181684981684981,0.0975091575091575
3.284000190004008,0.0,0.5181684981684981,0.0975091575091575
3.2897946250013774,0.0,0.5181684981684981,0.0975091575091575
3.289941742012161,0.0,0.5181684981684981,0.0975091575091575
3.2954146490083076,0.0,0.5181684981684981,0.0975091575091575
3.29657339201367,0.0,0.5181684981684981,0.0975091575091575
3.2967040380026447,0.0,0.5181684981684981,0.0975091575091575
3.3021233350009425,0.0,0.5181684981684981,0.0975091575091575
3.3030052200047066,1.775311355311355,2.5586080586080584,0.3843956043956044
3.3055323240114376,1.775311355311355,2.5586080586080584,0.3843956043956044
3.313116258010268,0.4158241758241758,3.3,0.18857142857142856
3.31761449300393,0.4158241758241758,3.3,0.18857142857142856
3.3185966780001763,0.07897435897435898,0.5471794871794872,0.06124542124542124
3.319512225003564,0.07897435897435898,0.5471794871794872,0.06124542124542124
3.322009269002592,0.07897435897435898,0.5471794871794872,0.06124542124542124
3.3282982510136208,0.07897435897435898,0.5471794871794872,0.06124542124542124
3.331565684013185,0.07897435897435898,0.5471794871794872,0.06124542124542124
3.3325318210117985,0.07897435897435898,0.5471794871794872,0.06124542124542124
3.3334628860029625,0.07897435897435898,0.5471794871794872,0.06124542124542124
3.334991980009363,0.07897435897435898,0.5471794871794872,0.06124542124542124
3.34153819300991,0.07897435897435898,0.5471794871794872,0.06124542124542124
3.344884482008638,0.25868131868131866,1.6786080586080585,0.448058608058608
3.345913945013308,1.9356776556776556,3.3,0.23369963369963367
3.3467960030102404,1.9356776556776556,3.3,0.23369963369963367
3.3484104450035375,1.9356776556776556,3.3,0.23369963369963367
3.3524535420001484,1.9356776556776556,3.3,0.23369963369963367
3.3570986010017805,1.9356776556776556,3.3,0.23369963369963367
3.363190112009761,0.12571428571428572,0.7841025641025641,0.06608058608058608
3.3669802240037825,1.5206593406593405,2.5521611721611723,0.3167032967032967
3.371741244001896,1.5206593406593405,2.5521611721611723,0.3167032967032967
3.37193447300524,1.5206593406593405,2.5521611721611723,0.3167032967032967
3.3782695650006644,1.5206593406593405,2.5521611721611723,0.3167032967032967
3.382148345001042,1.5206593406593405,2.5521611721611723,0.3167032967032967
3.3871085030114045,1.5206593406593405,2.5521611721611723,0.3167032967032967
3.3953059680061415,1.5206593406593405,2.5521611721611723,0.3167032967032967
3.4006596530089155,1.5206593406593405,2.5521611721611723,0.3167032967032967
3.4030226610047976,1.5206593406593405,2.5521611721611723,0.3167032967032967
3.4033877980109537,1.5206593406593405,2.5521611721611723,0.3167032967032967
3.4100780310109258,1.5206593406593405,2.5521611721611723,0.3167032967032967
3.41391467100766,0.03465201465201465,0.855018315018315,0.2369230769230769
3.4194679180072853,0.03465201465201465,0.855018315018315,0.2369230769230769
3.421141538012307,1.220879120879121,3.3,0.3658608058608058
3.425975060003111,1.220879120879121,3.3,0.3658608058608058
3.4301604270003736,0.6922344322344323,3.3,0.18373626373626373
3.431788919013343,0.7824908424908424,3.3,0.25142857142857145
3.4365885160077596,0.7824908424908424,3.3,0.25142857142857145
3.436813937005354,0.7824908424908424,3.3,0.25142857142857145
3.4435972810024396,0.5238095238095237,1.7366300366300367,0.1813186813186813
3.4479684340039967,0.5238095238095237,1.7366300366300367,0.1813186813186813
3.4489165680133738,0.5238095238095237,1.7366300366300367,0.1813186813186813
3.451004575006664,0.5238095238095237,1.7366300366300367,0.1813186813186813
3.451946488014073,0.2224175824175824,2.013040293040293,0.14263736263736262
3.4537288570136297,0.2224175824175824,2.013040293040293,0.14263736263736262
3.45849516200542,0.2224175824175824,2.013040293040293,0.14263736263736262
3.462370273002307,0.2224175824175824,2.013040293040293,0.14263736263736262
3.467449571006,0.2224175824175824,2.013040293040293,0.14263736263736262
3.4735749760002363,0.2224175824175824,2.013040293040293,0.14263736263736262
3.4773965640051756,0.2224175824175824,2.013040293040293,0.14263736263736262
3.4813666390109574,1.1757509157509156,3.3,0.365054945054945
3.4850963160133688,1.1757509157509156,3.3,0.365054945054945
3.4920823070133338,1.1757509157509156,3.3,0.365054945054945
3.497132190008415,0.3852014652014652,2.5360439560439563,0.1652014652014652
3.5008283740025945,0.3852014652014652,2.5360439560439563,0.1652014652014652
3.5090966910065617,1.1459340659340658,2.4860805860805857,0.5334798534798535
3.5130789220129373,2.237875457875458,3.3,0.7430036630036629
3.5161688460066216,2.161318681318681,3.3,0.6164835164835165
3.5184422580059618,2.161318681318681,3.3,0.6164835164835165
3.519293301011203,2.161318681318681,3.3,0.6164835164835165
3.52199488900078,2.161318681318681,3.3,0.6164835164835165
3.526336147013353,2.161318681318681,3.3,0.6164835164835165
3.5265980930125806,2.161318681318681,3.3,0.6164835164835165
3.531120927000302,2.161318681318681,3.3,0.6164835164835165
3.531969678006135,2.161318681318681,3.3,0.6164835164835165
3.5335067480045836,2.161318681318681,3.3,0.6164835164835165
3.5386506500071846,2.161318681318681,3.3,0.6164835164835165
3.5431968060001964,1.826080586080586,3.3,0.365054945054945
3.5485332250100328,1.569010989010989,3.3,0.26109890109890105
3.5508743920072448,0.0032234432234432234,1.2821245421245422,0.13941391941391942
3.5510795430018334,0.0032234432234432234,1.2821245421245422,0.13941391941391942
3.5584158730052877,0.0032234432234432234,1.2821245421245422,0.13941391941391942
3.5623150460014585,0.0709157509157509,0.40534798534798533,0.08622710622710622
3.5663064120017225,0.0709157509157509,0.40534798534798533,0.08622710622710622
3.570324000000255,0.0709157509157509,0.40534798534798533,0.08622710622710622
3.5747498350101523,0.0709157509157509,0.40534798534798533,0.08622710622710622
3.5750124670012156,0.0709157509157509,0.40534798534798533,0.08622710622710622
3.5803014480043203,0.0,0.6495238095238095,0.1112087912087912
3.581930698012002,0.0,0.6857875457875457,0.07575091575091575
3.586526170009165,0.0,0.6857875457875457,0.07575091575091575
3.586636724008713,0.0,0.6857875457875457,0.07575091575091575
3.594759198007523,0.0,0.6857875457875457,0.07575091575091575
3.599547206002171,0.0,0.6857875457875457,0.07575091575091575
3.5996301990089705,0.0,0.95010989010989,0.06769230769230769
3.6069743120024214,0.0,0.95010989010989,0.06769230769230769
3.610544265000499,0.0,0.95010989010989,0.06769230769230769
3.6157959760021186,0.0,0.95010989010989,0.06769230769230769
3.6187559080135543,0.0,0.95010989010989,0.06769230769230769
3.6235330030031037,0.0,0.95010989010989,0.06769230769230769
3.6285567310114857,0.7349450549450549,3.3,0.3295970695970696
3.6318042790080654,0.7349450549450549,3.3,0.3295970695970696
3.633423223000136,0.022564102564102562,1.4473260073260072,0.17809523809523808
3.639987603004556,2.1242490842490844,3.3,0.6559706959706959
3.6430247360112844,2.1242490842490844,3.3,0.6559706959706959
3.645264002014301,2.01062271062271,3.3,0.25545787545787546
3.6454996290121926,2.01062271062271,3.3,0.25545787545787546
3.651055560010718,2.01062271062271,3.3,0.25545787545787546
3.6518902810057625,2.01062271062271,3.3,0.25545787545787546
3.6536122750112554,2.01062271062271,3.3,0.25545787545787546
3.6600803110050038,2.01062271062271,3.3,0.25545787545787546
3.663279375003185,2.01062271062271,3.3,0.25545787545787546
3.664921832008986,2.01062271062271,3.3,0.25545787545787546
3.668700879003154,2.01062271062271,3.3,0.25545787545787546
3.6771236110071186,2.01062271062271,3.3,0.25545787545787546
3.6820918490120675,2.01062271062271,3.3,0.25545787545787546
3.687053558009211,2.01062271062271,3.3,0.25545787545787546
3.6960827150032856,1.7608058608058608,3.2589010989010987,0.37875457875457874
3.7009320630022557,2.2354578754578753,3.3,0.6946520146520146
3.7092078660061816,2.2354578754578753,3.3,0.6946520146520146
3.7142061430058675,1.5126007326007325,3.3,0.18937728937728937
3.7190143230109243,1.5126007326007325,3.3,0.18937728937728937
3.7279077320126817,1.5126007326007325,3.3,0.18937728937728937
3.7326873570127646,1.5126007326007325,3.3,0.18937728937728937
3.7327927100122906,2.285421245421245,3.3,0.6406593406593406
3.7383103710017167,2.285421245421245,3.3,0.6406593406593406
3.7396494830027223,2.285421245421245,3.3,0.6406593406593406
3.746177434004494,2.285421245421245,3.3,0.6406593406593406
3.7501910610008053,1.999340659340659,3.3,0.28608058608058606
3.7550038310000673,0.0,1.1612454212454213,0.21355311355311357
3.762230255000759,0.0,1.1612454212454213,0.21355311355311357
3.766839574003825,1.6769963369963368,3.3,0.3529670329670329
3.7676515560015105,1.6769963369963368,3.3,0.3529670329670329
3.769215123000322,1.6769963369963368,3.3,0.3529670329670329
3.775894985010382,1.6769963369963368,3.3,0.3529670329670329
3.7793872030015336,1.6769963369963368,3.3,0.3529670329670329
3.7848939610121306,1.6769963369963368,3.3,0.3529670329670329
3.786762419011211,1.6769963369963368,3.3,0.3529670329670329
3.7924752320104744,1.6769963369963368,3.3,0.3529670329670329
3.797089933010284,1.6769963369963368,3.3,0.3529670329670329
3.7972548400139203,1.6769963369963368,3.3,0.3529670329670329
3.8018568840052467,1.6769963369963368,3.3,0.3529670329670329
3.802154146003886,1.6769963369963368,3.3,0.3529670329670329
3.8098703190044034,1.6769963369963368,3.3,0.3529670329670329
3.8147089140111348,0.07333333333333333,1.4932600732600732,0.10637362637362638
3.814804206005647,0.07333333333333333,1.4932600732600732,0.10637362637362638
3.8201966480119154,0.07333333333333333,1.4932600732600732,0.10637362637362638
3.8231849260046147,0.07333333333333333,1.4932600732600732,0.10637362637362638
3.8255989580065943,0.07333333333333333,1.4932600732600732,0.10637362637362638
3.8314396400091937,1.232161172161172,3.3,0.2482051282051282
3.8371109170111595,1.232161172161172,3.3,0.2482051282051282
3.837556955011678,1.232161172161172,3.3,0.2482051282051282
3.8429648320015986,1.232161172161172,3.3,0.2482051282051282
3.8431803380080964,1.232161172161172,3.3,0.2482051282051282
3.8477774370112456,2.1395604395604395,3.3,0.2328937728937729
3.8480931450030766,0.8018315018315018,3.3,0.0838095238095238
3.8533295700035524,0.8018315018315018,3.3,0.0838095238095238
3.85841886200069,0.8018315018315018,3.3,0.0838095238095238
3.860135409006034,0.8018315018315018,3.3,0.0838095238095238
3.8631935860030353,0.8018315018315018,3.3,0.0838095238095238
3.865478488005465,0.8018315018315018,3.3,0.0838095238095238
3.8657569940114627,0.8018315018315018,3.3,0.0838095238095238
3.870302570008789,0.8018315018315018,3.3,0.0838095238095238
3.8709805440012133,0.18454212454212454,2.17018315018315,0.15472527472527473
3.8751583300036145,0.18454212454212454,2.17018315018315,0.15472527472527473
3.8755061230040155,0.18454212454212454,2.17018315018315,0.15472527472527473
3.8815059040061897,0.18454212454212454,2.17018315018315,0.15472527472527473
3.885689453003579,2.1153846153846154,2.5465201465201464,0.35135531135531134
3.889162657011184,2.1153846153846154,2.5465201465201464,0.35135531135531134
3.88942890301405,2.1153846153846154,2.5465201465201464,0.35135531135531134
3.895876152004348,2.1153846153846154,2.5465201465201464,0.35135531135531134
3.899650871011545,0.0,0.6164835164835165,0.195018315018315
3.9051516960025765,0.0,0.6164835164835165,0.195018315018315
3.9061520290124463,0.0,0.6164835164835165,0.195018315018315
3.9074577650026185,0.0,0.6164835164835165,0.195018315018315
3.9132444160059094,0.0,0.6164835164835165,0.195018315018315
3.913346523011569,0.0,0.6164835164835165,0.195018315018315
3.918735365004977,0.0,0.6164835164835165,0.195018315018315
3.9206231240095804,0.0,0.6164835164835165,0.195018315018315
3.9244911470013903,0.0,0.6164835164835165,0.195018315018315
3.9275369480019435,0.0,0.6164835164835165,0.195018315018315
3.9290854500140995,0.0,0.6164835164835165,0.195018315018315
3.9329156470048474,0.0,0.6164835164835165,0.195018315018315
3.9409114540030714,0.0,0.6164835164835165,0.195018315018315
3.9451655140001094,0.0,0.6164835164835165,0.195018315018315
3.947519547000411,0.0,0.6164835164835165,0.195018315018315
3.9529380860039964,0.0,0.6164835164835165,0.195018315018315
3.9566129990125773,0.0,0.6164835164835165,0.195018315018315
3.960917446005624,0.0,0.6164835164835165,0.195018315018315
3.961843122000573,0.0,0.6164835164835165,0.195018315018315
3.9642600350052817,0.0,0.6164835164835165,0.195018315018315
3.971666779005318,1.4610256410256408,3.3,0.448058608058608
3.976732303010067,0.10395604395604395,1.6737728937728935,0.13135531135531134
3.980122041000868,0.10395604395604395,1.6737728937728935,0.13135531135531134
3.980374256003415,0.10395604395604395,1.6737728937728935,0.13135531135531134
3.9856806760071777,0.10395604395604395,1.6737728937728935,0.13135531135531134
3.990444776005461,0.10395604395604395,1.6737728937728935,0.13135531135531134
3.9973532050062204,0.10395604395604395,1.6737728937728935,0.13135531135531134
4.0019837100117,0.10395604395604395,1.6737728937728935,0.13135531135531134
4.009923245001119,0.10395604395604395,1.6737728937728935,0.13135531135531134
4.013745821008342,0.5463736263736263,3.025201465201465,0.16036630036630037
4.018209051006124,2.423223443223443,3.3,0.6358241758241758
4.018480328013538,2.423223443223443,3.3,0.6358241758241758
4.025971164010116,2.423223443223443,3.3,0.6358241758241758
4.030019619007362,0.9436630036630036,3.3,0.3102564102564102
4.033640331006609,0.44402930402930396,2.7657142857142856,0.19340659340659339
4.045989490012289,0.44402930402930396,2.7657142857142856,0.19340659340659339
4.056536525007687,0.44402930402930396,2.7657142857142856,0.19340659340659339
4.06572855100967,0.49882783882783877,1.6246153846153846,0.190989010989011
4.076336978003383,2.125054945054945,2.5545787545787544,0.3376556776556776
4.0824099960009335,2.1355311355311355,3.3,0.6672527472527472
4.0892055470030755,2.1355311355311355,3.3,0.6672527472527472
4.09327194900834,0.07736263736263736,1.464249084249084,0.11684981684981684
4.096327253006166,0.07736263736263736,1.464249084249084,0.11684981684981684
4.09767934201227,0.07736263736263736,1.464249084249084,0.11684981684981684
4.107437996004592,0.07736263736263736,1.464249084249084,0.11684981684981684
4.11243964600726,0.07736263736263736,1.464249084249084,0.11684981684981684
4.116214692010544,0.07736263736263736,1.464249084249084,0.11684981684981684
4.121003642008873,0.07736263736263736,1.464249084249084,0.11684981684981684
4.129295600010664,0.07736263736263736,1.464249084249084,0.11684981684981684
4.134566282009473,0.07736263736263736,1.464249084249084,0.11684981684981684
4.1409578600141685,0.9025641025641026,1.4336263736263737,0.43999999999999995
4.14534103400365,0.9025641025641026,1.4336263736263737,0.43999999999999995
4.145684128001449,0.9025641025641026,1.4336263736263737,0.43999999999999995
4.150309475007816,0.9025641025641026,1.4336263736263737,0.43999999999999995
4.150607119008782,0.07494505494505493,1.4868131868131869,0.14747252747252745
4.157948319014395,0.07494505494505493,1.4868131868131869,0.14747252747252745
4.1621145290118875,0.07494505494505493,1.4868131868131869,0.14747252747252745
4.163089896013844,0.07494505494505493,1.4868131868131869,0.14747252747252745
4.164047107013175,0.07494505494505493,1.4868131868131869,0.14747252747252745
4.165861984001822,0.07494505494505493,1.4868131868131869,0.14747252747252745
4.168736488005379,0.07494505494505493,1.4868131868131869,0.14747252747252745
4.171748684006161,0.07494505494505493,1.4868131868131869,0.14747252747252745
4.175765870008036,0.4383882783882784,2.8229304029304028,0.1676190476190476
4.178198253008304,2.1548717948717946,3.3,0.6865934065934066
4.178330125010689,2.1548717948717946,3.3,0.6865934065934066
4.18320737000613,2.1548717948717946,3.3,0.6865934065934066
4.190791534012533,2.1548717948717946,3.3,0.6865934065934066
4.195153417007532,2.1548717948717946,3.3,0.6865934065934066
4.196084742012317,2.1548717948717946,3.3,0.6865934065934066
4.196999033010798,2.1548717948717946,3.3,0.6865934065934066
4.198622070005513,2.1548717948717946,3.3,0.6865934065934066
4.202875589005998,2.1548717948717946,3.3,0.6865934065934066
4.20666989700112,2.1548717948717946,3.3,0.6865934065934066
4.209809520005365,1.2345787545787545,3.3,0.24336996336996336
4.210733624000568,1.2345787545787545,3.3,0.24336996336996336
4.211703960012528,1.2345787545787545,3.3,0.24336996336996336
4.213361561007332,1.2345787545787545,3.3,0.24336996336996336
4.216376767013571,0.763956043956044,0.28849816849816845,0.20065934065934066
4.218721652010572,0.0,0.5487912087912087,0.1515018315018315
4.218948084002477,0.0,0.5487912087912087,0.1515018315018315
4.226594704014133,0.0,0.5487912087912087,0.1515018315018315
4.2308895620080875,1.8816849816849814,3.3,0.606007326007326
4.23250809100864,0.47062271062271055,2.826153846153846,0.17406593406593407
4.236736241000472,0.47062271062271055,2.826153846153846,0.17406593406593407
4.23866270200233,0.0,0.5447619047619047,0.09106227106227105
4.241796457004966,0.0,0.5447619047619047,0.09106227106227105
4.242172121012118,0.0,0.5447619047619047,0.09106227106227105
4.246814827012713,0.0,0.5447619047619047,0.09106227106227105
4.246967815008247,0.0,0.5447619047619047,0.09106227106227105
4.252212329010945,0.0,0.5447619047619047,0.09106227106227105
4.257259548001457,0.0,0.5447619047619047,0.09106227106227105
4.259230480005499,0.0,0.5447619047619047,0.09106227106227105
4.260833085005288,0.0,0.5447619047619047,0.09106227106227105
4.265783226001076,0.0,0.5447619047619047,0.09106227106227105
4.2713906850112835,0.0,0.5447619047619047,0.09106227106227105
4.271499377005966,0.0,0.5447619047619047,0.09106227106227105
4.278721009002766,0.0,0.5447619047619047,0.09106227106227105
4.283249085012358,0.0,0.5447619047619047,0.09106227106227105
4.284065517000272,0.0,0.5447619047619047,0.09106227106227105
4.285617441011709,0.0,0.5447619047619047,0.09106227106227105
4.291963878000388,0.0,0.5447619047619047,0.09106227106227105
4.29523978701036,0.0,0.5447619047619047,0.09106227106227105
4.295806240013917,0.0,0.5447619047619047,0.09106227106227105
4.2995668800140265,0.0,0.5447619047619047,0.09106227106227105
4.306824773011613,2.0944322344322344,2.5473260073260073,0.3795604395604395
4.310376671011909,2.0944322344322344,2.5473260073260073,0.3795604395604395
4.315798721014289,2.0944322344322344,2.5473260073260073,0.3795604395604395
4.318342171012773,2.0944322344322344,2.5473260073260073,0.3795604395604395
4.325946058001136,2.0944322344322344,2.5473260073260073,0.3795604395604395
4.32981315300276,1.8663736263736261,2.557802197802198,0.09589743589743589
4.334353392012417,1.8663736263736261,2.557802197802198,0.09589743589743589
4.334618282009615,1.8663736263736261,2.557802197802198,0.09589743589743589
4.342477661004523,1.8663736263736261,2.557802197802198,0.09589743589743589
4.3468294690101175,0.7156043956043956,2.1524542124542125,0.29978021978021974
4.3479145180026535,0.7156043956043956,2.1524542124542125,0.29978021978021974
4.348224339002627,0.7156043956043956,2.1524542124542125,0.29978021978021974
4.355029665006441,0.7156043956043956,2.1524542124542125,0.29978021978021974
4.3596364880067995,0.10234432234432234,0.7405860805860806,0.3078388278388278
4.359760259001632,0.10234432234432234,0.7405860805860806,0.3078388278388278
4.365096407011151,0.10234432234432234,0.7405860805860806,0.3078388278388278
4.367407116005779,0.10234432234432234,0.7405860805860806,0.3078388278388278
4.367696329005412,0.10234432234432234,0.7405860805860806,0.3078388278388278
4.376938958012033,0.10234432234432234,0.7405860805860806,0.3078388278388278
4.383060897001997,0.10234432234432234,0.7405860805860806,0.3078388278388278
4.3881773030007025,0.10234432234432234,0.7405860805860806,0.3078388278388278
4.393353031002334,0.10234432234432234,0.7405860805860806,0.3078388278388278
4.395498149009654,0.10234432234432234,0.7405860805860806,0.3078388278388278
4.396705063001718,0.037875457875457874,0.28930402930402926,0.15472527472527473
4.396908447000897,0.037875457875457874,0.28930402930402926,0.15472527472527473
4.405905571009498,0.037875457875457874,0.28930402930402926,0.15472527472527473
4.4115988120029215,1.7914285714285711,2.545714285714286,0.3997069597069597
4.417788765000296,1.0766300366300365,3.3,0.24659340659340656
4.4233062120038085,1.0766300366300365,3.3,0.24659340659340656
4.423574604006717,1.0766300366300365,3.3,0.24659340659340656
4.43183810901246,1.0766300366300365,3.3,0.24659340659340656
4.435792595002567,0.8832234432234431,1.4328205128205127,0.46095238095238095
4.440731022012187,2.3555311355311352,3.3,0.6446886446886446
4.445853719007573,2.3555311355311352,3.3,0.6446886446886446
4.449542725007632,2.3555311355311352,3.3,0.6446886446886446
4.454742080008145,2.3555311355311352,3.3,0.6446886446886446
4.458804600013536,2.3555311355311352,3.3,0.6446886446886446
4.459894926010747,0.9178754578754579,2.5626373626373624,0.30542124542124544
4.460294699005317,0.9178754578754579,2.5626373626373624,0.30542124542124544
4.467876371010789,0.5761904761904761,3.3,0.3642490842490842
4.473678469003062,0.4625641025641025,1.6173626373626373,0.4698168498168498
4.47885893000057,0.4625641025641025,1.6173626373626373,0.4698168498168498
4.482102163005038,0.4625641025641025,1.6173626373626373,0.4698168498168498
4.48238134701387,1.9364835164835164,3.3,0.6938461538461538
4.488402905000839,1.9364835164835164,3.3,0.6938461538461538
4.4984315800102195,1.9364835164835164,3.3,0.6938461538461538
4.505292913003359,1.9364835164835164,3.3,0.6938461538461538
4.511077169008786,1.9364835164835164,3.3,0.6938461538461538
4.51651638300973,0.13296703296703297,1.4473260073260072,0.11926739926739927
4.518769474001601,0.13296703296703297,1.4473260073260072,0.11926739926739927
4.519040210012463,0.13296703296703297,1.4473260073260072,0.11926739926739927
4.528061440010788,0.13296703296703297,1.4473260073260072,0.11926739926739927
4.536791721009649,0.13296703296703297,1.4473260073260072,0.11926739926739927
4.5440306840027915,0.13296703296703297,1.4473260073260072,0.11926739926739927
4.548672652003006,0.13296703296703297,1.4473260073260072,0.11926739926739927
4.5488173680059845,0.0,2.382124542124542,0.07413919413919413
4.55859473500459,0.0,2.382124542124542,0.07413919413919413
4.5630843180115335,0.0,2.382124542124542,0.07413919413919413
4.563484887010418,1.6197802197802196,2.5602197802197804,0.32717948717948714
4.572260178014403,1.6197802197802196,2.5602197802197804,0.32717948717948714
4.580717889009975,1.6197802197802196,2.5602197802197804,0.32717948717948714
4.588411523000104,1.6173626373626373,2.5602197802197804,0.31347985347985347
4.593082501000026,1.9461538461538461,3.3,0.3046153846153846
4.593201415002113,1.9461538461538461,3.3,0.3046153846153846
4.598025048006093,1.9461538461538461,3.3,0.3046153846153846
4.598204927009647,1.9461538461538461,3.3,0.3046153846153846
4.604297086014412,1.9461538461538461,3.3,0.3046153846153846
4.609060455011786,0.38358974358974357,1.6197802197802196,0.4625641025641025
4.613626009013387,0.31347985347985347,1.9332600732600733,0.15633699633699633
4.6145558830030495,0.31347985347985347,1.9332600732600733,0.15633699633699633
4.616271918013808,0.31347985347985347,1.9332600732600733,0.15633699633699633
4.619357473013224,0.31347985347985347,1.9332600732600733,0.15633699633699633
4.62296281401359,2.041245421245421,2.553772893772894,0.3312087912087912
4.623114466012339,2.041245421245421,2.553772893772894,0.3312087912087912
4.6277787440049,2.041245421245421,2.553772893772894,0.3312087912087912
4.628116743013379,0.41340659340659336,2.83018315018315,0.166007326007326
4.63280169700738,0.41340659340659336,2.83018315018315,0.166007326007326
4.633013490005396,0.41340659340659336,2.83018315018315,0.166007326007326
4.638494207014446,0.41340659340659336,2.83018315018315,0.166007326007326
4.639631079000537,0.41340659340659336,2.83018315018315,0.166007326007326
4.639961417007726,0.41340659340659336,2.83018315018315,0.166007326007326
4.645141644010437,0.41340659340659336,2.83018315018315,0.166007326007326
4.648159064003266,0.41340659340659336,2.83018315018315,0.166007326007326
4.650556814012816,0.41340659340659336,2.83018315018315,0.166007326007326
4.65069459300139,0.41340659340659336,2.83018315018315,0.166007326007326
4.6573756680008955,0.41340659340659336,2.83018315018315,0.166007326007326
4.661442581011215,0.41340659340659336,2.83018315018315,0.166007326007326
4.6653697280125925,0.41340659340659336,2.83018315018315,0.166007326007326
4.668560825011809,0.41340659340659336,2.83018315018315,0.166007326007326
4.671645867012558,0.41340659340659336,2.83018315018315,0.166007326007326
4.673123189000762,0.41340659340659336,2.83018315018315,0.166007326007326
4.6801411070046015,2.250769230769231,3.3,0.6664468864468864
4.68523868000193,2.250769230769231,3.3,0.6664468864468864
4.688201833007042,2.250769230769231,3.3,0.6664468864468864
4.691047465006704,2.250769230769231,3.3,0.6664468864468864
4.6934437320014695,2.250769230769231,3.3,0.6664468864468864
4.693568068003515,2.250769230769231,3.3,0.6664468864468864
4.698920813010773,2.250769230769231,3.3,0.6664468864468864
4.701205112010939,2.250769230769231,3.3,0.6664468864468864
4.701441153010819,2.250769230769231,3.3,0.6664468864468864
4.709016260007047,2.250769230769231,3.3,0.6664468864468864
4.7128450450109085,2.1282783882783884,3.3,0.8719413919413919
4.719096535001881,2.1282783882783884,3.3,0.8719413919413919
4.72501747100614,2.1282783882783884,3.3,0.8719413919413919
4.728529417014215,2.1282783882783884,3.3,0.8719413919413919
4.72877495001012,2.1282783882783884,3.3,0.8719413919413919
4.733681122001144,0.0,1.141098901098901,0.19340659340659339
4.7404339910135604,0.0,1.141098901098901,0.19340659340659339
4.746251515010954,0.0,1.141098901098901,0.19340659340659339
4.755567136002355,0.0,1.141098901098901,0.19340659340659339
4.760279745009029,0.0,1.141098901098901,0.19340659340659339
4.765788043005159,0.0,1.141098901098901,0.19340659340659339
4.767390359003912,0.0,1.141098901098901,0.19340659340659339
4.772880541000632,0.0,1.141098901098901,0.19340659340659339
4.77325951900275,0.0,1.141098901098901,0.19340659340659339
4.78032135500689,0.0,1.141098901098901,0.19340659340659339
4.785198292011046,1.4142857142857141,3.3,0.3505494505494505
4.794170355002279,1.4142857142857141,3.3,0.3505494505494505
4.801196305008489,1.4142857142857141,3.3,0.3505494505494505
4.80631239801005,1.4142857142857141,3.3,0.3505494505494505
4.812371170002734,2.315238095238095,3.3,0.6882051282051282
4.81614901201101,1.6608791208791207,2.339413919413919,0.4561172161172161
4.822380662008072,1.6608791208791207,2.339413919413919,0.4561172161172161
4.82591176101414,1.6608791208791207,2.339413919413919,0.4561172161172161
4.831256542005576,1.6608791208791207,2.339413919413919,0.4561172161172161
4.833591811009683,1.6608791208791207,2.339413919413919,0.4561172161172161
4.833862939005485,1.6608791208791207,2.339413919413919,0.4561172161172161
4.840815867006313,1.6608791208791207,2.339413919413919,0.4561172161172161
4.845670079012052,0.0,0.43999999999999995,0.016923076923076923
4.849400161008816,1.2579487179487179,3.3,0.30622710622710625
4.854639137003687,1.2579487179487179,3.3,0.30622710622710625
4.860070843002177,0.29816849816849816,0.29978021978021974,0.06124542124542124
4.865648980005062,0.29816849816849816,0.29978021978021974,0.06124542124542124
4.867532640011632,1.295018315018315,3.3,0.19904761904761903
4.869488592012203,1.295018315018315,3.3,0.19904761904761903
4.872205716004828,1.295018315018315,3.3,0.19904761904761903
4.876434326011804,1.295018315018315,3.3,0.19904761904761903
4.878057213005377,1.295018315018315,3.3,0.19904761904761903
4.881831104008597,1.295018315018315,3.3,0.19904761904761903
4.8866759890079265,2.1484249084249085,3.3,0.5874725274725274
4.894476138011669,1.2861538461538462,3.3,0.2562637362637363
4.898945364009705,0.13457875457875457,0.3384615384615384,0.11443223443223444
4.899827600005665,0.13457875457875457,0.3384615384615384,0.11443223443223444
4.901449982004124,0.13457875457875457,0.3384615384615384,0.11443223443223444
4.9089905970031396,0.13457875457875457,0.3384615384615384,0.11443223443223444
4.912794410003698,0.13457875457875457,0.3384615384615384,0.11443223443223444
4.918255827011308,0.13457875457875457,0.3384615384615384,0.11443223443223444
4.9194337030057795,0.13457875457875457,0.3384615384615384,0.11443223443223444
4.91973231000884,0.13457875457875457,0.3384615384615384,0.11443223443223444
4.926399843010586,0.9339926739926739,3.3,0.3416849816849817
4.930286689006607,0.3997069597069597,2.9986080586080583,0.3287912087912088
4.934712631002185,0.2063003663003663,2.0815384615384613,0.14344322344322344
4.936595245002536,1.3562637362637362,2.207252747252747,0.36747252747252745
4.940213527006563,1.3562637362637362,2.207252747252747,0.36747252747252745
4.945161091003683,1.3562637362637362,2.207252747252747,0.36747252747252745
4.948870979002095,1.3562637362637362,2.207252747252747,0.36747252747252745
4.949104638013523,0.3167032967032967,2.3458608058608057,0.21516483516483517
4.9535583080141805,0.3167032967032967,2.3458608058608057,0.21516483516483517
4.955042438014061,0.3167032967032967,2.3458608058608057,0.21516483516483517
4.961538090006798,0.3167032967032967,2.3458608058608057,0.21516483516483517
4.967429886004538,0.3167032967032967,2.3458608058608057,0.21516483516483517
4.975152920000255,0.3167032967032967,2.3458608058608057,0.21516483516483517
4.97935924801277,0.3167032967032967,2.3458608058608057,0.21516483516483517
4.982285326012061,0.3167032967032967,2.3458608058608057,0.21516483516483517
4.987039749001269,1.315970695970696,2.4901098901098897,0.5302564102564102
4.994550025003264,1.315970695970696,2.4901098901098897,0.5302564102564102
4.999315247012419,0.23369963369963367,0.4222710622710622,0.24014652014652016
4.9995973280019825,0.23369963369963367,0.4222710622710622,0.24014652014652016
5.005296864008415,0.23369963369963367,0.4222710622710622,0.24014652014652016
5.0055353450006805,0.23369963369963367,0.4222710622710622,0.24014652014652016
5.011936155002331,0.23369963369963367,0.4222710622710622,0.24014652014652016
5.016159657010576,0.23369963369963367,0.4222710622710622,0.24014652014652016
5.017902296007378,0.23369963369963367,0.4222710622710622,0.24014652014652016
5.022632920008618,0.23369963369963367,0.4222710622710622,0.24014652014652016
5.028107289006584,0.6978754578754578,1.6657142857142855,0.506080586080586
5.028985493001528,0.6978754578754578,1.6657142857142855,0.506080586080586
5.030643599005998,0.6978754578754578,1.6657142857142855,0.506080586080586
5.034418880008161,0.6978754578754578,1.6657142857142855,0.506080586080586
5.041829965004581,0.6978754578754578,1.6657142857142855,0.506080586080586
5.046615992003353,1.855091575091575,2.561831501831502,0.4254945054945055
5.051991195010487,1.552087912087912,3.3,0.40615384615384614
5.05362590700679,1.552087912087912,3.3,0.40615384615384614
5.058075225009816,1.552087912087912,3.3,0.40615384615384614
5.0588985520007554,1.552087912087912,3.3,0.40615384615384614
5.060516935001942,1.552087912087912,3.3,0.40615384615384614
5.064295501011657,1.552087912087912,3.3,0.40615384615384614
5.06877160500153,1.552087912087912,3.3,0.40615384615384614
5.070511984013137,0.5753846153846153,3.1904029304029304,0.3964835164835165
5.073517462005839,0.5753846153846153,3.1904029304029304,0.3964835164835165
5.0760052320110844,0.0,1.2772893772893772,0.17648351648351646
5.076132539004902,0.0,1.2772893772893772,0.17648351648351646
5.081667856007698,0.0,1.2772893772893772,0.17648351648351646
5.083450274003553,1.7865934065934064,2.561831501831502,0.5302564102564102
5.087168069003383,1.7865934065934064,2.561831501831502,0.5302564102564102
5.092228343011811,1.2353846153846153,2.5473260073260073,0.4351648351648352
5.096239666003385,1.2353846153846153,2.5473260073260073,0.4351648351648352
5.0992587550135795,1.904249084249084,3.129157509157509,0.759120879120879
5.101605637013563,1.904249084249084,3.129157509157509,0.759120879120879
5.1025399710051715,1.904249084249084,3.129157509157509,0.759120879120879
5.103854118002346,1.904249084249084,3.129157509157509,0.759120879120879
5.110842629001127,1.904249084249084,3.129157509157509,0.759120879120879
5.115294323011767,1.904249084249084,3.129157509157509,0.759120879120879
5.116256514011184,0.5423443223443223,0.3021978021978022,0.15069597069597068
5.117191217010259,0.5423443223443223,0.3021978021978022,0.15069597069597068
5.11871941901336,0.0,0.5858608058608058,0.12329670329670328
5.12409822200425,0.0,0.5858608058608058,0.12329670329670328
5.124939192013699,0.0,0.5858608058608058,0.12329670329670328
5.1265558850136586,0.0,0.5858608058608058,0.12329670329670328
5.130402252005297,0.0,0.5858608058608058,0.12329670329670328
5.134197260005749,0.0,0.5858608058608058,0.12329670329670328
5.1388543260109145,0.0,0.5858608058608058,0.12329670329670328
5.1391651530138915,0.0,0.5858608058608058,0.12329670329670328
5.143838064002921,0.0,0.5858608058608058,0.12329670329670328
5.143945765012177,0.0,0.5858608058608058,0.12329670329670328
5.149152283003787,0.0,0.5858608058608058,0.12329670329670328
5.153009170011501,0.0,0.5858608058608058,0.12329670329670328
5.157391083004768,0.0,0.5858608058608058,0.12329670329670328
5.158307459001662,0.0,0.5858608058608058,0.12329670329670328
5.159988304003491,0.0,0.5858608058608058,0.12329670329670328
5.163685417006491,0.0,0.5858608058608058,0.12329670329670328
5.168152253012522,0.0,0.5858608058608058,0.12329670329670328
5.168446454001241,0.0,0.5858608058608058,0.12329670329670328
5.173879279012908,0.0,0.5858608058608058,0.12329670329670328
5.175616968001123,2.1363369963369965,3.3,0.8534065934065934
5.179606957011856,2.1363369963369965,3.3,0.8534065934065934
5.183315384012531,2.1363369963369965,3.3,0.8534065934065934
5.187961017014459,2.1363369963369965,3.3,0.8534065934065934
5.188153810013318,2.1363369963369965,3.3,0.8534065934065934
5.193343286009622,2.1363369963369965,3.3,0.8534065934065934
5.196410914009903,0.42065934065934063,2.726227106227106,0.4931868131868131
5.19884152400482,0.42065934065934063,2.726227106227106,0.4931868131868131
5.199167293001665,0.42065934065934063,2.726227106227106,0.4931868131868131
5.203828841011273,0.42065934065934063,2.726227106227106,0.4931868131868131
5.204091880004853,0.42065934065934063,2.726227106227106,0.4931868131868131
5.209430791001068,0.42065934065934063,2.726227106227106,0.4931868131868131
5.211151248004171,0.42065934065934063,2.726227106227106,0.4931868131868131
5.2142501680064015,0.42065934065934063,2.726227106227106,0.4931868131868131
5.215875283000059,0.42065934065934063,2.726227106227106,0.4931868131868131
5.220265325013315,0.42065934065934063,2.726227106227106,0.4931868131868131
5.221172567005851,1.003296703296703,2.545714285714286,0.9202930402930403
5.222756057002698,0.5213919413919413,3.3,0.5906959706959707
5.227243632005411,0.5213919413919413,3.3,0.5906959706959707
5.228134496006533,0.5213919413919413,3.3,0.5906959706959707
5.229737143003149,0.5213919413919413,3.3,0.5906959706959707
5.233642505001626,0.5213919413919413,3.3,0.5906959706959707
5.238226439003483,0.5213919413919413,3.3,0.5906959706959707
5.2384766950126505,0.5213919413919413,3.3,0.5906959706959707
5.2445775160013,0.5213919413919413,3.3,0.5906959706959707
5.2476605510019,0.5213919413919413,3.3,0.5906959706959707
5.250661180005409,0.5213919413919413,3.3,0.5906959706959707
5.253650952014141,0.5213919413919413,3.3,0.5906959706959707
5.256103991006967,0.5213919413919413,3.3,0.5906959706959707
5.256291668003541,0.5213919413919413,3.3,0.5906959706959707
5.260885321011301,0.5213919413919413,3.3,0.5906959706959707
5.26122410800599,0.5213919413919413,3.3,0.5906959706959707
5.266668184005539,0.5213919413919413,3.3,0.5906959706959707
5.267538982006954,0.5213919413919413,3.3,0.5906959706959707
5.26922722501331,0.5213919413919413,3.3,0.5906959706959707
5.273147783009335,0.5213919413919413,3.3,0.5906959706959707
5.277626528011751,0.5213919413919413,3.3,0.5906959706959707
5.278474514008849,0.5213919413919413,3.3,0.5906959706959707
5.280103825003607,0.5213919413919413,3.3,0.5906959706959707
5.283942602007301,0.5213919413919413,3.3,0.5906959706959707
5.28958971000975,2.1129670329670325,3.261318681318681,1.062930402930403
5.289944389005541,2.1129670329670325,3.261318681318681,1.062930402930403
5.2952141760033555,2.1129670329670325,3.261318681318681,1.062930402930403
5.298782447003759,2.1129670329670325,3.261318681318681,1.062930402930403
5.303453062006156,2.1129670329670325,3.261318681318681,1.062930402930403
5.303624050007784,2.1129670329670325,3.261318681318681,1.062930402930403
5.308245762003935,2.1129670329670325,3.261318681318681,1.062930402930403
5.308458111001528,2.1129670329670325,3.261318681318681,1.062930402930403
5.3139627470081905,2.1129670329670325,3.261318681318681,1.062930402930403
5.31574555800762,2.1129670329670325,3.261318681318681,1.062930402930403
5.318948853004258,2.1129670329670325,3.261318681318681,1.062930402930403
5.319917467000778,2.1129670329670325,3.261318681318681,1.062930402930403
5.32080782900448,2.1129670329670325,3.261318681318681,1.062930402930403
5.322413575006067,2.1129670329670325,3.261318681318681,1.062930402930403
5.326229845013586,2.1129670329670325,3.261318681318681,1.062930402930403
5.330026401003124,2.1129670329670325,3.261318681318681,1.062930402930403
5.33455689100083,2.1129670329670325,3.261318681318681,1.062930402930403
5.335455436012126,2.1129670329670325,3.261318681318681,1.062930402930403
5.337062735008658,2.1129670329670325,3.261318681318681,1.062930402930403
5.3401581440120935,2.1129670329670325,3.261318681318681,1.062930402930403
5.342585646008956,2.1129670329670325,3.261318681318681,1.062930402930403
5.349369331001071,2.1129670329670325,3.261318681318681,1.062930402930403
5.353834004999953,2.1129670329670325,3.261318681318681,1.062930402930403
5.354067490014131,2.1129670329670325,3.261318681318681,1.062930402930403
5.363241127008223,2.1129670329670325,3.261318681318681,1.062930402930403
5.369227220013272,2.1129670329670325,3.261318681318681,1.062930402930403
5.3773187800106825,2.1129670329670325,3.261318681318681,1.062930402930403
5.384726648000651,2.1129670329670325,3.261318681318681,1.062930402930403
5.392877744001453,2.2088644688644687,3.3,0.8848351648351648
5.396797006003908,2.2088644688644687,3.3,0.8848351648351648
5.4014070900011575,0.09912087912087912,0.6535531135531135,0.07736263736263736
5.4016006640013075,0.09912087912087912,0.6535531135531135,0.07736263736263736
5.4097403890045825,0.09912087912087912,0.6535531135531135,0.07736263736263736
5.413532639009645,0.09912087912087912,0.6535531135531135,0.07736263736263736
5.41935535200173,0.09912087912087912,0.6535531135531135,0.07736263736263736
5.419503140001325,0.2602930402930403,0.6261538461538461,0.07736263736263736
5.427501769008813,0.7365567765567765,3.3,0.5294505494505495
5.432953871000791,0.7365567765567765,3.3,0.5294505494505495
5.43522850201407,0.7365567765567765,3.3,0.5294505494505495
5.435498840000946,0.7365567765567765,3.3,0.5294505494505495
5.443412903012359,0.7365567765567765,3.3,0.5294505494505495
5.4485138500022,0.7365567765567765,3.3,0.5294505494505495
5.454471021002973,0.7365567765567765,3.3,0.5294505494505495
5.46037961600814,0.7365567765567765,3.3,0.5294505494505495
5.464766411008895,0.0,0.759120879120879,0.0838095238095238
5.466380391007988,0.3755311355311355,2.374871794871795,0.30622710622710625
5.470920836000005,0.3755311355311355,2.374871794871795,0.30622710622710625
5.471142806010903,0.3755311355311355,2.374871794871795,0.30622710622710625
5.477653857000405,0.3755311355311355,2.374871794871795,0.30622710622710625
5.481448895006906,0.3755311355311355,2.374871794871795,0.30622710622710625
5.487187486010953,0.3755311355311355,2.374871794871795,0.30622710622710625
5.487393026007339,0.3755311355311355,2.374871794871795,0.30622710622710625
5.493667465008912,0.3755311355311355,2.374871794871795,0.30622710622710625
5.497443786007352,0.3755311355311355,2.374871794871795,0.30622710622710625
5.49756145500578,0.3755311355311355,2.374871794871795,0.30622710622710625
5.502936806005891,0.3755311355311355,2.374871794871795,0.30622710622710625
5.506386018008925,0.3755311355311355,2.374871794871795,0.30622710622710625
5.506564627008629,0.3755311355311355,2.374871794871795,0.30622710622710625
5.511910476008779,0.3755311355311355,2.374871794871795,0.30622710622710625
5.513488330005202,0.3755311355311355,2.374871794871795,0.30622710622710625
5.518245298007969,0.3755311355311355,2.374871794871795,0.30622710622710625
5.524441225003102,0.3755311355311355,2.374871794871795,0.30622710622710625
5.528249232011149,1.1056410256410254,1.9493772893772894,0.6253479853479853
5.5330451560002984,0.8953113553113552,3.3,0.4158241758241758
5.542028100011521,1.7616117216117215,2.697216117216117,0.6575824175824176
5.5458957940136315,1.7616117216117215,2.697216117216117,0.6575824175824176
5.550696141013759,1.7616117216117215,2.697216117216117,0.6575824175824176
5.561212359010824,1.7616117216117215,2.697216117216117,0.6575824175824176
5.56850726500852,1.7616117216117215,2.697216117216117,0.6575824175824176
5.576462713012006,1.3514285714285714,2.5441025641025643,0.4528937728937729
5.5819761530001415,2.423223443223443,3.3,0.6422710622710622
5.59468161300174,2.423223443223443,3.3,0.6422710622710622
5.6049218170082895,0.846153846153846,3.3,0.43597069597069593
5.611105413001496,0.846153846153846,3.3,0.43597069597069593
5.616703326013521,0.846153846153846,3.3,0.43597069597069593
5.616973077005241,0.846153846153846,3.3,0.43597069597069593
5.624053892010124,0.846153846153846,3.3,0.43597069597069593
5.62798017100431,0.846153846153846,3.3,0.43597069597069593
5.63182999601122,0.8566300366300367,3.3,0.32798534798534795
5.636394848013879,0.8566300366300367,3.3,0.32798534798534795
5.636673929009703,0.8566300366300367,3.3,0.32798534798534795
5.642700621014228,0.8566300366300367,3.3,0.32798534798534795
5.64643417300249,2.352307692307692,3.3,0.7873260073260073
5.651573951006867,2.352307692307692,3.3,0.7873260073260073
5.6560574140021345,2.352307692307692,3.3,0.7873260073260073
5.656218897012877,2.352307692307692,3.3,0.7873260073260073
5.660863834011252,2.352307692307692,3.3,0.7873260073260073
5.661173528002109,2.352307692307692,3.3,0.7873260073260073
5.666410349003854,2.352307692307692,3.3,0.7873260073260073
5.669022660003975,2.352307692307692,3.3,0.7873260073260073
5.67642140800308,0.2095238095238095,2.117802197802198,0.22644688644688646
5.6802851960092084,0.2095238095238095,2.117802197802198,0.22644688644688646
5.684805911005242,0.2095238095238095,2.117802197802198,0.22644688644688646
5.685790695002652,0.2095238095238095,2.117802197802198,0.22644688644688646
5.6876300030126,0.2095238095238095,2.117802197802198,0.22644688644688646
5.690790642009233,0.2095238095238095,2.117802197802198,0.22644688644688646
5.691764864008292,0.29736263736263735,1.8913553113553112,0.14424908424908423
5.6934867320087506,0.29736263736263735,1.8913553113553112,0.14424908424908423
5.696783988008974,0.29736263736263735,1.8913553113553112,0.14424908424908423
5.6977451230050065,0.29736263736263735,1.8913553113553112,0.14424908424908423
5.699306955008069,0.29736263736263735,1.8913553113553112,0.14424908424908423
5.704044030004297,0.29736263736263735,1.8913553113553112,0.14424908424908423
5.711030797014246,0.29736263736263735,1.8913553113553112,0.14424908424908423
5.715542001009453,1.1725274725274726,3.3,0.3142857142857142
5.717120036002598,0.22886446886446887,0.166007326007326,0.12571428571428572
5.722815648012329,0.22886446886446887,0.166007326007326,0.12571428571428572
5.723038518000976,0.22886446886446887,0.166007326007326,0.12571428571428572
5.73192053900857,2.332161172161172,3.3,0.6857875457875457
5.73749184900953,0.14586080586080585,1.5214652014652015,0.2248351648351648
5.737755721012945,0.14586080586080585,1.5214652014652015,0.2248351648351648
5.7466719550138805,0.14586080586080585,1.5214652014652015,0.2248351648351648
5.757403274008539,0.14586080586080585,1.5214652014652015,0.2248351648351648
5.762766989006195,0.32395604395604394,2.3813186813186813,0.24336996336996336
5.765596966011799,0.32395604395604394,2.3813186813186813,0.24336996336996336
5.771860043008928,0.32395604395604394,2.3813186813186813,0.24336996336996336
5.776621595010511,0.32395604395604394,2.3813186813186813,0.24336996336996336
5.781413095013704,1.8373626373626373,2.8213186813186812,0.6527472527472526
5.78855769301299,1.8373626373626373,2.8213186813186812,0.6527472527472526
5.7952692070102785,0.5689377289377289,2.813260073260073,0.24578754578754577
5.7985554990009405,0.5689377289377289,2.813260073260073,0.24578754578754577
5.800107861010474,0.5689377289377289,2.813260073260073,0.24578754578754577
5.806160770007409,0.5689377289377289,2.813260073260073,0.24578754578754577
5.810970833001193,0.5689377289377289,2.813260073260073,0.24578754578754577
5.814024608000182,0.5689377289377289,2.813260073260073,0.24578754578754577
5.81637215000228,0.5689377289377289,2.813260073260073,0.24578754578754577
5.81661127100233,0.5689377289377289,2.813260073260073,0.24578754578754577
5.824362704006489,0.5689377289377289,2.813260073260073,0.24578754578754577
5.828281037000124,0.5689377289377289,2.813260073260073,0.24578754578754577
5.8319563580007525,0.5689377289377289,2.813260073260073,0.24578754578754577
5.838770835005562,1.1757509157509156,1.8494505494505493,0.6293772893772893
5.84444190900831,1.1757509157509156,1.8494505494505493,0.6293772893772893
5.8541543210012605,1.1757509157509156,1.8494505494505493,0.6293772893772893
5.859440814005211,1.1757509157509156,1.8494505494505493,0.6293772893772893
5.861045887009823,1.7052014652014653,2.5521611721611723,0.43113553113553116
5.864901287000976,1.7052014652014653,2.5521611721611723,0.43113553113553116
5.870271310006501,1.7052014652014653,2.5521611721611723,0.43113553113553116
5.874328918012907,1.7052014652014653,2.5521611721611723,0.43113553113553116
5.876299081006437,1.7052014652014653,2.5521611721611723,0.43113553113553116
5.877277504012454,1.7052014652014653,2.5521611721611723,0.43113553113553116
5.878195002005668,1.7052014652014653,2.5521611721611723,0.43113553113553116
5.879917446000036,1.7052014652014653,2.5521611721611723,0.43113553113553116
5.8829817270016065,1.7052014652014653,2.5521611721611723,0.43113553113553116
5.88527611400059,1.7052014652014653,2.5521611721611723,0.43113553113553116
5.885749909008155,1.7052014652014653,2.5521611721611723,0.43113553113553116
5.892236152008991,1.7052014652014653,2.5521611721611723,0.43113553113553116
5.8960100680124015,1.7052014652014653,2.5521611721611723,0.43113553113553116
5.9016455600067275,1.7052014652014653,2.5521611721611723,0.43113553113553116
5.90183849701134,0.0,0.5802197802197803,0.0701098901098901
5.910016890004044,0.0,0.5802197802197803,0.0701098901098901
5.914514693009551,0.3352380952380952,1.8075457875457877,0.21274725274725276
5.91617782600224,0.21194139194139192,0.4013186813186813,0.09428571428571428
5.922667543010903,0.21194139194139192,0.4013186813186813,0.09428571428571428
5.926432110005408,0.21194139194139192,0.4013186813186813,0.09428571428571428
5.9301920820144005,0.21194139194139192,0.4013186813186813,0.09428571428571428
5.934822646013345,0.36666666666666664,1.7358241758241757,0.21194139194139192
5.935126282012789,1.5657875457875456,2.1597069597069596,0.6132600732600733
5.9441611700021895,0.06205128205128205,0.8066666666666666,0.07897435897435898
5.949200507006026,0.06205128205128205,0.8066666666666666,0.07897435897435898
5.953602899011457,0.8767765567765567,3.3,0.5310622710622711
5.955156665004324,0.8767765567765567,3.3,0.5310622710622711
5.958919511002023,0.8767765567765567,3.3,0.5310622710622711
5.964275410005939,0.8767765567765567,3.3,0.5310622710622711
5.966727672013803,0.8767765567765567,3.3,0.5310622710622711
5.966934378011501,0.8767765567765567,3.3,0.5310622710622711
5.9724106270004995,0.8767765567765567,3.3,0.5310622710622711
5.973979333008174,0.10476190476190475,1.0073260073260073,0.29736263736263735
5.977644322003471,1.8293040293040292,3.0856410256410256,0.6648351648351648
5.982075143008842,1.3546520146520145,3.3,0.5560439560439561
5.983593975004624,1.3546520146520145,3.3,0.5560439560439561
5.9907585970067885,1.3546520146520145,3.3,0.5560439560439561
5.995510807013488,1.3546520146520145,3.3,0.5560439560439561
6.003133246005746,1.3546520146520145,3.3,0.5560439560439561
6.011274764008704,1.3546520146520145,3.3,0.5560439560439561
6.017120742006227,1.3546520146520145,3.3,0.5560439560439561
6.026638759009074,1.9364835164835164,2.424029304029304,0.5842490842490843
6.032376529008616,1.199120879120879,2.01062271062271,0.697069597069597
6.041773799006478,1.199120879120879,2.01062271062271,0.697069597069597
6.049099601004855,0.14263736263736262,0.7035164835164834,0.08622710622710622
6.05442713299999,0.14263736263736262,0.7035164835164834,0.08622710622710622
6.055535376013722,0.14263736263736262,0.7035164835164834,0.08622710622710622
6.055794951011194,0.1571428571428571,0.6358241758241758,0.13296703296703297
6.0605930970050395,0.1571428571428571,0.6358241758241758,0.13296703296703297
6.0607241180114215,0.1571428571428571,0.6358241758241758,0.13296703296703297
6.066218183012097,0.1571428571428571,0.6358241758241758,0.13296703296703297
6.067905481002526,0.1571428571428571,0.6358241758241758,0.13296703296703297
6.0735424580052495,0.1571428571428571,0.6358241758241758,0.13296703296703297
6.073774516000412,2.0783150183150183,2.6029304029304026,0.6454945054945055
6.079923423007131,2.0783150183150183,2.6029304029304026,0.6454945054945055
6.0834870870021405,2.0783150183150183,2.6029304029304026,0.6454945054945055
6.094028021005215,2.0783150183150183,2.6029304029304026,0.6454945054945055
6.102783385009388,2.0783150183150183,2.6029304029304026,0.6454945054945055
6.109162937005749,1.6358974358974359,2.552967032967033,0.8598534798534798
6.113108530000318,1.6358974358974359,2.552967032967033,0.8598534798534798
6.117851404007524,0.07494505494505493,0.9162637362637363,0.42952380952380953
6.124951490011881,0.07494505494505493,0.9162637362637363,0.42952380952380953
6.128690471014124,0.49157509157509155,1.5915750915750915,0.4738461538461538
6.128794928008574,0.49157509157509155,1.5915750915750915,0.4738461538461538
6.134064233003301,0.49157509157509155,1.5915750915750915,0.4738461538461538
6.1366467400075635,0.49157509157509155,1.5915750915750915,0.4738461538461538
6.143450303003192,0.24336996336996336,0.8767765567765567,0.2804395604395604
6.147306749000563,1.6213919413919413,2.552967032967033,0.938021978021978
6.152256441011559,0.8211721611721612,3.3,0.7075457875457875
6.158519859003718,0.8211721611721612,3.3,0.7075457875457875
6.162316310001188,0.8211721611721612,3.3,0.7075457875457875
6.167422196012922,1.6794139194139193,2.5521611721611723,0.9775091575091575
6.171418934012763,1.6794139194139193,2.5521611721611723,0.9775091575091575
6.1748228930082405,1.6794139194139193,2.5521611721611723,0.9775091575091575
6.175112841010559,0.6865934065934066,0.7059340659340658,0.3553846153846154
6.180456246001995,0.6865934065934066,0.7059340659340658,0.3553846153846154
6.1827858020114945,0.0,0.6809523809523809,0.14344322344322344
6.182998451011372,0.0,0.6809523809523809,0.14344322344322344
6.188180705008563,0.0,0.6809523809523809,0.14344322344322344
6.191082831006497,2.1355311355311355,2.905128205128205,0.6011721611721611
6.1945951400120975,2.1355311355311355,2.905128205128205,0.6011721611721611
6.194850022002356,0.23208791208791207,0.6132600732600733,0.1821245421245421
6.20024041000579,0.23208791208791207,0.6132600732600733,0.1821245421245421
6.201749394007493,0.0,0.6511355311355311,0.09428571428571428
6.2060019400087185,0.1958241758241758,1.3288644688644689,0.49076923076923074
