time,emg1,emg2,emg3
0.010818080998433288,0.5504029304029303,2.553772893772894,1.5077655677655677
0.027179584998521022,0.5504029304029303,2.553772893772894,1.5077655677655677
0.04339172999607399,1.4304029304029304,3.3,0.7736263736263735
0.05732059600268258,1.813992673992674,3.2895238095238093,0.6672527472527472
0.0575480690022232,1.813992673992674,3.2895238095238093,0.6672527472527472
0.06364005499926861,1.813992673992674,3.2895238095238093,0.6672527472527472
0.06744844400236616,2.2136996336996333,3.3,2.772161172161172
0.07290636099787662,2.2136996336996333,3.3,2.772161172161172
0.07475745100236963,2.932527472527472,3.3,3.3
0.07670475100167096,2.932527472527472,3.3,3.3
0.07867982400057372,2.932527472527472,3.3,3.3
0.0805655329968431,2.932527472527472,3.3,3.3
0.08249383400107035,3.3,2.714139194139194,2.5674725274725274
0.08435867800289998,3.3,2.714139194139194,2.5674725274725274
0.08704446200135862,3.3,2.714139194139194,2.5674725274725274
0.0914071849983884,3.3,2.714139194139194,2.5674725274725274
0.09236664199852385,3.3,2.714139194139194,2.5674725274725274
0.09335798800020711,3.3,2.714139194139194,2.5674725274725274
0.09434141599922441,3.3,2.714139194139194,2.5674725274725274
0.09533893699699547,3.3,2.714139194139194,2.5674725274725274
0.09628596100083087,3.3,2.714139194139194,2.5674725274725274
0.09719190499890829,3.3,2.714139194139194,2.5674725274725274
0.09947149099753005,3.3,2.714139194139194,2.5674725274725274
0.09969722900132183,3.3,2.714139194139194,2.5674725274725274
0.10562562599807279,3.3,2.714139194139194,2.5674725274725274
0.11049497599742608,3.3,2.714139194139194,2.5674725274725274
0.11458145800133934,3.3,2.714139194139194,2.5674725274725274
0.11775520999799483,3.3,2.714139194139194,2.5674725274725274
0.11872198100172682,3.3,2.714139194139194,2.5674725274725274
0.1203800000002957,3.3,2.714139194139194,2.5674725274725274
0.12354134600172983,3.3,2.714139194139194,2.5674725274725274
0.12514308800018625,0.4126007326007326,2.5134798534798533,1.8986080586080583
0.12971427100274013,0.4126007326007326,2.5134798534798533,1.8986080586080583
0.13004640200233553,2.1967765567765567,2.5835897435897435,2.565054945054945
0.13497757600271143,2.1967765567765567,2.5835897435897435,2.565054945054945
0.1395803019986488,2.1967765567765567,2.5835897435897435,2.565054945054945
0.13979903399740579,2.3378021978021977,2.5432967032967033,3.3
0.1449131139961537,2.3378021978021977,2.5432967032967033,3.3
0.1488465360016562,2.3378021978021977,2.5432967032967033,3.3
0.15469620800286066,2.3378021978021977,2.5432967032967033,3.3
0.15790330000163522,2.3378021978021977,2.5432967032967033,3.3
0.1596391209968715,2.3378021978021977,2.5432967032967033,3.3
0.16290500800096197,2.3378021978021977,2.5432967032967033,3.3
0.16380555799696594,2.3378021978021977,2.5432967032967033,3.3
0.16543495999940205,2.3378021978021977,2.5432967032967033,3.3
0.16857377300038934,2.3378021978021977,2.5432967032967033,3.3
0.17025994399591582,3.3,3.3,2.121025641025641
0.1741801440002746,3.3,3.3,2.121025641025641
0.17854120599804446,2.1750183150183147,3.3,0.32556776556776557
0.17939877999742748,2.1750183150183147,3.3,0.32556776556776557
0.18101515399757773,2.1750183150183147,3.3,0.32556776556776557
0.18497790599940345,2.1750183150183147,3.3,0.32556776556776557
0.1889071719997446,2.1750183150183147,3.3,0.32556776556776557
0.193579104001401,2.1750183150183147,3.3,0.32556776556776557
0.19379669799673138,2.1750183150183147,3.3,0.32556776556776557
0.1990353689980111,2.1750183150183147,3.3,0.32556776556776557
0.20142451499850722,2.95025641025641,2.5787545787545785,2.5674725274725274
0.20890406500257086,2.95025641025641,2.5787545787545785,2.5674725274725274
0.21486765099689364,2.95025641025641,2.5787545787545785,2.5674725274725274
0.2219119139990653,1.9397069597069596,3.3,0.11443223443223444
0.22930631499912124,0.8356776556776556,2.913186813186813,0.7365567765567765
0.23641001299984055,0.8356776556776556,2.913186813186813,0.7365567765567765
0.24023698599921772,2.8994871794871795,3.3,3.3
0.24716038400219986,2.8994871794871795,3.3,3.3
0.2536731489963131,2.8994871794871795,3.3,3.3
0.2588852199987741,2.748791208791209,2.5561904761904763,3.3
0.26208437299646903,2.748791208791209,2.5561904761904763,3.3
0.26238372000079835,0.4553113553113553,2.984102564102564,2.1508424908424906
0.2702370150000206,0.4553113553113553,2.984102564102564,2.1508424908424906
0.27624969300086377,2.9792673992673993,2.6778754578754578,2.5545787545787544
0.2837163160002092,2.9792673992673993,2.6778754578754578,2.5545787545787544
0.2895908580030664,2.9792673992673993,2.6778754578754578,2.5545787545787544
0.29351108799892245,2.2096703296703293,2.5763369963369964,2.553772893772894
0.29899076499714283,1.9977289377289376,3.3,0.0975091575091575
0.2993548140002531,1.3143589743589743,3.3,0.7236630036630036
0.3086582800024189,1.3143589743589743,3.3,0.7236630036630036
0.31638517700048396,1.3143589743589743,3.3,0.7236630036630036
0.32138677399780136,2.9865201465201463,1.8663736263736261,2.759267399267399
0.3263262929976918,0.7526739926739926,0.630989010989011,0.5826373626373627
0.3312269859961816,3.3,3.3,2.8213186813186812
0.33680687400192255,3.1613919413919414,2.5876190476190475,3.1098168498168497
0.33710749100282555,0.83003663003663,3.094505494505494,0.04673992673992674
0.341951025002345,0.83003663003663,3.094505494505494,0.04673992673992674
0.3486870880005881,0.83003663003663,3.094505494505494,0.04673992673992674
0.35288769099861383,0.83003663003663,3.094505494505494,0.04673992673992674
0.35486280999612063,0.83003663003663,3.094505494505494,0.04673992673992674
0.35670628800289705,0.83003663003663,3.094505494505494,0.04673992673992674
0.3599136120028561,0.83003663003663,3.094505494505494,0.04673992673992674
0.360801659997378,1.3465934065934064,3.3,1.1378754578754577
0.362086957997235,1.3465934065934064,3.3,1.1378754578754577
0.3624037620029412,1.3465934065934064,3.3,1.1378754578754577
0.36697821199777536,1.3465934065934064,3.3,1.1378754578754577
0.36722137600008864,2.66014652014652,2.0194871794871796,3.3
0.37221962500188965,2.66014652014652,2.0194871794871796,3.3
0.3762183700018795,2.545714285714286,2.581172161172161,2.565860805860806
0.3798448770030518,0.8034432234432234,3.0775824175824176,0.03223443223443223
0.3871120850017178,2.0928205128205124,2.5803663003663004,2.5586080586080584
0.39213046900113113,2.0928205128205124,2.5803663003663004,2.5586080586080584
0.3996745650001685,2.9647619047619047,0.9243223443223443,2.621465201465201
0.4056056789995637,2.9647619047619047,0.9243223443223443,2.621465201465201
0.41008540600159904,2.655311355311355,1.9880586080586078,2.5505494505494504
0.4104847839989816,2.589230769230769,2.573919413919414,2.5787545787545785
0.4166681900023832,2.589230769230769,2.573919413919414,2.5787545787545785
0.42093489399849204,2.589230769230769,2.573919413919414,2.5787545787545785
0.4236261550031486,2.589230769230769,2.573919413919414,2.5787545787545785
0.429162936998182,1.0178021978021978,3.3,2.767326007326007
0.42937086500023725,2.706886446886447,2.286227106227106,2.552967032967033
0.4376127369978349,1.888131868131868,2.573919413919414,2.5561904761904763
0.4431043719960144,1.888131868131868,2.573919413919414,2.5561904761904763
0.4433788180031115,1.888131868131868,2.573919413919414,2.5561904761904763
0.4506308470008662,1.888131868131868,2.573919413919414,2.5561904761904763
0.4549760090012569,2.8583882783882784,2.958315018315018,2.4304761904761905
0.45595017499726964,2.8583882783882784,2.958315018315018,2.4304761904761905
0.4568886939960066,2.8583882783882784,2.958315018315018,2.4304761904761905
0.45863949899649015,2.8583882783882784,2.958315018315018,2.4304761904761905
0.4625133689987706,2.8583882783882784,2.958315018315018,2.4304761904761905
0.4664269240020076,2.8583882783882784,2.958315018315018,2.4304761904761905
0.47067800499644363,2.8583882783882784,2.958315018315018,2.4304761904761905
0.4716626299996278,3.034065934065934,2.5586080586080584,3.3
0.4727175020016148,3.034065934065934,2.5586080586080584,3.3
0.4730278209972312,3.034065934065934,2.5586080586080584,3.3
0.4787630880018696,3.034065934065934,2.5586080586080584,3.3
0.47888942399731604,0.8243956043956043,3.0066666666666664,0.6164835164835165
0.48518437999882735,0.8243956043956043,3.0066666666666664,0.6164835164835165
0.48937130400008755,2.6673992673992672,2.3305494505494506,3.3
0.4911386419989867,3.3,2.626300366300366,2.9599267399267397
0.49605008299840847,2.9808791208791208,3.3,3.3
0.5005659419985022,2.597289377289377,2.5038095238095237,1.0097435897435898
0.5066976430025534,2.597289377289377,2.5038095238095237,1.0097435897435898
0.5112074380012928,2.597289377289377,2.5038095238095237,1.0097435897435898
0.5116297470012796,2.597289377289377,2.5038095238095237,1.0097435897435898
0.517078921002394,2.597289377289377,2.5038095238095237,1.0097435897435898
0.5173557669986621,2.597289377289377,2.5038095238095237,1.0097435897435898
0.5230989720002981,2.597289377289377,2.5038095238095237,1.0097435897435898
0.5306512379975175,1.1652747252747253,3.3,3.192014652014652
0.5370958630010136,1.1652747252747253,3.3,3.192014652014652
0.5430815409999923,1.1652747252747253,3.3,3.192014652014652
0.5493580870024743,1.2144322344322345,1.6367032967032966,0.2482051282051282
0.5528255960016395,1.2144322344322345,1.6367032967032966,0.2482051282051282
0.5530171799982782,1.2144322344322345,1.6367032967032966,0.2482051282051282
0.5581762079964392,1.2144322344322345,1.6367032967032966,0.2482051282051282
0.5621737140027108,1.2144322344322345,1.6367032967032966,0.2482051282051282
0.5662693530030083,1.2144322344322345,1.6367032967032966,0.2482051282051282
0.568237148996559,1.2144322344322345,1.6367032967032966,0.2482051282051282
0.570016534999013,1.2144322344322345,1.6367032967032966,0.2482051282051282
0.5734237520009628,1.2144322344322345,1.6367032967032966,0.2482051282051282
0.5737272199985455,2.808424908424908,1.307106227106227,2.075897435897436
0.5796186610023142,2.808424908424908,1.307106227106227,2.075897435897436
0.5860369380025077,2.808424908424908,1.307106227106227,2.075897435897436
0.5901976090026437,2.808424908424908,1.307106227106227,2.075897435897436
0.592764344997704,2.808424908424908,1.307106227106227,2.075897435897436
0.6006170929977088,2.808424908424908,1.307106227106227,2.075897435897436
0.6050718760016025,2.808424908424908,1.307106227106227,2.075897435897436
0.6061237579997396,0.4126007326007326,2.5279853479853482,1.8865201465201462
0.6070523469970794,0.4126007326007326,2.5279853479853482,1.8865201465201462
0.6090578889998142,0.4126007326007326,2.5279853479853482,1.8865201465201462
0.6111067469973932,0.4126007326007326,2.5279853479853482,1.8865201465201462
0.6146295509970514,0.4126007326007326,2.5279853479853482,1.8865201465201462
0.6192007810022915,0.4126007326007326,2.5279853479853482,1.8865201465201462
0.6193565499997931,0.4126007326007326,2.5279853479853482,1.8865201465201462
0.6244323790015187,0.4126007326007326,2.5279853479853482,1.8865201465201462
0.6293409889985924,0.6696703296703297,3.3,2.37003663003663
0.6362526439988869,2.856776556776557,2.5747252747252745,3.3
0.641315898996254,2.856776556776557,2.5747252747252745,3.3
0.6439207319999696,2.856776556776557,2.5747252747252745,3.3
0.6536783600022318,2.856776556776557,2.5747252747252745,3.3
0.6590726930007804,2.856776556776557,2.5747252747252745,3.3
0.6608002819993999,2.856776556776557,2.5747252747252745,3.3
0.6666443419962889,2.856776556776557,2.5747252747252745,3.3
0.6710037160009961,2.856776556776557,2.5747252747252745,3.3
0.6720113530027447,2.856776556776557,2.5747252747252745,3.3
0.6729649400003836,2.856776556776557,2.5747252747252745,3.3
0.6747145679983078,2.856776556776557,2.5747252747252745,3.3
0.6821596689987928,2.856776556776557,2.5747252747252745,3.3
0.6863651180028683,2.856776556776557,2.5747252747252745,3.3
0.6888252919961815,2.856776556776557,2.5747252747252745,3.3
0.6948498889978509,2.856776556776557,2.5747252747252745,3.3
0.7047673409979325,2.856776556776557,2.5747252747252745,3.3
0.7098810899988166,2.224981684981685,2.581172161172161,2.5586080586080584
0.7150982929961174,2.224981684981685,2.581172161172161,2.5586080586080584
0.7168347059996449,2.224981684981685,2.581172161172161,2.5586080586080584
0.7203754959991784,2.224981684981685,2.581172161172161,2.5586080586080584
0.7204978320005466,2.224981684981685,2.581172161172161,2.5586080586080584
0.7256341859974782,2.224981684981685,2.581172161172161,2.5586080586080584
0.730823429999873,2.224981684981685,2.581172161172161,2.5586080586080584
0.732731178002723,2.224981684981685,2.581172161172161,2.5586080586080584
0.7344053039996652,2.224981684981685,2.581172161172161,2.5586080586080584
0.7370614190003835,2.224981684981685,2.581172161172161,2.5586080586080584
0.7420946100028232,2.224981684981685,2.581172161172161,2.5586080586080584
0.7498354749986902,2.224981684981685,2.581172161172161,2.5586080586080584
0.7573595790017862,2.224981684981685,2.581172161172161,2.5586080586080584
0.7658981220010901,2.224981684981685,2.581172161172161,2.5586080586080584
0.7709239079995314,0.8695238095238095,3.3,2.465128205128205
0.7744735090018366,0.8695238095238095,3.3,2.465128205128205
0.774603546000435,0.8695238095238095,3.3,2.465128205128205
0.7821118159990874,0.8695238095238095,3.3,2.465128205128205
0.7880420119981864,0.4810989010989011,2.59003663003663,1.9558241758241757
0.7915502969990484,0.4810989010989011,2.59003663003663,1.9558241758241757
0.7917969330010237,0.4810989010989011,2.59003663003663,1.9558241758241757
0.79919586199685,0.4810989010989011,2.59003663003663,1.9558241758241757
0.8041233019976062,0.4810989010989011,2.59003663003663,1.9558241758241757
0.8074233369989088,3.3,3.3,2.731062271062271
0.8077296470000874,3.3,2.347472527472527,2.9720146520146518
0.8162350119964685,3.3,2.347472527472527,2.9720146520146518
0.8227064730017446,3.3,2.347472527472527,2.9720146520146518
0.8269011149968719,3.3,2.347472527472527,2.9720146520146518
0.8323314079971169,3.3,2.347472527472527,2.9720146520146518
0.8383461839985102,3.3,2.347472527472527,2.9720146520146518
0.8422180990019115,3.2983882783882783,2.6915750915750913,2.569084249084249
0.8506630150004639,3.2983882783882783,2.6915750915750913,2.569084249084249
0.8557622879961855,3.2983882783882783,2.6915750915750913,2.569084249084249
0.8597200149961282,1.8832967032967032,3.3,0.2949450549450549
0.8657686649967218,1.8832967032967032,3.3,0.2949450549450549
0.8692268750019139,3.3,1.5891575091575092,3.2331135531135526
0.8694879440008663,2.714945054945055,2.577948717948718,2.5715018315018314
0.8751455439996789,2.714945054945055,2.577948717948718,2.5715018315018314
0.8753040450028493,2.714945054945055,2.577948717948718,2.5715018315018314
0.8828570569967269,2.714945054945055,2.577948717948718,2.5715018315018314
0.8871642360027181,2.714945054945055,2.577948717948718,2.5715018315018314
0.888342525002372,2.714945054945055,2.577948717948718,2.5715018315018314
0.8885537120004301,2.714945054945055,2.577948717948718,2.5715018315018314
0.8934133899965673,2.714945054945055,2.577948717948718,2.5715018315018314
0.9024508430011338,2.714945054945055,2.577948717948718,2.5715018315018314
0.9073683949973201,2.2048351648351647,2.5827838827838825,2.5642490842490844
0.9132559560021036,2.2048351648351647,2.5827838827838825,2.5642490842490844
0.9189296650001779,2.9857142857142858,0.46175824175824176,1.991282051282051
0.9190458299999591,2.9857142857142858,0.46175824175824176,1.991282051282051
0.9239657579964842,2.9857142857142858,0.46175824175824176,1.991282051282051
0.9299653459966066,2.9857142857142858,0.46175824175824176,1.991282051282051
0.9377145350008504,2.9857142857142858,0.46175824175824176,1.991282051282051
0.9420891219997429,2.9857142857142858,0.46175824175824176,1.991282051282051
0.9429728809991502,2.9857142857142858,0.46175824175824176,1.991282051282051
0.9459819120020256,2.9857142857142858,0.46175824175824176,1.991282051282051
0.9489089540002169,2.9857142857142858,0.46175824175824176,1.991282051282051
0.9499378870023065,2.9857142857142858,0.46175824175824176,1.991282051282051
0.950864886995987,2.9857142857142858,0.46175824175824176,1.991282051282051
0.9518601529998705,2.8873992673992674,1.822051282051282,2.6633699633699632
0.9528745799980243,2.6883516483516483,1.6012454212454212,1.4086446886446886
0.9538455980000435,2.6883516483516483,1.6012454212454212,1.4086446886446886
0.9548399589984911,1.804322344322344,3.3,0.4029304029304029
0.9557833630024106,1.804322344322344,3.3,0.4029304029304029
0.9567182269965997,1.804322344322344,3.3,0.4029304029304029
0.9576591459990595,0.9718681318681318,3.078388278388278,0.1087912087912088
0.9587238649983192,0.9718681318681318,3.078388278388278,0.1087912087912088
0.9595895960010239,0.9718681318681318,3.078388278388278,0.1087912087912088
0.9606537569998181,0.9718681318681318,3.078388278388278,0.1087912087912088
0.9625299699982861,0.9718681318681318,3.078388278388278,0.1087912087912088
0.9649712320024264,0.8364835164835164,3.3,2.2556043956043954
0.9712306660003378,0.8364835164835164,3.3,2.2556043956043954
0.9753090009980951,3.3,2.457069597069597,2.830989010989011
0.9796984999993583,3.3,2.457069597069597,2.830989010989011
0.9814573679977912,3.3,2.457069597069597,2.830989010989011
0.9834989930022857,3.3,2.457069597069597,2.830989010989011
0.9845769579987973,3.3,2.457069597069597,2.830989010989011
0.9849603979964741,3.3,2.457069597069597,2.830989010989011
0.9898002010013442,3.3,2.457069597069597,2.830989010989011
0.9966612279968103,3.3,2.457069597069597,2.830989010989011
1.001268068997888,3.3,2.457069597069597,2.830989010989011
1.011736895001377,3.3,2.457069597069597,2.830989010989011
1.019562474997656,3.3,2.1234432234432234,3.3
1.0270337289985036,3.3,2.1234432234432234,3.3
1.0335656399984146,1.0049084249084248,1.1475457875457875,0.49076923076923074
1.0370913469960215,1.0049084249084248,1.1475457875457875,0.49076923076923074
1.03724653700192,1.0049084249084248,1.1475457875457875,0.49076923076923074
1.042262713002856,1.0049084249084248,1.1475457875457875,0.49076923076923074
1.0488538520003203,1.6302564102564103,2.577948717948718,3.0614652014652015
1.053538619999017,1.0105494505494506,3.3,2.9873260073260073
1.0586891439961619,1.0105494505494506,3.3,2.9873260073260073
1.0632294370007003,2.2265934065934068,3.291941391941392,1.7817582417582416
1.0634932259999914,0.904981684981685,3.3,2.4095238095238094
1.0695399370015366,0.904981684981685,3.3,2.4095238095238094
1.072971610003151,0.904981684981685,3.3,2.4095238095238094
1.0732758099984494,2.781025641025641,1.627032967032967,1.2627838827838826
1.0820659119999618,2.781025641025641,1.627032967032967,1.2627838827838826
1.087143434000609,2.242710622710623,2.577948717948718,2.548937728937729
1.0902776829971117,2.655311355311355,1.4827838827838828,3.179120879120879
1.091964088001987,2.655311355311355,1.4827838827838828,3.179120879120879
1.0958471720005036,2.655311355311355,1.4827838827838828,3.179120879120879
1.0995182389960974,0.8364835164835164,3.0227838827838824,0.23853479853479853
1.1043043379977462,0.8364835164835164,3.0227838827838824,0.23853479853479853
1.104490589001216,0.8364835164835164,3.0227838827838824,0.23853479853479853
1.109181562998856,0.8364835164835164,3.0227838827838824,0.23853479853479853
1.1093964070023503,3.3,2.3466666666666667,3.3
1.117020240999409,3.3,2.3466666666666667,3.3
1.1237412080008653,3.3,2.3466666666666667,3.3
1.1298636770006851,3.3,2.3466666666666667,3.3
1.1359631379964412,3.3,2.3466666666666667,3.3
1.1416479949984932,3.3,2.3466666666666667,3.3
1.150091531999351,3.3,2.3466666666666667,3.3
1.1603552649976336,3.3,2.3466666666666667,3.3
1.1718153769979835,3.3,2.3466666666666667,3.3
1.1833190920006018,3.3,2.3466666666666667,3.3
1.191914410002937,3.3,2.3466666666666667,3.3
1.1984696989966324,3.3,2.3466666666666667,3.3
1.2035375429986743,1.6713553113553112,3.129157509157509,1.2837362637362637
1.2070063619976281,1.6713553113553112,3.129157509157509,1.2837362637362637
1.216518189998169,1.6713553113553112,3.129157509157509,1.2837362637362637
1.2254885180009296,0.9525274725274724,3.1887912087912085,0.46417582417582415
1.2334583929987275,0.9525274725274724,3.1887912087912085,0.46417582417582415
1.2405333970018546,0.9525274725274724,3.1887912087912085,0.46417582417582415
1.24513481699978,0.9525274725274724,3.1887912087912085,0.46417582417582415
1.2453470699983882,0.9525274725274724,3.1887912087912085,0.46417582417582415
1.2502254139981233,0.9525274725274724,3.1887912087912085,0.46417582417582415
1.2552781659978791,2.8390476190476193,0.9517216117216116,2.4756043956043956
1.2590798210003413,0.9758974358974358,3.3,1.1427106227106225
1.264341889997013,0.9758974358974358,3.3,1.1427106227106225
1.268034749002254,0.5512087912087912,3.25003663003663,2.129084249084249
1.2724408060021233,0.5512087912087912,3.25003663003663,2.129084249084249
1.2746697639959166,0.5512087912087912,3.25003663003663,2.129084249084249
1.2761815499980003,1.3884981684981685,3.3,0.942051282051282
1.2804779520010925,1.3884981684981685,3.3,0.942051282051282
1.2820443529999466,2.2523809523809524,2.5005860805860802,0.8840293040293039
1.286324134998722,0.8413186813186813,3.3,2.3845421245421243
1.2878527369975927,0.8413186813186813,3.3,2.3845421245421243
1.2921819300026982,0.8413186813186813,3.3,2.3845421245421243
1.294364752000547,2.66014652014652,2.585201465201465,1.4134798534798534
1.29465413899743,2.66014652014652,2.585201465201465,1.4134798534798534
1.2997245380029199,2.66014652014652,2.585201465201465,1.4134798534798534
1.303390765999211,2.66014652014652,2.585201465201465,1.4134798534798534
1.3086723009982961,2.9744322344322343,2.6665934065934067,2.553772893772894
1.3116011590027483,2.9744322344322343,2.6665934065934067,2.553772893772894
1.3146691709989682,2.9744322344322343,2.6665934065934067,2.553772893772894
1.3175595840002643,2.9744322344322343,2.6665934065934067,2.553772893772894
1.3199168979990645,2.9744322344322343,2.6665934065934067,2.553772893772894
1.3201647169989883,2.9744322344322343,2.6665934065934067,2.553772893772894
1.3245767089974834,2.9744322344322343,2.6665934065934067,2.553772893772894
1.3255479910003487,0.6172893772893773,2.984102564102564,1.759194139194139
1.3270959610017599,0.6172893772893773,2.984102564102564,1.759194139194139
1.3314337699994212,0.6172893772893773,2.984102564102564,1.759194139194139
1.332930063996173,0.6172893772893773,2.984102564102564,1.759194139194139
1.337334108997311,0.6172893772893773,2.984102564102564,1.759194139194139
1.338910197999212,0.6172893772893773,2.984102564102564,1.759194139194139
1.3425765049978509,0.6172893772893773,2.984102564102564,1.759194139194139
1.3477218789994367,0.6172893772893773,2.984102564102564,1.759194139194139
1.3518292209992069,0.6172893772893773,2.984102564102564,1.759194139194139
1.354301013998338,0.6172893772893773,2.984102564102564,1.759194139194139
1.354531341996335,0.6172893772893773,2.984102564102564,1.759194139194139
1.3594805390021065,0.6172893772893773,2.984102564102564,1.759194139194139
1.3645041560012032,0.6172893772893773,2.984102564102564,1.759194139194139
1.3684069709997857,0.6172893772893773,2.984102564102564,1.759194139194139
1.3729918120006914,3.3,2.1089377289377285,1.311135531135531
1.3731864820001647,3.3,2.1089377289377285,1.311135531135531
1.3779234219982754,3.3,2.1089377289377285,1.311135531135531
1.3781210239976645,3.3,2.1089377289377285,1.311135531135531
1.3831960349998553,3.3,2.1089377289377285,1.311135531135531
1.3869088150022435,0.3755311355311355,1.7092307692307693,1.1241758241758242
1.3920365719968686,0.3755311355311355,1.7092307692307693,1.1241758241758242
1.3956850620015757,0.3755311355311355,1.7092307692307693,1.1241758241758242
1.3958338879965595,1.7994871794871792,3.261318681318681,0.5600732600732601
1.4009209380019456,1.7994871794871792,3.261318681318681,0.5600732600732601
1.4049693449996994,1.7994871794871792,3.261318681318681,0.5600732600732601
1.4073621420029667,1.7994871794871792,3.261318681318681,0.5600732600732601
1.4075206049965345,1.7994871794871792,3.261318681318681,0.5600732600732601
1.4121684269994148,1.7994871794871792,3.261318681318681,0.5600732600732601
1.4124507719971007,2.5835897435897435,2.5835897435897435,2.577948717948718
1.4168192380020628,2.5835897435897435,2.5835897435897435,2.577948717948718
1.4193337489996338,0.8348717948717947,3.2983882783882783,0.46739926739926735
1.4242324309961987,2.0533333333333332,2.6005128205128205,0.8896703296703296
1.4298436140015838,2.6778754578754578,1.999340659340659,3.3
1.4300988600007258,2.6778754578754578,1.999340659340659,3.3
1.4348456079969765,2.6778754578754578,1.999340659340659,3.3
1.43495534700196,2.6778754578754578,1.999340659340659,3.3
1.4393837179959519,2.6778754578754578,1.999340659340659,3.3
1.440253770997515,2.6778754578754578,1.999340659340659,3.3
1.4419268170022406,2.6778754578754578,1.999340659340659,3.3
1.44568440799776,2.6778754578754578,1.999340659340659,3.3
1.4457908729964402,2.6778754578754578,1.999340659340659,3.3
1.4502456830014125,2.6778754578754578,1.999340659340659,3.3
1.451804728996649,2.6778754578754578,1.999340659340659,3.3
1.4555138770010672,2.6778754578754578,1.999340659340659,3.3
1.4606463149975752,2.6778754578754578,1.999340659340659,3.3
1.465605648001656,0.43032967032967034,0.8727472527472527,1.3103296703296703
1.4695474870022736,0.43032967032967034,0.8727472527472527,1.3103296703296703
1.474114668002585,0.43032967032967034,0.8727472527472527,1.3103296703296703
1.4743583759991452,0.43032967032967034,0.8727472527472527,1.3103296703296703
1.4788564940026845,0.43032967032967034,0.8727472527472527,1.3103296703296703
1.4797365920021548,1.137069597069597,3.063076923076923,0.09509157509157509
1.4819397460014443,1.137069597069597,3.063076923076923,0.09509157509157509
1.4827374079977744,1.137069597069597,3.063076923076923,0.09509157509157509
1.4849908859978314,1.0331135531135531,3.3,2.5642490842490844
1.4851904259994626,1.6076923076923075,2.5521611721611723,3.3
1.489652329000819,1.6076923076923075,2.5521611721611723,3.3
1.4919308320022537,1.6076923076923075,2.5521611721611723,3.3
1.4921394260018133,1.6076923076923075,2.5521611721611723,3.3
1.4965366409960552,1.6076923076923075,2.5521611721611723,3.3
1.4982082490023458,1.6076923076923075,2.5521611721611723,3.3
1.501570685999468,1.6076923076923075,2.5521611721611723,3.3
1.5019001889959327,1.6076923076923075,2.5521611721611723,3.3
1.5068250370022724,1.6076923076923075,2.5521611721611723,3.3
1.5139842170028714,1.6076923076923075,2.5521611721611723,3.3
1.5189226630027406,1.6076923076923075,2.5521611721611723,3.3
1.5247444310007268,0.5657142857142857,3.3,0.7978021978021977
1.5326105279964395,0.7881318681318681,1.0621245421245422,0.31509157509157504
1.5391468300003908,0.7881318681318681,1.0621245421245422,0.31509157509157504
1.543330275999324,0.7881318681318681,1.0621245421245422,0.31509157509157504
1.5458508809970226,0.7881318681318681,1.0621245421245422,0.31509157509157504
1.5459828109960654,2.6714285714285713,2.3764835164835163,3.1726739926739924
1.5507899479998741,2.6714285714285713,2.3764835164835163,3.1726739926739924
1.556435878002958,2.6714285714285713,2.3764835164835163,3.1726739926739924
1.5568249999996624,2.6714285714285713,2.3764835164835163,3.1726739926739924
1.5617512589960825,2.6714285714285713,2.3764835164835163,3.1726739926739924
1.5667248730023857,2.6714285714285713,2.3764835164835163,3.1726739926739924
1.5707936379985767,2.6714285714285713,2.3764835164835163,3.1726739926739924
1.5740615370013984,2.797142857142857,1.9268131868131868,2.270915750915751
1.5743837240006542,2.797142857142857,1.9268131868131868,2.270915750915751
1.5796833670028718,2.797142857142857,1.9268131868131868,2.270915750915751
1.5833364759964752,2.797142857142857,1.9268131868131868,2.270915750915751
1.5882351379987085,0.4319413919413919,2.075091575091575,1.668131868131868
1.593363808002323,3.00989010989011,2.5038095238095237,1.0935531135531134
1.5966564479967928,2.6375824175824176,1.3997802197802196,1.706007326007326
1.5969514480020734,0.942051282051282,3.111428571428571,0.3038095238095238
1.6017180869966978,0.942051282051282,3.111428571428571,0.3038095238095238
1.60196838399861,0.942051282051282,3.111428571428571,0.3038095238095238
1.6068389770007343,0.942051282051282,3.111428571428571,0.3038095238095238
1.6123068289962248,3.3,3.3,3.3
1.6132995119987754,3.079194139194139,0.8526007326007327,1.9985347985347983
1.614245195996773,3.079194139194139,0.8526007326007327,1.9985347985347983
1.6153504719986813,3.079194139194139,0.8526007326007327,1.9985347985347983
1.6156082919987966,3.079194139194139,0.8526007326007327,1.9985347985347983
1.6204598719996284,0.8799999999999999,2.9309157509157506,0.30058608058608055
1.6259843619991443,0.8799999999999999,2.9309157509157506,0.30058608058608055
1.6275915239966707,2.659340659340659,1.3852747252747253,2.245934065934066
1.6312805060006212,2.659340659340659,1.3852747252747253,2.245934065934066
1.6363566310028546,2.659340659340659,1.3852747252747253,2.245934065934066
1.640394413996546,2.659340659340659,1.3852747252747253,2.245934065934066
1.643671011996048,2.659340659340659,1.3852747252747253,2.245934065934066
1.6446059320005588,2.659340659340659,1.3852747252747253,2.245934065934066
1.6457022009999491,2.659340659340659,1.3852747252747253,2.245934065934066
1.646042430002126,2.659340659340659,1.3852747252747253,2.245934065934066
1.6507829960028175,3.051794871794872,2.4949450549450547,1.9437362637362636
1.6567988570022862,3.051794871794872,2.4949450549450547,1.9437362637362636
1.6612197029971867,0.6116483516483516,3.3,0.6454945054945055
1.6615429160010535,0.6116483516483516,3.3,0.6454945054945055
1.666354027001944,0.6116483516483516,3.3,0.6454945054945055
1.6719459779997123,0.6116483516483516,3.3,0.6454945054945055
1.6728163110019523,0.6116483516483516,3.3,0.6454945054945055
1.6747160669983714,1.7978754578754577,1.9493772893772894,2.2314285714285713
1.6774456529965391,1.7978754578754577,1.9493772893772894,2.2314285714285713
1.6814799060011865,1.7978754578754577,1.9493772893772894,2.2314285714285713
1.6846749390024343,1.7978754578754577,1.9493772893772894,2.2314285714285713
1.686559308996948,1.7978754578754577,1.9493772893772894,2.2314285714285713
1.688323208996735,1.7978754578754577,1.9493772893772894,2.2314285714285713
1.6908397719962522,1.7978754578754577,1.9493772893772894,2.2314285714285713
1.6967688169970643,1.7978754578754577,1.9493772893772894,2.2314285714285713
1.702361458002997,1.7978754578754577,1.9493772893772894,2.2314285714285713
1.703289238997968,1.7978754578754577,1.9493772893772894,2.2314285714285713
1.7049384519996238,1.7978754578754577,1.9493772893772894,2.2314285714285713
1.708837895996112,1.7978754578754577,1.9493772893772894,2.2314285714285713
1.7129895409962046,1.7978754578754577,1.9493772893772894,2.2314285714285713
1.7146604130030028,1.7978754578754577,1.9493772893772894,2.2314285714285713
1.7185628459992586,1.7978754578754577,1.9493772893772894,2.2314285714285713
1.7217313910005032,2.2878388278388275,2.545714285714286,3.1460805860805863
1.7233630650007399,2.2878388278388275,2.545714285714286,3.1460805860805863
1.7273533740008133,2.2878388278388275,2.545714285714286,3.1460805860805863
1.730463897001755,3.3,3.03003663003663,1.3312820512820513
1.7323989259966766,3.3,3.03003663003663,1.3312820512820513
1.7348997139997664,3.3,3.03003663003663,1.3312820512820513
1.7404428200024995,3.3,3.03003663003663,1.3312820512820513
1.7414656319961068,3.3,3.03003663003663,1.3312820512820513
1.741824821998307,3.3,3.03003663003663,1.3312820512820513
1.7467225729997153,3.3,3.03003663003663,1.3312820512820513
1.7516694139994797,3.3,3.03003663003663,1.3312820512820513
1.7563820659997873,2.577948717948718,2.577948717948718,2.553772893772894
1.762208558000566,1.9243956043956043,3.3,0.31186813186813184
1.7624041329981992,1.9243956043956043,3.3,0.31186813186813184
1.7675000570015982,1.9243956043956043,3.3,0.31186813186813184
1.7708293059986318,1.9243956043956043,3.3,0.31186813186813184
1.7717506819972186,1.9243956043956043,3.3,0.31186813186813184
1.7733716160000768,1.9243956043956043,3.3,0.31186813186813184
1.7766698999985238,1.9243956043956043,3.3,0.31186813186813184
1.778392588996212,0.7067399267399267,3.042124542124542,0.4005128205128205
1.7815026469979784,0.7067399267399267,3.042124542124542,0.4005128205128205
1.7831792549986858,1.71003663003663,2.5715018315018314,1.672161172161172
1.7872096749997581,1.71003663003663,2.5715018315018314,1.672161172161172
1.7903840049984865,1.71003663003663,2.5715018315018314,1.672161172161172
1.792235556000378,1.71003663003663,2.5715018315018314,1.672161172161172
1.7946782619983424,1.71003663003663,2.5715018315018314,1.672161172161172
1.7948865079961251,1.71003663003663,2.5715018315018314,1.672161172161172
1.7997052139980951,1.71003663003663,2.5715018315018314,1.672161172161172
1.8056573869980639,1.71003663003663,2.5715018315018314,1.672161172161172
1.8103634380022413,1.71003663003663,2.5715018315018314,1.672161172161172
1.816186326002935,1.71003663003663,2.5715018315018314,1.672161172161172
1.8163521800015587,1.71003663003663,2.5715018315018314,1.672161172161172
1.8212788660021033,1.71003663003663,2.5715018315018314,1.672161172161172
1.8261036219992093,1.71003663003663,2.5715018315018314,1.672161172161172
1.8310748410003725,1.71003663003663,2.5715018315018314,1.672161172161172
1.8358963099963148,1.71003663003663,2.5715018315018314,1.672161172161172
1.8417367590009235,1.71003663003663,2.5715018315018314,1.672161172161172
1.851685080997413,1.7543589743589743,3.3,1.6044688644688643
1.859754928998882,1.7543589743589743,3.3,1.6044688644688643
1.8650179390024277,1.7543589743589743,3.3,1.6044688644688643
1.8675883149990113,0.7188278388278388,3.1484981684981683,1.6632967032967032
1.8726670850010123,0.7188278388278388,3.1484981684981683,1.6632967032967032
1.8765967060026014,0.7188278388278388,3.1484981684981683,1.6632967032967032
1.8805094060007832,0.7188278388278388,3.1484981684981683,1.6632967032967032
1.8839342049977859,2.194358974358974,2.2314285714285713,0.6253479853479853
1.884159841996734,0.5141391941391941,2.851941391941392,1.9614652014652014
1.8894030099982047,0.5141391941391941,2.851941391941392,1.9614652014652014
1.8930011650008964,3.3,1.7454945054945055,2.518315018315018
1.8980415530022583,3.3,1.7454945054945055,2.518315018315018
1.9019667800021125,0.5947252747252747,3.3,0.3795604395604395
1.905942552999477,0.5947252747252747,3.3,0.3795604395604395
1.9102495449988055,0.5947252747252747,3.3,0.3795604395604395
1.9125907449997612,0.5947252747252747,3.3,0.3795604395604395
1.9172678690010798,0.5947252747252747,3.3,0.3795604395604395
1.917547814999125,1.0597069597069597,3.3,1.0701831501831502
1.9224075739984983,2.5424908424908423,2.5763369963369964,2.5513553113553114
1.92800370400073,0.9605860805860806,1.0274725274725274,0.3287912087912088
1.9289001040015137,0.9605860805860806,1.0274725274725274,0.3287912087912088
1.9298794860005728,3.042124542124542,2.585201465201465,2.5723076923076924
1.9307896190002793,3.042124542124542,2.585201465201465,2.5723076923076924
1.9324338040023576,3.042124542124542,2.585201465201465,2.5723076923076924
1.9364423439983511,3.042124542124542,2.585201465201465,2.5723076923076924
1.9398038200015435,0.7172161172161172,3.029230769230769,0.29333333333333333
1.9401282890030416,0.7172161172161172,3.029230769230769,0.29333333333333333
1.9460687059981865,0.7172161172161172,3.029230769230769,0.29333333333333333
1.9507859610021114,2.5384615384615383,2.5586080586080584,3.3
1.9564775109975017,2.5384615384615383,2.5586080586080584,3.3
1.956688361002307,2.5384615384615383,2.5586080586080584,3.3
1.962192277002032,2.5384615384615383,2.5586080586080584,3.3
1.9631031000026269,2.5384615384615383,2.5586080586080584,3.3
1.9647549969959073,2.5384615384615383,2.5586080586080584,3.3
1.968674491996353,2.5384615384615383,2.5586080586080584,3.3
1.9726974879959016,2.104102564102564,2.577948717948718,2.5553846153846154
1.975941757002147,2.104102564102564,2.577948717948718,2.5553846153846154
1.9775394820026122,0.6035897435897435,3.3,0.5826373626373627
1.9814267819965607,0.6035897435897435,3.3,0.5826373626373627
1.9864128449989948,0.6035897435897435,3.3,0.5826373626373627
1.9904848209989723,1.0452014652014652,3.3,2.229010989010989
1.9935492079966934,2.781025641025641,0.8356776556776556,1.3377289377289376
1.9953985039974214,2.781025641025641,0.8356776556776556,1.3377289377289376
1.9978329599980498,2.781025641025641,0.8356776556776556,1.3377289377289376
1.9980649159988388,2.781025641025641,0.8356776556776556,1.3377289377289376
2.002944211002614,2.781025641025641,0.8356776556776556,1.3377289377289376
2.008633641002234,0.5665201465201465,3.3,2.0847619047619044
2.0089694330017664,2.652087912087912,1.8156043956043957,3.3
2.0139713250027853,2.652087912087912,1.8156043956043957,3.3
2.017924278996361,2.652087912087912,1.8156043956043957,3.3
2.0219583560028696,2.652087912087912,1.8156043956043957,3.3
2.0252997360003064,2.652087912087912,1.8156043956043957,3.3
2.0262374250014545,1.091135531135531,3.3,2.224981684981685
2.0278695629967842,1.091135531135531,3.3,2.224981684981685
2.0319447700021556,1.091135531135531,3.3,2.224981684981685
2.034429662002367,1.091135531135531,3.3,2.224981684981685
2.0391028770027333,1.091135531135531,3.3,2.224981684981685
2.0393262739962665,1.091135531135531,3.3,2.224981684981685
2.0442990610026754,1.091135531135531,3.3,2.224981684981685
2.048207278996415,1.091135531135531,3.3,2.224981684981685
2.0522894199966686,3.3,2.5763369963369964,2.3676190476190473
2.054803020997497,2.5682783882783884,1.6947252747252746,0.8671062271062271
2.054965875002381,2.5682783882783884,1.6947252747252746,0.8671062271062271
2.05965334999928,2.5682783882783884,1.6947252747252746,0.8671062271062271
2.0599000020010862,2.5682783882783884,1.6947252747252746,0.8671062271062271
2.064807609996933,1.191062271062271,2.631941391941392,0.11362637362637362
2.0696059949987102,1.191062271062271,2.631941391941392,0.11362637362637362
2.0755235140022705,1.191062271062271,2.631941391941392,0.11362637362637362
2.0811700519989245,1.191062271062271,2.631941391941392,0.11362637362637362
2.082167695996759,1.191062271062271,2.631941391941392,0.11362637362637362
2.083074508998834,1.191062271062271,2.631941391941392,0.11362637362637362
2.0847609449992888,1.191062271062271,2.631941391941392,0.11362637362637362
2.087924852996366,1.191062271062271,2.631941391941392,0.11362637362637362
2.090272471003118,3.3,2.4780219780219777,2.3668131868131868
2.0904611329970066,3.3,2.4780219780219777,2.3668131868131868
2.095505350996973,3.3,2.4780219780219777,2.3668131868131868
2.099598116001289,2.0589743589743588,3.1307692307692303,0.23531135531135527
2.1021063459993456,2.1717948717948716,2.5747252747252745,3.1009523809523807
2.107783694002137,0.4496703296703296,1.814798534798535,1.4795604395604396
2.108651782000379,0.4496703296703296,1.814798534798535,1.4795604395604396
2.1096057960021426,0.4496703296703296,1.814798534798535,1.4795604395604396
2.1108785449978313,0.4496703296703296,1.814798534798535,1.4795604395604396
2.111159891996067,0.4496703296703296,1.814798534798535,1.4795604395604396
2.11882964400138,0.4496703296703296,1.814798534798535,1.4795604395604396
2.12583419099974,0.8429304029304028,2.9228571428571426,0.32717948717948714
2.1297976930000004,2.795531135531135,2.548937728937729,2.552967032967033
2.133995217998745,2.795531135531135,2.548937728937729,2.552967032967033
2.1357512030008365,2.795531135531135,2.548937728937729,2.552967032967033
2.1391458159996546,2.795531135531135,2.548937728937729,2.552967032967033
2.139375040002051,1.627032967032967,3.104175824175824,1.3909157509157508
2.1443544080029824,1.627032967032967,3.104175824175824,1.3909157509157508
2.14953293200233,0.5487912087912087,2.9776556776556777,1.9405128205128204
2.1538928689988097,2.489304029304029,2.577948717948718,2.569084249084249
2.154214572001365,2.8745054945054944,0.4214652014652014,1.8244688644688645
2.162447736998729,2.8745054945054944,0.4214652014652014,1.8244688644688645
2.1689284120002412,2.8745054945054944,0.4214652014652014,1.8244688644688645
2.1748526910014334,2.8745054945054944,0.4214652014652014,1.8244688644688645
2.180651525995927,2.8745054945054944,0.4214652014652014,1.8244688644688645
2.1845767089980654,2.8745054945054944,0.4214652014652014,1.8244688644688645
2.188535604997014,2.6682051282051282,1.8712087912087911,3.3
2.192522557998018,2.1387545787545785,2.5723076923076924,2.557802197802198
2.195725555997342,2.1387545787545785,2.5723076923076924,2.557802197802198
2.197407592997479,2.1387545787545785,2.5723076923076924,2.557802197802198
2.200586963001115,1.3594871794871795,3.3,1.1684981684981686
2.2022090359969297,1.3594871794871795,3.3,1.1684981684981686
2.2061183319965494,1.3594871794871795,3.3,1.1684981684981686
2.2100130269973306,2.556996336996337,2.552967032967033,2.54974358974359
2.2142669890017714,2.556996336996337,2.552967032967033,2.54974358974359
2.21534925600281,2.556996336996337,2.552967032967033,2.54974358974359
2.2162214889976894,2.556996336996337,2.552967032967033,2.54974358974359
2.2171711859991774,2.556996336996337,2.552967032967033,2.54974358974359
2.2181218019977678,2.556996336996337,2.552967032967033,2.54974358974359
2.219778275997669,2.556996336996337,2.552967032967033,2.54974358974359
2.2238597789983032,2.556996336996337,2.552967032967033,2.54974358974359
2.226408103000722,2.556996336996337,2.552967032967033,2.54974358974359
2.231325027998537,2.556996336996337,2.552967032967033,2.54974358974359
2.237197741000273,2.736703296703297,2.5787545787545785,2.573113553113553
2.242081247997703,2.736703296703297,2.5787545787545785,2.573113553113553
2.247576822002884,2.736703296703297,2.5787545787545785,2.573113553113553
2.2494401000003563,2.6665934065934067,1.8945787545787542,3.3
2.2519904889995814,2.6665934065934067,1.8945787545787542,3.3
2.2569811020002817,2.6665934065934067,1.8945787545787542,3.3
2.2610627000030945,2.6665934065934067,1.8945787545787542,3.3
2.2641971959965304,2.6665934065934067,1.8945787545787542,3.3
2.2658133119984996,2.6665934065934067,1.8945787545787542,3.3
2.2697269060008693,2.6665934065934067,1.8945787545787542,3.3
2.2736297709998325,2.6665934065934067,1.8945787545787542,3.3
2.2783288459977484,2.565054945054945,1.8051282051282052,1.6939194139194136
2.283995983998466,2.565054945054945,1.8051282051282052,1.6939194139194136
2.284297261001484,2.565054945054945,1.8051282051282052,1.6939194139194136
2.2890159059970756,2.565054945054945,1.8051282051282052,1.6939194139194136
2.2891785649990197,2.565054945054945,1.8051282051282052,1.6939194139194136
2.2938690329974634,2.565054945054945,1.8051282051282052,1.6939194139194136
2.294043893001799,2.565054945054945,1.8051282051282052,1.6939194139194136
2.298701057996368,2.565054945054945,1.8051282051282052,1.6939194139194136
2.2989146429972607,2.415164835164835,3.1049816849816847,1.2966300366300365
2.303552427001705,2.415164835164835,3.1049816849816847,1.2966300366300365
2.3038492929990753,2.415164835164835,3.1049816849816847,1.2966300366300365
2.308612382003048,2.415164835164835,3.1049816849816847,1.2966300366300365
2.317797709001752,2.415164835164835,3.1049816849816847,1.2966300366300365
2.325020429001597,2.087985347985348,3.2145787545787545,0.18534798534798536
2.3296810449974146,2.087985347985348,3.2145787545787545,0.18534798534798536
2.3354093070011004,2.5392673992673993,2.581172161172161,2.573113553113553
2.33555353799602,2.5392673992673993,2.581172161172161,2.573113553113553
2.3403756949992385,2.5392673992673993,2.581172161172161,2.573113553113553
2.346274789997551,3.1855677655677654,2.626300366300366,2.5626373626373624
2.3528773869984434,3.1855677655677654,2.626300366300366,2.5626373626373624
2.358295732003171,3.1855677655677654,2.626300366300366,2.5626373626373624
2.3598127189980005,3.1855677655677654,2.626300366300366,2.5626373626373624
2.364202518001548,3.1855677655677654,2.626300366300366,2.5626373626373624
2.3651113449959666,3.1855677655677654,2.626300366300366,2.5626373626373624
2.366047573996184,3.1855677655677654,2.626300366300366,2.5626373626373624
2.367705343000125,3.1855677655677654,2.626300366300366,2.5626373626373624
2.371573527001601,3.1855677655677654,2.626300366300366,2.5626373626373624
2.3755853330003447,3.1855677655677654,2.626300366300366,2.5626373626373624
2.3788572269986616,3.1855677655677654,2.626300366300366,2.5626373626373624
2.379766086000018,3.1855677655677654,2.626300366300366,2.5626373626373624
2.3814490889999433,3.1855677655677654,2.626300366300366,2.5626373626373624
2.3846973460022127,3.1855677655677654,2.626300366300366,2.5626373626373624
2.3856890660026693,1.2063736263736262,3.3,3.2645421245421247
2.386606991000008,1.2063736263736262,3.3,3.2645421245421247
2.387555588997202,1.2063736263736262,3.3,3.2645421245421247
2.388699554998311,1.2063736263736262,3.3,3.2645421245421247
2.3889599059984903,1.2063736263736262,3.3,3.2645421245421247
2.3938385599976755,1.2063736263736262,3.3,3.2645421245421247
2.3993690619972767,1.2063736263736262,3.3,3.2645421245421247
2.400368613001774,1.2063736263736262,3.3,3.2645421245421247
2.4006823180025094,1.2063736263736262,3.3,3.2645421245421247
2.406593560001056,1.2063736263736262,3.3,3.2645421245421247
2.4117097119960818,1.2063736263736262,3.3,3.2645421245421247
2.414858162999735,1.2063736263736262,3.3,3.2645421245421247
2.416521601997374,1.2063736263736262,3.3,3.2645421245421247
2.420322769001359,1.2063736263736262,3.3,3.2645421245421247
2.425683380002738,0.4964102564102564,2.233040293040293,1.7608058608058608
2.42882469399774,0.4964102564102564,2.233040293040293,1.7608058608058608
2.4304199390026042,0.4964102564102564,2.233040293040293,1.7608058608058608
2.4343624570028624,0.4964102564102564,2.233040293040293,1.7608058608058608
2.4385198910022154,2.049304029304029,3.150915750915751,0.18695970695970696
2.4408975100013777,2.0944322344322344,2.165347985347985,0.6608058608058608
2.4411097709962633,2.0944322344322344,2.165347985347985,0.6608058608058608
2.4458157460030634,2.0944322344322344,2.165347985347985,0.6608058608058608
2.4460854869976174,2.0944322344322344,2.165347985347985,0.6608058608058608
2.451163092002389,2.0944322344322344,2.165347985347985,0.6608058608058608
2.4548626219984726,2.0944322344322344,2.165347985347985,0.6608058608058608
2.454969500999141,2.0944322344322344,2.165347985347985,0.6608058608058608
2.460068644002604,2.0944322344322344,2.165347985347985,0.6608058608058608
2.463036868000927,2.0944322344322344,2.165347985347985,0.6608058608058608
2.465997077000793,2.0944322344322344,2.165347985347985,0.6608058608058608
2.46828049600299,2.66014652014652,1.444102564102564,2.8495238095238093
2.4685251979972236,2.66014652014652,1.444102564102564,2.8495238095238093
2.4729802729998482,2.66014652014652,1.444102564102564,2.8495238095238093
2.474512875000073,2.66014652014652,1.444102564102564,2.8495238095238093
2.4788673340008245,0.49802197802197795,3.3,0.15875457875457877
2.480713917000685,0.49802197802197795,3.3,0.15875457875457877
2.4838299760012887,0.49802197802197795,3.3,0.15875457875457877
2.4855364370014286,1.7189010989010989,2.5465201465201464,3.3
2.4880217960017035,1.7189010989010989,2.5465201465201464,3.3
2.4881587689960725,3.2419780219780217,2.518315018315018,1.743076923076923
2.492762510999455,3.2419780219780217,2.518315018315018,1.743076923076923
2.493008252000436,2.497362637362637,1.959047619047619,0.224029304029304
2.497977348000859,2.497362637362637,1.959047619047619,0.224029304029304
2.506685827000183,2.497362637362637,1.959047619047619,0.224029304029304
2.5139640369961853,2.497362637362637,1.959047619047619,0.224029304029304
2.520281106000766,2.4038827838827834,2.6005128205128205,0.9315750915750916
2.523644045002584,2.4038827838827834,2.6005128205128205,0.9315750915750916
2.52455812900007,2.4038827838827834,2.6005128205128205,0.9315750915750916
2.525630538002588,2.4038827838827834,2.6005128205128205,0.9315750915750916
2.5259855370022706,2.4038827838827834,2.6005128205128205,0.9315750915750916
2.5307834170016577,2.4038827838827834,2.6005128205128205,0.9315750915750916
2.5365117089968408,2.4038827838827834,2.6005128205128205,0.9315750915750916
2.536800376001338,2.4038827838827834,2.6005128205128205,0.9315750915750916
2.541828267996607,2.4038827838827834,2.6005128205128205,0.9315750915750916
2.5458751670012134,2.4038827838827834,2.6005128205128205,0.9315750915750916
2.5489739659969928,2.4038827838827834,2.6005128205128205,0.9315750915750916
2.5505732680030633,2.4038827838827834,2.6005128205128205,0.9315750915750916
2.5547095680012717,2.4038827838827834,2.6005128205128205,0.9315750915750916
2.5571254710012,0.43999999999999995,3.2854945054945053,0.17406593406593407
2.5626305979967583,0.43999999999999995,3.2854945054945053,0.17406593406593407
2.5644977530027973,0.43999999999999995,3.2854945054945053,0.17406593406593407
2.568828071001917,2.6633699633699632,1.8978021978021975,3.3
2.56906756600074,2.233040293040293,2.577948717948718,2.5674725274725274
2.5747741870000027,2.233040293040293,2.577948717948718,2.5674725274725274
2.580233004002366,2.6126007326007326,0.4996336996336996,1.6866666666666665
2.5811577580025187,2.6126007326007326,0.4996336996336996,1.6866666666666665
2.582096920996264,0.5302564102564102,2.8954578754578755,1.9969230769230766
2.5837435889989138,0.5302564102564102,2.8954578754578755,1.9969230769230766
2.5876207050023368,0.5302564102564102,2.8954578754578755,1.9969230769230766
2.5915349560018512,0.5302564102564102,2.8954578754578755,1.9969230769230766
2.595558722001442,0.5302564102564102,2.8954578754578755,1.9969230769230766
2.599372062999464,0.5302564102564102,2.8954578754578755,1.9969230769230766
2.604087496001739,1.016190476190476,3.2371428571428567,0.9178754578754579
2.6042304939983296,1.016190476190476,3.2371428571428567,0.9178754578754579
2.609260160003032,1.016190476190476,3.2371428571428567,0.9178754578754579
2.61346795999998,1.016190476190476,3.2371428571428567,0.9178754578754579
2.6152622099980363,1.016190476190476,3.2371428571428567,0.9178754578754579
2.6177055629959796,1.016190476190476,3.2371428571428567,0.9178754578754579
2.6178454359978787,0.8654945054945055,2.905128205128205,0.6068131868131869
2.6227775040024426,0.8654945054945055,2.905128205128205,0.6068131868131869
2.627847814997949,0.8654945054945055,2.905128205128205,0.6068131868131869
2.631131658999948,0.8654945054945055,2.905128205128205,0.6068131868131869
2.6321942689974094,0.8654945054945055,2.905128205128205,0.6068131868131869
2.632476359998691,0.8654945054945055,2.905128205128205,0.6068131868131869
2.6373260440013837,0.8654945054945055,2.905128205128205,0.6068131868131869
2.6374749050009996,0.8654945054945055,2.905128205128205,0.6068131868131869
2.64249211599963,0.8654945054945055,2.905128205128205,0.6068131868131869
2.64720365699759,0.8654945054945055,2.905128205128205,0.6068131868131869
2.647455854996224,3.235531135531135,3.3,2.8583882783882784
2.6525842039991403,3.235531135531135,3.3,2.8583882783882784
2.6567410080024274,2.797142857142857,0.4416117216117216,1.7052014652014653
2.6593405550011084,2.797142857142857,0.4416117216117216,1.7052014652014653
2.6641185379994567,2.797142857142857,0.4416117216117216,1.7052014652014653
2.664272756999708,2.797142857142857,0.4416117216117216,1.7052014652014653
2.668922022996412,2.797142857142857,0.4416117216117216,1.7052014652014653
2.669137808996311,3.3,2.706886446886447,1.1483516483516483
2.6739097899990156,3.3,2.706886446886447,1.1483516483516483
2.6741425860018353,3.3,2.706886446886447,1.1483516483516483
2.679585293000855,3.3,2.706886446886447,1.1483516483516483
2.6806935770000564,3.3,2.706886446886447,1.1483516483516483
2.6809556709995377,3.3,2.706886446886447,1.1483516483516483
2.6855756160002784,3.3,2.706886446886447,1.1483516483516483
2.6858479930015164,3.3,2.706886446886447,1.1483516483516483
2.6909203120012535,3.3,2.706886446886447,1.1483516483516483
2.6942627969983732,3.3,2.706886446886447,1.1483516483516483
2.694555873000354,3.3,2.706886446886447,1.1483516483516483
2.6992136359986034,3.3,2.706886446886447,1.1483516483516483
2.6994695059984224,3.3,2.706886446886447,1.1483516483516483
2.7041430640019826,3.3,2.706886446886447,1.1483516483516483
2.704436767002335,3.3,2.706886446886447,1.1483516483516483
2.7091282600013074,3.3,2.706886446886447,1.1483516483516483
2.7093347959962557,3.3,2.706886446886447,1.1483516483516483
2.714265331000206,3.3,2.706886446886447,1.1483516483516483
2.7192292800027644,0.8775824175824175,3.3,1.427985347985348
2.723495502003061,2.9760439560439558,2.586007326007326,2.561025641025641
2.7252746209996985,2.9760439560439558,2.586007326007326,2.561025641025641
2.7282161390030524,2.9760439560439558,2.586007326007326,2.561025641025641
2.7306869620006182,2.9760439560439558,2.586007326007326,2.561025641025641
2.730798753997078,2.9760439560439558,2.586007326007326,2.561025641025641
2.7355285070007085,2.9760439560439558,2.586007326007326,2.561025641025641
2.7357211199996527,2.9760439560439558,2.586007326007326,2.561025641025641
2.741347422997933,2.9760439560439558,2.586007326007326,2.561025641025641
2.7415295259997947,2.9760439560439558,2.586007326007326,2.561025641025641
2.7466874250021647,2.9760439560439558,2.586007326007326,2.561025641025641
2.750104803002614,2.9760439560439558,2.586007326007326,2.561025641025641
2.750353012001142,2.465128205128205,2.556996336996337,3.296776556776557
2.755224665001151,2.465128205128205,2.556996336996337,3.296776556776557
2.760770984001283,1.851062271062271,3.3,0.5794139194139193
2.762409230999765,0.8904761904761904,2.8873992673992674,0.5221978021978021
2.766232125002716,0.48835164835164835,2.9067399267399265,1.7583882783882783
2.7708050590008497,2.6536996336996337,2.0017582417582416,3.3
2.7710524930007523,2.6536996336996337,2.0017582417582416,3.3
2.7757236399993417,2.6536996336996337,2.0017582417582416,3.3
2.776003765000496,1.726959706959707,3.3,0.8542124542124543
2.783297322996077,1.726959706959707,3.3,0.8542124542124543
2.7889406249960302,1.726959706959707,3.3,0.8542124542124543
2.7943387030027225,1.726959706959707,3.3,0.8542124542124543
2.7952505979992566,1.726959706959707,3.3,0.8542124542124543
2.796880700996553,1.726959706959707,3.3,0.8542124542124543
2.800902520000818,1.726959706959707,3.3,0.8542124542124543
2.804058832996816,1.726959706959707,3.3,0.8542124542124543
2.805704065001919,0.5624908424908425,3.3,1.8824908424908422
2.8097050500000478,3.3,2.0847619047619044,2.3418315018315017
2.8138614380004583,3.3,2.0847619047619044,2.3418315018315017
2.8162160240026424,3.3,2.0847619047619044,2.3418315018315017
2.8164260580015252,3.3,2.0847619047619044,2.3418315018315017
2.8208952770000906,3.3,2.0847619047619044,2.3418315018315017
2.822047184003168,3.3,2.0847619047619044,2.3418315018315017
2.8222784850004246,3.3,2.0847619047619044,2.3418315018315017
2.827022482997563,3.3,2.0847619047619044,2.3418315018315017
2.8271557010011747,3.3,2.0847619047619044,2.3418315018315017
2.832066126000427,3.3,2.0847619047619044,2.3418315018315017
2.8381504040007712,3.3,2.0847619047619044,2.3418315018315017
2.842781022998679,3.3,2.0847619047619044,2.3418315018315017
2.8502946860025986,3.3,2.0847619047619044,2.3418315018315017
2.8568598900019424,3.3,2.0847619047619044,2.3418315018315017
2.857264218000637,3.3,2.0847619047619044,2.3418315018315017
2.869040748999396,3.3,2.0847619047619044,2.3418315018315017
2.8859081420014263,0.5979487179487178,2.792307692307692,1.9477655677655676
2.8862737329982338,0.5955311355311355,3.3,1.207179487179487
2.9051653619972058,2.702857142857143,2.856776556776557,1.2982417582417582
2.916618743998697,2.3297435897435896,2.5803663003663004,3.3
2.9286411569992197,2.3297435897435896,2.5803663003663004,3.3
2.94127902299806,2.3297435897435896,2.5803663003663004,3.3
2.951045052999689,2.6005128205128205,2.440952380952381,0.4504761904761904
2.957520231997478,2.6005128205128205,2.440952380952381,0.4504761904761904
2.963408518000506,2.6005128205128205,2.440952380952381,0.4504761904761904
2.9697586969996337,2.6005128205128205,2.440952380952381,0.4504761904761904
2.9732411590011907,2.532820512820513,2.5787545787545785,2.5715018315018314
2.973515372003021,2.532820512820513,2.5787545787545785,2.5715018315018314
2.9808401859991136,2.532820512820513,2.5787545787545785,2.5715018315018314
2.984574789996259,0.9162637362637363,2.864835164835165,0.4126007326007326
2.9894830909979646,0.9162637362637363,2.864835164835165,0.4126007326007326
2.9964698659969145,2.924468864468864,2.565054945054945,3.3
3.001882814001874,2.924468864468864,2.565054945054945,3.3
3.0021501009978238,2.924468864468864,2.565054945054945,3.3
3.0076320890002535,2.924468864468864,2.565054945054945,3.3
3.0085973189998185,2.924468864468864,2.565054945054945,3.3
3.0096808219968807,2.924468864468864,2.565054945054945,3.3
3.012111566000385,2.784249084249084,2.552967032967033,3.3
3.018085604002408,2.784249084249084,2.552967032967033,3.3
3.0213137090031523,2.784249084249084,2.552967032967033,3.3
3.022297971001535,0.3505494505494505,1.5649816849816849,1.4271794871794872
3.023238574998686,0.3505494505494505,1.5649816849816849,1.4271794871794872
3.0249036910026916,0.3505494505494505,1.5649816849816849,1.4271794871794872
3.0314369379993877,0.3505494505494505,1.5649816849816849,1.4271794871794872
3.0353112450029585,2.8712820512820514,3.3,2.872893772893773
3.039495161996456,2.8712820512820514,3.3,2.872893772893773
3.041922447999241,2.8712820512820514,3.3,2.872893772893773
3.042149551001785,2.8712820512820514,3.3,2.872893772893773
3.0498857380007394,2.8712820512820514,3.3,2.872893772893773
3.054711513002985,2.652087912087912,1.1805860805860806,2.2096703296703293
3.06046725899796,2.652087912087912,1.1805860805860806,2.2096703296703293
3.060663616997772,2.652087912087912,1.1805860805860806,2.2096703296703293
3.067204872997536,2.652087912087912,1.1805860805860806,2.2096703296703293
3.0712755729982746,2.6682051282051282,1.6971428571428568,3.3
3.0737162549994537,2.6682051282051282,1.6971428571428568,3.3
3.0739063849978265,2.6682051282051282,1.6971428571428568,3.3
3.0798093679986778,2.6682051282051282,1.6971428571428568,3.3
3.084969966999779,2.6682051282051282,1.6971428571428568,3.3
3.0873098869997193,2.6682051282051282,1.6971428571428568,3.3
3.08756048399664,2.6682051282051282,1.6971428571428568,3.3
3.092217122997681,2.6682051282051282,1.6971428571428568,3.3
3.0924600750004174,2.6682051282051282,1.6971428571428568,3.3
3.0994313769988366,2.6682051282051282,1.6971428571428568,3.3
3.1039305399972363,2.6682051282051282,1.6971428571428568,3.3
3.104204809998919,2.6682051282051282,1.6971428571428568,3.3
3.109291346001555,2.6682051282051282,1.6971428571428568,3.3
3.116354482997849,2.8712820512820514,2.5723076923076924,3.3
3.12039352300053,2.8712820512820514,2.5723076923076924,3.3
3.123782158996619,2.8712820512820514,2.5723076923076924,3.3
3.1253917930007447,0.6632234432234432,3.1968498168498165,2.1484249084249085
3.131052220996935,2.6633699633699632,1.3884981684981685,2.61018315018315
3.131255157000851,2.299120879120879,2.5747252747252745,2.569084249084249
3.138065942002868,2.299120879120879,2.5747252747252745,2.569084249084249
3.141788371001894,2.299120879120879,2.5747252747252745,2.569084249084249
3.1497974259982584,2.299120879120879,2.5747252747252745,2.569084249084249
3.1544754749993444,2.299120879120879,2.5747252747252745,2.569084249084249
3.1546110779963783,1.0145787545787546,3.3,1.519047619047619
3.159437654001522,1.0145787545787546,3.3,1.519047619047619
3.1597265509990393,1.0145787545787546,3.3,1.519047619047619
3.168000008998206,1.0145787545787546,3.3,1.519047619047619
3.17203791099746,1.0145787545787546,3.3,1.519047619047619
3.175439942999219,1.0145787545787546,3.3,1.519047619047619
3.1756407840002794,1.0145787545787546,3.3,1.519047619047619
3.1837994270026684,1.0145787545787546,3.3,1.519047619047619
3.188629035001213,1.0145787545787546,3.3,1.519047619047619
3.195263323999825,1.0145787545787546,3.3,1.519047619047619
3.2011150929974974,1.0145787545787546,3.3,1.519047619047619
3.205837806002819,1.0145787545787546,3.3,1.519047619047619
3.211934981001832,1.0145787545787546,3.3,1.519047619047619
3.2169104119966505,1.0145787545787546,3.3,1.519047619047619
3.2200617490016157,1.0145787545787546,3.3,1.519047619047619
3.2227927749991068,1.0145787545787546,3.3,1.519047619047619
3.2274220350009273,3.3,3.3,2.86
3.2276482980014407,3.3,3.3,2.86
3.2328918209968833,3.3,3.3,2.86
3.2352572590025375,3.3,3.3,2.86
3.2354495210020104,3.3,3.3,2.86
3.2409496830005082,3.3,3.3,2.86
3.242993956002465,0.8348717948717947,3.1541391941391943,0.8945054945054944
3.2439972389984177,0.8348717948717947,3.1541391941391943,0.8945054945054944
3.2444533680027234,0.8348717948717947,3.1541391941391943,0.8945054945054944
3.2509418569970876,0.8348717948717947,3.1541391941391943,0.8945054945054944
3.2562717600012547,0.8348717948717947,3.1541391941391943,0.8945054945054944
3.2565064770024037,0.8348717948717947,3.1541391941391943,0.8945054945054944
3.2616365290014073,2.0581684981684982,2.3797069597069593,0.805054945054945
3.2680330220027827,2.0581684981684982,2.3797069597069593,0.805054945054945
3.2711956089988234,2.0581684981684982,2.3797069597069593,0.805054945054945
3.272851889996673,2.0581684981684982,2.3797069597069593,0.805054945054945
3.279819190996932,2.0581684981684982,2.3797069597069593,0.805054945054945
3.2858841030029,2.0581684981684982,2.3797069597069593,0.805054945054945
3.2913568430012674,2.0581684981684982,2.3797069597069593,0.805054945054945
3.291619299001468,3.033260073260073,3.261318681318681,2.7536263736263735
3.2997677189996466,3.033260073260073,3.261318681318681,2.7536263736263735
3.3049368249994586,3.033260073260073,3.261318681318681,2.7536263736263735
3.307744088000618,2.6714285714285713,1.2821245421245422,2.5312087912087913
3.3130687279990525,2.6714285714285713,1.2821245421245422,2.5312087912087913
3.313380175997736,2.6714285714285713,1.2821245421245422,2.5312087912087913
3.319429069997568,2.6714285714285713,1.2821245421245422,2.5312087912087913
3.323392578000494,0.838095238095238,2.8906227106227105,0.1378021978021978
3.3288570329968934,0.838095238095238,2.8906227106227105,0.1378021978021978
3.330468453998037,2.694798534798535,2.573113553113553,2.5602197802197804
3.334996420999232,2.694798534798535,2.573113553113553,2.5602197802197804
3.3406810669985134,0.47465201465201456,3.3,0.2328937728937729
3.3419824369993876,0.47465201465201456,3.3,0.2328937728937729
3.3500847870018333,0.47465201465201456,3.3,0.2328937728937729
3.3549838309991173,0.47465201465201456,3.3,0.2328937728937729
3.361561382000218,2.283003663003663,2.577948717948718,0.3747252747252747
3.366264404998219,2.283003663003663,2.577948717948718,0.3747252747252747
3.3711602359981043,2.6714285714285713,2.0428571428571427,3.3
3.371374593996734,2.6714285714285713,2.0428571428571427,3.3
3.3748252040022635,2.6714285714285713,2.0428571428571427,3.3
3.375065127002017,2.6714285714285713,2.0428571428571427,3.3
3.3824216259963578,2.6714285714285713,2.0428571428571427,3.3
3.3865740969995386,2.6714285714285713,2.0428571428571427,3.3
3.3892095830015023,2.6714285714285713,2.0428571428571427,3.3
3.3955626640017726,2.6714285714285713,2.0428571428571427,3.3
3.400000966001244,2.6714285714285713,2.0428571428571427,3.3
3.4002020389962127,2.6714285714285713,2.0428571428571427,3.3
3.4060331779983244,2.6714285714285713,2.0428571428571427,3.3
3.414367678000417,2.6714285714285713,2.0428571428571427,3.3
3.421698963000381,2.6714285714285713,2.0428571428571427,3.3
3.425854144996265,2.6714285714285713,2.0428571428571427,3.3
3.429546384999412,3.3,2.1137728937728935,2.5521611721611723
3.435220911000215,3.3,2.41032967032967,0.8413186813186813
3.4418781040003523,3.3,2.41032967032967,0.8413186813186813
3.447649397996429,3.3,2.41032967032967,0.8413186813186813
3.452726868003083,3.3,2.41032967032967,0.8413186813186813
3.456141962997208,3.3,2.41032967032967,0.8413186813186813
3.4564124359967536,0.6269597069597069,3.3,1.1112820512820514
3.4647920779971173,0.6269597069597069,3.3,1.1112820512820514
3.470087911002338,1.0854945054945053,3.3,2.476410256410256
3.4710136729991063,1.0854945054945053,3.3,2.476410256410256
3.4730798469972797,1.0854945054945053,3.3,2.476410256410256
3.473371973996109,1.0854945054945053,3.3,2.476410256410256
3.4797681600030046,1.0854945054945053,3.3,2.476410256410256
3.4832666290021734,1.0854945054945053,3.3,2.476410256410256
3.4834594310013927,1.0854945054945053,3.3,2.476410256410256
3.488206740003079,1.0854945054945053,3.3,2.476410256410256
3.4883229109982494,1.0854945054945053,3.3,2.476410256410256
3.493867350000073,1.0854945054945053,3.3,2.476410256410256
3.4942455389973475,1.0854945054945053,3.3,2.476410256410256
3.5008583390008425,1.0854945054945053,3.3,2.476410256410256
3.5048870030004764,1.0854945054945053,3.3,2.476410256410256
3.508195855996746,1.0854945054945053,3.3,2.476410256410256
3.509222572996805,1.0854945054945053,3.3,2.476410256410256
3.511143165997055,1.0854945054945053,3.3,2.476410256410256
3.512718505000521,1.0854945054945053,3.3,2.476410256410256
3.519565529997635,1.0854945054945053,3.3,2.476410256410256
3.524494744997355,0.8268131868131867,3.0227838827838824,0.43677655677655675
3.5334165129970643,0.8268131868131867,3.0227838827838824,0.43677655677655675
3.540471530002833,0.8268131868131867,3.0227838827838824,0.43677655677655675
3.5448796400014544,1.2474725274725273,2.013846153846154,0.28769230769230764
3.5461728399968706,1.2474725274725273,2.013846153846154,0.28769230769230764
3.55181170799915,1.2474725274725273,2.013846153846154,0.28769230769230764
3.5520572180030285,1.2474725274725273,2.013846153846154,0.28769230769230764
3.558245150001312,1.2474725274725273,2.013846153846154,0.28769230769230764
3.564618841999618,1.2474725274725273,2.013846153846154,0.28769230769230764
3.5691188749988214,1.2474725274725273,2.013846153846154,0.28769230769230764
3.5692707229973166,1.2474725274725273,2.013846153846154,0.28769230769230764
3.574002893998113,1.2474725274725273,2.013846153846154,0.28769230769230764
3.574198971000442,1.2474725274725273,2.013846153846154,0.28769230769230764
3.581020186000387,1.2474725274725273,2.013846153846154,0.28769230769230764
3.5843353390009725,1.456190476190476,2.795531135531135,0.11523809523809524
3.584676197002409,1.456190476190476,2.795531135531135,0.11523809523809524
3.5894041930005187,1.456190476190476,2.795531135531135,0.11523809523809524
3.5895300609990954,3.3,3.3,2.9075457875457875
3.59520576599607,3.3,3.3,2.9075457875457875
3.5954891229994246,3.3,3.3,2.9075457875457875
3.599651917000301,3.3,3.3,2.9075457875457875
3.6035268909981824,3.3,3.3,2.9075457875457875
3.6080135430020164,3.3,3.3,2.9075457875457875
3.6083037499993225,3.3,3.3,2.9075457875457875
3.614809899001557,3.3,3.3,2.9075457875457875
3.6189206540002488,3.3,3.3,2.9075457875457875
3.6222508740029298,3.3,3.3,2.9075457875457875
3.6224287590011954,0.9525274725274724,3.3,2.4087179487179484
3.6274461169959977,0.9525274725274724,3.3,2.4087179487179484
3.632898727999418,0.9525274725274724,3.3,2.4087179487179484
3.6337652310030535,2.689157509157509,3.203296703296703,0.3892307692307692
3.6347457480005687,2.689157509157509,3.203296703296703,0.3892307692307692
3.63573129499855,2.689157509157509,3.203296703296703,0.3892307692307692
3.636670428000798,2.689157509157509,3.203296703296703,0.3892307692307692
3.638470033998601,2.689157509157509,3.203296703296703,0.3892307692307692
3.6410132640012307,2.689157509157509,3.203296703296703,0.3892307692307692
3.650133203002042,1.514212454212454,2.916410256410256,0.1571428571428571
3.655213231999369,2.958315018315018,1.3909157509157508,1.4167032967032966
3.6584506680010236,2.958315018315018,1.3909157509157508,1.4167032967032966
3.660064882998995,2.958315018315018,1.3909157509157508,1.4167032967032966
3.6678383979960927,2.958315018315018,1.3909157509157508,1.4167032967032966
3.675362251997285,2.958315018315018,1.3909157509157508,1.4167032967032966
3.682029525996768,2.958315018315018,1.3909157509157508,1.4167032967032966
3.686372805001156,2.958315018315018,1.3909157509157508,1.4167032967032966
3.6866165669998736,2.958315018315018,1.3909157509157508,1.4167032967032966
3.6912964770017425,2.958315018315018,1.3909157509157508,1.4167032967032966
3.6915569019984105,2.4385347985347985,2.5682783882783884,2.5513553113553114
3.6996490390010877,2.4385347985347985,2.5682783882783884,2.5513553113553114
3.703599945998576,1.90989010989011,2.5803663003663004,2.519120879120879
3.7079081339979894,1.90989010989011,2.5803663003663004,2.519120879120879
3.708876042997872,1.90989010989011,2.5803663003663004,2.519120879120879
3.7108266970026307,1.90989010989011,2.5803663003663004,2.519120879120879
3.7127236140004243,1.90989010989011,2.5803663003663004,2.519120879120879
3.7155038860000786,1.90989010989011,2.5803663003663004,2.519120879120879
3.7172483510003076,1.0016849816849815,3.3,1.2837362637362637
3.720515349996276,2.212087912087912,3.3,2.5158974358974358
3.7215415999962715,2.212087912087912,3.3,2.5158974358974358
3.7219546900014393,2.212087912087912,3.3,2.5158974358974358
3.7278260989987757,2.212087912087912,3.3,2.5158974358974358
3.7348376139998436,2.212087912087912,3.3,2.5158974358974358
3.739864971001225,2.212087912087912,3.3,2.5158974358974358
3.744725167998695,2.212087912087912,3.3,2.5158974358974358
3.7507077699992806,2.212087912087912,3.3,2.5158974358974358
3.7547170850011753,2.212087912087912,3.3,2.5158974358974358
3.7590851069981,0.7816849816849816,3.05018315018315,0.25384615384615383
3.760867892000533,0.7816849816849816,3.05018315018315,0.25384615384615383
3.7648258530025487,1.004102564102564,1.0758241758241758,0.6535531135531135
3.7673130460025277,1.004102564102564,1.0758241758241758,0.6535531135531135
3.77290877699852,1.004102564102564,1.0758241758241758,0.6535531135531135
3.7738376100023743,1.004102564102564,1.0758241758241758,0.6535531135531135
3.775633774996095,1.004102564102564,1.0758241758241758,0.6535531135531135
3.778460184999858,1.004102564102564,1.0758241758241758,0.6535531135531135
3.783884627002408,1.6125274725274723,2.5586080586080584,1.212014652014652
3.78418315500312,1.6125274725274723,2.5586080586080584,1.212014652014652
3.7888970929998322,1.6125274725274723,2.5586080586080584,1.212014652014652
3.796290083999338,3.3,3.3,3.2879120879120878
3.801576035002654,1.7656410256410255,3.3,0.8026373626373626
3.8024702109978534,2.5989010989010985,2.577948717948718,2.561831501831502
3.8034229350014357,2.5989010989010985,2.577948717948718,2.561831501831502
3.804439626997919,2.5989010989010985,2.577948717948718,2.561831501831502
3.805312677999609,2.5989010989010985,2.577948717948718,2.561831501831502
3.8069540489959763,2.5989010989010985,2.577948717948718,2.561831501831502
3.8115127819983172,2.5989010989010985,2.577948717948718,2.561831501831502
3.8117714109976077,3.0646886446886445,0.9468864468864467,2.1838827838827837
3.8193530470016412,2.178241758241758,2.888205128205128,0.3142857142857142
3.8254076829980477,0.734139194139194,3.07032967032967,0.29978021978021974
3.830004256000393,0.734139194139194,3.07032967032967,0.29978021978021974
3.8361551240013796,2.9228571428571426,0.8413186813186813,1.6939194139194136
3.8408063859969843,2.9228571428571426,0.8413186813186813,1.6939194139194136
3.84094112800085,2.9228571428571426,0.8413186813186813,1.6939194139194136
3.8471474179968936,2.9228571428571426,0.8413186813186813,1.6939194139194136
3.850743285001954,3.3,2.3603663003663002,2.3853479853479853
3.856576482001401,3.3,2.3603663003663002,2.3853479853479853
3.856697044997418,3.3,2.3603663003663002,2.3853479853479853
3.8647538790028193,3.3,2.3603663003663002,2.3853479853479853
3.8688831920007942,3.3,2.3603663003663002,2.3853479853479853
3.872973806996015,3.3,2.3603663003663002,2.3853479853479853
3.8753206969995517,3.3,2.3603663003663002,2.3853479853479853
3.875506703996507,3.3,2.3603663003663002,2.3853479853479853
3.885669424998923,3.3,2.3603663003663002,2.3853479853479853
3.8930776519991923,3.3,2.46996336996337,2.095238095238095
3.899155596998753,2.8986813186813185,1.2313553113553113,1.5633699633699631
3.9035268439984065,0.9194871794871795,2.8205128205128203,0.5084981684981685
3.904729691996181,0.9194871794871795,2.8205128205128203,0.5084981684981685
3.904991739000252,0.9194871794871795,2.8205128205128203,0.5084981684981685
3.913520850997884,0.9194871794871795,2.8205128205128203,0.5084981684981685
3.9179287160004606,0.9194871794871795,2.8205128205128203,0.5084981684981685
3.919552148996445,1.108058608058608,2.8197069597069593,0.27318681318681315
3.9230171730014263,1.108058608058608,2.8197069597069593,0.27318681318681315
3.923270090999722,0.4126007326007326,2.0686446886446883,1.6125274725274723
3.928841704997467,2.655311355311355,2.2354578754578753,3.3
3.9298138699959964,2.655311355311355,2.2354578754578753,3.3
3.9308130179997534,2.655311355311355,2.2354578754578753,3.3
3.9318064609979047,2.655311355311355,2.2354578754578753,3.3
3.932756590998906,2.655311355311355,2.2354578754578753,3.3
3.933702859998448,2.655311355311355,2.2354578754578753,3.3
3.934667196001101,2.655311355311355,2.2354578754578753,3.3
3.936358881997876,2.655311355311355,2.2354578754578753,3.3
3.939492726000026,2.655311355311355,2.2354578754578753,3.3
3.9411675840019598,2.655311355311355,2.2354578754578753,3.3
3.9445379640019382,2.655311355311355,2.2354578754578753,3.3
3.9448506490007276,2.655311355311355,2.2354578754578753,3.3
3.9499137430029805,2.655311355311355,2.2354578754578753,3.3
3.9539954220017535,2.655311355311355,2.2354578754578753,3.3
3.9564701310009696,2.655311355311355,2.2354578754578753,3.3
3.9633411329996306,2.655311355311355,2.2354578754578753,3.3
3.9670481689972803,2.655311355311355,2.2354578754578753,3.3
3.972745548999228,2.655311355311355,2.2354578754578753,3.3
3.9728548760031117,2.3297435897435896,3.0227838827838824,0.20146520146520144
3.978227009996772,2.3297435897435896,3.0227838827838824,0.20146520146520144
3.9808458059997065,2.3297435897435896,3.0227838827838824,0.20146520146520144
3.9857699089989183,2.3297435897435896,3.0227838827838824,0.20146520146520144
3.990576283002156,2.3297435897435896,3.0227838827838824,0.20146520146520144
3.9962119519987027,2.3297435897435896,3.0227838827838824,0.20146520146520144
3.996452229002898,2.3297435897435896,3.0227838827838824,0.20146520146520144
4.00137116699625,2.3297435897435896,3.0227838827838824,0.20146520146520144
4.006040373998985,2.3297435897435896,3.0227838827838824,0.20146520146520144
4.006188614002895,2.3297435897435896,3.0227838827838824,0.20146520146520144
4.011230267002247,2.3297435897435896,3.0227838827838824,0.20146520146520144
4.016772675997345,2.561831501831502,2.557802197802198,3.3
4.016935448002187,1.6544322344322344,3.3,1.494871794871795
4.021803135001392,1.6544322344322344,3.3,1.494871794871795
4.027346718001354,1.6544322344322344,3.3,1.494871794871795
4.027727931003028,1.6544322344322344,3.3,1.494871794871795
4.032927353997366,2.2217582417582418,2.565860805860806,2.552967032967033
4.036087704000238,2.2217582417582418,2.565860805860806,2.552967032967033
4.037736644000688,1.0274725274725274,2.916410256410256,0.34007326007326005
4.041910298998118,1.0274725274725274,2.916410256410256,0.34007326007326005
4.04375000300206,1.0274725274725274,2.916410256410256,0.34007326007326005
4.046547473000828,1.0274725274725274,2.916410256410256,0.34007326007326005
4.049704500997905,3.3,2.577948717948718,1.7616117216117215
4.051335616997676,3.0888644688644686,1.6624908424908424,2.1879120879120877
4.055473729000369,3.0888644688644686,1.6624908424908424,2.1879120879120877
4.058094781001273,1.0065201465201465,2.7117216117216114,0.3545787545787546
4.062563179999415,1.0065201465201465,2.7117216117216114,0.3545787545787546
4.063474825001322,2.3337728937728937,2.5594139194139194,3.3
4.064450808000402,2.3337728937728937,2.5594139194139194,3.3
4.06541111900151,2.3337728937728937,2.5594139194139194,3.3
4.0673999919963535,2.3337728937728937,2.5594139194139194,3.3
4.06836721199943,2.3337728937728937,2.5594139194139194,3.3
4.069329247999121,2.3337728937728937,2.5594139194139194,3.3
4.0702759659980075,2.3337728937728937,2.5594139194139194,3.3
4.072033632997773,2.3337728937728937,2.5594139194139194,3.3
4.077833983996243,2.3337728937728937,2.5594139194139194,3.3
4.082476957999461,1.523882783882784,3.3,0.8663003663003663
4.08711533099995,1.523882783882784,3.3,0.8663003663003663
4.087430781997682,2.6714285714285713,2.075091575091575,2.9655677655677657
4.093074769996747,2.6714285714285713,2.075091575091575,2.9655677655677657
4.093346977002511,2.6714285714285713,2.075091575091575,2.9655677655677657
4.099968287999218,2.6714285714285713,2.075091575091575,2.9655677655677657
4.103961906999757,1.5327472527472528,2.5505494505494504,0.7002930402930403
4.107208727997204,1.5327472527472528,2.5505494505494504,0.7002930402930403
4.108176433997869,2.9019047619047615,3.3,3.3
4.11091094299627,2.9019047619047615,3.3,3.3
4.114495066998643,2.9019047619047615,3.3,3.3
4.120287947996985,2.9019047619047615,3.3,3.3
4.120450852999056,2.9019047619047615,3.3,3.3
4.125308590002533,2.9019047619047615,3.3,3.3
4.13518669000041,2.9019047619047615,3.3,3.3
4.1428831219964195,2.9019047619047615,3.3,3.3
4.150493782995909,2.9019047619047615,3.3,3.3
4.157064453997009,2.9019047619047615,3.3,3.3
4.16239126399887,2.9019047619047615,3.3,3.3
4.163963473001786,2.9019047619047615,3.3,3.3
4.167359630002466,2.9019047619047615,3.3,3.3
4.167692035996879,2.9019047619047615,3.3,3.3
4.173751911999716,2.9019047619047615,3.3,3.3
4.1812339589960175,2.9019047619047615,3.3,3.3
4.18574224600161,2.7906959706959706,2.5787545787545785,2.5481318681318683
4.186008536002191,2.7906959706959706,2.5787545787545785,2.5481318681318683
4.1934016379964305,2.7906959706959706,2.5787545787545785,2.5481318681318683
4.198613284002931,2.7906959706959706,2.5787545787545785,2.5481318681318683
4.201253430001088,2.7906959706959706,2.5787545787545785,2.5481318681318683
4.207589805999305,1.0468131868131867,3.3,1.6262271062271063
4.214193273001001,1.0468131868131867,3.3,1.6262271062271063
4.218683820996375,1.0468131868131867,3.3,1.6262271062271063
4.218853371996374,1.0468131868131867,3.3,1.6262271062271063
4.226054366001335,1.0468131868131867,3.3,1.6262271062271063
4.232879219001916,1.0468131868131867,3.3,1.6262271062271063
4.238060518000566,1.1757509157509156,3.3,0.8227838827838827
4.240882813995995,1.1757509157509156,3.3,0.8227838827838827
4.246122723998269,1.1757509157509156,3.3,0.8227838827838827
4.246480469002563,2.655311355311355,1.1838095238095236,1.9324542124542123
4.251841270001023,2.655311355311355,1.1838095238095236,1.9324542124542123
4.252802185001201,2.5795604395604395,1.5609523809523809,1.7914285714285711
4.254240704998665,2.5795604395604395,1.5609523809523809,1.7914285714285711
4.259710605001601,1.025054945054945,3.3,1.1064468864468864
4.262106262998714,1.025054945054945,3.3,1.1064468864468864
4.268348247001995,1.025054945054945,3.3,1.1064468864468864
4.272322928001813,1.025054945054945,3.3,1.1064468864468864
4.277098056998511,1.025054945054945,3.3,1.1064468864468864
4.284628210996743,1.025054945054945,3.3,1.1064468864468864
4.289376758002618,1.025054945054945,3.3,1.1064468864468864
4.289574976995937,1.025054945054945,3.3,1.1064468864468864
4.296732887996768,1.025054945054945,3.3,1.1064468864468864
4.300556595997477,1.025054945054945,3.3,1.1064468864468864
4.304920030001085,0.5512087912087912,0.5568498168498168,0.917069597069597
4.306024755998806,0.5512087912087912,0.5568498168498168,0.917069597069597
4.306346648998442,0.5512087912087912,0.5568498168498168,0.917069597069597
4.314798328996403,0.5512087912087912,0.5568498168498168,0.917069597069597
4.319291947002057,2.4635164835164836,2.5666666666666664,2.552967032967033
4.319536351998977,2.4635164835164836,2.5666666666666664,2.552967032967033
4.324244575997,2.4635164835164836,2.5666666666666664,2.552967032967033
4.324411827998119,2.4635164835164836,2.5666666666666664,2.552967032967033
4.332368919000146,2.4635164835164836,2.5666666666666664,2.552967032967033
4.337070166999183,2.4635164835164836,2.5666666666666664,2.552967032967033
4.337223807000555,2.4635164835164836,2.5666666666666664,2.552967032967033
4.342834342998685,2.4635164835164836,2.5666666666666664,2.552967032967033
4.345170257998689,1.261172161172161,3.3,2.349084249084249
4.350718601002882,2.655311355311355,1.9799999999999998,3.3
4.350941571996373,3.029230769230769,3.3,2.493333333333333
4.356009664996236,3.029230769230769,3.3,2.493333333333333
4.3595299320004415,3.029230769230769,3.3,2.493333333333333
4.359844022001198,3.029230769230769,3.3,2.493333333333333
4.36648194299778,3.029230769230769,3.3,2.493333333333333
4.370798559997638,3.029230769230769,3.3,2.493333333333333
4.372554631001549,3.029230769230769,3.3,2.493333333333333
4.3771008379990235,3.029230769230769,3.3,2.493333333333333
4.377543116999732,3.029230769230769,3.3,2.493333333333333
4.3824064759974135,3.3,2.813260073260073,2.569084249084249
4.3864082470026915,0.5173626373626373,0.5971428571428571,1.3336996336996336
4.392971752997255,2.673040293040293,2.0525274725274723,3.3
4.398660006998398,3.287106227106227,2.1589010989010986,2.302344322344322
4.406893970997771,3.287106227106227,2.1589010989010986,2.302344322344322
4.414728725001623,3.287106227106227,2.1589010989010986,2.302344322344322
4.420204590001958,3.287106227106227,2.1589010989010986,2.302344322344322
4.421129371999996,0.5068864468864469,1.701978021978022,1.8567032967032966
4.422059263000847,0.5068864468864469,1.701978021978022,1.8567032967032966
4.4230429570015986,0.5068864468864469,1.701978021978022,1.8567032967032966
4.423960681000608,0.5068864468864469,1.701978021978022,1.8567032967032966
4.425680770997133,0.5068864468864469,1.701978021978022,1.8567032967032966
4.432731460001378,0.5068864468864469,1.701978021978022,1.8567032967032966
4.436932117001561,0.5068864468864469,1.701978021978022,1.8567032967032966
4.439316342999518,0.5068864468864469,1.701978021978022,1.8567032967032966
4.439534908000496,3.0485714285714285,2.589230769230769,2.565860805860806
4.4459720450031455,3.0485714285714285,2.589230769230769,2.565860805860806
4.45121606199973,3.0485714285714285,2.589230769230769,2.565860805860806
4.452898128001834,3.0485714285714285,2.589230769230769,2.565860805860806
4.456128044999787,3.0485714285714285,2.589230769230769,2.565860805860806
4.457777696996345,3.0485714285714285,2.589230769230769,2.565860805860806
4.463360715002636,3.0485714285714285,2.589230769230769,2.565860805860806
4.474113024996768,3.0485714285714285,2.589230769230769,2.565860805860806
4.481801558002189,2.9712087912087912,2.581978021978022,2.5803663003663004
4.486516174998542,0.938021978021978,2.9309157509157506,0.693040293040293
4.4922934569985955,0.938021978021978,2.9309157509157506,0.693040293040293
4.492541141000402,0.938021978021978,2.9309157509157506,0.693040293040293
4.499569323998003,0.938021978021978,2.9309157509157506,0.693040293040293
4.504291420002119,0.938021978021978,2.9309157509157506,0.693040293040293
4.5046969129980425,0.938021978021978,2.9309157509157506,0.693040293040293
4.50935912100249,0.938021978021978,2.9309157509157506,0.693040293040293
4.518516408999858,0.938021978021978,2.9309157509157506,0.693040293040293
4.523393073002808,1.8413919413919413,3.17992673992674,0.29010989010989013
4.532299501996022,0.7284981684981684,3.3,2.314432234432234
4.5388327359978575,0.7284981684981684,3.3,2.314432234432234
4.545114449996618,0.7284981684981684,3.3,2.314432234432234
4.548461731996213,0.7284981684981684,3.3,2.314432234432234
4.548835355999472,3.287106227106227,2.6408058608058607,1.2845421245421245
4.553664551000111,3.287106227106227,2.6408058608058607,1.2845421245421245
4.558314754001913,3.287106227106227,2.6408058608058607,1.2845421245421245
4.558461264998186,3.287106227106227,2.6408058608058607,1.2845421245421245
4.564338443000452,3.287106227106227,2.6408058608058607,1.2845421245421245
4.571029592996638,3.287106227106227,2.6408058608058607,1.2845421245421245
4.575788417001604,3.287106227106227,2.6408058608058607,1.2845421245421245
4.583336513001996,1.3844688644688645,2.726227106227106,0.21355311355311357
4.590010592997714,2.2008058608058607,2.9349450549450546,0.7236630036630036
4.593543060997035,2.8358241758241753,3.3,2.997802197802198
4.5937077830021735,2.8358241758241753,3.3,2.997802197802198
4.599668447001022,2.8358241758241753,3.3,2.997802197802198
4.604498688000604,2.8358241758241753,3.3,2.997802197802198
4.61147012499714,1.7608058608058608,2.5465201465201464,3.3
4.61633688800066,2.1589010989010986,2.5787545787545785,2.5594139194139194
4.619543975000852,2.1589010989010986,2.5787545787545785,2.5594139194139194
4.621241043998452,2.1589010989010986,2.5787545787545785,2.5594139194139194
4.6252385129992035,2.1589010989010986,2.5787545787545785,2.5594139194139194
4.629431004002981,2.1589010989010986,2.5787545787545785,2.5594139194139194
4.629841119996854,3.239560439560439,2.639194139194139,1.0524542124542122
4.638073299996904,3.239560439560439,2.639194139194139,1.0524542124542122
4.646617332997266,1.066959706959707,2.7939194139194137,0.3884249084249084
4.65130068599683,0.734139194139194,2.764908424908425,1.8639560439560439
4.651428047000081,0.734139194139194,2.764908424908425,1.8639560439560439
4.656768913999258,0.734139194139194,2.764908424908425,1.8639560439560439
4.659625111999048,0.734139194139194,2.764908424908425,1.8639560439560439
4.664018663999741,0.734139194139194,2.764908424908425,1.8639560439560439
4.664431288001651,2.6617582417582417,1.759194139194139,3.3
4.667981054997654,2.6617582417582417,1.759194139194139,3.3
4.668226374997175,2.729450549450549,2.9647619047619047,1.174139194139194
4.672369223997521,2.729450549450549,2.9647619047619047,1.174139194139194
4.675614523002878,3.013113553113553,0.971062271062271,1.1564102564102563
4.675957182000275,3.013113553113553,0.971062271062271,1.1564102564102563
4.6828929699986475,3.013113553113553,0.971062271062271,1.1564102564102563
4.687090507002722,2.5586080586080584,2.5723076923076924,3.3
4.690175750001799,2.5586080586080584,2.5723076923076924,3.3
4.6921752670023125,2.5586080586080584,2.5723076923076924,3.3
4.695408036001027,2.5586080586080584,2.5723076923076924,3.3
4.695786329000839,2.5586080586080584,2.5723076923076924,3.3
4.700676120002754,2.5586080586080584,2.5723076923076924,3.3
4.7048681160013075,0.5246153846153846,1.810769230769231,1.187032967032967
4.7080067670030985,0.5246153846153846,1.810769230769231,1.187032967032967
4.710904612002196,0.5246153846153846,1.810769230769231,1.187032967032967
4.713960191002116,0.5246153846153846,1.810769230769231,1.187032967032967
4.714986066996062,0.5246153846153846,1.810769230769231,1.187032967032967
4.7158903059971635,0.5246153846153846,1.810769230769231,1.187032967032967
4.716808156998013,0.5246153846153846,1.810769230769231,1.187032967032967
4.718654149997747,0.5246153846153846,1.810769230769231,1.187032967032967
4.721053143002791,0.5246153846153846,1.810769230769231,1.187032967032967
4.721229709000909,0.5246153846153846,1.810769230769231,1.187032967032967
4.727539717998297,0.5246153846153846,1.810769230769231,1.187032967032967
4.733408439999039,0.5246153846153846,1.810769230769231,1.187032967032967
4.740337978997559,0.8235897435897436,3.3,1.008131868131868
4.746845112997107,1.0113553113553113,2.984102564102564,0.42388278388278383
4.7502339979982935,1.0113553113553113,2.984102564102564,0.42388278388278383
4.750510518002557,3.3,2.484468864468864,2.2394871794871793
4.7551994980021846,3.3,2.484468864468864,2.2394871794871793
4.755428890995972,3.3,2.484468864468864,2.2394871794871793
4.762504856997111,3.3,2.484468864468864,2.2394871794871793
4.7664024679979775,3.3,2.484468864468864,2.2394871794871793
4.770442460998311,3.3,2.484468864468864,2.2394871794871793
4.773312673001783,3.3,2.484468864468864,2.2394871794871793
4.7768591929998365,3.3,2.484468864468864,2.2394871794871793
4.786801754999033,3.3,2.484468864468864,2.2394871794871793
4.795011993999651,3.3,2.484468864468864,2.2394871794871793
4.800282219002838,3.3,2.484468864468864,2.2394871794871793
4.801213665996329,3.3,2.484468864468864,2.2394871794871793
4.802822894998826,3.3,2.484468864468864,2.2394871794871793
4.80676153999957,1.4658608058608058,3.3,2.141978021978022
4.811680562001129,1.4658608058608058,3.3,2.141978021978022
4.817208471002232,1.4658608058608058,3.3,2.141978021978022
4.823123101996316,2.071062271062271,2.8197069597069593,1.0524542124542122
4.8298208600026555,2.071062271062271,2.8197069597069593,1.0524542124542122
4.833286180997675,2.071062271062271,2.8197069597069593,1.0524542124542122
4.833505620001233,2.071062271062271,2.8197069597069593,1.0524542124542122
4.83849662799912,1.0822710622710623,2.9196336996336996,0.3352380952380952
4.845047611001064,1.0822710622710623,2.9196336996336996,0.3352380952380952
4.849291756996536,1.0822710622710623,2.9196336996336996,0.3352380952380952
4.850906546002079,1.0822710622710623,2.9196336996336996,0.3352380952380952
4.8554564399964875,1.0822710622710623,2.9196336996336996,0.3352380952380952
4.8633598779997556,1.0822710622710623,2.9196336996336996,0.3352380952380952
4.8676830460026395,1.0822710622710623,2.9196336996336996,0.3352380952380952
4.8687289689987665,1.0822710622710623,2.9196336996336996,0.3352380952380952
4.869595509000646,1.0822710622710623,2.9196336996336996,0.3352380952380952
4.870548172999406,3.274212454212454,1.9936996336996335,2.489304029304029
4.8717797310018796,3.274212454212454,1.9936996336996335,2.489304029304029
4.87205077100225,3.274212454212454,1.9936996336996335,2.489304029304029
4.877958295997814,3.274212454212454,1.9936996336996335,2.489304029304029
4.883578759996453,3.3,2.7326739926739925,2.5666666666666664
4.88378991799982,0.3199267399267399,0.5487912087912087,1.1024175824175824
4.889753073002794,0.3199267399267399,0.5487912087912087,1.1024175824175824
4.897248877998209,0.3199267399267399,0.5487912087912087,1.1024175824175824
4.901621163000527,1.1306227106227105,2.8753113553113554,0.07333333333333333
4.90256568499899,0.29413919413919415,2.1605128205128206,2.0017582417582416
4.903567654000653,0.29413919413919415,2.1605128205128206,2.0017582417582416
4.904568177997135,0.29413919413919415,2.1605128205128206,2.0017582417582416
4.905651590001071,0.29413919413919415,2.1605128205128206,2.0017582417582416
4.905959677002102,0.29413919413919415,2.1605128205128206,2.0017582417582416
4.914260575998924,0.29413919413919415,2.1605128205128206,2.0017582417582416
4.920019967998087,0.29413919413919415,2.1605128205128206,2.0017582417582416
4.9256085910019465,0.29413919413919415,2.1605128205128206,2.0017582417582416
4.926156239002012,1.2756776556776557,3.3,3.3
4.9326829869969515,1.2756776556776557,3.3,3.3
4.938603802002035,1.2756776556776557,3.3,3.3
4.944444312000996,1.2756776556776557,3.3,3.3
4.950185499001236,1.2756776556776557,3.3,3.3
4.954891479996149,3.0389010989010985,1.452161172161172,2.8753113553113554
4.963308500999119,3.0389010989010985,1.452161172161172,2.8753113553113554
4.9702893029971165,0.618095238095238,2.9679853479853477,1.7865934065934064
4.974952796997968,0.618095238095238,2.9679853479853477,1.7865934065934064
4.985333885997534,0.618095238095238,2.9679853479853477,1.7865934065934064
4.994770446995972,0.618095238095238,2.9679853479853477,1.7865934065934064
5.002618272999825,0.618095238095238,2.9679853479853477,1.7865934065934064
5.007150865996664,0.618095238095238,2.9679853479853477,1.7865934065934064
5.007400574002531,0.618095238095238,2.9679853479853477,1.7865934065934064
5.014795951996348,0.618095238095238,2.9679853479853477,1.7865934065934064
5.020069480997336,1.270842490842491,3.3,0.929157509157509
5.021471587999258,1.270842490842491,3.3,0.929157509157509
5.027675714001816,1.270842490842491,3.3,0.929157509157509
5.033407337999961,1.270842490842491,3.3,0.929157509157509
5.039366324002913,1.270842490842491,3.3,0.929157509157509
5.044849546997284,1.270842490842491,3.3,0.929157509157509
5.045239286999276,1.270842490842491,3.3,0.929157509157509
5.049826390997623,1.270842490842491,3.3,0.929157509157509
5.050074257000233,1.270842490842491,3.3,0.929157509157509
5.05492571600189,1.270842490842491,3.3,0.929157509157509
5.06362538599933,1.6898901098901096,3.274212454212454,0.5068864468864469
5.0691224780021,1.6898901098901096,3.274212454212454,0.5068864468864469
5.069372101999761,1.6898901098901096,3.274212454212454,0.5068864468864469
5.077715132996673,1.6898901098901096,3.274212454212454,0.5068864468864469
5.082238643997698,1.6898901098901096,3.274212454212454,0.5068864468864469
5.08244757099601,1.6898901098901096,3.274212454212454,0.5068864468864469
5.087006132998795,1.6898901098901096,3.274212454212454,0.5068864468864469
5.087838430001284,1.6898901098901096,3.274212454212454,0.5068864468864469
5.089375935000135,1.6898901098901096,3.274212454212454,0.5068864468864469
5.094156451996241,1.6898901098901096,3.274212454212454,0.5068864468864469
5.099966433997906,0.7389743589743589,3.3,0.3972893772893773
5.100093258995912,1.7906227106227104,2.5594139194139194,1.0347252747252746
5.105098441003065,1.7906227106227104,2.5594139194139194,1.0347252747252746
5.110203040996566,1.7906227106227104,2.5594139194139194,1.0347252747252746
5.114415946001827,1.7906227106227104,2.5594139194139194,1.0347252747252746
5.116171527995903,1.7906227106227104,2.5594139194139194,1.0347252747252746
5.119543018001423,1.7906227106227104,2.5594139194139194,1.0347252747252746
5.1198512819973985,1.7906227106227104,2.5594139194139194,1.0347252747252746
5.124647361997631,1.7906227106227104,2.5594139194139194,1.0347252747252746
5.1308914510009345,1.7906227106227104,2.5594139194139194,1.0347252747252746
5.135009352998168,3.3,1.9058608058608055,3.0203663003663
5.138347400003113,3.3,1.9058608058608055,3.0203663003663
5.138615702002426,3.3,1.9058608058608055,3.0203663003663
5.146778010996059,3.3,1.9058608058608055,3.0203663003663
5.150930217001587,1.5657875457875456,2.5424908424908423,3.3
5.15265807799733,1.5657875457875456,2.5424908424908423,3.3
5.15593015000195,1.5657875457875456,2.5424908424908423,3.3
5.1575904010023805,1.0661538461538462,2.897069597069597,0.047545787545787546
5.163232672995946,1.0661538461538462,2.897069597069597,0.047545787545787546
5.174121012001706,1.0661538461538462,2.897069597069597,0.047545787545787546
5.180501718001324,1.0661538461538462,2.897069597069597,0.047545787545787546
5.185858677003125,1.8784615384615382,2.690769230769231,1.0766300366300365
5.186899619999167,1.8784615384615382,2.690769230769231,1.0766300366300365
5.187127272998623,1.8784615384615382,2.690769230769231,1.0766300366300365
5.195475752996572,1.8784615384615382,2.690769230769231,1.0766300366300365
5.2008412669965765,1.8784615384615382,2.690769230769231,1.0766300366300365
5.202278046999709,1.8784615384615382,2.690769230769231,1.0766300366300365
5.209998336002172,0.9235164835164835,3.3,2.752014652014652
5.21536772899708,0.9235164835164835,3.3,2.752014652014652
5.216321442996559,3.0034432234432233,2.161318681318681,1.6987545787545786
5.217202763997193,3.0034432234432233,2.161318681318681,1.6987545787545786
5.218165008998767,3.0034432234432233,2.161318681318681,1.6987545787545786
5.219961921000504,3.0034432234432233,2.161318681318681,1.6987545787545786
5.223351777996868,0.38278388278388276,0.6350183150183151,0.6736996336996337
5.223656308997306,1.00007326007326,3.3,2.2177289377289378
5.22916778200306,1.00007326007326,3.3,2.2177289377289378
5.2301869000002625,1.00007326007326,3.3,2.2177289377289378
5.230478393998055,2.9857142857142858,1.1781684981684981,1.535164835164835
5.236818796001899,3.04051282051282,1.4207326007326007,2.0734798534798533
5.240770147000148,3.04051282051282,1.4207326007326007,2.0734798534798533
5.2454337870003656,1.3514285714285714,2.6875457875457873,0.24578754578754577
5.245608443001402,1.3514285714285714,2.6875457875457873,0.24578754578754577
5.250382965998142,1.3514285714285714,2.6875457875457873,0.24578754578754577
5.250624278000032,1.3514285714285714,2.6875457875457873,0.24578754578754577
5.255326391998096,1.3514285714285714,2.6875457875457873,0.24578754578754577
5.255529153997486,1.3514285714285714,2.6875457875457873,0.24578754578754577
5.260274127002049,1.3514285714285714,2.6875457875457873,0.24578754578754577
5.260448490000272,1.3514285714285714,2.6875457875457873,0.24578754578754577
5.265113795998332,0.5552380952380952,3.017948717948718,2.0315750915750916
5.265427427999384,3.3,2.036410256410256,3.3
5.2700471700009075,3.3,2.036410256410256,3.3
5.2703058900006,3.3,2.036410256410256,3.3
5.274994004998007,3.3,2.036410256410256,3.3
5.275211815998773,1.4247619047619047,3.3,0.5391208791208791
5.280231199001719,1.4247619047619047,3.3,0.5391208791208791
5.286072445996979,1.4247619047619047,3.3,0.5391208791208791
5.290746623002633,1.4247619047619047,3.3,0.5391208791208791
5.290913418000855,1.4247619047619047,3.3,0.5391208791208791
5.295627161998709,1.4247619047619047,3.3,0.5391208791208791
5.295794263998687,1.4247619047619047,3.3,0.5391208791208791
5.300467431996367,1.4247619047619047,3.3,0.5391208791208791
5.300692427001195,0.4029304029304029,0.7067399267399267,0.5600732600732601
5.306049945000268,0.4029304029304029,0.7067399267399267,0.5600732600732601
5.309120512996742,0.4029304029304029,0.7067399267399267,0.5600732600732601
5.311494711997511,0.4029304029304029,0.7067399267399267,0.5600732600732601
5.3116703830019105,0.4029304029304029,0.7067399267399267,0.5600732600732601
5.317954970996652,0.4029304029304029,0.7067399267399267,0.5600732600732601
5.321953762002522,0.4029304029304029,0.7067399267399267,0.5600732600732601
5.325949181999022,0.4029304029304029,0.7067399267399267,0.5600732600732601
5.328449956003169,0.4029304029304029,0.7067399267399267,0.5600732600732601
5.32856748499762,0.4029304029304029,0.7067399267399267,0.5600732600732601
5.338305826997384,0.4029304029304029,0.7067399267399267,0.5600732600732601
5.345141095000145,1.021025641025641,3.3,0.8372893772893772
5.34909308799979,1.021025641025641,3.3,0.8372893772893772
5.354396176997398,3.3,2.5352380952380953,0.8026373626373626
5.3559524480006075,0.8211721611721612,3.3,0.8582417582417583
5.363464431000466,0.8211721611721612,3.3,0.8582417582417583
5.3672428319987375,2.8994871794871795,2.577948717948718,2.5682783882783884
5.3718772569991415,2.8994871794871795,2.577948717948718,2.5682783882783884
5.372025554999709,2.4989743589743587,2.9075457875457875,1.1902564102564102
5.376778972997272,2.4989743589743587,2.9075457875457875,1.1902564102564102
5.376903201002278,2.4989743589743587,2.9075457875457875,1.1902564102564102
5.381697942000756,2.4989743589743587,2.9075457875457875,1.1902564102564102
5.381816337998316,2.4989743589743587,2.9075457875457875,1.1902564102564102
5.3867362219971255,2.4989743589743587,2.9075457875457875,1.1902564102564102
5.391622326002107,2.4989743589743587,2.9075457875457875,1.1902564102564102
5.398257702996489,2.4989743589743587,2.9075457875457875,1.1902564102564102
5.4039690979989246,2.4989743589743587,2.9075457875457875,1.1902564102564102
5.413586224996834,2.4989743589743587,2.9075457875457875,1.1902564102564102
5.421310368998093,2.4989743589743587,2.9075457875457875,1.1902564102564102
5.430591238000488,2.4989743589743587,2.9075457875457875,1.1902564102564102
5.4379572280013235,2.4989743589743587,2.9075457875457875,1.1902564102564102
5.444121649001318,2.4989743589743587,2.9075457875457875,1.1902564102564102
5.449422573998163,1.207179487179487,1.8558974358974358,0.14908424908424908
5.449693208000099,2.605347985347985,2.581172161172161,2.577948717948718
5.457286552998994,2.605347985347985,2.581172161172161,2.577948717948718
5.465563238001778,2.6875457875457873,2.5843956043956045,2.569084249084249
5.472064854002383,2.6875457875457873,2.5843956043956045,2.569084249084249
5.477018183002656,2.6875457875457873,2.5843956043956045,2.569084249084249
5.484401027999411,1.3127472527472526,3.3,0.5439560439560439
5.490343311001197,1.3127472527472526,3.3,0.5439560439560439
5.4957912109966855,3.0856410256410256,0.971062271062271,3.3
5.496139196999138,3.0856410256410256,0.971062271062271,3.3
5.50132380300056,3.0856410256410256,0.971062271062271,3.3
5.503702795998834,3.0856410256410256,0.971062271062271,3.3
5.503916438996384,3.0856410256410256,0.971062271062271,3.3
5.508828104000713,3.0856410256410256,0.971062271062271,3.3
5.514701284999319,3.3,2.5521611721611723,1.0572893772893772
5.520407773001352,3.3,2.5521611721611723,1.0572893772893772
5.520555344999593,3.3,2.5521611721611723,1.0572893772893772
5.525888190000842,3.3,2.5521611721611723,1.0572893772893772
5.530136401997879,2.6682051282051282,1.8937728937728935,2.5715018315018314
5.530392768996535,2.6682051282051282,1.8937728937728935,2.5715018315018314
5.535570539999753,2.6682051282051282,1.8937728937728935,2.5715018315018314
5.53870120299689,1.4255677655677657,3.3,0.9154578754578755
5.540455299000314,1.4255677655677657,3.3,0.9154578754578755
5.54561492799985,1.4255677655677657,3.3,0.9154578754578755
5.54874763800035,1.4255677655677657,3.3,0.9154578754578755
5.550341057998594,1.4255677655677657,3.3,0.9154578754578755
5.554590893996647,1.4255677655677657,3.3,0.9154578754578755
5.555518301996926,1.4255677655677657,3.3,0.9154578754578755
5.556434678997903,1.4255677655677657,3.3,0.9154578754578755
5.558073981002963,1.4255677655677657,3.3,0.9154578754578755
5.564686712998082,2.848717948717949,2.5843956043956045,2.5626373626373624
5.568614397001511,2.848717948717949,2.5843956043956045,2.5626373626373624
5.573401089000981,2.848717948717949,2.5843956043956045,2.5626373626373624
5.581032871996285,2.848717948717949,2.5843956043956045,2.5626373626373624
5.58453729699977,2.848717948717949,2.5843956043956045,2.5626373626373624
5.584690269999555,3.3,3.3,2.759267399267399
5.590519482000673,3.3,3.3,2.759267399267399
5.600566893997893,3.3,3.3,2.759267399267399
5.606223978000344,1.7156776556776556,3.3,0.5761904761904761
5.606462768999336,1.7156776556776556,3.3,0.5761904761904761
5.61383068899886,1.7156776556776556,3.3,0.5761904761904761
5.6171886200027075,1.7156776556776556,3.3,0.5761904761904761
5.618155306998233,1.7156776556776556,3.3,0.5761904761904761
5.6197355650001555,1.7156776556776556,3.3,0.5761904761904761
5.623578621001798,0.4802930402930403,2.548937728937729,2.5634432234432234
5.630601092001598,0.5213919413919413,3.1243223443223442,2.83985347985348
5.634736503001477,2.764908424908425,2.5827838827838825,2.5763369963369964
5.638769354998658,2.764908424908425,2.5827838827838825,2.5763369963369964
5.642139819996373,2.317655677655677,2.3458608058608057,1.2063736263736262
5.642514175000542,2.317655677655677,2.3458608058608057,1.2063736263736262
5.648840410998673,3.1323809523809523,2.565860805860806,2.5787545787545785
5.652026076000766,2.6665934065934067,1.6624908424908424,2.56989010989011
5.653644815000007,2.6665934065934067,1.6624908424908424,2.56989010989011
5.657605963999231,2.6665934065934067,1.6624908424908424,2.56989010989011
5.66293510900141,2.6665934065934067,1.6624908424908424,2.56989010989011
5.663980247998552,2.6665934065934067,1.6624908424908424,2.56989010989011
5.664312161999987,2.6665934065934067,1.6624908424908424,2.56989010989011
5.669420619000448,2.6665934065934067,1.6624908424908424,2.56989010989011
5.672655123002187,2.6665934065934067,1.6624908424908424,2.56989010989011
5.674433763997513,2.6665934065934067,1.6624908424908424,2.56989010989011
5.679693423000572,2.6665934065934067,1.6624908424908424,2.56989010989011
5.680953508002858,2.6665934065934067,1.6624908424908424,2.56989010989011
5.687218432998634,2.6665934065934067,1.6624908424908424,2.56989010989011
5.691316887998255,2.6665934065934067,1.6624908424908424,2.56989010989011
5.696466399997007,2.428058608058608,3.016336996336996,1.7543589743589743
5.697775581997121,2.428058608058608,3.016336996336996,1.7543589743589743
5.697994930997083,2.428058608058608,3.016336996336996,1.7543589743589743
5.702872167996247,2.428058608058608,3.016336996336996,1.7543589743589743
5.707718965000822,2.428058608058608,3.016336996336996,1.7543589743589743
5.715882976997818,2.428058608058608,3.016336996336996,1.7543589743589743
5.720559916000639,2.428058608058608,3.016336996336996,1.7543589743589743
5.720736750001379,2.428058608058608,3.016336996336996,1.7543589743589743
5.726375129997905,2.428058608058608,3.016336996336996,1.7543589743589743
5.727401568001369,2.428058608058608,3.016336996336996,1.7543589743589743
5.727790628996445,2.428058608058608,3.016336996336996,1.7543589743589743
5.73355514099967,2.428058608058608,3.016336996336996,1.7543589743589743
5.733715731003031,2.428058608058608,3.016336996336996,1.7543589743589743
5.7392764530013665,2.428058608058608,3.016336996336996,1.7543589743589743
5.73955023400049,2.428058608058608,3.016336996336996,1.7543589743589743
5.745317824999802,2.428058608058608,3.016336996336996,1.7543589743589743
5.7456670999963535,2.6617582417582417,1.598021978021978,2.556996336996337
5.7507530380025855,2.6617582417582417,1.598021978021978,2.556996336996337
5.753205346998584,2.6617582417582417,1.598021978021978,2.556996336996337
5.760363401997893,2.6617582417582417,1.598021978021978,2.556996336996337
5.764811861001363,2.6617582417582417,1.598021978021978,2.556996336996337
5.7658848380015115,2.6617582417582417,1.598021978021978,2.556996336996337
5.766081679001218,2.6617582417582417,1.598021978021978,2.556996336996337
5.770899226001347,2.6617582417582417,1.598021978021978,2.556996336996337
5.771024595000199,2.6617582417582417,1.598021978021978,2.556996336996337
5.778449102996092,2.6617582417582417,1.598021978021978,2.556996336996337
5.783901627000887,2.6617582417582417,1.598021978021978,2.556996336996337
5.784259414002008,2.6617582417582417,1.598021978021978,2.556996336996337
5.79138400300144,2.6617582417582417,1.598021978021978,2.556996336996337
5.798366009003075,2.423223443223443,3.3,1.1926739926739927
5.802481061997241,2.423223443223443,3.3,1.1926739926739927
5.806061638999381,2.423223443223443,3.3,1.1926739926739927
5.816415351997421,2.423223443223443,3.3,1.1926739926739927
5.82478705199901,2.2265934065934068,3.3,2.4353113553113555
5.829967454003054,2.281391941391941,2.577948717948718,3.3
5.832379492996552,2.924468864468864,2.5763369963369964,2.5642490842490844
5.838208647997817,2.924468864468864,2.5763369963369964,2.5642490842490844
5.846308649001003,2.924468864468864,2.5763369963369964,2.5642490842490844
5.850633510002808,2.6698168498168497,2.0428571428571427,2.553772893772894
5.852308488996641,2.6698168498168497,2.0428571428571427,2.553772893772894
5.855641342997842,2.4909157509157507,2.735897435897436,2.4949450549450547
5.856555833001039,2.4909157509157507,2.735897435897436,2.4949450549450547
5.857461532999878,2.4909157509157507,2.735897435897436,2.4949450549450547
5.860105024003133,2.4909157509157507,2.735897435897436,2.4949450549450547
5.8643664109986275,2.4909157509157507,2.735897435897436,2.4949450549450547
5.865308494998317,2.4909157509157507,2.735897435897436,2.4949450549450547
5.86620356200001,2.4909157509157507,2.735897435897436,2.4949450549450547
5.867865130996506,2.4909157509157507,2.735897435897436,2.4949450549450547
5.871928212996863,2.4909157509157507,2.735897435897436,2.4949450549450547
5.875354005998815,2.4909157509157507,2.735897435897436,2.4949450549450547
5.87588891699852,2.4909157509157507,2.735897435897436,2.4949450549450547
5.881142149999505,2.4909157509157507,2.735897435897436,2.4949450549450547
5.882023370002571,2.4909157509157507,2.735897435897436,2.4949450549450547
5.882968676000019,2.4909157509157507,2.735897435897436,2.4949450549450547
5.884673202002887,2.4909157509157507,2.735897435897436,2.4949450549450547
5.887972475000424,2.4909157509157507,2.735897435897436,2.4949450549450547
5.888939994998509,2.4909157509157507,2.735897435897436,2.4949450549450547
5.88984190300107,2.4909157509157507,2.735897435897436,2.4949450549450547
5.891593212996668,2.4909157509157507,2.735897435897436,2.4949450549450547
5.895502745996055,2.4909157509157507,2.735897435897436,2.4949450549450547
5.898305959999561,1.120952380952381,3.3,1.0903296703296703
5.901686901997891,1.120952380952381,3.3,1.0903296703296703
5.902685879002092,1.120952380952381,3.3,1.0903296703296703
5.90355732000171,1.120952380952381,3.3,1.0903296703296703
5.904595266998513,1.120952380952381,3.3,1.0903296703296703
5.905553053002222,1.120952380952381,3.3,1.0903296703296703
5.906550070998492,1.120952380952381,3.3,1.0903296703296703
5.9074718359988765,1.120952380952381,3.3,1.0903296703296703
5.909798364999006,1.120952380952381,3.3,1.0903296703296703
5.909961450997798,1.120952380952381,3.3,1.0903296703296703
5.916185898997355,2.928498168498168,1.804322344322344,2.457069597069597
5.9200921450028545,2.928498168498168,1.804322344322344,2.457069597069597
5.924137141999381,2.9873260073260073,2.5843956043956045,2.5674725274725274
5.930034946002706,2.9873260073260073,2.5843956043956045,2.5674725274725274
5.936021998997603,2.9873260073260073,2.5843956043956045,2.5674725274725274
5.939435262000188,1.1346520146520145,3.3,0.4142124542124542
5.939685917997849,1.1346520146520145,3.3,0.4142124542124542
5.94826613299665,1.1346520146520145,3.3,0.4142124542124542
5.953030778000539,3.3,2.693992673992674,3.1694505494505494
5.953155565002817,3.3,2.693992673992674,3.1694505494505494
5.957817394002632,3.3,2.693992673992674,3.1694505494505494
5.958052795002004,3.3,2.693992673992674,3.1694505494505494
5.968451004002418,3.3,2.693992673992674,3.1694505494505494
5.977376666000055,3.3,2.693992673992674,3.1694505494505494
5.985956101001648,2.6673992673992672,1.8486446886446886,1.4352380952380952
5.993270469996787,2.6673992673992672,1.8486446886446886,1.4352380952380952
5.999199658996076,1.0621245421245422,3.3,0.4810989010989011
6.004841789996135,0.41018315018315016,0.6398534798534798,0.6156776556776556
6.0050277869959245,0.41018315018315016,0.6398534798534798,0.6156776556776556
6.012569200000144,0.41018315018315016,0.6398534798534798,0.6156776556776556
6.016791559995909,0.41018315018315016,0.6398534798534798,0.6156776556776556
6.019146380000166,0.5786080586080585,3.2258608058608056,0.08058608058608058
6.019269381002232,0.5786080586080585,3.2258608058608056,0.08058608058608058
6.026240958999551,0.5786080586080585,3.2258608058608056,0.08058608058608058
6.032817772000271,2.6746520146520147,2.107326007326007,3.3
6.037722353998106,2.6746520146520147,2.107326007326007,3.3
6.041923448996386,2.6746520146520147,2.107326007326007,3.3
6.045469014999981,2.6746520146520147,2.107326007326007,3.3
6.050446127999749,2.6746520146520147,2.107326007326007,3.3
6.055077240001992,3.1307692307692303,1.3965567765567766,2.1927472527472527
6.055198328998813,1.39010989010989,3.3,0.581025641025641
6.060586100000364,1.39010989010989,3.3,0.581025641025641
6.0628862289959216,2.713333333333333,2.5795604395604395,2.557802197802198
6.063119644000835,2.713333333333333,2.5795604395604395,2.557802197802198
6.067967757997394,2.713333333333333,2.5795604395604395,2.557802197802198
6.07279908000055,2.4586813186813186,2.577142857142857,2.561025641025641
6.072937272001582,2.4586813186813186,2.577142857142857,2.561025641025641
6.078847256001609,2.4586813186813186,2.577142857142857,2.561025641025641
6.0845487780025,2.4586813186813186,2.577142857142857,2.561025641025641
6.084666604998347,2.655311355311355,1.3248351648351648,3.2266666666666666
6.090118077001534,2.655311355311355,1.3248351648351648,3.2266666666666666
6.091134877002332,2.655311355311355,1.3248351648351648,3.2266666666666666
6.09301058499841,2.655311355311355,1.3248351648351648,3.2266666666666666
6.095841944996209,2.655311355311355,1.3248351648351648,3.2266666666666666
6.099388215996441,2.655311355311355,1.3248351648351648,3.2266666666666666
6.104817833998823,2.655311355311355,1.3248351648351648,3.2266666666666666
6.10647400200105,2.655311355311355,1.3248351648351648,3.2266666666666666
6.111230060996604,2.655311355311355,1.3248351648351648,3.2266666666666666
6.1166598060008255,2.655311355311355,1.3248351648351648,3.2266666666666666
6.118330594996223,2.655311355311355,1.3248351648351648,3.2266666666666666
6.121690811000008,1.4747252747252748,2.157289377289377,0.26754578754578756
6.122547316001146,1.4747252747252748,2.157289377289377,0.26754578754578756
6.124148545000935,1.4747252747252748,2.157289377289377,0.26754578754578756
6.130873285001144,1.4747252747252748,2.157289377289377,0.26754578754578756
6.134920636002789,1.4747252747252748,2.157289377289377,0.26754578754578756
6.138906061001762,1.4747252747252748,2.157289377289377,0.26754578754578756
6.143728818002273,1.4747252747252748,2.157289377289377,0.26754578754578756
6.151184148999164,1.4747252747252748,2.157289377289377,0.26754578754578756
6.158053045000997,3.1428571428571423,3.3,2.6569230769230767
6.161500670998066,3.1428571428571423,3.3,2.6569230769230767
6.16180978200282,3.1428571428571423,3.3,2.6569230769230767
6.166453443001956,3.1428571428571423,3.3,2.6569230769230767
6.1666055519963265,3.1428571428571423,3.3,2.6569230769230767
6.172332488000393,3.1428571428571423,3.3,2.6569230769230767
6.172609640998417,3.1428571428571423,3.3,2.6569230769230767
6.1798278909991495,3.1428571428571423,3.3,2.6569230769230767
6.183629523999116,0.5334798534798535,3.1726739926739924,0.24175824175824176
6.188813526001468,0.5334798534798535,3.1726739926739924,0.24175824175824176
6.193911823997041,0.5334798534798535,3.1726739926739924,0.24175824175824176
6.198130570999638,0.5334798534798535,3.1726739926739924,0.24175824175824176
6.198525548999896,0.5334798534798535,3.1726739926739924,0.24175824175824176
6.204069840998272,0.9855677655677655,2.3853479853479853,0.34087912087912087
6.204366801997821,0.9855677655677655,2.3853479853479853,0.34087912087912087
6.2087744289965485,0.9855677655677655,2.3853479853479853,0.34087912087912087
6.210377529001562,3.3,2.7624908424908425,3.3
6.213360037996608,3.3,2.7624908424908425,3.3
6.216587331000483,3.3,2.7624908424908425,3.3
6.218109897999966,3.3,2.7624908424908425,3.3
6.2223466979994555,3.3,2.7624908424908425,3.3
6.223823884996818,3.3,2.7624908424908425,3.3
6.228204156999709,3.3,2.7624908424908425,3.3
6.229102199002227,3.3,2.7624908424908425,3.3
6.230732058997091,3.3,2.7624908424908425,3.3
6.235056951998558,3.3,2.7624908424908425,3.3
6.235950836002303,1.9888644688644685,3.283076923076923,1.0532600732600732
6.237497706002614,1.9888644688644685,3.283076923076923,1.0532600732600732
6.241725836000114,1.9888644688644685,3.283076923076923,1.0532600732600732
6.2447172309985035,1.9888644688644685,3.283076923076923,1.0532600732600732
6.246947410996654,1.9888644688644685,3.283076923076923,1.0532600732600732
6.247834014997352,1.9888644688644685,3.283076923076923,1.0532600732600732
6.249371407000581,1.9888644688644685,3.283076923076923,1.0532600732600732
6.255851750996953,1.9888644688644685,3.283076923076923,1.0532600732600732
6.260247161000734,2.249157509157509,3.2452014652014647,0.9323809523809523
6.260669315000996,2.249157509157509,3.2452014652014647,0.9323809523809523
6.268733892997261,2.249157509157509,3.2452014652014647,0.9323809523809523
6.2777963370026555,2.9776556776556777,0.5906959706959707,2.9913553113553113
6.283371475998138,2.9776556776556777,0.5906959706959707,2.9913553113553113
6.283651297999313,2.9776556776556777,0.5906959706959707,2.9913553113553113
6.292894879996311,2.9776556776556777,0.5906959706959707,2.9913553113553113
6.301337944998522,2.9776556776556777,0.5906959706959707,2.9913553113553113
6.306859473996155,2.9776556776556777,0.5906959706959707,2.9913553113553113
6.307930271002988,2.9776556776556777,0.5906959706959707,2.9913553113553113
6.308248446002835,2.5586080586080584,2.5723076923076924,2.561025641025641
6.313387064998096,2.5586080586080584,2.5723076923076924,2.561025641025641
6.316754977000528,2.5586080586080584,2.5723076923076924,2.561025641025641
6.3170510529962485,2.5586080586080584,2.5723076923076924,2.561025641025641
6.322048444999382,2.5586080586080584,2.5723076923076924,2.561025641025641
6.326374996002414,0.9065934065934066,3.3,2.3079853479853476
6.327306553997914,0.9065934065934066,3.3,2.3079853479853476
6.32828894299746,0.9065934065934066,3.3,2.3079853479853476
6.329380987997865,0.9065934065934066,3.3,2.3079853479853476
6.329627145001723,2.61018315018315,0.5133333333333333,2.8108424908424907
6.33543780099717,2.532820512820513,0.6946520146520146,2.4981684981684977
6.335556560996338,2.532820512820513,0.6946520146520146,2.4981684981684977
6.34032379600103,2.532820512820513,0.6946520146520146,2.4981684981684977
6.340503612002067,2.532820512820513,0.6946520146520146,2.4981684981684977
6.345127756998409,0.8953113553113552,3.3,2.3797069597069593
6.345423906997894,0.8953113553113552,3.3,2.3797069597069593
6.350048346997937,0.8953113553113552,3.3,2.3797069597069593
6.350304150997545,0.8953113553113552,3.3,2.3797069597069593
6.354915058996994,0.8953113553113552,3.3,2.3797069597069593
6.355178028003138,0.8953113553113552,3.3,2.3797069597069593
6.359844956001325,0.8953113553113552,3.3,2.3797069597069593
6.360070910996001,0.8953113553113552,3.3,2.3797069597069593
6.3652688860020135,0.49399267399267394,2.8535531135531134,2.5827838827838825
6.368462537000596,0.49399267399267394,2.8535531135531134,2.5827838827838825
6.369482761001564,0.49399267399267394,2.8535531135531134,2.5827838827838825
6.3703853560000425,0.49399267399267394,2.8535531135531134,2.5827838827838825
6.372134029996232,0.49399267399267394,2.8535531135531134,2.5827838827838825
6.375318047998007,0.49399267399267394,2.8535531135531134,2.5827838827838825
6.376257900003111,0.49399267399267394,2.8535531135531134,2.5827838827838825
6.377341131999856,0.49399267399267394,2.8535531135531134,2.5827838827838825
6.377608083996165,0.49399267399267394,2.8535531135531134,2.5827838827838825
6.382867717999034,1.7189010989010989,2.548937728937729,0.8767765567765567
6.3855739990031,1.7189010989010989,2.548937728937729,0.8767765567765567
6.389690272997541,1.7189010989010989,2.548937728937729,0.8767765567765567
6.392171690997202,1.7189010989010989,2.548937728937729,0.8767765567765567
6.398172959998192,1.7189010989010989,2.548937728937729,0.8767765567765567
6.402994256997772,1.7189010989010989,2.548937728937729,0.8767765567765567
6.410198238998419,0.49479853479853475,2.7584615384615385,1.328058608058608
6.41536477200134,0.49479853479853475,2.7584615384615385,1.328058608058608
6.418448270000226,0.49479853479853475,2.7584615384615385,1.328058608058608
6.418899561002036,3.3,2.748791208791209,2.561831501831502
6.427045652002562,3.3,2.748791208791209,2.561831501831502
6.433217293997586,2.6488644688644687,2.121831501831502,2.552967032967033
6.438127962996077,1.6689377289377287,3.3,0.9073992673992675
6.443060785000853,0.8106959706959707,2.5924542124542125,1.2813186813186812
6.446228321001399,0.8106959706959707,2.5924542124542125,1.2813186813186812
6.446534757997142,0.8106959706959707,2.5924542124542125,1.2813186813186812
6.454046651997487,0.8106959706959707,2.5924542124542125,1.2813186813186812
6.459380786996917,0.8227838827838827,3.108205128205128,0.7647619047619048
6.46106960799807,0.8227838827838827,3.108205128205128,0.7647619047619048
6.465707650997501,0.8227838827838827,3.108205128205128,0.7647619047619048
6.474381619002088,2.664175824175824,1.7148717948717949,2.5561904761904763
6.48330858299596,2.664175824175824,1.7148717948717949,2.5561904761904763
6.492082480996032,1.523882783882784,2.537655677655678,0.5721611721611721
6.50085719100025,2.465128205128205,2.5521611721611723,3.3
6.509322922000138,2.465128205128205,2.5521611721611723,3.3
6.5168629769978,2.465128205128205,2.5521611721611723,3.3
6.524988389995997,0.4488644688644688,3.3,0.19743589743589743
6.532168008998269,0.4488644688644688,3.3,0.19743589743589743
6.536779340000066,0.4488644688644688,3.3,0.19743589743589743
6.547432943996682,0.4488644688644688,3.3,0.19743589743589743
6.55436241300049,0.4488644688644688,3.3,0.19743589743589743
6.558784984998056,0.4488644688644688,3.3,0.19743589743589743
6.559086556000693,0.4488644688644688,3.3,0.19743589743589743
6.568070895002165,0.4488644688644688,3.3,0.19743589743589743
6.574100958998315,0.8493772893772893,3.3,3.001025641025641
6.582444147003116,0.8493772893772893,3.3,3.001025641025641
6.58724841500225,0.8493772893772893,3.3,3.001025641025641
6.592642773000989,0.8493772893772893,3.3,3.001025641025641
6.594348452003032,0.8493772893772893,3.3,3.001025641025641
6.597707406996051,0.8493772893772893,3.3,3.001025641025641
6.598592151996854,1.5585347985347984,2.4715750915750916,1.05003663003663
6.599584372001118,1.5585347985347984,2.4715750915750916,1.05003663003663
6.600533773002098,1.5585347985347984,2.4715750915750916,1.05003663003663
