time,emg1,emg2,emg3
0.03370320399699267,1.535970695970696,2.929304029304029,0.5302564102564102
0.05107771999610122,0.6011721611721611,3.3,0.46739926739926735
0.06190506400162121,0.6011721611721611,3.3,0.46739926739926735
0.07217110799683724,2.46996336996337,2.577948717948718,2.5473260073260073
0.07811261499591637,2.46996336996337,2.577948717948718,2.5473260073260073
0.08771233000152279,2.46996336996337,2.577948717948718,2.5473260073260073
0.09668535400123801,2.46996336996337,2.577948717948718,2.5473260073260073
0.1023939739970956,2.46996336996337,2.577948717948718,2.5473260073260073
0.1079956530011259,2.46996336996337,2.577948717948718,2.5473260073260073
0.10887826399994083,2.46996336996337,2.577948717948718,2.5473260073260073
0.11057533200073522,2.46996336996337,2.577948717948718,2.5473260073260073
0.11380795900186058,2.46996336996337,2.577948717948718,2.5473260073260073
0.11473942500015255,2.46996336996337,2.577948717948718,2.5473260073260073
0.11638799299544189,2.46996336996337,2.577948717948718,2.5473260073260073
0.11955773899535416,2.46996336996337,2.577948717948718,2.5473260073260073
0.12116764299571514,2.46996336996337,2.577948717948718,2.5473260073260073
0.12491565499658464,2.46996336996337,2.577948717948718,2.5473260073260073
0.13018727400049102,2.46996336996337,2.577948717948718,2.5473260073260073
0.13319898199551972,2.46996336996337,2.577948717948718,2.5473260073260073
0.13557236699853092,2.46996336996337,2.577948717948718,2.5473260073260073
0.13575302599929273,2.46996336996337,2.577948717948718,2.5473260073260073
0.14135894699575147,2.46996336996337,2.577948717948718,2.5473260073260073
0.14163805399584817,0.6914285714285714,2.9309157509157506,0.20388278388278389
0.1469022759993095,0.6914285714285714,2.9309157509157506,0.20388278388278389
0.1492873530005454,0.6914285714285714,2.9309157509157506,0.20388278388278389
0.14945420200092485,0.6914285714285714,2.9309157509157506,0.20388278388278389
0.15710100100113777,0.6914285714285714,2.9309157509157506,0.20388278388278389
0.16104672799701802,2.6843223443223443,2.189523809523809,3.3
0.16503311500127893,2.6843223443223443,2.189523809523809,3.3
0.16892623499734327,2.6843223443223443,2.189523809523809,3.3
0.1730444049971993,2.6843223443223443,2.189523809523809,3.3
0.17631168899970362,2.241098901098901,2.556996336996337,3.2758241758241757
0.17718400400190149,2.241098901098901,2.556996336996337,3.2758241758241757
0.1789251649970538,2.241098901098901,2.556996336996337,3.2758241758241757
0.1822216459986521,2.241098901098901,2.556996336996337,3.2758241758241757
0.18318881600134773,2.241098901098901,2.556996336996337,3.2758241758241757
0.18410072100232355,1.4594139194139193,2.868864468864469,1.1830036630036629
0.18579449499520706,1.4594139194139193,2.868864468864469,1.1830036630036629
0.18911132799985353,1.4594139194139193,2.868864468864469,1.1830036630036629
0.19007183399662608,0.8308424908424907,2.0928205128205124,1.3087179487179486
0.19108798100205604,0.8308424908424907,2.0928205128205124,1.3087179487179486
0.19205538000096567,0.8308424908424907,2.0928205128205124,1.3087179487179486
0.19307060999562964,0.8308424908424907,2.0928205128205124,1.3087179487179486
0.19393202199717052,0.8308424908424907,2.0928205128205124,1.3087179487179486
0.19555492400104413,0.8308424908424907,2.0928205128205124,1.3087179487179486
0.19881185299891513,0.8308424908424907,2.0928205128205124,1.3087179487179486
0.20048436900106026,0.8308424908424907,2.0928205128205124,1.3087179487179486
0.20371821799926693,0.8308424908424907,2.0928205128205124,1.3087179487179486
0.20616403500025626,0.8308424908424907,2.0928205128205124,1.3087179487179486
0.2127724620004301,0.8308424908424907,2.0928205128205124,1.3087179487179486
0.21735494199674577,0.8308424908424907,2.0928205128205124,1.3087179487179486
0.21757017100026133,3.3,2.274945054945055,2.5021978021978017
0.22246849699877203,3.3,2.274945054945055,2.5021978021978017
0.22794368399627274,1.6495970695970694,2.320879120879121,0.1265201465201465
0.2283116999969934,1.6495970695970694,2.320879120879121,0.1265201465201465
0.23777759399672505,1.6495970695970694,2.320879120879121,0.1265201465201465
0.24505302000034135,1.6495970695970694,2.320879120879121,0.1265201465201465
0.2505391579979914,1.6495970695970694,2.320879120879121,0.1265201465201465
0.2508312060017488,1.6495970695970694,2.320879120879121,0.1265201465201465
0.2603703240019968,1.6495970695970694,2.320879120879121,0.1265201465201465
0.2679174340009922,1.6495970695970694,2.320879120879121,0.1265201465201465
0.27724347700132057,1.6495970695970694,2.320879120879121,0.1265201465201465
0.28456459399603773,1.6495970695970694,2.320879120879121,0.1265201465201465
0.290711433000979,1.6495970695970694,2.320879120879121,0.1265201465201465
0.2939974289984093,1.6495970695970694,2.320879120879121,0.1265201465201465
0.2943157429981511,2.652087912087912,1.888131868131868,2.241098901098901
0.29915383699699305,2.652087912087912,1.888131868131868,2.241098901098901
0.30682223699841416,2.652087912087912,1.888131868131868,2.241098901098901
0.31356743200012716,2.652087912087912,1.888131868131868,2.241098901098901
0.31941640799777815,2.652087912087912,1.888131868131868,2.241098901098901
0.3251638110014028,3.3,2.29025641025641,0.4198534798534798
0.3307914359975257,0.6068131868131869,1.8454212454212453,0.7043223443223443
0.3310585759973037,1.4610256410256408,2.888205128205128,1.4191208791208791
0.3360327039990807,1.4610256410256408,2.888205128205128,1.4191208791208791
0.3451434099988546,2.234652014652015,2.5465201465201464,2.129084249084249
0.350023234001128,2.3120146520146516,3.1484981684981683,0.3489377289377289
0.35640794500068296,1.1564102564102563,2.422417582417582,1.05003663003663
0.35986229599802755,1.1564102564102563,2.422417582417582,1.05003663003663
0.3600615870018373,1.1564102564102563,2.422417582417582,1.05003663003663
0.3647410179983126,1.1564102564102563,2.422417582417582,1.05003663003663
0.36492334400099935,1.1564102564102563,2.422417582417582,1.05003663003663
0.36975570199865615,1.1564102564102563,2.422417582417582,1.05003663003663
0.3775896759980242,1.1564102564102563,2.422417582417582,1.05003663003663
0.3825028069986729,1.1564102564102563,2.422417582417582,1.05003663003663
0.38870522599609103,1.1564102564102563,2.422417582417582,1.05003663003663
0.39283386299939593,1.1564102564102563,2.422417582417582,1.05003663003663
0.3962108920022729,1.1564102564102563,2.422417582417582,1.05003663003663
0.39647039600095013,3.3,2.726227106227106,2.548937728937729
0.4011851420000312,3.3,2.726227106227106,2.548937728937729
0.4013457059991197,3.3,2.726227106227106,2.548937728937729
0.4086369979995652,3.3,2.726227106227106,2.548937728937729
0.4128122149995761,0.46498168498168496,0.5947252747252747,0.26190476190476186
0.41610205399774713,2.6488644688644687,1.8607326007326006,2.1951648351648347
0.41701999199722195,2.6488644688644687,1.8607326007326006,2.1951648351648347
0.4179713330013328,2.6488644688644687,1.8607326007326006,2.1951648351648347
0.4202127640019171,2.6488644688644687,1.8607326007326006,2.1951648351648347
0.4206098029972054,2.6488644688644687,1.8607326007326006,2.1951648351648347
0.42512664099922404,2.6488644688644687,1.8607326007326006,2.1951648351648347
0.4309635169993271,2.6488644688644687,1.8607326007326006,2.1951648351648347
0.4310803879998275,2.6488644688644687,1.8607326007326006,2.1951648351648347
0.4360011249955278,2.6488644688644687,1.8607326007326006,2.1951648351648347
0.44261317199561745,2.6488644688644687,1.8607326007326006,2.1951648351648347
0.4467131259953021,2.6488644688644687,1.8607326007326006,2.1951648351648347
0.4505817280005431,2.6488644688644687,1.8607326007326006,2.1951648351648347
0.4553686340004788,2.6488644688644687,1.8607326007326006,2.1951648351648347
0.46111420200031716,2.6488644688644687,1.8607326007326006,2.1951648351648347
0.4668183699977817,2.6488644688644687,1.8607326007326006,2.1951648351648347
0.4670859420002671,2.6488644688644687,1.8607326007326006,2.1951648351648347
0.47306998999556527,2.6488644688644687,1.8607326007326006,2.1951648351648347
0.47749184299755143,2.6488644688644687,1.8607326007326006,2.1951648351648347
0.47783963199617574,2.6166300366300366,1.4876190476190476,0.7937728937728937
0.4827515040014987,2.6166300366300366,1.4876190476190476,0.7937728937728937
0.48938641700078733,2.6166300366300366,1.4876190476190476,0.7937728937728937
0.4932297679988551,2.6166300366300366,1.4876190476190476,0.7937728937728937
0.4973388930011424,2.6166300366300366,1.4876190476190476,0.7937728937728937
0.49985438399744453,2.6166300366300366,1.4876190476190476,0.7937728937728937
0.5075207929985481,2.6166300366300366,1.4876190476190476,0.7937728937728937
0.5116444599989336,2.6166300366300366,1.4876190476190476,0.7937728937728937
0.5149923139979364,2.6166300366300366,1.4876190476190476,0.7937728937728937
0.5159136399961426,2.6166300366300366,1.4876190476190476,0.7937728937728937
0.5169753699956345,2.6166300366300366,1.4876190476190476,0.7937728937728937
0.5172853539988864,2.6166300366300366,1.4876190476190476,0.7937728937728937
0.5256660579980235,2.6166300366300366,1.4876190476190476,0.7937728937728937
0.5299970889973338,2.6166300366300366,1.4876190476190476,0.7937728937728937
0.5318595950011513,2.6166300366300366,1.4876190476190476,0.7937728937728937
0.5354197380002006,3.3,2.258827838827839,3.1847619047619045
0.5420530470000813,3.3,2.258827838827839,3.1847619047619045
0.5462453380023362,3.3,2.258827838827839,3.1847619047619045
0.5479962109966436,3.3,2.258827838827839,3.1847619047619045
0.5522239279962378,1.9695238095238095,2.5432967032967033,3.3
0.5541622859964264,3.3,2.453040293040293,3.3
0.5552699569961987,3.3,2.453040293040293,3.3
0.5559627620023093,3.3,2.453040293040293,3.3
0.5598465980001492,3.3,2.453040293040293,3.3
0.5623482719965978,3.3,2.453040293040293,3.3
0.5672425750017283,1.6302564102564103,2.1323076923076925,0.6994871794871794
0.5744545119960094,1.6302564102564103,2.1323076923076925,0.6994871794871794
0.5786847939962172,1.7720879120879118,2.548937728937729,3.3
0.58142341599887,1.7720879120879118,2.548937728937729,3.3
0.5854269529954763,1.7720879120879118,2.548937728937729,3.3
0.5907684359990526,3.3,2.864835164835165,3.3
0.5910243019970949,3.3,3.3,2.8245421245421243
0.5960320359954494,3.3,3.3,2.8245421245421243
0.5999662129979697,3.3,3.3,2.8245421245421243
0.6048777859978145,3.3,3.3,2.8245421245421243
0.6097118309990037,3.3,2.7504029304029305,2.234652014652015
0.6142145409976365,3.3,2.7504029304029305,2.234652014652015
0.6143367969998508,3.3,2.7504029304029305,2.234652014652015
0.6203497449969291,3.3,2.7504029304029305,2.234652014652015
0.6276596169991535,1.3836630036630035,3.3,0.684981684981685
0.6317132929980289,1.3836630036630035,3.3,0.684981684981685
0.6357527110012597,1.3836630036630035,3.3,0.684981684981685
0.6419560779977473,1.3836630036630035,3.3,0.684981684981685
0.6476019129986526,0.26593406593406593,2.690769230769231,0.38358974358974357
0.6539739700019709,1.6931135531135528,2.541684981684982,3.3
0.6588841889970354,2.336190476190476,2.5521611721611723,2.544908424908425
0.663717393996194,1.7221245421245421,3.00021978021978,0.689010989010989
0.668336377995729,0.9372161172161171,2.9695970695970697,0.18695970695970696
0.6686053730009007,0.9372161172161171,2.9695970695970697,0.18695970695970696
0.6769230040008551,0.9372161172161171,2.9695970695970697,0.18695970695970696
0.6817751119961031,0.9372161172161171,2.9695970695970697,0.18695970695970696
0.6887797489980585,0.9372161172161171,2.9695970695970697,0.18695970695970696
0.6935234729971853,0.32798534798534795,2.278168498168498,1.3417582417582417
0.6983513480008696,0.32798534798534795,2.278168498168498,1.3417582417582417
0.7043298529970343,0.32798534798534795,2.278168498168498,1.3417582417582417
0.7152217120019486,2.7246153846153844,3.3,0.09992673992673992
0.7243316120002419,2.7246153846153844,3.3,0.09992673992673992
0.7291770539959543,2.7246153846153844,3.3,0.09992673992673992
0.7344024319972959,2.7246153846153844,3.3,0.09992673992673992
0.7420791459953762,2.8656410256410254,1.9880586080586078,1.8123809523809524
0.747126460999425,2.9567032967032967,0.4464468864468864,2.395018315018315
0.7495436719982536,1.2007326007326007,3.3,2.3466666666666667
0.7497214479953982,1.2224908424908425,3.3,2.0114285714285716
0.7583515139995143,1.2224908424908425,3.3,2.0114285714285716
0.7638830989963026,1.2224908424908425,3.3,2.0114285714285716
0.7641454889962915,1.2224908424908425,3.3,2.0114285714285716
0.7698522560021956,1.2224908424908425,3.3,2.0114285714285716
0.7702419810011634,1.2224908424908425,3.3,2.0114285714285716
0.7761998209971352,1.2224908424908425,3.3,2.0114285714285716
0.7821403249981813,1.2224908424908425,3.3,2.0114285714285716
0.7882611009990796,3.3,3.3,0.4553113553113553
0.7944852110013016,3.3,3.3,0.4553113553113553
0.8002688479973585,3.3,3.3,0.4553113553113553
0.8076001570007065,2.2797802197802195,1.735018315018315,2.6150183150183146
0.8117568019952159,2.2797802197802195,1.735018315018315,2.6150183150183146
0.8142252990000998,2.2797802197802195,1.735018315018315,2.6150183150183146
0.8214317379970453,2.2797802197802195,1.735018315018315,2.6150183150183146
0.8257227909998619,2.2797802197802195,1.735018315018315,2.6150183150183146
0.8275247519995901,2.2797802197802195,1.735018315018315,2.6150183150183146
0.830019953995361,2.2797802197802195,1.735018315018315,2.6150183150183146
0.8301833079967764,2.2797802197802195,1.735018315018315,2.6150183150183146
0.8350017170014326,2.2797802197802195,1.735018315018315,2.6150183150183146
0.8351840589966741,2.2797802197802195,1.735018315018315,2.6150183150183146
0.8445488340003067,3.3,2.9647619047619047,3.3
0.851743521001481,3.3,2.9647619047619047,3.3
0.8575637629983248,3.3,2.9647619047619047,3.3
0.8624040489958134,3.3,2.9647619047619047,3.3
0.8670987149962457,3.3,2.9647619047619047,3.3
0.8758670309980516,3.3,2.9647619047619047,3.3
0.8798455430005561,3.3,2.2757509157509155,2.8430769230769233
0.8836840200019651,3.3,2.2757509157509155,2.8430769230769233
0.888908344997617,3.3,2.2757509157509155,2.8430769230769233
0.8915352219992201,1.2305494505494505,3.3,2.320879120879121
0.8956224149951595,1.2305494505494505,3.3,2.320879120879121
0.8981165879959008,2.9704029304029302,0.523003663003663,2.6327472527472526
0.8982864630015683,2.9704029304029302,0.523003663003663,2.6327472527472526
0.9029838909991668,2.9704029304029302,0.523003663003663,2.6327472527472526
0.9031686000016634,2.9704029304029302,0.523003663003663,2.6327472527472526
0.9095808740021312,2.162124542124542,2.5642490842490844,3.137216117216117
0.9136235440018936,2.162124542124542,2.5642490842490844,3.137216117216117
0.9174567079971894,2.162124542124542,2.5642490842490844,3.137216117216117
0.9222441169986269,2.449010989010989,1.1177289377289377,1.9526007326007324
0.927128058996459,2.449010989010989,1.1177289377289377,1.9526007326007324
0.9316903209983138,3.3,2.8471062271062273,2.348278388278388
0.9319815859998926,3.3,2.8471062271062273,2.348278388278388
0.9366238259972306,3.3,2.8471062271062273,2.348278388278388
0.9369221719971392,3.3,2.8471062271062273,2.348278388278388
0.9424936779978452,3.3,2.8471062271062273,2.348278388278388
0.94263147500169,3.3,2.8471062271062273,2.348278388278388
0.9474497760020313,3.3,2.8471062271062273,2.348278388278388
0.9476893169994582,0.5584615384615385,0.896117216117216,0.9347985347985347
0.9531281469971873,0.5584615384615385,0.896117216117216,0.9347985347985347
0.9544005589996232,0.5584615384615385,0.896117216117216,0.9347985347985347
0.9606238409978687,0.5584615384615385,0.896117216117216,0.9347985347985347
0.9645816679985728,0.5584615384615385,0.896117216117216,0.9347985347985347
0.9683802349973121,1.270842490842491,3.208131868131868,1.1193406593406594
0.9755069019956863,1.270842490842491,3.208131868131868,1.1193406593406594
0.9795049940003082,3.3,2.6126007326007326,2.5545787545787544
0.9835240589964087,3.3,2.6126007326007326,2.5545787545787544
0.9884789880015887,3.3,2.6126007326007326,2.5545787545787544
0.9914069430014933,0.2643223443223443,2.2088644688644687,1.4408791208791207
0.993979106999177,3.3,2.9816849816849818,2.5626373626373624
0.9996063509970554,3.3,2.9816849816849818,2.5626373626373624
0.9999804690014571,3.3,2.9816849816849818,2.5626373626373624
1.0067166930020903,3.3,2.9816849816849818,2.5626373626373624
1.010323292000976,3.3,2.9816849816849818,2.5626373626373624
1.0159265670008608,3.3,2.9816849816849818,2.5626373626373624
1.0168217649988947,3.3,2.9816849816849818,2.5626373626373624
1.0184929909955827,3.3,2.9816849816849818,2.5626373626373624
1.0245750179965398,1.3417582417582417,3.187985347985348,0.8018315018315018
1.03061418300058,3.3,3.3,0.10556776556776555
1.0354504259958048,2.9953846153846153,3.3,2.8454945054945053
1.0410856829985278,2.9953846153846153,3.3,2.8454945054945053
1.0412234059986076,2.9953846153846153,3.3,2.8454945054945053
1.0461220319994027,2.9953846153846153,3.3,2.8454945054945053
1.051542305998737,0.3755311355311355,2.709304029304029,1.7326007326007327
1.055383165999956,0.3755311355311355,2.709304029304029,1.7326007326007327
1.0594533999974374,2.9736263736263737,2.5884249084249085,2.5706959706959704
1.061919225998281,2.9736263736263737,2.5884249084249085,2.5706959706959704
1.0674092350018327,2.9736263736263737,2.5884249084249085,2.5706959706959704
1.0683413379956619,2.9736263736263737,2.5884249084249085,2.5706959706959704
1.0709550009996747,2.9736263736263737,2.5884249084249085,2.5706959706959704
1.0751353449959424,2.9736263736263737,2.5884249084249085,2.5706959706959704
1.0767806119984016,3.1936263736263735,2.629523809523809,2.5561904761904763
1.0806798990015523,2.5360439560439563,1.3256410256410256,2.0783150183150183
1.0846897169976728,2.5360439560439563,1.3256410256410256,2.0783150183150183
1.0890087969964952,2.5360439560439563,1.3256410256410256,2.0783150183150183
1.0906729869966512,0.39487179487179486,2.8753113553113554,1.701978021978022
1.094404958996165,0.39487179487179486,2.8753113553113554,1.701978021978022
1.0999196359989583,0.39487179487179486,2.8753113553113554,1.701978021978022
1.1016383839960326,2.6456410256410257,3.3,0.759120879120879
1.10500277599931,2.6456410256410257,3.3,0.759120879120879
1.1052922009985195,2.6456410256410257,3.3,0.759120879120879
1.1103217759955442,2.6456410256410257,3.3,0.759120879120879
1.1144970070017735,2.6456410256410257,3.3,0.759120879120879
1.116856888998882,2.6456410256410257,3.3,0.759120879120879
1.1171402339969063,2.1975824175824172,1.8873260073260072,1.2378021978021978
1.1216981659963494,2.1975824175824172,1.8873260073260072,1.2378021978021978
1.1226092189972405,3.3,3.3,0.09428571428571428
1.1242495690021315,3.3,3.3,0.09428571428571428
1.1279184960003477,3.3,3.3,0.09428571428571428
1.1330058989988174,1.129010989010989,0.6164835164835165,0.3731135531135531
1.136566364999453,1.129010989010989,0.6164835164835165,0.3731135531135531
1.1367017129960004,1.129010989010989,0.6164835164835165,0.3731135531135531
1.1416925500016077,1.129010989010989,0.6164835164835165,0.3731135531135531
1.1466408470005263,1.129010989010989,0.6164835164835165,0.3731135531135531
1.1509476770006586,1.2958241758241758,3.3,2.254798534798535
1.1531321680013207,1.2958241758241758,3.3,2.254798534798535
1.1539599070019904,1.2958241758241758,3.3,2.254798534798535
1.1561429079956724,1.2958241758241758,3.3,2.254798534798535
1.1572793219966115,1.2958241758241758,3.3,2.254798534798535
1.1575029189989436,1.2958241758241758,3.3,2.254798534798535
1.1661227410004358,1.2958241758241758,3.3,2.254798534798535
1.1722736849987996,1.2958241758241758,3.3,2.254798534798535
1.1761717350018444,3.0485714285714285,3.3,2.856776556776557
1.18027449100191,3.0485714285714285,3.3,2.856776556776557
1.1825946269964334,3.0485714285714285,3.3,2.856776556776557
1.1827657379981247,3.0485714285714285,3.3,2.856776556776557
1.1918702510010917,3.0485714285714285,3.3,2.856776556776557
1.1967060690003564,3.0485714285714285,3.3,2.856776556776557
1.2017449880004278,3.1581684981684983,1.0452014652014652,2.3257142857142856
1.2052179039965267,3.1581684981684983,1.0452014652014652,2.3257142857142856
1.2053859189982177,3.1581684981684983,1.0452014652014652,2.3257142857142856
1.210479187000601,3.1581684981684983,1.0452014652014652,2.3257142857142856
1.2135976860008668,3.3,3.3,2.8019780219780217
1.2152275859989459,2.809230769230769,3.3,1.411062271062271
1.219301600001927,2.809230769230769,3.3,1.411062271062271
1.2217268909953418,2.809230769230769,3.3,1.411062271062271
1.2219207250018371,2.809230769230769,3.3,1.411062271062271
1.2272014810005203,2.809230769230769,3.3,1.411062271062271
1.2300597579960595,2.809230769230769,3.3,1.411062271062271
1.2325191269992501,2.809230769230769,3.3,1.411062271062271
1.2326478989998577,2.809230769230769,3.3,1.411062271062271
1.2383675149976625,2.809230769230769,3.3,1.411062271062271
1.2385463469981914,2.809230769230769,3.3,1.411062271062271
1.243474397000682,2.809230769230769,3.3,1.411062271062271
1.2483735759960837,2.809230769230769,3.3,1.411062271062271
1.2537948890021653,1.8849084249084247,2.5513553113553114,3.3
1.2555395519957528,1.8849084249084247,2.5513553113553114,3.3
1.2587468529964099,1.8849084249084247,2.5513553113553114,3.3
1.2596817969970289,1.8849084249084247,2.5513553113553114,3.3
1.2606247250005254,1.8849084249084247,2.5513553113553114,3.3
1.261630430999503,1.8849084249084247,2.5513553113553114,3.3
1.262573414001963,1.8849084249084247,2.5513553113553114,3.3
1.2636574919961276,1.8849084249084247,2.5513553113553114,3.3
1.2639969989977544,1.8849084249084247,2.5513553113553114,3.3
1.2685675199973048,2.6714285714285713,3.3,1.4465201465201465
1.26888837399747,2.6714285714285713,3.3,1.4465201465201465
1.2734782830011682,2.6714285714285713,3.3,1.4465201465201465
1.2738360700022895,2.6714285714285713,3.3,1.4465201465201465
1.2786275600010413,2.6714285714285713,3.3,1.4465201465201465
1.2843587519964785,2.6714285714285713,3.3,1.4465201465201465
1.284726445999695,2.681098901098901,2.5706959706959704,2.556996336996337
1.2903208849966177,2.681098901098901,2.5706959706959704,2.556996336996337
1.290548591001425,2.681098901098901,2.5706959706959704,2.556996336996337
1.295491728997149,2.681098901098901,2.5706959706959704,2.556996336996337
1.3003153760000714,2.681098901098901,2.5706959706959704,2.556996336996337
1.3052070589983487,2.681098901098901,2.5706959706959704,2.556996336996337
1.3099170720015536,2.681098901098901,2.5706959706959704,2.556996336996337
1.315669572999468,3.3,2.378095238095238,2.9067399267399265
1.315898050001124,3.3,2.378095238095238,2.9067399267399265
1.320512352998776,3.3,2.378095238095238,2.9067399267399265
1.3207470889974502,3.3,2.378095238095238,2.9067399267399265
1.326212341999053,3.3,2.378095238095238,2.9067399267399265
1.327137654996477,3.3,2.378095238095238,2.9067399267399265
1.328730754001299,3.3,2.378095238095238,2.9067399267399265
1.3326166440019733,3.3,2.378095238095238,2.9067399267399265
1.3361382860020967,3.3,2.378095238095238,2.9067399267399265
1.3363062470016303,3.3,2.378095238095238,2.9067399267399265
1.3411192470011883,3.3,2.378095238095238,2.9067399267399265
1.3412616650020937,3.3,2.378095238095238,2.9067399267399265
1.346176139995805,3.3,2.378095238095238,2.9067399267399265
1.3509779410014744,3.3,2.378095238095238,2.9067399267399265
1.3564771599994856,3.3,2.378095238095238,2.9067399267399265
1.3573170579984435,3.3,2.378095238095238,2.9067399267399265
1.3589353569986997,3.3,2.378095238095238,2.9067399267399265
1.3634241609979654,3.3,2.378095238095238,2.9067399267399265
1.3636957369963056,3.3,2.378095238095238,2.9067399267399265
1.3693411470012506,3.3,2.378095238095238,2.9067399267399265
1.3695356620009989,3.3,2.378095238095238,2.9067399267399265
1.3745205009981873,3.3,2.378095238095238,2.9067399267399265
1.3800966089984286,3.3,2.378095238095238,2.9067399267399265
1.381506306999654,3.3,2.378095238095238,2.9067399267399265
1.3881398029989214,3.3,2.378095238095238,2.9067399267399265
1.3933458780011279,1.1789743589743589,3.3,1.6995604395604393
1.39584400899912,1.1789743589743589,3.3,1.6995604395604393
1.4034153620013967,1.1789743589743589,3.3,1.6995604395604393
1.409592268995766,1.1789743589743589,3.3,1.6995604395604393
1.412876176997088,0.8106959706959707,3.219413919413919,1.502124542124542
1.4144224859992391,3.3,2.577948717948718,2.3386080586080586
1.4185171089993673,3.3,2.577948717948718,2.3386080586080586
1.4210174839972751,3.3,2.577948717948718,2.3386080586080586
1.426411216998531,3.3,2.577948717948718,2.3386080586080586
1.428029274000437,0.4416117216117216,2.698021978021978,1.2652014652014651
1.4327426079980796,0.4416117216117216,2.698021978021978,1.2652014652014651
1.441646455998125,3.3,2.639194139194139,2.3466666666666667
1.4492412199979299,0.3731135531135531,3.3,0.6414652014652015
1.4530384620011318,1.4457142857142857,2.848717948717949,0.5471794871794872
1.4575449129988556,1.4457142857142857,2.848717948717949,0.5471794871794872
1.4578835209977115,1.4457142857142857,2.848717948717949,0.5471794871794872
1.4624747359994217,1.4457142857142857,2.848717948717949,0.5471794871794872
1.4633338889980223,1.4457142857142857,2.848717948717949,0.5471794871794872
1.4649625539968838,1.4457142857142857,2.848717948717949,0.5471794871794872
1.4694816560004256,1.4457142857142857,2.848717948717949,0.5471794871794872
1.4697475819993997,1.4457142857142857,2.848717948717949,0.5471794871794872
1.4752731030021096,1.4457142857142857,2.848717948717949,0.5471794871794872
1.475566658002208,1.4457142857142857,2.848717948717949,0.5471794871794872
1.4803740739953355,1.4457142857142857,2.848717948717949,0.5471794871794872
1.480488848996174,1.4457142857142857,2.848717948717949,0.5471794871794872
1.4859201549988938,1.4457142857142857,2.848717948717949,0.5471794871794872
1.488258325996867,1.4457142857142857,2.848717948717949,0.5471794871794872
1.4885158399993088,1.4457142857142857,2.848717948717949,0.5471794871794872
1.4930832050013123,1.4457142857142857,2.848717948717949,0.5471794871794872
1.4939613989990903,1.4457142857142857,2.848717948717949,0.5471794871794872
1.4956278829995426,1.4457142857142857,2.848717948717949,0.5471794871794872
1.4994387510014349,1.4457142857142857,2.848717948717949,0.5471794871794872
1.5038874129968463,1.4457142857142857,2.848717948717949,0.5471794871794872
1.5047585110005457,1.4457142857142857,2.848717948717949,0.5471794871794872
1.5064008059998741,1.4457142857142857,2.848717948717949,0.5471794871794872
1.5101440919970628,1.4457142857142857,2.848717948717949,0.5471794871794872
1.5152609630022198,3.3,2.428864468864469,2.659340659340659
1.51916440599598,3.3,2.428864468864469,2.659340659340659
1.522996907995548,3.3,2.428864468864469,2.659340659340659
1.5268150670017349,3.3,2.428864468864469,2.659340659340659
1.5343047060014214,3.3,2.428864468864469,2.659340659340659
1.5402078580009402,3.3,2.428864468864469,2.659340659340659
1.5437956550013041,2.830989010989011,3.3,0.5262271062271061
1.5488670670019928,2.830989010989011,3.3,0.5262271062271061
1.5532353070011595,2.830989010989011,3.3,0.5262271062271061
1.5547987969985115,2.830989010989011,3.3,0.5262271062271061
1.5589740849973168,2.830989010989011,3.3,0.5262271062271061
1.5625062999970396,2.830989010989011,3.3,0.5262271062271061
1.562683365002158,2.830989010989011,3.3,0.5262271062271061
1.5677014729953953,2.830989010989011,3.3,0.5262271062271061
1.5753716199978953,2.830989010989011,3.3,0.5262271062271061
1.5823843569960445,2.830989010989011,3.3,0.5262271062271061
1.5878719050015206,2.830989010989011,3.3,0.5262271062271061
1.5955593870021403,2.6746520146520147,2.5747252747252745,2.556996336996337
1.6005066090001492,2.6746520146520147,2.5747252747252745,2.556996336996337
1.6050020789989503,2.6746520146520147,3.3,0.6084249084249085
1.6052607359961257,1.3683516483516485,2.888205128205128,1.24021978021978
1.609781925995776,1.3683516483516485,2.888205128205128,1.24021978021978
1.6106587440008298,1.3683516483516485,2.888205128205128,1.24021978021978
1.6115555060023325,1.3683516483516485,2.888205128205128,1.24021978021978
1.6131165970000438,1.3683516483516485,2.888205128205128,1.24021978021978
1.6178460379960597,1.3683516483516485,2.888205128205128,1.24021978021978
1.6234813339979155,2.440952380952381,1.2797069597069597,1.0645421245421245
1.6237472520006122,2.440952380952381,1.2797069597069597,1.0645421245421245
1.6291917830021703,2.440952380952381,1.2797069597069597,1.0645421245421245
1.6300740989972837,2.440952380952381,1.2797069597069597,1.0645421245421245
1.6316887909997604,2.440952380952381,1.2797069597069597,1.0645421245421245
1.6356578589984565,2.440952380952381,1.2797069597069597,1.0645421245421245
1.640101708995644,2.440952380952381,1.2797069597069597,1.0645421245421245
1.6415606169975945,2.440952380952381,1.2797069597069597,1.0645421245421245
1.645859942997049,2.440952380952381,1.2797069597069597,1.0645421245421245
1.6469141759953345,2.440952380952381,1.2797069597069597,1.0645421245421245
1.6477634139955626,2.440952380952381,1.2797069597069597,1.0645421245421245
1.6493682410000474,1.5625641025641024,3.3,2.345054945054945
1.6533676249964628,1.5625641025641024,3.3,2.345054945054945
1.6565101419982966,1.5625641025641024,3.3,2.345054945054945
1.6574933149968274,1.5625641025641024,3.3,2.345054945054945
1.658413566998206,1.9066666666666663,2.9228571428571426,0.34813186813186814
1.6607098749955185,1.9066666666666663,2.9228571428571426,0.34813186813186814
1.6609107420008513,1.9066666666666663,2.9228571428571426,0.34813186813186814
1.6661296539969044,1.9066666666666663,2.9228571428571426,0.34813186813186814
1.6684616279962938,1.9066666666666663,2.9228571428571426,0.34813186813186814
1.6686738089993014,0.8179487179487179,3.2250549450549446,1.7608058608058608
1.6744218949970673,0.8179487179487179,3.2250549450549446,1.7608058608058608
1.6745667709983536,0.8179487179487179,3.2250549450549446,1.7608058608058608
1.679175730998395,0.8179487179487179,3.2250549450549446,1.7608058608058608
1.6800370759956422,0.8179487179487179,3.2250549450549446,1.7608058608058608
1.6809847929980606,0.8179487179487179,3.2250549450549446,1.7608058608058608
1.6826584119990002,0.8179487179487179,3.2250549450549446,1.7608058608058608
1.686044520996802,0.8179487179487179,3.2250549450549446,1.7608058608058608
1.6863680469978135,0.8179487179487179,3.2250549450549446,1.7608058608058608
1.6912720289983554,0.8179487179487179,3.2250549450549446,1.7608058608058608
1.696122542998637,0.8179487179487179,3.2250549450549446,1.7608058608058608
1.701446491999377,0.8179487179487179,3.2250549450549446,1.7608058608058608
1.703705230000196,2.0847619047619044,3.1807326007326004,0.3916483516483516
1.7039635109977098,2.0847619047619044,3.1807326007326004,0.3916483516483516
1.7092494109965628,2.0847619047619044,3.1807326007326004,0.3916483516483516
1.711534672002017,0.30139194139194136,1.6391208791208791,1.1362637362637362
1.7118289720019675,0.30139194139194136,1.6391208791208791,1.1362637362637362
1.7170890790002886,0.30139194139194136,1.6391208791208791,1.1362637362637362
1.7194136089965468,0.30139194139194136,1.6391208791208791,1.1362637362637362
1.719586644001538,0.30139194139194136,1.6391208791208791,1.1362637362637362
1.7248158899965347,0.30139194139194136,1.6391208791208791,1.1362637362637362
1.7286289559997385,0.30139194139194136,1.6391208791208791,1.1362637362637362
1.733520194000448,0.30139194139194136,1.6391208791208791,1.1362637362637362
1.7383023379952647,0.30139194139194136,1.6391208791208791,1.1362637362637362
1.7385007880002377,0.30139194139194136,1.6391208791208791,1.1362637362637362
1.7432699060009327,0.30139194139194136,1.6391208791208791,1.1362637362637362
1.7435088919955888,1.9243956043956043,3.1904029304029304,0.21274725274725276
1.7483772129999124,1.9243956043956043,3.1904029304029304,0.21274725274725276
1.7484927019977476,1.9243956043956043,3.1904029304029304,0.21274725274725276
1.7534888399968622,1.9243956043956043,3.1904029304029304,0.21274725274725276
1.759008642999106,1.9243956043956043,3.1904029304029304,0.21274725274725276
1.7605976869963342,1.9243956043956043,3.1904029304029304,0.21274725274725276
1.764474360999884,3.3,3.3,0.03223443223443223
1.7689786539995112,3.3,3.3,0.03223443223443223
1.770639686001232,0.49882783882783877,3.054212454212454,1.7164835164835166
1.7746286299952772,0.49882783882783877,3.054212454212454,1.7164835164835166
1.7779649989970494,0.49882783882783877,3.054212454212454,1.7164835164835166
1.7788203090021852,0.49882783882783877,3.054212454212454,1.7164835164835166
1.7806081579983584,0.49882783882783877,3.054212454212454,1.7164835164835166
1.7837978870011284,0.49882783882783877,3.054212454212454,1.7164835164835166
1.7861734899997828,0.49882783882783877,3.054212454212454,1.7164835164835166
1.7863921710013528,0.49882783882783877,3.054212454212454,1.7164835164835166
1.7912968800010276,0.49882783882783877,3.054212454212454,1.7164835164835166
1.7961815779999597,2.86,2.5521611721611723,2.548937728937729
1.8008516339978087,2.962344322344322,2.5876190476190475,2.5674725274725274
1.8009987149998778,2.698827838827839,2.5424908424908423,0.7623443223443224
1.805918493999343,2.698827838827839,2.5424908424908423,0.7623443223443224
1.8105521510005929,2.698827838827839,2.5424908424908423,0.7623443223443224
1.8106945120016462,3.3,3.2419780219780217,2.6117948717948716
1.8159087730018655,3.3,3.2419780219780217,2.6117948717948716
1.8190584139956627,3.3,2.7455677655677655,2.5666666666666664
1.8199703150021378,3.3,2.7455677655677655,2.5666666666666664
1.8216604449989973,3.3,2.7455677655677655,2.5666666666666664
1.8255164309957763,3.3,2.7455677655677655,2.5666666666666664
1.8291021039985935,3.3,2.7455677655677655,2.5666666666666664
1.829402940995351,3.3,2.7455677655677655,2.5666666666666664
1.83436041999812,3.3,2.7455677655677655,2.5666666666666664
1.8393268489962793,3.3,2.7455677655677655,2.5666666666666664
1.8435091200008173,1.581904761904762,3.05985347985348,0.7446153846153846
1.8463138779989094,1.581904761904762,3.05985347985348,0.7446153846153846
1.8498007309972309,0.9372161172161171,0.527032967032967,0.3537728937728937
1.850116984001943,0.9372161172161171,0.527032967032967,0.3537728937728937
1.8549703850003425,0.9372161172161171,0.527032967032967,0.3537728937728937
1.8598836019955343,0.9372161172161171,0.527032967032967,0.3537728937728937
1.8600939370007836,2.71010989010989,3.3,0.5068864468864469
1.8650936699996237,2.9575091575091577,3.3,0.12571428571428572
1.8686022920010146,0.4174358974358974,1.4070329670329669,1.0919413919413918
1.868828498001676,0.4174358974358974,1.4070329670329669,1.0919413919413918
1.8737059490013053,0.4174358974358974,1.4070329670329669,1.0919413919413918
1.87863544299762,0.4174358974358974,1.4070329670329669,1.0919413919413918
1.8836818509953446,0.4174358974358974,1.4070329670329669,1.0919413919413918
1.8879968530018232,0.4174358974358974,1.4070329670329669,1.0919413919413918
1.8902846249984577,1.5698168498168497,3.3,2.5521611721611723
1.891059702997154,3.3,3.0195604395604394,2.5561904761904763
1.8925989099952858,3.3,3.0195604395604394,2.5561904761904763
1.8968550659992616,3.3,3.0195604395604394,2.5561904761904763
1.8997566120015108,3.3,3.0195604395604394,2.5561904761904763
1.902684462002071,3.3,3.0195604395604394,2.5561904761904763
1.9055700300013996,1.7656410256410255,2.282197802197802,0.4827106227106227
1.9091267889962182,0.3964835164835165,2.6190476190476186,1.6213919413919413
1.9093285669951001,0.5165567765567766,2.988937728937729,1.5746520146520147
1.9141545499951462,0.5165567765567766,2.988937728937729,1.5746520146520147
1.914328464998107,0.5165567765567766,2.988937728937729,1.5746520146520147
1.9199435139962588,0.5165567765567766,2.988937728937729,1.5746520146520147
1.9207780829965486,0.5165567765567766,2.988937728937729,1.5746520146520147
1.9223637429968221,0.5165567765567766,2.988937728937729,1.5746520146520147
1.9261148660007166,0.5165567765567766,2.988937728937729,1.5746520146520147
1.931755443001748,0.5165567765567766,2.988937728937729,1.5746520146520147
1.932024800000363,0.5165567765567766,2.988937728937729,1.5746520146520147
1.9366372879958362,0.5165567765567766,2.988937728937729,1.5746520146520147
1.9369413099993835,0.5165567765567766,2.988937728937729,1.5746520146520147
1.9415131339992513,0.5165567765567766,2.988937728937729,1.5746520146520147
1.9418306379957357,0.5165567765567766,2.988937728937729,1.5746520146520147
1.9473000509970007,0.5165567765567766,2.988937728937729,1.5746520146520147
1.948183850996429,0.26996336996336995,1.5730402930402931,1.157216117216117
1.9498060229961993,0.26996336996336995,1.5730402930402931,1.157216117216117
1.9537490899965633,0.26996336996336995,1.5730402930402931,1.157216117216117
1.9577374629952828,0.26996336996336995,1.5730402930402931,1.157216117216117
1.9610355830009212,0.26996336996336995,1.5730402930402931,1.157216117216117
1.9626890389990876,0.26996336996336995,1.5730402930402931,1.157216117216117
1.9659703619981883,0.9839560439560439,3.3,0.8364835164835164
1.966983425001672,0.9839560439560439,3.3,0.8364835164835164
1.9679788149951492,0.4472527472527472,2.8366300366300368,1.7035897435897436
1.9682637459991383,0.4472527472527472,2.8366300366300368,1.7035897435897436
1.9730408329996862,0.4472527472527472,2.8366300366300368,1.7035897435897436
1.9732423079985892,0.4472527472527472,2.8366300366300368,1.7035897435897436
1.9779017440014286,0.4472527472527472,2.8366300366300368,1.7035897435897436
1.9781834649984376,0.4472527472527472,2.8366300366300368,1.7035897435897436
1.982854784000665,0.4472527472527472,2.8366300366300368,1.7035897435897436
1.9830767000021297,3.3,3.3,0.14586080586080585
1.9877807289958582,3.3,3.3,0.14586080586080585
1.9879650700022466,3.3,3.3,0.14586080586080585
1.9931990429977304,3.3,3.3,0.14586080586080585
1.99634969500039,3.3,3.3,0.14586080586080585
1.9972631609998643,3.3,3.3,0.14586080586080585
1.9988220379964332,3.3,3.3,0.14586080586080585
2.00358087499626,3.3,3.3,0.14586080586080585
2.009087970996916,3.3,3.3,0.14586080586080585
2.0099685460008914,3.3,3.3,0.14586080586080585
2.0115964630022063,3.3,3.3,0.14586080586080585
2.0161236099957023,3.3,3.3,0.14586080586080585
2.016406618000474,3.3,3.3,0.14586080586080585
2.0213099399989005,3.3,3.3,0.14586080586080585
2.021426473998872,3.3,3.3,0.25465201465201465
2.025737562995346,3.3,3.3,0.25465201465201465
2.0286283980021835,3.3,3.3,0.25465201465201465
2.0328256209977553,3.3,3.3,0.25465201465201465
2.035022748998017,3.3,3.3,0.25465201465201465
2.0365084090008168,3.3,3.3,0.25465201465201465
2.040709353001148,3.3,3.3,0.25465201465201465
2.043528417998459,3.3,3.3,0.25465201465201465
2.0470733039983315,0.2772161172161172,2.6682051282051282,0.3843956043956044
2.047196690000419,0.2772161172161172,2.6682051282051282,0.3843956043956044
2.051949998996861,0.2772161172161172,2.6682051282051282,0.3843956043956044
2.052116451995971,0.2772161172161172,2.6682051282051282,0.3843956043956044
2.057134329996188,0.2772161172161172,2.6682051282051282,0.3843956043956044
2.0613247450019117,0.2772161172161172,2.6682051282051282,0.3843956043956044
2.0636178799977642,0.2772161172161172,2.6682051282051282,0.3843956043956044
2.0638700170020456,0.2772161172161172,2.6682051282051282,0.3843956043956044
2.068842503002088,0.2772161172161172,2.6682051282051282,0.3843956043956044
2.072487867997552,0.2772161172161172,2.6682051282051282,0.3843956043956044
2.0726469049986918,0.2772161172161172,2.6682051282051282,0.3843956043956044
2.0769359260011697,0.2772161172161172,2.6682051282051282,0.3843956043956044
2.079859145997034,3.3,2.8632234432234434,3.3
2.0826859139997396,3.3,2.8632234432234434,3.3
2.0862571799953002,3.3,2.8632234432234434,3.3
2.0864028110008803,3.3,2.8229304029304028,1.6705494505494505
2.091314457997214,3.3,2.8229304029304028,1.6705494505494505
2.095614234000095,2.90029304029304,2.24996336996337,1.137069597069597
2.09755840300204,2.90029304029304,2.24996336996337,1.137069597069597
2.0999517730015214,2.90029304029304,2.24996336996337,1.137069597069597
2.1001775309996447,2.90029304029304,2.24996336996337,1.137069597069597
2.1056001799952355,2.90029304029304,2.24996336996337,1.137069597069597
2.106549964999431,2.90029304029304,2.24996336996337,1.137069597069597
2.1079960409988416,2.90029304029304,2.24996336996337,1.137069597069597
2.1081211659984547,2.90029304029304,2.24996336996337,1.137069597069597
2.113170848999289,2.90029304029304,2.24996336996337,1.137069597069597
2.1169271629987634,3.3,3.3,3.3
2.1214654209979926,2.4353113553113555,1.888131868131868,0.6503296703296703
2.1217132349993335,2.4353113553113555,1.888131868131868,0.6503296703296703
2.127054660995782,2.4353113553113555,1.888131868131868,0.6503296703296703
2.1293580389974522,2.4353113553113555,1.888131868131868,0.6503296703296703
2.129584107999108,2.4353113553113555,1.888131868131868,0.6503296703296703
2.134484809001151,2.4353113553113555,1.888131868131868,0.6503296703296703
2.13991559400165,2.4353113553113555,1.888131868131868,0.6503296703296703
2.1416201760002878,2.4353113553113555,1.888131868131868,0.6503296703296703
2.145574306996423,1.5335531135531135,2.3652014652014652,0.4867399267399267
2.148882588997367,2.31040293040293,2.8696703296703294,0.6608058608058608
2.1504468060011277,2.706886446886447,2.5505494505494504,3.3
2.1544043679969036,2.706886446886447,2.5505494505494504,3.3
2.1583677750022616,2.706886446886447,2.5505494505494504,3.3
2.161623668995162,2.4135531135531134,1.5730402930402931,0.8872527472527472
2.1633911120006815,2.4135531135531134,1.5730402930402931,0.8872527472527472
2.1665049129951512,2.4135531135531134,1.5730402930402931,0.8872527472527472
2.168212851996941,2.4135531135531134,1.5730402930402931,0.8872527472527472
2.1712964059988735,2.4135531135531134,1.5730402930402931,0.8872527472527472
2.173641230998328,3.3,2.6569230769230767,2.079120879120879
2.1738365040000645,3.3,2.6569230769230767,2.079120879120879
2.1785427079958026,3.3,2.6569230769230767,2.079120879120879
2.178753129999677,3.3,2.6569230769230767,2.079120879120879
2.184309682001185,3.3,2.6569230769230767,2.079120879120879
2.185181606997503,3.3,2.6569230769230767,2.079120879120879
2.1867990199971246,3.3,2.6569230769230767,2.079120879120879
2.1905047280015424,3.3,2.6569230769230767,2.079120879120879
2.1954566790009267,3.3,2.6569230769230767,2.079120879120879
2.199823634000495,3.3,2.6569230769230767,2.079120879120879
2.2013253069962957,3.3,2.6569230769230767,2.079120879120879
2.205635057995096,3.3,2.6569230769230767,2.079120879120879
2.207230353000341,3.3,2.6569230769230767,2.079120879120879
2.2108398909986136,3.3,2.6569230769230767,2.079120879120879
2.211027536999609,3.3,2.6569230769230767,2.079120879120879
2.2163053280019085,3.3,2.6569230769230767,2.079120879120879
2.21985117100121,3.3,2.6569230769230767,2.079120879120879
2.229959520002012,3.3,2.6569230769230767,2.079120879120879
2.237896530001308,3.3,2.6569230769230767,2.079120879120879
2.2443826620001346,3.3,2.6569230769230767,2.079120879120879
2.2497934810016886,0.6793406593406592,2.7826373626373626,0.5592673992673992
2.2501346959979855,0.6793406593406592,2.7826373626373626,0.5592673992673992
2.2577024450001772,0.6793406593406592,2.7826373626373626,0.5592673992673992
2.2639041040019947,0.6793406593406592,2.7826373626373626,0.5592673992673992
2.2682535240019206,0.6793406593406592,2.7826373626373626,0.5592673992673992
2.268623716001457,0.6793406593406592,2.7826373626373626,0.5592673992673992
2.276442397997016,0.6793406593406592,2.7826373626373626,0.5592673992673992
2.282797102998302,2.133113553113553,2.577948717948718,3.3
2.285930191996158,2.133113553113553,2.577948717948718,3.3
2.288373880997824,2.133113553113553,2.577948717948718,3.3
2.293881090998184,1.0113553113553113,3.0896703296703296,0.8703296703296703
2.2953826890006894,1.0113553113553113,3.0896703296703296,0.8703296703296703
2.30038628699549,1.0113553113553113,3.0896703296703296,0.8703296703296703
2.305220237998583,1.0113553113553113,3.0896703296703296,0.8703296703296703
2.309406932996353,1.0113553113553113,3.0896703296703296,0.8703296703296703
2.312196981998568,1.0113553113553113,3.0896703296703296,0.8703296703296703
2.3157477999993716,3.3,2.146007326007326,0.8638827838827838
2.315946605995123,3.3,2.146007326007326,0.8638827838827838
2.323601645999588,3.3,2.146007326007326,0.8638827838827838
2.329823184001725,3.3,2.146007326007326,0.8638827838827838
2.3344929140002932,3.3,2.146007326007326,0.8638827838827838
2.3428266279952368,3.3,2.146007326007326,0.8638827838827838
2.3491051649980363,3.3,2.146007326007326,0.8638827838827838
2.354746682998666,3.3,2.146007326007326,0.8638827838827838
2.3549764049967052,3.3,2.146007326007326,0.8638827838827838
2.362822857001447,3.3,2.146007326007326,0.8638827838827838
2.3682577229992603,3.3,2.146007326007326,0.8638827838827838
2.369359539996367,1.1596336996336996,0.6583882783882784,0.17326007326007326
2.369503062996955,1.1596336996336996,0.6583882783882784,0.17326007326007326
2.377315858997463,1.1596336996336996,0.6583882783882784,0.17326007326007326
2.3846241499995813,1.1596336996336996,0.6583882783882784,0.17326007326007326
2.3922445540010813,1.1596336996336996,0.6583882783882784,0.17326007326007326
2.399463169000228,3.3,3.036483516483516,2.44981684981685
2.404992570998729,3.3,3.036483516483516,2.44981684981685
2.405272801996034,3.3,3.036483516483516,2.44981684981685
2.4128961539972806,3.3,3.036483516483516,2.44981684981685
2.419724840998242,3.3,3.036483516483516,2.44981684981685
2.4235837169981096,3.3,3.036483516483516,2.44981684981685
2.428198504996544,3.3,3.036483516483516,2.44981684981685
2.429109595999762,3.3,3.036483516483516,2.44981684981685
2.4307008030009456,3.3,3.036483516483516,2.44981684981685
2.4344619490002515,3.3,3.036483516483516,2.44981684981685
2.4389093610006967,3.3,3.036483516483516,2.44981684981685
2.4397823239996796,3.3,3.036483516483516,2.44981684981685
2.441307829001744,3.3,3.036483516483516,2.44981684981685
2.445524167000258,3.3,3.036483516483516,2.44981684981685
2.447642259998247,2.6585347985347987,2.581172161172161,2.548937728937729
2.4484932089981157,2.6585347985347987,2.581172161172161,2.548937728937729
2.4500081919977674,2.6585347985347987,2.581172161172161,2.548937728937729
2.4542643509994377,2.6585347985347987,2.581172161172161,2.548937728937729
2.4564274110016413,2.6585347985347987,2.581172161172161,2.548937728937729
2.4572686629981035,2.6585347985347987,2.581172161172161,2.548937728937729
2.4594809650006937,1.7124542124542126,2.880952380952381,0.6350183150183151
2.45982317400194,1.7124542124542126,2.880952380952381,0.6350183150183151
2.464694253001653,1.7124542124542126,2.880952380952381,0.6350183150183151
2.469702743997914,1.386080586080586,3.1194871794871792,1.5456410256410256
2.473924776997592,1.386080586080586,3.1194871794871792,1.5456410256410256
2.475467076001223,2.8358241758241753,3.063076923076923,0.8316483516483516
2.479574593999132,2.90029304029304,1.3208058608058608,0.523003663003663
2.4828218650000053,2.3007326007326006,2.3458608058608057,0.2602930402930403
2.484552904999873,2.3007326007326006,2.3458608058608057,0.2602930402930403
2.4870394929967006,2.3007326007326006,2.3458608058608057,0.2602930402930403
2.487187222999637,2.3007326007326006,2.3458608058608057,0.2602930402930403
2.4919403690000763,2.3007326007326006,2.3458608058608057,0.2602930402930403
2.4921068549956544,2.3007326007326006,2.3458608058608057,0.2602930402930403
2.496688171995629,2.3007326007326006,2.3458608058608057,0.2602930402930403
2.497555215995817,2.3007326007326006,2.3458608058608057,0.2602930402930403
2.4984595349960728,2.3007326007326006,2.3458608058608057,0.2602930402930403
2.500050625996664,2.3007326007326006,2.3458608058608057,0.2602930402930403
2.5038504609983647,2.3007326007326006,2.3458608058608057,0.2602930402930403
2.5084228880004957,2.3007326007326006,2.3458608058608057,0.2602930402930403
2.5087172579951584,2.3007326007326006,2.3458608058608057,0.2602930402930403
2.5142614009964745,2.3007326007326006,2.3458608058608057,0.2602930402930403
2.515993968001567,2.913186813186813,2.336190476190476,1.2152380952380952
2.5190333259961335,2.9712087912087912,0.8139194139194139,0.5931135531135531
2.5213613269952475,1.6076923076923075,2.8285714285714283,0.6084249084249085
2.521556111998507,1.6076923076923075,2.8285714285714283,0.6084249084249085
2.526020373996289,1.6076923076923075,2.8285714285714283,0.6084249084249085
2.5274890399959986,1.6076923076923075,2.8285714285714283,0.6084249084249085
2.532409601000836,1.6076923076923075,2.8285714285714283,0.6084249084249085
2.5373447710007895,3.3,3.3,3.1219047619047617
2.5421514100016793,3.3,3.3,3.1219047619047617
2.5469864170008805,3.3,3.3,3.1219047619047617
2.547108844999457,3.3,3.3,3.1219047619047617
2.5518943749993923,3.3,3.3,3.1219047619047617
2.552051154001674,3.3,3.171868131868132,3.1138461538461537
2.5569099799977266,3.3,3.171868131868132,3.1138461538461537
2.5618175529962173,2.025934065934066,2.492527472527472,0.4013186813186813
2.56671716299752,2.025934065934066,2.492527472527472,0.4013186813186813
2.570939092001936,1.2490842490842489,3.3,1.8728205128205127
2.573159539999324,1.2490842490842489,3.3,1.8728205128205127
2.574018763996719,1.2490842490842489,3.3,1.8728205128205127
2.576202932999877,1.2490842490842489,3.3,1.8728205128205127
2.576507165998919,1.2490842490842489,3.3,1.8728205128205127
2.581414975997177,1.2490842490842489,3.3,1.8728205128205127
2.585544153000228,1.2490842490842489,3.3,1.8728205128205127
2.5883829869999317,1.2490842490842489,3.3,1.8728205128205127
2.591937382996548,1.8913553113553112,2.5505494505494504,2.7584615384615385
2.5922339019962237,1.8913553113553112,2.5505494505494504,2.7584615384615385
2.5971403860021383,1.8913553113553112,2.5505494505494504,2.7584615384615385
2.602190414996585,3.2903296703296703,2.6649816849816848,2.8656410256410254
2.6060586129970034,3.2903296703296703,2.6649816849816848,2.8656410256410254
2.60985127499589,3.2903296703296703,2.6649816849816848,2.8656410256410254
2.6150530939994496,3.2903296703296703,2.6649816849816848,2.8656410256410254
2.6176363920021686,3.2903296703296703,2.6649816849816848,2.8656410256410254
2.6224289379970287,3.2903296703296703,2.6649816849816848,2.8656410256410254
2.6225650580017827,0.27076923076923076,2.4957509157509157,0.6519413919413919
2.6280531430020346,0.27076923076923076,2.4957509157509157,0.6519413919413919
2.628913405002095,0.3892307692307692,2.625494505494505,1.3747985347985348
2.6303989719963283,3.1501098901098903,3.3,3.3
2.6346233189979102,3.1501098901098903,3.3,3.3
2.636821660998976,3.158974358974359,2.0525274725274723,1.8558974358974358
2.6376053689964465,3.158974358974359,2.0525274725274723,1.8558974358974358
2.6391510800021933,3.158974358974359,2.0525274725274723,1.8558974358974358
2.6433356019988423,3.158974358974359,2.0525274725274723,1.8558974358974358
2.645537117998174,0.8123076923076923,2.917216117216117,1.0838827838827838
2.6463233519971254,0.8123076923076923,2.917216117216117,1.0838827838827838
2.6478295769993565,0.5302564102564102,2.8148717948717947,1.5964102564102562
2.6526822309970157,0.5302564102564102,2.8148717948717947,1.5964102564102562
2.657969501997286,0.5302564102564102,2.8148717948717947,1.5964102564102562
2.6604599689962924,3.2903296703296703,1.3578754578754577,1.6504029304029304
2.6659874229953857,3.2903296703296703,1.3578754578754577,1.6504029304029304
2.666980165995483,3.2903296703296703,1.3578754578754577,1.6504029304029304
2.667859925000812,3.2903296703296703,1.3578754578754577,1.6504029304029304
2.6695607509973343,3.2903296703296703,1.3578754578754577,1.6504029304029304
2.6726493339956505,3.2903296703296703,1.3578754578754577,1.6504029304029304
2.6765092329951585,3.2903296703296703,1.3578754578754577,1.6504029304029304
2.681411532998027,3.2903296703296703,1.3578754578754577,1.6504029304029304
2.685695542997564,3.2903296703296703,1.3578754578754577,1.6504029304029304
2.686076427002263,3.2903296703296703,1.3578754578754577,1.6504029304029304
2.694406208996952,3.2903296703296703,1.3578754578754577,1.6504029304029304
2.7017112839967012,3.2903296703296703,1.3578754578754577,1.6504029304029304
2.708628813001269,1.4183150183150184,2.9647619047619047,1.3804395604395605
2.713757304001774,1.4183150183150184,2.9647619047619047,1.3804395604395605
2.7172380819974933,3.3,2.423223443223443,2.220952380952381
2.7228041810012655,3.195238095238095,0.6745054945054945,1.481172161172161
2.7244958649971522,3.195238095238095,0.6745054945054945,1.481172161172161
2.7278199200009112,3.195238095238095,0.6745054945054945,1.481172161172161
2.7287282179968315,3.195238095238095,0.6745054945054945,1.481172161172161
2.7305068299974664,3.195238095238095,0.6745054945054945,1.481172161172161
2.732970416000171,3.195238095238095,0.6745054945054945,1.481172161172161
2.733163976998185,3.195238095238095,0.6745054945054945,1.481172161172161
2.73863694499596,3.195238095238095,0.6745054945054945,1.481172161172161
2.7389659629989183,3.195238095238095,0.6745054945054945,1.481172161172161
2.744425782999315,3.195238095238095,0.6745054945054945,1.481172161172161
2.745433017000323,3.195238095238095,0.6745054945054945,1.481172161172161
2.7464954199967906,3.195238095238095,0.6745054945054945,1.481172161172161
2.7473557100020116,3.195238095238095,0.6745054945054945,1.481172161172161
2.748941243997251,3.195238095238095,0.6745054945054945,1.481172161172161
2.753490556999168,3.195238095238095,0.6745054945054945,1.481172161172161
2.753696861997014,3.195238095238095,0.6745054945054945,1.481172161172161
2.759183314999973,3.195238095238095,0.6745054945054945,1.481172161172161
2.7600823629982187,3.195238095238095,0.6745054945054945,1.481172161172161
2.761705956996593,3.195238095238095,0.6745054945054945,1.481172161172161
2.76556152899866,3.195238095238095,0.6745054945054945,1.481172161172161
2.77009078500123,2.803589743589743,2.56989010989011,3.291135531135531
2.7703667739988305,2.803589743589743,2.56989010989011,3.291135531135531
2.775691110997286,2.803589743589743,2.56989010989011,3.291135531135531
2.7773587170013343,3.3,2.8253479853479853,3.295970695970696
2.7812707429984584,3.3,2.8253479853479853,3.295970695970696
2.7889666830014903,3.3,2.8253479853479853,3.295970695970696
2.7921721460006665,2.071868131868132,2.5521611721611723,2.2717216117216115
2.7938282929972047,2.071868131868132,2.5521611721611723,2.2717216117216115
2.797758274995431,2.071868131868132,2.5521611721611723,2.2717216117216115
2.8015609459980624,2.071868131868132,2.5521611721611723,2.2717216117216115
2.8061868590011727,2.071868131868132,2.5521611721611723,2.2717216117216115
2.806370138001512,2.6682051282051282,2.5747252747252745,2.552967032967033
2.81110869099939,1.212820512820513,3.3,1.763223443223443
2.8112236309971195,1.212820512820513,3.3,1.763223443223443
2.8161615659992094,1.212820512820513,3.3,1.763223443223443
2.820925139996689,1.212820512820513,3.3,1.763223443223443
2.8270210740010953,1.212820512820513,3.3,1.763223443223443
2.8333039189965348,1.6334798534798534,3.3,2.2362637362637363
2.839285181995365,1.6334798534798534,3.3,2.2362637362637363
2.8431491869996535,3.3,2.826153846153846,2.888205128205128
2.849948659997608,3.3,2.826153846153846,2.888205128205128
2.8564887729953625,3.3,2.826153846153846,2.888205128205128
2.8623089179964154,3.3,2.826153846153846,2.888205128205128
2.868427654997504,2.6923809523809523,3.3,0.11926739926739927
2.873762966999493,2.6923809523809523,3.3,0.11926739926739927
2.8740600910023204,2.6923809523809523,3.3,0.11926739926739927
2.8820371749970946,2.6923809523809523,3.3,0.11926739926739927
2.8909103149999282,2.6923809523809523,3.3,0.11926739926739927
2.89548757099692,2.6923809523809523,3.3,0.11926739926739927
2.895616545996745,2.6923809523809523,3.3,0.11926739926739927
2.900651365998783,2.6923809523809523,3.3,0.11926739926739927
2.910668717995577,2.6923809523809523,3.3,0.11926739926739927
2.920596062002005,2.7326739926739925,2.5787545787545785,2.9075457875457875
2.927413591001823,2.848717948717949,0.49076923076923074,1.1217582417582417
2.9330986319982912,3.1533333333333333,2.6005128205128205,3.106593406593406
2.94439321399841,3.1533333333333333,2.6005128205128205,3.106593406593406
2.9551997359958477,3.1533333333333333,2.6005128205128205,3.106593406593406
2.9628469460003544,3.1533333333333333,2.6005128205128205,3.106593406593406
2.966929648995574,1.8913553113553112,2.8656410256410254,0.07575091575091575
2.972726968997449,0.3304029304029304,1.1499633699633698,0.8179487179487179
2.978756616997998,2.357142857142857,2.577948717948718,2.544908424908425
2.9843544799950905,2.357142857142857,2.577948717948718,2.544908424908425
2.9966347369991126,2.357142857142857,2.577948717948718,2.544908424908425
3.0079627449958934,2.726227106227106,2.5553846153846154,3.3
3.0154229830004624,2.726227106227106,2.5553846153846154,3.3
3.0226880299960612,3.3,2.577948717948718,2.6037362637362635
3.0282672260000254,3.3,2.577948717948718,2.6037362637362635
3.0339023819979047,3.3,2.577948717948718,2.6037362637362635
3.0341721399963717,3.3,2.577948717948718,2.6037362637362635
3.043390612001531,3.3,2.577948717948718,2.6037362637362635
3.0484525639985804,2.9712087912087912,2.5868131868131865,2.5473260073260073
3.0546263169962913,2.9712087912087912,2.5868131868131865,2.5473260073260073
3.0577606649967493,2.7278388278388275,2.5521611721611723,1.3933333333333333
3.0593595070022275,2.7278388278388275,2.5521611721611723,1.3933333333333333
3.0631636190009885,2.7278388278388275,2.5521611721611723,1.3933333333333333
3.067881800001487,2.7278388278388275,2.5521611721611723,1.3933333333333333
3.06801246899704,2.7278388278388275,2.5521611721611723,1.3933333333333333
3.076760349002143,2.7278388278388275,2.5521611721611723,1.3933333333333333
3.0817827279970516,2.6738461538461538,2.577948717948718,2.5666666666666664
3.0890492069956963,2.6738461538461538,2.577948717948718,2.5666666666666664
3.0932591460004915,0.5689377289377289,2.764908424908425,1.5851282051282052
3.096709990000818,0.5689377289377289,2.764908424908425,1.5851282051282052
3.0969238319958095,0.5689377289377289,2.764908424908425,1.5851282051282052
3.101576289998775,0.5689377289377289,2.764908424908425,1.5851282051282052
3.101868272999127,0.5689377289377289,2.764908424908425,1.5851282051282052
3.107981518995075,0.5689377289377289,2.764908424908425,1.5851282051282052
3.1117655619964353,0.5689377289377289,2.764908424908425,1.5851282051282052
3.1118834239969146,0.5689377289377289,2.764908424908425,1.5851282051282052
3.117193721998774,0.5689377289377289,2.764908424908425,1.5851282051282052
3.1219280410005013,0.5689377289377289,2.764908424908425,1.5851282051282052
3.1270711719989777,0.5689377289377289,2.764908424908425,1.5851282051282052
3.130302755998855,0.5689377289377289,2.764908424908425,1.5851282051282052
3.131385948996467,0.5689377289377289,2.764908424908425,1.5851282051282052
3.1322258149957634,0.5689377289377289,2.764908424908425,1.5851282051282052
3.1338705849993858,0.5689377289377289,2.764908424908425,1.5851282051282052
3.1400447569976677,0.5689377289377289,2.764908424908425,1.5851282051282052
3.143539459000749,2.7326739926739925,0.8534065934065934,0.7744322344322344
3.1437571459973697,2.7326739926739925,0.8534065934065934,0.7744322344322344
3.1491579840003396,2.7326739926739925,0.8534065934065934,0.7744322344322344
3.150720416000695,2.7326739926739925,0.8534065934065934,0.7744322344322344
3.1563488350002444,2.7326739926739925,0.8534065934065934,0.7744322344322344
3.1564893479953753,2.7326739926739925,0.8534065934065934,0.7744322344322344
3.1610888869981864,2.7326739926739925,0.8534065934065934,0.7744322344322344
3.1619667499981006,2.7326739926739925,0.8534065934065934,0.7744322344322344
3.16371123999852,2.7326739926739925,0.8534065934065934,0.7744322344322344
3.1668850159985595,2.7326739926739925,0.8534065934065934,0.7744322344322344
3.1691806059970986,2.7326739926739925,0.8534065934065934,0.7744322344322344
3.16949537799519,1.9493772893772894,3.3,2.488498168498168
3.176727812999161,1.9493772893772894,3.3,2.488498168498168
3.1805228279990843,1.9493772893772894,3.3,2.488498168498168
3.1864458759955596,1.9493772893772894,3.3,2.488498168498168
3.192690916999709,1.9493772893772894,3.3,2.488498168498168
3.1971731779995025,1.9493772893772894,3.3,2.488498168498168
3.1974712169976556,2.5553846153846154,1.174139194139194,0.4472527472527472
3.204292162001366,2.5553846153846154,1.174139194139194,0.4472527472527472
3.2083906889965874,2.5553846153846154,1.174139194139194,0.4472527472527472
3.210051604997716,2.5553846153846154,1.174139194139194,0.4472527472527472
3.2138317889985046,3.3,3.3,3.158974358974359
3.2211044099967694,3.3,3.3,3.158974358974359
3.227588239002216,3.3,3.3,3.158974358974359
3.232138651997957,2.768131868131868,2.5513553113553114,1.6906959706959706
3.232288856001105,3.3,2.250769230769231,1.2144322344322345
3.2395442650013138,3.3,2.250769230769231,1.2144322344322345
3.243990445000236,3.3,2.250769230769231,1.2144322344322345
3.24421848700149,3.0614652014652015,2.5843956043956045,2.1717948717948716
3.2489255580003373,3.0614652014652015,2.5843956043956045,2.1717948717948716
3.249088106000272,3.2709890109890107,3.3,3.036483516483516
3.2561038060011924,3.2709890109890107,3.3,3.036483516483516
3.260196821000136,3.2709890109890107,3.3,3.036483516483516
3.262726565997582,3.2709890109890107,3.3,3.036483516483516
3.2688062230008654,3.2709890109890107,3.3,3.036483516483516
3.274859810997441,3.2709890109890107,3.3,3.036483516483516
3.2779983329965034,2.5642490842490844,2.577948717948718,2.5465201465201464
3.279724014995736,1.7237362637362637,2.731062271062271,0.8542124542124543
3.283574733999558,1.7237362637362637,2.731062271062271,0.8542124542124543
3.292006005998701,1.2394139194139193,3.3,1.5706227106227104
3.297786103998078,3.042124542124542,2.553772893772894,2.801172161172161
3.3067435220000334,2.996996336996337,3.3,0.6374358974358975
3.312404443997366,3.3,2.736703296703297,2.2128937728937728
3.3126254989983863,3.3,2.736703296703297,2.2128937728937728
3.3190487600004417,3.3,2.736703296703297,2.2128937728937728
3.324242882998078,3.3,3.3,0.381978021978022
3.326666100998409,3.3,3.3,0.381978021978022
3.332887063996168,3.3,3.3,0.381978021978022
3.3377765389959677,3.3,3.3,0.381978021978022
3.344119873996533,0.6567765567765567,3.3,1.1596336996336996
3.34814352599642,0.6567765567765567,3.3,1.1596336996336996
3.351332154001284,0.6567765567765567,3.3,1.1596336996336996
3.3529636140010552,0.6567765567765567,3.3,1.1596336996336996
3.358419534000859,0.6567765567765567,3.3,1.1596336996336996
3.3592829310000525,0.6567765567765567,3.3,1.1596336996336996
3.3608776019973448,0.6567765567765567,3.3,1.1596336996336996
3.3649403960007476,0.6567765567765567,3.3,1.1596336996336996
3.367744577997655,2.6714285714285713,2.5747252747252745,3.3
3.3751806669970392,2.6714285714285713,2.5747252747252745,3.3
3.3791649769991636,2.6714285714285713,2.5747252747252745,3.3
3.3823384959978284,2.6714285714285713,2.5747252747252745,3.3
3.383944107001298,2.6714285714285713,2.5747252747252745,3.3
3.3902130819988088,2.6714285714285713,2.5747252747252745,3.3
3.3934920899991994,2.6714285714285713,2.5747252747252745,3.3
3.3944456159952097,2.7375091575091575,2.6424175824175826,1.1040293040293039
3.396010689997638,2.7375091575091575,2.6424175824175826,1.1040293040293039
3.399881782999728,2.7375091575091575,2.6424175824175826,1.1040293040293039
3.407566718997259,2.7375091575091575,2.6424175824175826,1.1040293040293039
3.412985857001331,2.7375091575091575,2.6424175824175826,1.1040293040293039
3.415034439996816,2.7375091575091575,2.6424175824175826,1.1040293040293039
3.416005735001818,2.7375091575091575,2.6424175824175826,1.1040293040293039
3.416913916997146,2.7375091575091575,2.6424175824175826,1.1040293040293039
3.4194314920023317,2.7375091575091575,2.6424175824175826,1.1040293040293039
3.427159719001793,2.7375091575091575,2.6424175824175826,1.1040293040293039
3.436279524998099,2.7375091575091575,2.6424175824175826,1.1040293040293039
3.444315540000389,2.7375091575091575,2.6424175824175826,1.1040293040293039
3.4483807220021845,0.2175824175824176,2.6126007326007326,1.0097435897435898
3.451590035998379,3.111428571428571,2.556996336996337,3.265347985347985
3.4529886539967265,3.111428571428571,2.556996336996337,3.265347985347985
3.458678188995691,3.111428571428571,2.556996336996337,3.265347985347985
3.458890658999735,3.111428571428571,2.556996336996337,3.265347985347985
3.4635900770008448,3.111428571428571,2.556996336996337,3.265347985347985
3.4637092999982997,3.111428571428571,2.556996336996337,3.265347985347985
3.4695139050018042,3.111428571428571,2.556996336996337,3.265347985347985
3.4696815720017185,1.523076923076923,3.3,1.7535531135531135
3.475916547002271,2.6915750915750913,2.5964835164835165,2.1234432234432234
3.47987677600031,2.6915750915750913,2.5964835164835165,2.1234432234432234
3.4838355159954517,2.6915750915750913,2.5964835164835165,2.1234432234432234
3.488801305000379,2.6915750915750913,2.5964835164835165,2.1234432234432234
3.4927398700019694,2.6915750915750913,2.5964835164835165,2.1234432234432234
3.4959476349977194,2.6915750915750913,2.5964835164835165,2.1234432234432234
3.497024700998736,2.6915750915750913,2.5964835164835165,2.1234432234432234
3.4972931039956165,2.6915750915750913,2.5964835164835165,2.1234432234432234
3.5048646930008545,0.8405128205128204,3.3,1.1918681318681317
3.5101603040020564,0.8405128205128204,3.3,1.1918681318681317
3.5104965470018215,0.8405128205128204,3.3,1.1918681318681317
3.515248340998369,0.8405128205128204,3.3,1.1918681318681317
3.5245330949983327,0.8405128205128204,3.3,1.1918681318681317
3.529125404995284,0.8405128205128204,3.3,1.1918681318681317
3.5294517389993416,3.3,3.3,3.2331135531135526
3.5342704319991753,3.3,3.3,3.2331135531135526
3.5424536849968717,3.3,3.3,3.2331135531135526
3.5480198959994595,3.3,3.3,3.2331135531135526
3.5490055389964255,3.3,3.3,3.2331135531135526
3.5501527870001155,3.3,3.3,3.3
3.5503222690022085,3.3,3.3,3.3
3.55773676699755,3.3,3.3,3.3
3.5617256999976235,3.3,3.3,3.3
3.565549156999623,3.3,3.3,3.3
3.5709449150017463,0.38278388278388276,2.492527472527472,1.4852014652014651
3.572087125998223,3.3,2.581978021978022,1.9816117216117215
3.5722961040009977,3.3,2.581978021978022,1.9816117216117215
3.5770318060021964,3.3,2.581978021978022,1.9816117216117215
3.5826292369965813,3.3,2.581978021978022,1.9816117216117215
3.5842649709957186,3.3,2.581978021978022,1.9816117216117215
3.5890654440008802,2.8197069597069593,2.5441025641025643,1.9743589743589742
3.5940814939967822,2.8197069597069593,2.5441025641025643,1.9743589743589742
3.598623776997556,2.8197069597069593,2.5441025641025643,1.9743589743589742
3.598889793000126,2.8197069597069593,2.5441025641025643,1.9743589743589742
3.6062948530016,2.8197069597069593,2.5441025641025643,1.9743589743589742
3.6095725889972528,0.2602930402930403,2.698827838827839,0.726080586080586
3.6104847329988843,0.2602930402930403,2.698827838827839,0.726080586080586
3.612113959999988,0.2602930402930403,2.698827838827839,0.726080586080586
3.616053853998892,0.2602930402930403,2.698827838827839,0.726080586080586
3.6199581199980457,0.2602930402930403,2.698827838827839,0.726080586080586
3.62707520800177,0.2602930402930403,2.698827838827839,0.726080586080586
3.630910939995374,0.2602930402930403,2.698827838827839,0.726080586080586
3.6369475969986524,0.2602930402930403,2.698827838827839,0.726080586080586
3.6440166640022653,0.2602930402930403,2.698827838827839,0.726080586080586
3.64865736199863,0.2602930402930403,2.698827838827839,0.726080586080586
3.6488299400007236,0.2602930402930403,2.698827838827839,0.726080586080586
3.6562942969976575,0.2602930402930403,2.698827838827839,0.726080586080586
3.660770333997789,0.2602930402930403,2.698827838827839,0.726080586080586
3.661717110997415,0.2602930402930403,2.698827838827839,0.726080586080586
3.6626163339969935,0.2602930402930403,2.698827838827839,0.726080586080586
3.664152593999461,0.2602930402930403,2.698827838827839,0.726080586080586
3.669489230000181,0.2602930402930403,2.698827838827839,0.726080586080586
3.671471297995595,0.2602930402930403,2.698827838827839,0.726080586080586
3.672636846000387,0.2602930402930403,2.698827838827839,0.726080586080586
3.6728783340004156,0.2602930402930403,2.698827838827839,0.726080586080586
3.67849878299603,0.2602930402930403,2.698827838827839,0.726080586080586
3.678738335001981,0.2602930402930403,2.698827838827839,0.726080586080586
3.684205503996054,0.2602930402930403,2.698827838827839,0.726080586080586
3.6880889699968975,0.2602930402930403,2.698827838827839,0.726080586080586
3.69087560299522,0.2602930402930403,2.698827838827839,0.726080586080586
3.694052788996487,3.3,2.613406593406593,2.4199999999999995
3.6949937589961337,3.3,2.613406593406593,2.4199999999999995
3.696825599996373,3.3,2.613406593406593,2.4199999999999995
3.6991921859953436,3.3,2.613406593406593,2.4199999999999995
3.699340109997138,3.3,2.613406593406593,2.4199999999999995
3.706345002996386,3.3,2.613406593406593,2.4199999999999995
3.7103314289997797,3.3,2.613406593406593,2.4199999999999995
3.712772931001382,3.3,2.613406593406593,2.4199999999999995
3.712942355996347,3.3,2.613406593406593,2.4199999999999995
3.71844958300062,3.3,2.613406593406593,2.4199999999999995
3.719968659999722,3.3,2.613406593406593,2.4199999999999995
3.7265534260004642,3.3,2.613406593406593,2.4199999999999995
3.730319916998269,3.3,2.613406593406593,2.4199999999999995
3.737725938000949,3.3,2.613406593406593,2.4199999999999995
3.7415629739989527,2.5038095238095237,1.4650549450549448,0.4319413919413919
3.7467416819999926,0.13538461538461538,2.6682051282051282,0.7115750915750916
3.7544790510000894,1.3836630036630035,3.3,2.063003663003663
3.758712814997125,1.3836630036630035,3.3,2.063003663003663
3.761068121995777,1.3836630036630035,3.3,2.063003663003663
3.761346275001415,1.3836630036630035,3.3,2.063003663003663
3.769110137996904,1.3836630036630035,3.3,2.063003663003663
3.7742682859970955,1.3836630036630035,3.3,2.063003663003663
3.7763515100014047,1.3836630036630035,3.3,2.063003663003663
3.7773001589957858,1.3836630036630035,3.3,2.063003663003663
3.7782172419974813,1.3836630036630035,3.3,2.063003663003663
3.779118712998752,1.3836630036630035,3.3,2.063003663003663
3.7807984550017864,1.3836630036630035,3.3,2.063003663003663
3.7855437109974446,1.3836630036630035,3.3,2.063003663003663
3.7911390459994436,1.3836630036630035,3.3,2.063003663003663
3.7919931770011317,3.3,2.756043956043956,3.001025641025641
3.7936741989979055,3.3,2.756043956043956,3.001025641025641
3.796997719000501,3.3,2.8422710622710623,2.561025641025641
3.797306843000115,2.8358241758241753,0.8517948717948718,0.767985347985348
3.805634028001805,0.7631501831501831,3.3,0.8308424908424907
3.8115421819966286,0.7631501831501831,3.3,0.8308424908424907
3.8162117259998922,2.693992673992674,3.3,2.2008058608058607
3.8164512450020993,2.693992673992674,3.3,2.2008058608058607
3.825095533997228,2.693992673992674,3.3,2.2008058608058607
3.8321774389987695,2.693992673992674,3.3,2.2008058608058607
3.839914260999649,2.693992673992674,3.3,2.2008058608058607
3.845490533996781,2.693992673992674,3.3,2.2008058608058607
3.8519439209994744,2.693992673992674,3.3,2.2008058608058607
3.8581301769954734,2.6279120879120876,2.5553846153846154,2.8156776556776553
3.8618736489952425,2.6279120879120876,2.5553846153846154,2.8156776556776553
3.866574703999504,3.3,3.3,0.14747252747252745
3.8666822140003205,3.3,3.3,0.14747252747252745
3.8750476929999422,3.3,3.3,0.14747252747252745
3.8799274139964837,3.3,3.3,0.14747252747252745
3.8851780420009163,3.3,3.3,0.14747252747252745
3.8884656769951107,2.9196336996336996,2.5843956043956045,2.5521611721611723
3.888675438000064,2.9196336996336996,2.5843956043956045,2.5521611721611723
3.8937849040012225,2.9196336996336996,2.5843956043956045,2.5521611721611723
3.8978109849995235,2.9196336996336996,2.5843956043956045,2.5521611721611723
3.901184390997514,2.9196336996336996,2.5843956043956045,2.5521611721611723
3.901649200997781,2.9196336996336996,2.5843956043956045,2.5521611721611723
3.907625168998493,2.9196336996336996,2.5843956043956045,2.5521611721611723
3.91082236499642,1.6076923076923075,3.3,2.1846886446886447
3.913223980998737,1.6076923076923075,3.3,2.1846886446886447
3.9134760789966094,2.1846886446886447,2.5747252747252745,2.5465201465201464
3.918848455999978,2.1846886446886447,2.5747252747252745,2.5465201465201464
3.92161327899521,2.1846886446886447,2.5747252747252745,2.5465201465201464
3.926066535001155,2.6633699633699632,3.1855677655677654,0.224029304029304
3.9263093269983074,1.166080586080586,0.6495238095238095,0.3021978021978022
3.9314212259996566,1.166080586080586,0.6495238095238095,0.3021978021978022
3.9341318259976106,1.166080586080586,0.6495238095238095,0.3021978021978022
3.9404298559966264,1.166080586080586,0.6495238095238095,0.3021978021978022
3.943710788997123,1.166080586080586,0.6495238095238095,0.3021978021978022
3.9453635399986524,1.166080586080586,0.6495238095238095,0.3021978021978022
3.949246021998988,1.166080586080586,0.6495238095238095,0.3021978021978022
3.955931516997225,1.166080586080586,0.6495238095238095,0.3021978021978022
3.9594562249985756,2.4667399267399266,2.436117216117216,1.133040293040293
3.964844052999979,2.6383882783882786,3.142051282051282,0.17567765567765567
3.96743099699961,2.6383882783882786,3.142051282051282,0.17567765567765567
3.9767530690005515,2.6383882783882786,3.142051282051282,0.17567765567765567
3.9836279539958923,2.6383882783882786,3.142051282051282,0.17567765567765567
3.992668976999994,3.3,3.3,0.8123076923076923
3.9978258990013273,3.3,3.3,0.8123076923076923
4.002399432996754,3.3,3.3,0.8123076923076923
4.002593042998342,3.3,3.3,0.8123076923076923
4.010427836998133,3.3,3.3,0.8123076923076923
4.015318954996474,3.3,3.3,0.8123076923076923
4.023848090000683,3.3,3.3,0.8123076923076923
4.02889655099716,3.3,3.3,0.8123076923076923
4.031469909998123,3.3,3.3,0.8123076923076923
4.0394570479984395,3.3,3.3,0.8123076923076923
4.044357829996443,3.3,2.8583882783882784,2.5674725274725274
4.049135761000798,3.3,2.8583882783882784,2.5674725274725274
4.0560981429953245,1.518241758241758,3.3,2.2564102564102564
4.060280958998192,2.327326007326007,2.577948717948718,2.553772893772894
4.063373281998793,2.327326007326007,2.577948717948718,2.553772893772894
4.064982853997208,2.327326007326007,2.577948717948718,2.553772893772894
4.069966490998922,2.327326007326007,2.577948717948718,2.553772893772894
4.0756362859974615,2.327326007326007,2.577948717948718,2.553772893772894
4.081567609995545,2.327326007326007,2.577948717948718,2.553772893772894
4.089389938999375,1.1362637362637362,2.8100366300366297,0.49157509157509155
4.093245919997571,1.1362637362637362,2.8100366300366297,0.49157509157509155
4.098009258996171,2.0235164835164836,2.5747252747252745,3.3
4.098125247001008,2.0235164835164836,2.5747252747252745,3.3
4.105322502997296,2.0235164835164836,2.5747252747252745,3.3
4.109821131001809,2.0235164835164836,2.5747252747252745,3.3
4.110040592000587,2.0235164835164836,2.5747252747252745,3.3
4.114643941000395,2.0235164835164836,2.5747252747252745,3.3
4.114913252997212,2.0235164835164836,2.5747252747252745,3.3
4.122213131995522,2.0235164835164836,2.5747252747252745,3.3
4.127026433001447,0.14908424908424908,2.601318681318681,0.805054945054945
4.130849723995198,0.14908424908424908,2.601318681318681,0.805054945054945
4.138761666996288,0.14908424908424908,2.601318681318681,0.805054945054945
4.142630670001381,0.14908424908424908,2.601318681318681,0.805054945054945
4.147304908001388,3.3,2.8019780219780217,3.1428571428571423
4.147539546000189,3.3,2.8019780219780217,3.1428571428571423
4.154420808001305,3.3,2.8019780219780217,3.1428571428571423
4.159394392001559,3.3,2.7463736263736265,2.5594139194139194
4.1632285000014235,3.3,3.3,0.5471794871794872
4.1673548510007095,3.3,3.3,0.5471794871794872
4.171172329995898,3.3,3.3,0.5471794871794872
4.173669242001779,2.8938461538461535,2.3635897435897433,0.6882051282051282
4.17904517599527,2.8938461538461535,2.3635897435897433,0.6882051282051282
4.181693981998251,2.822124542124542,1.843003663003663,0.2248351648351648
4.1880095090018585,2.822124542124542,1.843003663003663,0.2248351648351648
4.192159865997382,2.822124542124542,1.843003663003663,0.2248351648351648
4.193913066999812,2.7423443223443225,2.1274725274725275,0.6591941391941392
4.196999350999249,2.7423443223443225,2.1274725274725275,0.6591941391941392
4.199473073997069,2.7423443223443225,2.1274725274725275,0.6591941391941392
4.2103343380003935,2.7423443223443225,2.1274725274725275,0.6591941391941392
4.21579775599821,2.7423443223443225,2.1274725274725275,0.6591941391941392
4.221287535998272,3.3,2.8414652014652013,3.3
4.221477672996116,3.3,2.8414652014652013,3.3
4.226738990997546,3.3,2.8414652014652013,3.3
4.229152544001408,3.3,2.8414652014652013,3.3
4.235013165001874,3.3,2.8414652014652013,3.3
4.244002317995182,2.121831501831502,2.2177289377289378,0.3432967032967033
4.249078214998008,2.121831501831502,2.2177289377289378,0.3432967032967033
4.257316771996557,2.121831501831502,2.2177289377289378,0.3432967032967033
4.261219633001019,2.121831501831502,2.2177289377289378,0.3432967032967033
4.265694185996836,2.121831501831502,2.2177289377289378,0.3432967032967033
4.266759940997872,0.42065934065934063,1.3538461538461537,0.7518681318681318
4.267174182001327,0.42065934065934063,1.3538461538461537,0.7518681318681318
4.273942403997353,0.42065934065934063,1.3538461538461537,0.7518681318681318
4.277860679001606,0.42065934065934063,1.3538461538461537,0.7518681318681318
4.282010973998695,1.6624908424908424,2.785054945054945,0.6495238095238095
4.286491947998002,1.6624908424908424,2.785054945054945,0.6495238095238095
4.295942646996991,1.1008058608058606,3.3,1.7398534798534797
4.300912779995997,3.3,3.3,3.1106227106227102
4.306602190998092,1.6367032967032966,2.9776556776556777,0.792967032967033
4.311256656001206,1.6367032967032966,2.9776556776556777,0.792967032967033
4.311492351000197,3.3,2.1403663003663005,1.5343589743589743
4.319668297001044,3.3,2.1403663003663005,1.5343589743589743
4.326658642996335,0.5423443223443223,2.7947252747252747,0.6205128205128204
4.331214678000833,0.5423443223443223,2.7947252747252747,0.6205128205128204
4.332070553995436,0.5423443223443223,2.7947252747252747,0.6205128205128204
4.333709295002336,0.5423443223443223,2.7947252747252747,0.6205128205128204
4.342399351997301,0.5423443223443223,2.7947252747252747,0.6205128205128204
4.349161409998487,0.5423443223443223,2.7947252747252747,0.6205128205128204
4.355696742997679,0.5423443223443223,2.7947252747252747,0.6205128205128204
4.36137205799605,0.5423443223443223,2.7947252747252747,0.6205128205128204
4.370568507001735,3.3,3.3,0.4319413919413919
4.376482152001699,3.3,3.3,0.4319413919413919
4.383380291001231,3.3,3.3,0.4319413919413919
4.389239001000533,3.3,3.3,0.4319413919413919
4.393264245001774,1.236190476190476,0.5044688644688645,0.2836630036630036
4.396555275001447,1.236190476190476,0.5044688644688645,0.2836630036630036
4.397522400999151,3.2726007326007327,1.3554578754578754,1.6536263736263734
4.398463847996027,3.2726007326007327,1.3554578754578754,1.6536263736263734
4.400130699999863,3.2726007326007327,1.3554578754578754,1.6536263736263734
4.407400283998868,3.2726007326007327,1.3554578754578754,1.6536263736263734
4.41146138899785,3.2726007326007327,1.3554578754578754,1.6536263736263734
4.413941056001931,3.2726007326007327,1.3554578754578754,1.6536263736263734
4.421869594996679,3.2726007326007327,1.3554578754578754,1.6536263736263734
4.425412958997185,3.2726007326007327,1.3554578754578754,1.6536263736263734
4.425602101997356,3.2726007326007327,1.3554578754578754,1.6536263736263734
4.43038356499892,3.2726007326007327,1.3554578754578754,1.6536263736263734
4.430522853996081,3.2726007326007327,1.3554578754578754,1.6536263736263734
4.437532062001992,3.2726007326007327,1.3554578754578754,1.6536263736263734
4.441398720002326,3.2726007326007327,1.3554578754578754,1.6536263736263734
4.44530519899854,3.2726007326007327,1.3554578754578754,1.6536263736263734
4.449826816999121,0.9227106227106227,3.3,1.8567032967032966
4.450808451001649,0.9227106227106227,3.3,1.8567032967032966
4.45201630199881,0.9227106227106227,3.3,1.8567032967032966
4.452202251995914,0.9227106227106227,3.3,1.8567032967032966
4.459159630998329,0.9227106227106227,3.3,1.8567032967032966
4.463985854999919,0.9227106227106227,3.3,1.8567032967032966
4.464124770995113,0.9227106227106227,3.3,1.8567032967032966
4.470813936997729,0.9227106227106227,3.3,1.8567032967032966
4.4743657340004575,0.9227106227106227,3.3,1.8567032967032966
4.474602987000253,0.9227106227106227,3.3,1.8567032967032966
4.479258130995731,0.9227106227106227,3.3,1.8567032967032966
4.479577669000719,0.9227106227106227,3.3,1.8567032967032966
4.483594646997517,0.9227106227106227,3.3,1.8567032967032966
4.489173039997695,0.9227106227106227,3.3,1.8567032967032966
4.489375602999644,0.9227106227106227,3.3,1.8567032967032966
4.494676572998287,0.9227106227106227,3.3,1.8567032967032966
4.49560905299586,3.146886446886447,2.414358974358974,1.6673260073260072
4.497225088001869,3.146886446886447,2.414358974358974,1.6673260073260072
4.501900238996313,0.5383150183150183,3.3,0.7832967032967032
4.508612990000984,3.3,2.864835164835165,2.553772893772894
4.512461528996937,3.3,2.864835164835165,2.553772893772894
4.518309084996872,3.3,2.864835164835165,2.553772893772894
4.518652516999282,1.9155311355311355,2.7584615384615385,0.224029304029304
4.521971976995701,3.3,3.3,0.35135531135531134
4.522323600001982,3.3,3.3,0.35135531135531134
4.526979506998032,3.3,3.3,0.35135531135531134
4.527819866001664,0.4222710622710622,1.4424908424908425,1.008131868131868
4.529383802997472,0.4222710622710622,1.4424908424908425,1.008131868131868
4.533348762000969,0.4222710622710622,1.4424908424908425,1.008131868131868
4.540861895002308,0.4222710622710622,1.4424908424908425,1.008131868131868
4.544722751001245,0.4222710622710622,1.4424908424908425,1.008131868131868
4.54928724400088,3.2806593406593407,2.6649816849816848,1.7197069597069596
4.549572855998122,3.2806593406593407,2.6649816849816848,1.7197069597069596
4.55684187800216,3.3,2.6230769230769226,2.5521611721611723
4.560818580001069,3.3,2.6230769230769226,2.5521611721611723
4.56468130400026,2.289450549450549,3.223443223443223,0.5028571428571429
4.573958322995168,1.730989010989011,2.548937728937729,2.3974358974358974
4.578752444998827,1.6576556776556775,3.3,2.5803663003663004
4.584294123000291,1.6576556776556775,3.3,2.5803663003663004
4.585952118999558,1.6576556776556775,3.3,2.5803663003663004
4.592409896002209,1.6576556776556775,3.3,2.5803663003663004
4.604448920996219,1.6576556776556775,3.3,2.5803663003663004
4.616654509001819,2.265274725274725,2.374871794871795,0.4859340659340659
4.632723228001851,3.3,2.5634432234432234,3.1275457875457873
4.633083508997515,3.3,2.5634432234432234,3.1275457875457873
4.6425481229962315,3.3,2.5634432234432234,3.1275457875457873
4.651807135996933,3.3,2.5634432234432234,3.1275457875457873
4.662370507998276,3.3,2.5634432234432234,3.1275457875457873
4.668561412996496,3.3,2.5634432234432234,3.1275457875457873
4.674016605997167,3.3,2.5634432234432234,3.1275457875457873
4.67434740599856,3.3,2.5634432234432234,3.1275457875457873
4.6826625729954685,3.3,2.5634432234432234,3.1275457875457873
4.689806347996637,3.3,2.5634432234432234,3.1275457875457873
4.693443256001046,3.3,2.5634432234432234,3.1275457875457873
4.699463794997428,3.3,2.5634432234432234,3.1275457875457873
4.7064300849961,3.3,2.5634432234432234,3.1275457875457873
4.711897802997555,3.3,2.5634432234432234,3.1275457875457873
4.712175590997504,3.3,2.5634432234432234,3.1275457875457873
4.719244029998663,3.3,2.5634432234432234,3.1275457875457873
4.7245236029993976,3.3,2.5634432234432234,3.1275457875457873
4.725513284000044,3.3,2.5634432234432234,3.1275457875457873
4.726461188001849,3.3,2.5634432234432234,3.1275457875457873
4.727423545002239,3.3,2.5634432234432234,3.1275457875457873
4.728386855000281,3.3,2.5634432234432234,3.1275457875457873
4.730101397995895,3.3,2.5634432234432234,3.1275457875457873
4.733208567995462,3.3,2.5634432234432234,3.1275457875457873
4.738015343995357,3.3,2.5634432234432234,3.1275457875457873
4.74181992100057,3.3,2.5634432234432234,3.1275457875457873
4.745843749995402,3.3,2.5634432234432234,3.1275457875457873
4.74896126499516,3.3,2.5634432234432234,3.1275457875457873
4.751991692995944,3.3,2.5634432234432234,3.1275457875457873
4.754349542999989,3.3,2.5634432234432234,3.1275457875457873
4.760382161999587,3.3,2.5634432234432234,3.1275457875457873
4.765760458998557,3.3,2.5634432234432234,3.1275457875457873
4.7674368230000255,3.3,2.5634432234432234,3.1275457875457873
4.773530562997621,3.3,2.5634432234432234,3.1275457875457873
4.778515819998574,3.3,2.5634432234432234,3.1275457875457873
4.783257994000451,1.236190476190476,3.3,0.755091575091575
4.792300479995902,3.055018315018315,3.3,0.09186813186813186
4.796349837000889,2.764908424908425,2.5553846153846154,3.3
4.799398463997932,2.177435897435897,2.2846153846153845,0.502051282051282
4.803674866998335,0.31186813186813184,3.3,0.6962637362637363
4.804038217997004,1.6109157509157508,2.301538461538461,0.3932600732600733
4.8106738650021725,1.6109157509157508,2.301538461538461,0.3932600732600733
4.8160554119967856,1.1838095238095236,3.3,1.9026373626373623
4.817887452998548,1.1838095238095236,3.3,1.9026373626373623
4.821823182996013,1.1838095238095236,3.3,1.9026373626373623
4.824220775997674,1.1838095238095236,3.3,1.9026373626373623
4.8323577209957875,1.1838095238095236,3.3,1.9026373626373623
4.841917808000289,1.1838095238095236,3.3,1.9026373626373623
4.8489448050022474,1.1838095238095236,3.3,1.9026373626373623
4.8541618429953814,1.1838095238095236,3.3,1.9026373626373623
4.856649547997222,2.6536996336996337,2.577948717948718,2.5602197802197804
4.8605952090001665,2.6536996336996337,2.577948717948718,2.5602197802197804
4.8645353199972305,2.6536996336996337,2.577948717948718,2.5602197802197804
4.8683590889995685,2.6536996336996337,2.577948717948718,2.5602197802197804
4.87447516300017,2.6536996336996337,2.577948717948718,2.5602197802197804
4.8776367159953224,2.6536996336996337,2.577948717948718,2.5602197802197804
4.879967390996171,2.6536996336996337,2.577948717948718,2.5602197802197804
4.880164937996597,2.6536996336996337,2.577948717948718,2.5602197802197804
4.885984176995407,2.6536996336996337,2.577948717948718,2.5602197802197804
4.892872142001579,3.3,2.822124542124542,3.3
4.9023176440023235,3.3,2.822124542124542,3.3
4.91081873299845,3.3,2.822124542124542,3.3
4.91787549899891,2.830989010989011,2.843882783882784,1.4892307692307691
4.923468184999365,2.830989010989011,2.843882783882784,1.4892307692307691
4.929241717996774,2.830989010989011,2.843882783882784,1.4892307692307691
4.934971406997647,2.830989010989011,2.843882783882784,1.4892307692307691
4.9353581850009505,2.830989010989011,2.843882783882784,1.4892307692307691
4.940750331996242,2.830989010989011,2.843882783882784,1.4892307692307691
4.941627580999921,2.830989010989011,2.843882783882784,1.4892307692307691
4.942641798996192,2.830989010989011,2.843882783882784,1.4892307692307691
4.943008385002031,2.830989010989011,2.843882783882784,1.4892307692307691
4.9483814839986735,2.830989010989011,2.843882783882784,1.4892307692307691
4.9501146459952,1.8687912087912086,2.5505494505494504,2.864835164835165
4.954192420002073,1.8687912087912086,2.5505494505494504,2.864835164835165
4.955928513001709,1.8687912087912086,2.5505494505494504,2.864835164835165
4.959418081998592,1.8687912087912086,2.5505494505494504,2.864835164835165
4.959549362996768,3.021172161172161,3.3,0.2191941391941392
4.964257150997582,3.021172161172161,3.3,0.2191941391941392
4.964437905997329,3.021172161172161,3.3,0.2191941391941392
4.970399241996347,3.021172161172161,3.3,0.2191941391941392
4.97791436999978,3.021172161172161,3.3,0.2191941391941392
4.984381426002074,3.021172161172161,3.3,0.2191941391941392
4.990242665997357,2.5199267399267398,3.3,0.2925274725274725
4.994954736001091,2.5199267399267398,3.3,0.2925274725274725
4.99513109200052,2.5199267399267398,3.3,0.2925274725274725
5.001117378997151,2.5199267399267398,3.3,0.2925274725274725
5.009642457996961,1.9638827838827837,2.9599267399267397,0.16197802197802197
5.015390171996842,0.3432967032967033,2.5392673992673993,1.3764102564102565
5.015568955997878,0.3432967032967033,2.5392673992673993,1.3764102564102565
5.0236441800007015,0.3432967032967033,2.5392673992673993,1.3764102564102565
5.02770224899723,0.3432967032967033,2.5392673992673993,1.3764102564102565
5.031613792998542,0.3432967032967033,2.5392673992673993,1.3764102564102565
5.038633930002106,0.3432967032967033,2.5392673992673993,1.3764102564102565
5.041999091001344,3.179120879120879,0.3924542124542124,1.1564102564102563
5.042936722995364,3.179120879120879,0.3924542124542124,1.1564102564102563
5.04460781099624,2.6536996336996337,2.5827838827838825,3.3
5.047724172996823,0.40534798534798533,1.0927472527472526,0.8767765567765567
5.050201852995087,0.40534798534798533,1.0927472527472526,0.8767765567765567
5.058073216998309,0.40534798534798533,1.0927472527472526,0.8767765567765567
5.062985443997604,0.40534798534798533,1.0927472527472526,0.8767765567765567
5.067621617999976,2.8696703296703294,2.5674725274725274,1.2595604395604394
5.067841680000129,2.8696703296703294,2.5674725274725274,1.2595604395604394
5.074521317001199,3.3,3.3,3.3
5.079163278998749,2.735897435897436,2.6424175824175826,1.2901831501831502
5.079346252998221,2.735897435897436,2.6424175824175826,1.2901831501831502
5.087478080000437,2.735897435897436,2.6424175824175826,1.2901831501831502
5.092514881995157,2.735897435897436,2.6424175824175826,1.2901831501831502
5.098751400000765,3.3,2.830989010989011,2.5626373626373624
5.104440101000364,3.3,2.830989010989011,2.5626373626373624
5.113677971996367,3.3,2.830989010989011,2.5626373626373624
5.123498535998806,3.3,3.3,3.3
5.129998117998184,0.3416849816849817,3.3,1.046007326007326
5.136934853995626,0.3416849816849817,3.3,1.046007326007326
5.143982831999892,0.3416849816849817,3.3,1.046007326007326
5.148483038996346,0.3416849816849817,3.3,1.046007326007326
5.148759475996485,0.3416849816849817,3.3,1.046007326007326
5.1570429089988465,0.3416849816849817,3.3,1.046007326007326
5.164007713996398,0.3416849816849817,3.3,1.046007326007326
5.168355282999983,0.3416849816849817,3.3,1.046007326007326
5.1696244119957555,0.3416849816849817,3.3,1.046007326007326
5.169829872000264,0.3416849816849817,3.3,1.046007326007326
5.179764357999375,0.3416849816849817,3.3,1.046007326007326
5.187429569996311,2.747985347985348,2.698827838827839,1.2563369963369961
5.191649228996539,2.747985347985348,2.698827838827839,1.2563369963369961
5.194033278996358,2.747985347985348,2.698827838827839,1.2563369963369961
5.204183768997609,2.747985347985348,2.698827838827839,1.2563369963369961
5.213740866995067,2.5747252747252745,1.9187545787545788,0.06285714285714286
5.22227267499693,2.5747252747252745,1.9187545787545788,0.06285714285714286
5.2289272580019315,2.5747252747252745,1.9187545787545788,0.06285714285714286
5.23330878699926,2.947032967032967,2.556996336996337,3.3
5.2336002359952545,2.947032967032967,2.556996336996337,3.3
5.241596441999718,3.3,3.3,2.0114285714285716
5.2487449850013945,2.9744322344322343,0.8098901098901098,0.30622710622710625
5.252146961996914,2.9744322344322343,0.8098901098901098,0.30622710622710625
5.252416500996333,2.9744322344322343,0.8098901098901098,0.30622710622710625
5.259344370999315,2.9744322344322343,0.8098901098901098,0.30622710622710625
5.266108154995891,3.3,3.3,0.04996336996336996
5.271235736996459,0.9920146520146519,3.3,1.5770695970695972
5.274376260997087,3.258095238095238,2.626300366300366,3.2782417582417582
5.274729560995183,3.258095238095238,2.626300366300366,3.2782417582417582
5.279912070996943,3.258095238095238,2.626300366300366,3.2782417582417582
5.283089192998887,0.4254945054945055,2.8189010989010987,1.1217582417582417
5.284705997997662,0.4254945054945055,2.8189010989010987,1.1217582417582417
5.288640920996841,0.4254945054945055,2.8189010989010987,1.1217582417582417
5.292368121998152,0.4254945054945055,2.8189010989010987,1.1217582417582417
5.296997917997942,0.4254945054945055,2.8189010989010987,1.1217582417582417
5.297189945995342,3.3,3.3,1.8671794871794871
5.301874960001442,3.3,3.3,1.8671794871794871
5.302055170999665,0.9388278388278387,3.3,1.3772161172161173
5.3068082359968685,0.9388278388278387,3.3,1.3772161172161173
5.307002864996321,0.9388278388278387,3.3,1.3772161172161173
5.312918088995502,0.9388278388278387,3.3,1.3772161172161173
5.321545972001331,0.9388278388278387,3.3,1.3772161172161173
5.327246253997146,0.9388278388278387,3.3,1.3772161172161173
5.3275259000001824,1.4755311355311356,3.3,1.921978021978022
5.334388598996156,1.4755311355311356,3.3,1.921978021978022
5.340154231998895,1.4755311355311356,3.3,1.921978021978022
5.348842738996609,1.1402930402930402,2.8817582417582415,0.7357509157509158
5.355011255996942,1.1402930402930402,2.8817582417582415,0.7357509157509158
5.360551122001198,2.3772893772893773,2.5424908424908423,2.651282051282051
5.368698307000159,2.3772893772893773,2.5424908424908423,2.651282051282051
5.373035513999639,1.0524542124542122,3.3,1.58996336996337
5.376132671997766,2.735897435897436,2.7584615384615385,1.1773626373626374
5.3780198370004655,1.7648351648351648,2.581172161172161,0.448058608058608
5.379483224001888,1.4457142857142857,3.248424908424908,0.9613919413919414
5.389602390998334,1.4457142857142857,3.248424908424908,0.9613919413919414
5.39389100799599,1.4457142857142857,3.248424908424908,0.9613919413919414
5.39550607700221,1.4457142857142857,3.248424908424908,0.9613919413919414
5.399889535001421,1.4457142857142857,3.248424908424908,0.9613919413919414
5.400221955998859,1.3272527472527473,3.3,0.9718681318681318
5.405171054000675,1.3272527472527473,3.3,0.9718681318681318
5.410700216001715,1.3272527472527473,3.3,0.9718681318681318
5.411567211995134,2.808424908424908,2.984102564102564,2.5827838827838825
5.413147391998791,2.808424908424908,2.984102564102564,2.5827838827838825
5.417574343999149,3.051794871794872,1.9654945054945054,1.494871794871795
5.417895261998638,3.051794871794872,1.9654945054945054,1.494871794871795
5.422607515996788,3.051794871794872,1.9654945054945054,1.494871794871795
5.422931433000485,3.051794871794872,1.9654945054945054,1.494871794871795
5.427517292999255,3.051794871794872,1.9654945054945054,1.494871794871795
5.427721057996678,3.051794871794872,1.9654945054945054,1.494871794871795
5.433297329000197,3.051794871794872,1.9654945054945054,1.494871794871795
5.434150114997465,3.051794871794872,1.9654945054945054,1.494871794871795
5.435405006996007,3.051794871794872,1.9654945054945054,1.494871794871795
5.4355502809994505,3.051794871794872,1.9654945054945054,1.494871794871795
5.44416951599851,2.8229304029304028,1.804322344322344,0.5786080586080585
5.451576120001846,0.3908424908424908,2.6706227106227107,1.4505494505494505
5.457283725001616,2.955091575091575,2.553772893772894,3.3
5.465216165997845,3.3,3.3,0.8485714285714284
5.472502006996365,2.3458608058608057,2.561025641025641,2.8938461538461535
5.47722112199699,2.3458608058608057,2.561025641025641,2.8938461538461535
5.4839613500007545,3.3,2.0009523809523806,1.726959706959707
5.491928819996247,1.9848351648351645,2.548937728937729,2.4594871794871795
5.496783351998602,1.9848351648351645,2.548937728937729,2.4594871794871795
5.503947986995627,1.4416849816849817,3.3,0.8074725274725274
5.509078969000257,1.4416849816849817,3.3,0.8074725274725274
5.513291975999891,1.4416849816849817,3.3,0.8074725274725274
5.513599484002043,1.4416849816849817,3.3,0.8074725274725274
5.520134949001658,1.4416849816849817,3.3,0.8074725274725274
5.526244863998727,1.4416849816849817,3.3,0.8074725274725274
5.529493206995539,1.4416849816849817,3.3,0.8074725274725274
5.531135614000959,1.4416849816849817,3.3,0.8074725274725274
5.535461938998196,1.4416849816849817,3.3,0.8074725274725274
5.535904917000153,1.4416849816849817,3.3,0.8074725274725274
5.542658254998969,1.4416849816849817,3.3,0.8074725274725274
5.546709666996321,1.4416849816849817,3.3,0.8074725274725274
5.550010099999781,1.4416849816849817,3.3,0.8074725274725274
5.550345377996564,1.4416849816849817,3.3,0.8074725274725274
5.556350945000304,1.4416849816849817,3.3,0.8074725274725274
5.560912084001757,3.3,2.8140659340659337,3.3
5.56116075799946,3.3,3.3,0.06205128205128205
5.566597286997421,3.3,3.3,0.06205128205128205
5.568454544001725,3.3,3.3,0.06205128205128205
5.571814497998275,3.1936263736263735,2.6246886446886446,3.3
5.572063772997353,3.1936263736263735,2.6246886446886446,3.3
5.576705020997906,3.1936263736263735,2.6246886446886446,3.3
5.5770220089980285,3.3,3.3,2.496556776556776
5.58172969899897,3.3,3.3,2.496556776556776
5.581871297996258,2.5989010989010985,3.3,0.2957509157509157
5.587480171001516,2.5989010989010985,3.3,0.2957509157509157
5.587642302001768,2.5989010989010985,3.3,0.2957509157509157
5.592214634001721,2.5989010989010985,3.3,0.2957509157509157
5.593090443995607,3.3,2.4941391941391937,1.7978754578754577
5.594758699000522,3.3,2.4941391941391937,1.7978754578754577
5.599663280998357,3.3,2.4941391941391937,1.7978754578754577
5.606137235998176,3.3,2.4941391941391937,1.7978754578754577
5.611205445995438,3.3,2.4941391941391937,1.7978754578754577
5.615741538997099,3.3,2.4941391941391937,1.7978754578754577
5.625919439000427,3.3,2.4941391941391937,1.7978754578754577
5.630982262999169,3.3,2.4941391941391937,1.7978754578754577
5.638688694998564,3.3,2.4941391941391937,1.7978754578754577
5.643935328000225,3.3,2.4941391941391937,1.7978754578754577
5.6466128539977944,3.3,2.4941391941391937,1.7978754578754577
5.652994853000564,3.3,2.4941391941391937,1.7978754578754577
5.659665897997911,2.7197802197802194,2.781025641025641,1.3183882783882783
5.663847914998769,2.7197802197802194,2.781025641025641,1.3183882783882783
5.665584377995401,1.6044688644688643,3.3,1.5835164835164834
5.6711391450007795,1.6044688644688643,3.3,1.5835164835164834
5.678349402995082,1.6044688644688643,3.3,1.5835164835164834
5.683570561996021,1.6044688644688643,3.3,1.5835164835164834
5.6899353330009035,1.6044688644688643,3.3,1.5835164835164834
5.6942454899981385,1.6044688644688643,3.3,1.5835164835164834
5.695186815995839,1.6044688644688643,3.3,1.5835164835164834
5.696746681001969,1.6044688644688643,3.3,1.5835164835164834
5.7010537539972574,1.6044688644688643,3.3,1.5835164835164834
5.7037494749965845,1.6044688644688643,3.3,1.5835164835164834
5.707501119999506,1.6044688644688643,3.3,1.5835164835164834
5.712207008000405,1.6044688644688643,3.3,1.5835164835164834
5.718551535996085,1.6044688644688643,3.3,1.5835164835164834
5.72287528400193,2.9518681318681317,1.672161172161172,0.7397802197802198
5.723811584000941,2.9518681318681317,1.672161172161172,0.7397802197802198
5.7262631979974685,2.9518681318681317,1.672161172161172,0.7397802197802198
5.731057250995946,1.4626373626373625,3.3,1.9026373626373623
5.7404105859968695,3.3,2.6424175824175826,2.1057142857142854
5.7454677679997985,3.3,2.6424175824175826,2.1057142857142854
5.74851146099536,3.3,2.6424175824175826,2.1057142857142854
5.7517268039955525,3.3,2.6424175824175826,2.1057142857142854
5.752126448998752,3.3,2.6424175824175826,2.1057142857142854
5.75827401499555,3.3,2.6424175824175826,2.1057142857142854
5.762197979995108,3.3,2.6424175824175826,2.1057142857142854
5.766748519999965,3.3,2.6424175824175826,2.1057142857142854
5.767404074998922,2.181465201465201,2.5521611721611723,3.1307692307692303
5.773638720995223,2.181465201465201,2.5521611721611723,3.1307692307692303
5.778658524999628,2.181465201465201,2.5521611721611723,3.1307692307692303
5.785520202000043,2.181465201465201,2.5521611721611723,3.1307692307692303
5.789691337995464,1.6705494505494505,1.0693772893772893,0.25787545787545785
5.791326956998091,1.6705494505494505,1.0693772893772893,0.25787545787545785
5.795144957999582,1.6705494505494505,1.0693772893772893,0.25787545787545785
5.800741728999128,1.6705494505494505,1.0693772893772893,0.25787545787545785
5.8010708750007325,1.6705494505494505,1.0693772893772893,0.25787545787545785
5.810390548998839,1.6705494505494505,1.0693772893772893,0.25787545787545785
5.816260059997148,1.6705494505494505,1.0693772893772893,0.25787545787545785
5.826230881000811,1.6705494505494505,1.0693772893772893,0.25787545787545785
5.834513417998096,1.6705494505494505,1.0693772893772893,0.25787545787545785
5.8425102940018405,1.6705494505494505,1.0693772893772893,0.25787545787545785
5.847978710000461,3.2709890109890107,3.3,0.6495238095238095
5.851549075996445,3.3,3.3,3.3
5.8593473700020695,3.3,2.7004395604395603,2.424029304029304
5.863298250995285,2.735897435897436,2.1266666666666665,0.5745787545787545
5.8696802589984145,2.735897435897436,2.1266666666666665,0.5745787545787545
5.874712373995862,2.735897435897436,2.1266666666666665,0.5745787545787545
5.877581137996458,2.46029304029304,2.5747252747252745,2.5473260073260073
5.880691448001016,0.6108424908424909,3.3,0.7115750915750916
5.88307928499853,2.328131868131868,3.3,0.16842490842490843
5.8833494239952415,2.328131868131868,3.3,0.16842490842490843
5.890068505999807,2.328131868131868,3.3,0.16842490842490843
5.894003545996384,2.328131868131868,3.3,0.16842490842490843
5.897832245995232,3.0356776556776555,3.20007326007326,0.9202930402930403
5.904958286999317,3.0356776556776555,3.20007326007326,0.9202930402930403
5.910602297000878,3.0356776556776555,3.20007326007326,0.9202930402930403
5.915972734997922,3.0356776556776555,3.20007326007326,0.9202930402930403
5.920706862998486,3.3,1.838974358974359,1.9945054945054943
5.924723559997801,3.3,1.838974358974359,1.9945054945054943
5.927838855997834,3.3,1.838974358974359,1.9945054945054943
5.929507602995727,3.3,1.838974358974359,1.9945054945054943
5.932655028998852,3.3,1.838974358974359,1.9945054945054943
5.935500569001306,3.3,1.838974358974359,1.9945054945054943
5.940489200002048,3.3,1.838974358974359,1.9945054945054943
5.942853886997909,3.3,1.838974358974359,1.9945054945054943
5.9430986320003285,3.3,1.838974358974359,1.9945054945054943
5.947670310997637,3.3,1.838974358974359,1.9945054945054943
5.947998317002202,3.3,1.838974358974359,1.9945054945054943
5.954307779000374,3.3,1.838974358974359,1.9945054945054943
5.957939323998289,3.3,1.838974358974359,1.9945054945054943
5.963505086001533,3.3,1.838974358974359,1.9945054945054943
5.963817411000491,3.3,1.838974358974359,1.9945054945054943
5.971953795997251,3.3,1.838974358974359,1.9945054945054943
5.979366888997902,3.3,1.838974358974359,1.9945054945054943
5.987416046998987,3.3,1.838974358974359,1.9945054945054943
5.993261987998267,2.5876190476190475,3.2097435897435895,0.664029304029304
5.999902413997916,3.3,2.8277655677655673,2.5642490842490844
6.007723984999757,3.3,2.8277655677655673,2.5642490842490844
6.014247353996325,3.3,2.8277655677655673,2.5642490842490844
6.02174892599578,3.3,2.8277655677655673,2.5642490842490844
6.026718087996414,3.3,2.8277655677655673,2.5642490842490844
6.029795723996358,3.3,2.8277655677655673,2.5642490842490844
6.031874804997642,3.3,2.274139194139194,1.6117216117216115
6.03329830399889,3.3,2.274139194139194,1.6117216117216115
6.040195841997047,3.3,2.274139194139194,1.6117216117216115
6.044716741002048,2.4216117216117214,2.6706227106227107,0.1555311355311355
6.046348211995792,2.4216117216117214,2.6706227106227107,0.1555311355311355
6.051103906000208,2.768131868131868,2.553772893772894,3.3
6.058028881998325,3.3,2.6617582417582417,2.6343589743589746
6.062687031000678,3.3,2.6617582417582417,2.6343589743589746
6.062956169997051,3.3,2.6617582417582417,2.6343589743589746
6.069444675995328,3.3,2.6617582417582417,2.6343589743589746
6.073376123000344,3.3,2.6617582417582417,2.6343589743589746
6.077340916999674,3.3,2.6617582417582417,2.6343589743589746
6.081292540999129,3.3,2.6617582417582417,2.6343589743589746
6.087293033000606,3.3,2.6617582417582417,2.6343589743589746
6.090460264000285,3.3,2.6617582417582417,2.6343589743589746
6.091384360996017,3.3,2.6617582417582417,2.6343589743589746
6.092374075997213,3.3,2.6617582417582417,2.6343589743589746
6.093985546998738,3.3,2.6617582417582417,2.6343589743589746
6.097811066996655,3.266153846153846,1.1088644688644689,1.4465201465201465
6.10582501799945,3.266153846153846,1.1088644688644689,1.4465201465201465
6.109903250995558,3.266153846153846,1.1088644688644689,1.4465201465201465
6.113039320996904,3.266153846153846,1.1088644688644689,1.4465201465201465
6.11480851899978,3.266153846153846,1.1088644688644689,1.4465201465201465
6.1182702139994944,3.266153846153846,1.1088644688644689,1.4465201465201465
6.125185222001164,3.266153846153846,1.1088644688644689,1.4465201465201465
6.1322499369998695,1.3659340659340657,0.7986080586080586,0.2087179487179487
6.13945340099599,3.187179487179487,2.6166300366300366,3.3
6.142740996998327,3.187179487179487,2.6166300366300366,3.3
6.145100001995161,3.187179487179487,2.6166300366300366,3.3
6.145300051997765,3.187179487179487,2.6166300366300366,3.3
6.151852379996853,3.187179487179487,2.6166300366300366,3.3
6.155323904000397,3.187179487179487,2.6166300366300366,3.3
6.16104324600019,3.187179487179487,2.6166300366300366,3.3
6.161272272001952,3.187179487179487,2.6166300366300366,3.3
6.166235692995542,3.187179487179487,2.6166300366300366,3.3
6.173359839995101,3.187179487179487,2.6166300366300366,3.3
6.1776124499956495,3.187179487179487,2.6166300366300366,3.3
6.179298577000736,3.187179487179487,2.6166300366300366,3.3
6.183493436998106,0.3602197802197802,2.602124542124542,0.8936996336996336
6.185861234996992,3.3,2.8616117216117214,3.0195604395604394
6.1859938990019145,3.3,2.8616117216117214,3.0195604395604394
6.1907213809972745,3.3,2.8616117216117214,3.0195604395604394
6.190886046999367,3.3,2.8616117216117214,3.0195604395604394
6.195266384995193,3.3,2.8616117216117214,3.0195604395604394
6.197334534997935,3.3,2.8616117216117214,3.0195604395604394
6.19822524299525,3.3,2.8616117216117214,3.0195604395604394
6.199795280997932,3.3,2.8616117216117214,3.0195604395604394
6.204554509997251,3.3,2.8616117216117214,3.0195604395604394
6.209366832001251,1.5077655677655677,3.261318681318681,0.7123809523809523
6.215075125001022,3.3,3.3,3.154945054945055
6.215245057996071,3.3,3.3,3.154945054945055
6.219756728998618,3.3,3.3,3.154945054945055
6.2205698269972345,3.3,3.3,3.154945054945055
6.2220711359987035,3.3,3.3,3.154945054945055
6.226387861999683,3.3,3.3,3.154945054945055
6.2279275769978995,3.3,3.3,3.154945054945055
6.232153851000476,3.3,3.3,3.154945054945055
6.233800058995257,3.3,3.3,3.154945054945055
6.239466945997265,2.685934065934066,0.49479853479853475,0.7937728937728937
6.239626647999103,2.685934065934066,0.49479853479853475,0.7937728937728937
6.245669748997898,2.685934065934066,0.49479853479853475,0.7937728937728937
6.249805278996064,1.1185347985347984,1.6834432234432233,0.7937728937728937
6.255079554000986,1.1185347985347984,1.6834432234432233,0.7937728937728937
6.256110538000939,1.1185347985347984,1.6834432234432233,0.7937728937728937
6.256387702000211,1.1185347985347984,1.6834432234432233,0.7937728937728937
6.261102056996606,1.1185347985347984,1.6834432234432233,0.7937728937728937
6.261256919002335,1.224102564102564,3.239560439560439,0.6793406593406592
6.266679845000908,1.224102564102564,3.239560439560439,0.6793406593406592
6.269265810995421,1.9090842490842492,3.3,1.696336996336996
6.274470700998791,1.9090842490842492,3.3,1.696336996336996
6.278780093001842,1.9090842490842492,3.3,1.696336996336996
6.279917284999101,1.9090842490842492,3.3,1.696336996336996
6.280108357001154,1.9090842490842492,3.3,1.696336996336996
6.28514537299634,1.9090842490842492,3.3,1.696336996336996
6.288945267995587,1.3973626373626373,2.3764835164835163,1.0983882783882783
6.293425543000922,1.3973626373626373,2.3764835164835163,1.0983882783882783
6.294281235997914,1.3973626373626373,2.3764835164835163,1.0983882783882783
6.295904656995845,1.3973626373626373,2.3764835164835163,1.0983882783882783
6.299978666997049,1.3973626373626373,2.3764835164835163,1.0983882783882783
6.303757843001222,1.3973626373626373,2.3764835164835163,1.0983882783882783
6.309225487995718,1.3973626373626373,2.3764835164835163,1.0983882783882783
6.310953987995163,2.690769230769231,1.556117216117216,1.6125274725274723
6.314211011995212,2.690769230769231,1.556117216117216,1.6125274725274723
6.315076140999736,2.690769230769231,1.556117216117216,1.6125274725274723
6.316875366996101,2.690769230769231,1.556117216117216,1.6125274725274723
6.3192387919989415,2.690769230769231,1.556117216117216,1.6125274725274723
6.319422059998033,2.690769230769231,1.556117216117216,1.6125274725274723
6.324122523998085,2.690769230769231,1.556117216117216,1.6125274725274723
6.324271587996918,0.6237362637362637,0.7615384615384615,0.3876190476190476
6.329895253998984,0.6237362637362637,0.7615384615384615,0.3876190476190476
6.330659330000344,0.6237362637362637,0.7615384615384615,0.3876190476190476
6.332218981995538,0.6237362637362637,0.7615384615384615,0.3876190476190476
6.336588060999929,2.4667399267399266,2.573113553113553,3.3
6.3380434829959995,2.4667399267399266,2.573113553113553,3.3
6.342997239000397,2.4667399267399266,2.573113553113553,3.3
6.34723123099684,2.4667399267399266,2.573113553113553,3.3
6.349376158999803,2.012234432234432,3.145274725274725,1.4537728937728938
6.350262866995763,2.012234432234432,3.145274725274725,1.4537728937728938
6.351805434998823,2.012234432234432,3.145274725274725,1.4537728937728938
6.356036306999158,2.012234432234432,3.145274725274725,1.4537728937728938
6.3582233720007935,3.3,1.8776556776556774,0.40534798534798533
6.3596737749976455,3.3,1.8776556776556774,0.40534798534798533
6.363884813996265,3.3,1.8776556776556774,0.40534798534798533
6.3667729680018965,3.3,1.8776556776556774,0.40534798534798533
6.369579765996605,3.3,1.8776556776556774,0.40534798534798533
6.373168706995784,3.3,1.8776556776556774,0.40534798534798533
6.373402527002327,3.3,1.8776556776556774,0.40534798534798533
6.378265166000347,3.3,1.8776556776556774,0.40534798534798533
6.3830903970010695,3.3,1.8776556776556774,0.40534798534798533
6.383192859000701,2.336190476190476,2.577948717948718,3.3
6.387443072999304,2.336190476190476,2.577948717948718,3.3
6.389689169998746,2.336190476190476,2.577948717948718,3.3
6.389998102000391,2.336190476190476,2.577948717948718,3.3
6.3951420090015745,2.336190476190476,2.577948717948718,3.3
6.3983265069982735,2.336190476190476,2.577948717948718,3.3
6.399276752999867,2.336190476190476,2.577948717948718,3.3
6.400984161999077,2.336190476190476,2.577948717948718,3.3
6.404029978999461,2.336190476190476,2.577948717948718,3.3
6.407187995995628,2.336190476190476,2.577948717948718,3.3
6.408786631996918,2.336190476190476,2.577948717948718,3.3
6.4126923750009155,2.336190476190476,2.577948717948718,3.3
6.4164213969997945,2.336190476190476,2.577948717948718,3.3
6.420932902001368,3.0034432234432233,1.224102564102564,1.7277655677655677
6.421816959998978,3.0034432234432233,1.224102564102564,1.7277655677655677
6.4234657359993435,3.0034432234432233,1.224102564102564,1.7277655677655677
6.427189672001987,3.0034432234432233,1.224102564102564,1.7277655677655677
6.431811497997842,2.6706227106227107,3.3,3.187985347985348
6.4320355509989895,2.6706227106227107,3.3,3.187985347985348
6.436537517998659,2.6706227106227107,3.3,3.187985347985348
6.4374064069997985,2.6706227106227107,3.3,3.187985347985348
6.4383424679981545,2.6706227106227107,3.3,3.187985347985348
6.440035825995437,2.6706227106227107,3.3,3.187985347985348
6.443911101996491,2.6706227106227107,3.3,3.187985347985348
6.447709784995823,2.6706227106227107,3.3,3.187985347985348
6.4523410350011545,2.6706227106227107,3.3,3.187985347985348
6.452556794996781,2.6706227106227107,3.3,3.187985347985348
6.457459370001743,2.6706227106227107,3.3,3.187985347985348
6.463133019002271,2.6706227106227107,3.3,3.187985347985348
6.464151217995095,2.6706227106227107,3.3,3.187985347985348
6.464469806000125,2.6706227106227107,3.3,3.187985347985348
6.469195657002274,2.6706227106227107,3.3,3.187985347985348
6.469353037995461,2.6706227106227107,3.3,3.187985347985348
6.474219800998981,2.6706227106227107,3.3,3.187985347985348
6.479245408001589,2.6706227106227107,3.3,3.187985347985348
6.484112191996246,2.6706227106227107,3.3,3.187985347985348
6.487917557999026,0.4794871794871795,0.7687912087912088,0.39890109890109887
6.493190044995572,0.4794871794871795,0.7687912087912088,0.39890109890109887
6.496142563999456,0.4794871794871795,0.7687912087912088,0.39890109890109887
6.498919068995747,0.4794871794871795,0.7687912087912088,0.39890109890109887
6.503117396998277,0.4794871794871795,0.7687912087912088,0.39890109890109887
6.5053437300011865,0.3304029304029304,2.5586080586080584,2.289450549450549
6.50560594900162,0.3304029304029304,2.5586080586080584,2.289450549450549
6.510580848000245,0.3304029304029304,2.5586080586080584,2.289450549450549
6.514957542996854,2.0436630036630037,2.548937728937729,3.2838827838827838
6.516494876996148,2.0436630036630037,2.548937728937729,3.2838827838827838
6.52078248700127,2.0436630036630037,2.548937728937729,3.2838827838827838
6.522931564999453,1.5174358974358972,3.0534065934065935,0.44402930402930396
6.523698215998593,0.5842490842490843,2.561831501831502,1.8115750915750917
6.52587918399513,0.5842490842490843,2.561831501831502,1.8115750915750917
6.526160030000028,0.5842490842490843,2.561831501831502,1.8115750915750917
6.530633909998869,0.5842490842490843,2.561831501831502,1.8115750915750917
6.532118611998158,2.693992673992674,2.1024908424908424,1.5851282051282052
6.536386202002177,2.693992673992674,2.1024908424908424,1.5851282051282052
6.537909337996098,2.693992673992674,2.1024908424908424,1.5851282051282052
6.542689738002082,1.987252747252747,2.0944322344322344,1.016190476190476
6.5477150219958276,1.987252747252747,2.0944322344322344,1.016190476190476
6.551904979001847,1.987252747252747,2.0944322344322344,1.016190476190476
6.554722328997741,1.987252747252747,2.0944322344322344,1.016190476190476
6.558273538001231,1.987252747252747,2.0944322344322344,1.016190476190476
6.558440323999093,1.987252747252747,2.0944322344322344,1.016190476190476
6.563292248996731,1.987252747252747,2.0944322344322344,1.016190476190476
6.568186641998182,1.987252747252747,2.0944322344322344,1.016190476190476
6.5732209339985275,2.673040293040293,2.8873992673992674,2.565054945054945
6.577194915997097,2.673040293040293,2.8873992673992674,2.565054945054945
6.580917899998894,2.673040293040293,2.8873992673992674,2.565054945054945
6.585400612995727,2.673040293040293,2.8873992673992674,2.565054945054945
6.5864309949974995,2.673040293040293,2.8873992673992674,2.565054945054945
6.586730434995843,2.673040293040293,2.8873992673992674,2.565054945054945
6.592052107997006,2.673040293040293,2.8873992673992674,2.565054945054945
6.594332362001296,3.223443223443223,2.933333333333333,0.469010989010989
6.594462617998943,3.223443223443223,2.933333333333333,0.469010989010989
6.599679412000114,3.3,1.2506959706959706,2.7495970695970695
6.602057752999826,3.3,1.2506959706959706,2.7495970695970695
6.602267155998561,3.3,1.2506959706959706,2.7495970695970695
6.606809557997622,3.3,1.2506959706959706,2.7495970695970695
6.607715000995086,3.3,1.2506959706959706,2.7495970695970695
6.609279311996943,3.3,1.2506959706959706,2.7495970695970695
6.6129418650016305,3.3,1.2506959706959706,2.7495970695970695
6.617983053001808,3.3,1.2506959706959706,2.7495970695970695
6.621526192997408,3.3,1.3707692307692307,2.5465201465201464
6.621755497995764,3.3,1.3707692307692307,2.5465201465201464
6.626672464997682,3.3,1.3707692307692307,2.5465201465201464
6.6317736669952865,0.5592673992673992,1.523076923076923,0.19824175824175824
6.6366728590001,0.5592673992673992,1.523076923076923,0.19824175824175824
6.641604300995823,0.5592673992673992,1.523076923076923,0.19824175824175824
6.646190769999521,0.5592673992673992,1.523076923076923,0.19824175824175824
6.646459825002239,0.5592673992673992,1.523076923076923,0.19824175824175824
6.651099934999365,0.5592673992673992,1.523076923076923,0.19824175824175824
6.651345712001785,2.4635164835164836,2.0396336996336997,1.4392673992673992
6.656055489998835,2.4635164835164836,2.0396336996336997,1.4392673992673992
6.65639979000116,3.203296703296703,1.3175824175824176,3.0654945054945055
6.66116300199792,3.203296703296703,1.3175824175824176,3.0654945054945055
6.666760907995922,1.332087912087912,2.233040293040293,0.3231501831501831
6.667688905996329,0.36344322344322344,3.3,0.4657875457875458
6.668612002002192,0.36344322344322344,3.3,0.4657875457875458
6.6703813829954015,0.36344322344322344,3.3,0.4657875457875458
6.6734423599991715,0.36344322344322344,3.3,0.4657875457875458
6.675705176996416,0.36344322344322344,3.3,0.4657875457875458
6.676549718002207,0.36344322344322344,3.3,0.4657875457875458
6.678117597999517,0.36344322344322344,3.3,0.4657875457875458
6.682535367996024,1.6850549450549448,2.9615384615384617,0.2772161172161172
6.6835255269979825,1.6850549450549448,2.9615384615384617,0.2772161172161172
6.684377475001384,1.6850549450549448,2.9615384615384617,0.2772161172161172
6.68597545800003,1.6850549450549448,2.9615384615384617,0.2772161172161172
6.690720042999601,1.6850549450549448,2.9615384615384617,0.2772161172161172
6.696196464996319,1.6850549450549448,2.9615384615384617,0.2772161172161172
6.697215195999888,1.6850549450549448,2.9615384615384617,0.2772161172161172
6.698070375001407,1.6850549450549448,2.9615384615384617,0.2772161172161172
6.699708214000566,1.9848351648351645,1.3465934065934064,1.228131868131868
6.70347357999708,1.904249084249084,1.4328205128205127,0.7567032967032966
6.708023749997665,1.904249084249084,1.4328205128205127,0.7567032967032966
6.708851422001317,1.904249084249084,1.4328205128205127,0.7567032967032966
6.710450410995691,1.904249084249084,1.4328205128205127,0.7567032967032966
6.714158850001695,3.2798534798534797,1.6931135531135528,2.896263736263736
6.719659645001229,3.2798534798534797,1.6931135531135528,2.896263736263736
6.720556382999348,3.2798534798534797,1.6931135531135528,2.896263736263736
6.722057685001346,3.2798534798534797,1.6931135531135528,2.896263736263736
6.726992725998571,3.2798534798534797,1.6931135531135528,2.896263736263736
6.735605845002283,3.2798534798534797,1.6931135531135528,2.896263736263736
6.742746689997148,2.6005128205128205,0.7381684981684982,3.2403663003663
6.747702068001672,2.6005128205128205,0.7381684981684982,3.2403663003663
6.753266232997703,2.6005128205128205,0.7381684981684982,3.2403663003663
6.7535293260007165,2.6005128205128205,0.7381684981684982,3.2403663003663
6.761587111999688,2.6005128205128205,0.7381684981684982,3.2403663003663
6.767022321000695,2.0557509157509157,1.6576556776556775,1.3063003663003663
6.768524760998844,2.0557509157509157,1.6576556776556775,1.3063003663003663
6.7751022430020384,2.0557509157509157,1.6576556776556775,1.3063003663003663
6.780071075998421,3.3,0.7857142857142856,2.626300366300366
6.787227404995065,3.3,0.7857142857142856,2.626300366300366
6.794424050000089,0.9823443223443222,2.6794871794871793,2.0815384615384613
6.7984971510013565,0.9823443223443222,2.6794871794871793,2.0815384615384613
6.803452744999959,0.9823443223443222,2.6794871794871793,2.0815384615384613
6.807355999997526,0.9823443223443222,2.6794871794871793,2.0815384615384613
6.812659308998263,0.9823443223443222,2.6794871794871793,2.0815384615384613
6.8129794139968,1.8929670329670327,2.573919413919414,2.5481318681318683
6.822149637999246,1.8929670329670327,2.573919413919414,2.5481318681318683
6.828423626997392,1.8929670329670327,2.573919413919414,2.5481318681318683
6.833856325996749,1.8929670329670327,2.573919413919414,2.5481318681318683
6.835302070998296,1.8929670329670327,2.573919413919414,2.5481318681318683
6.84217862800142,1.8929670329670327,2.573919413919414,2.5481318681318683
6.848192767996807,1.8929670329670327,2.573919413919414,2.5481318681318683
6.85348053999769,1.8929670329670327,2.573919413919414,2.5481318681318683
6.854699969997455,1.8929670329670327,2.573919413919414,2.5481318681318683
6.854980677999265,1.8929670329670327,2.573919413919414,2.5481318681318683
6.863177947998338,1.8929670329670327,2.573919413919414,2.5481318681318683
6.869106525999086,1.8929670329670327,2.573919413919414,2.5481318681318683
6.876189880000311,1.8929670329670327,2.573919413919414,2.5481318681318683
6.881431918001908,1.8929670329670327,2.573919413919414,2.5481318681318683
6.884355276997667,1.8929670329670327,2.573919413919414,2.5481318681318683
6.886017511002137,1.8929670329670327,2.573919413919414,2.5481318681318683
6.890762447997986,1.8929670329670327,2.573919413919414,2.5481318681318683
