time,emg1,emg2,emg3
0.04605459600134054,0.3723076923076923,2.4860805860805857,1.4231501831501832
0.04637616399850231,1.1298168498168497,2.565860805860806,2.305567765567765
0.055443518998799846,1.1298168498168497,2.565860805860806,2.305567765567765
0.061364453002170194,1.1298168498168497,2.565860805860806,2.305567765567765
0.06579983900155639,1.0178021978021978,3.3,0.8187545787545787
0.06610152700159233,1.0178021978021978,3.3,0.8187545787545787
0.07218324599671178,1.0178021978021978,3.3,0.8187545787545787
0.0764098239960731,1.0178021978021978,3.3,0.8187545787545787
0.07740532999741845,3.0856410256410256,3.3,2.9663736263736262
0.07832702300220262,3.0856410256410256,3.3,2.9663736263736262
0.07929177199548576,3.0856410256410256,3.3,2.9663736263736262
0.08031628799653845,3.0856410256410256,3.3,2.9663736263736262
0.08065965300193056,3.0856410256410256,3.3,2.9663736263736262
0.08570994199544657,3.0856410256410256,3.3,2.9663736263736262
0.08969165999587858,1.9566300366300364,2.3458608058608057,1.4819780219780219
0.09298081699671457,1.9566300366300364,2.3458608058608057,1.4819780219780219
0.09336066000105347,1.9566300366300364,2.3458608058608057,1.4819780219780219
0.0988854960014578,1.9566300366300364,2.3458608058608057,1.4819780219780219
0.09917839700210607,1.9566300366300364,2.3458608058608057,1.4819780219780219
0.10394822600210318,1.9566300366300364,2.3458608058608057,1.4819780219780219
0.10406221899756929,1.9566300366300364,2.3458608058608057,1.4819780219780219
0.10937255199678475,1.9566300366300364,2.3458608058608057,1.4819780219780219
0.11234628999955021,1.9566300366300364,2.3458608058608057,1.4819780219780219
0.11465835099807009,1.9566300366300364,2.3458608058608057,1.4819780219780219
0.1148959299971466,1.9566300366300364,2.3458608058608057,1.4819780219780219
0.11931557199568488,1.9566300366300364,2.3458608058608057,1.4819780219780219
0.12159483599680243,1.9566300366300364,2.3458608058608057,1.4819780219780219
0.12192346600204473,1.9566300366300364,2.3458608058608057,1.4819780219780219
0.12636033500166377,1.9566300366300364,2.3458608058608057,1.4819780219780219
0.12787212299735984,1.9566300366300364,2.3458608058608057,1.4819780219780219
0.1315043579961639,1.9566300366300364,2.3458608058608057,1.4819780219780219
0.13161792799655814,1.9566300366300364,2.3458608058608057,1.4819780219780219
0.1361390539968852,1.9566300366300364,2.3458608058608057,1.4819780219780219
0.13707179600169184,1.9566300366300364,2.3458608058608057,1.4819780219780219
0.13862151200009976,1.9566300366300364,2.3458608058608057,1.4819780219780219
0.14309470800071722,1.9566300366300364,2.3458608058608057,1.4819780219780219
0.14395371499995235,1.9566300366300364,2.3458608058608057,1.4819780219780219
0.14552248200197937,1.9566300366300364,2.3458608058608057,1.4819780219780219
0.15031158499914454,1.9566300366300364,2.3458608058608057,1.4819780219780219
0.1505084890013677,1.9566300366300364,2.3458608058608057,1.4819780219780219
0.15770848499960266,1.9566300366300364,2.3458608058608057,1.4819780219780219
0.1621225740018417,1.9566300366300364,2.3458608058608057,1.4819780219780219
0.16375700399657944,1.157216117216117,3.3,0.9517216117216116
0.1674244469977566,1.157216117216117,3.3,0.9517216117216116
0.1726249400016968,1.157216117216117,3.3,0.9517216117216116
0.177291594001872,1.157216117216117,3.3,0.9517216117216116
0.1775718799981405,1.157216117216117,3.3,0.9517216117216116
0.18206153099890798,1.157216117216117,3.3,0.9517216117216116
0.1836061259964481,0.8397069597069596,3.3,1.8712087912087911
0.18722602500201901,0.8397069597069596,3.3,1.8712087912087911
0.18750804499723017,0.8397069597069596,3.3,1.8712087912087911
0.19225257899961434,0.8397069597069596,3.3,1.8712087912087911
0.19241722799779382,0.834065934065934,3.3,1.5947985347985347
0.1965279729993199,0.834065934065934,3.3,1.5947985347985347
0.1993365879970952,0.834065934065934,3.3,1.5947985347985347
0.20311635499820113,0.834065934065934,3.3,1.5947985347985347
0.20853228499618126,0.834065934065934,3.3,1.5947985347985347
0.21146649200090906,0.834065934065934,3.3,1.5947985347985347
0.2135333019978134,0.834065934065934,3.3,1.5947985347985347
0.2139409160008654,0.834065934065934,3.3,1.5947985347985347
0.22005115499632666,0.834065934065934,3.3,1.5947985347985347
0.2238283490005415,0.834065934065934,3.3,1.5947985347985347
0.23451321000175085,0.834065934065934,3.3,1.5947985347985347
0.24590721300046425,0.834065934065934,3.3,1.5947985347985347
0.25474361200031126,1.2627838827838826,2.840659340659341,0.4319413919413919
0.2594250199981616,2.6714285714285713,2.6956043956043954,1.5206593406593405
0.2595807120014797,2.6714285714285713,2.6956043956043954,1.5206593406593405
0.26475949499581475,2.6714285714285713,2.6956043956043954,1.5206593406593405
0.2670393980006338,1.3772161172161173,2.905128205128205,0.585054945054945
0.26791266199870734,1.3772161172161173,2.905128205128205,0.585054945054945
0.2698004209960345,1.3772161172161173,2.905128205128205,0.585054945054945
0.27136279799742624,1.3772161172161173,2.905128205128205,0.585054945054945
0.2789190459952806,1.3772161172161173,2.905128205128205,0.585054945054945
0.28252232800150523,2.6585347985347987,1.5802930402930402,1.502930402930403
0.2826769089951995,2.6585347985347987,1.5802930402930402,1.502930402930403
0.28739704599865945,2.6585347985347987,1.5802930402930402,1.502930402930403
0.28759805399749894,0.697069597069597,2.432087912087912,0.38358974358974357
0.29446674999780953,0.697069597069597,2.432087912087912,0.38358974358974357
0.2977580789956846,0.697069597069597,2.432087912087912,0.38358974358974357
0.29866358100116486,0.697069597069597,2.432087912087912,0.38358974358974357
0.3003000550015713,0.697069597069597,2.432087912087912,0.38358974358974357
0.304761209001299,0.697069597069597,2.432087912087912,0.38358974358974357
0.3056640989962034,0.697069597069597,2.432087912087912,0.38358974358974357
0.30744218299514614,0.697069597069597,2.432087912087912,0.38358974358974357
0.3112238169996999,0.697069597069597,2.432087912087912,0.38358974358974357
0.31613360199844465,0.697069597069597,2.432087912087912,0.38358974358974357
0.3207796810020227,0.697069597069597,2.432087912087912,0.38358974358974357
0.320949576998828,0.697069597069597,2.432087912087912,0.38358974358974357
0.3274416249987553,0.697069597069597,2.432087912087912,0.38358974358974357
0.33076143699872773,0.697069597069597,2.432087912087912,0.38358974358974357
0.3316282419982599,0.697069597069597,2.432087912087912,0.38358974358974357
0.3325602729964885,0.697069597069597,2.432087912087912,0.38358974358974357
0.3341988489992218,0.697069597069597,2.432087912087912,0.38358974358974357
0.33859191100054886,0.697069597069597,2.432087912087912,0.38358974358974357
0.3394654340008856,0.697069597069597,2.432087912087912,0.38358974358974357
0.3424913420021767,0.697069597069597,2.432087912087912,0.38358974358974357
0.34468045699759386,0.697069597069597,2.432087912087912,0.38358974358974357
0.34500683999795,0.697069597069597,2.432087912087912,0.38358974358974357
0.35061082799802534,0.697069597069597,2.432087912087912,0.38358974358974357
0.35226489399792627,0.697069597069597,2.432087912087912,0.38358974358974357
0.3561529069993412,0.697069597069597,2.432087912087912,0.38358974358974357
0.3630617210001219,0.697069597069597,2.432087912087912,0.38358974358974357
0.3672469640005147,2.6069597069597066,3.3,1.4827838827838828
0.36814516199956415,2.90029304029304,2.577948717948718,2.5706959706959704
0.369808789997478,2.90029304029304,2.577948717948718,2.5706959706959704
0.3729519219996291,2.90029304029304,2.577948717948718,2.5706959706959704
0.37620306899771094,2.90029304029304,2.577948717948718,2.5706959706959704
0.3765316270000767,2.90029304029304,2.577948717948718,2.5706959706959704
0.38303286700102035,2.90029304029304,2.577948717948718,2.5706959706959704
0.38692116099991836,2.90029304029304,2.577948717948718,2.5706959706959704
0.39112882699555485,2.90029304029304,2.577948717948718,2.5706959706959704
0.3954437849970418,2.90029304029304,2.577948717948718,2.5706959706959704
0.395795457996428,3.3,1.6109157509157508,1.523076923076923
0.4017366999978549,3.3,1.6109157509157508,1.523076923076923
0.40560317799827317,3.3,0.4891575091575091,1.1967032967032967
0.41335391999746207,0.9436630036630036,2.5747252747252745,2.92043956043956
0.41832392400101526,2.8873992673992674,2.771355311355311,1.0331135531135531
0.4220098619989585,2.8873992673992674,2.771355311355311,1.0331135531135531
0.42777689400099916,2.8873992673992674,2.771355311355311,1.0331135531135531
0.42797174400038784,2.0621978021978022,2.5747252747252745,2.553772893772894
0.43281513699912466,2.0621978021978022,2.5747252747252745,2.553772893772894
0.43753805999585893,2.0621978021978022,2.5747252747252745,2.553772893772894
0.4377150950022042,2.0621978021978022,2.5747252747252745,2.553772893772894
0.44290490099956514,2.0621978021978022,2.5747252747252745,2.553772893772894
0.4467356259992812,2.3756776556776553,2.8197069597069593,1.5093772893772892
0.4498991379950894,2.3756776556776553,2.8197069597069593,1.5093772893772892
0.4514995209974586,2.3756776556776553,2.8197069597069593,1.5093772893772892
0.45536572099808836,2.3756776556776553,2.8197069597069593,1.5093772893772892
0.46315294999658363,2.3756776556776553,2.8197069597069593,1.5093772893772892
0.4671896529980586,2.3756776556776553,2.8197069597069593,1.5093772893772892
0.47103117300139274,1.1725274725274726,2.5747252747252745,3.3
0.4764780059995246,1.1725274725274726,2.5747252747252745,3.3
0.47778745299729053,1.1725274725274726,2.5747252747252745,3.3
0.4840917269975762,3.3,1.5746520146520147,0.7575091575091575
0.4880158529995242,0.8751648351648351,3.3,1.7454945054945055
0.4938624999995227,0.8751648351648351,3.3,1.7454945054945055
0.49970631999894977,0.8751648351648351,3.3,1.7454945054945055
0.5044911439981661,0.8751648351648351,3.3,1.7454945054945055
0.504601945001923,1.4578021978021978,2.673040293040293,0.27238095238095233
0.5108200859976932,1.4578021978021978,2.673040293040293,0.27238095238095233
0.514477940996585,1.4578021978021978,2.673040293040293,0.27238095238095233
0.5146043630011263,2.6738461538461538,1.2353846153846153,1.5907692307692307
0.5195887669979129,2.6738461538461538,1.2353846153846153,1.5907692307692307
0.5250742139978684,3.116263736263736,3.3,2.7939194139194137
0.5253578900010325,2.357142857142857,2.581172161172161,2.5634432234432234
0.5314268759975675,2.357142857142857,2.581172161172161,2.5634432234432234
0.5354174460007926,2.357142857142857,2.581172161172161,2.5634432234432234
0.53935372599517,2.1798534798534797,2.581978021978022,2.5747252747252745
0.5450766669964651,2.1798534798534797,2.581978021978022,2.5747252747252745
0.5508167039952241,2.1798534798534797,2.581978021978022,2.5747252747252745
0.5564869079971686,2.1798534798534797,2.581978021978022,2.5747252747252745
0.558224293999956,2.1798534798534797,2.581978021978022,2.5747252747252745
0.5617114589986159,2.1798534798534797,2.581978021978022,2.5747252747252745
0.5666657170004328,2.1798534798534797,2.581978021978022,2.5747252747252745
0.5713975499966182,2.1798534798534797,2.581978021978022,2.5747252747252745
0.5715222770013497,2.6633699633699632,2.033186813186813,2.5360439560439563
0.5775856330001261,2.6633699633699632,2.033186813186813,2.5360439560439563
0.5815161999998963,2.6633699633699632,2.033186813186813,2.5360439560439563
0.5847512959953747,2.6633699633699632,2.033186813186813,2.5360439560439563
0.5863944869997795,2.6633699633699632,2.033186813186813,2.5360439560439563
0.5903081360011129,2.6633699633699632,2.033186813186813,2.5360439560439563
0.5964572969969595,2.6633699633699632,2.033186813186813,2.5360439560439563
0.5996817729974282,2.6633699633699632,2.033186813186813,2.5360439560439563
0.6006346759968437,2.6633699633699632,2.033186813186813,2.5360439560439563
0.6023421619975124,2.6633699633699632,2.033186813186813,2.5360439560439563
0.6062917399976868,2.6633699633699632,2.033186813186813,2.5360439560439563
0.6122070900019025,2.6633699633699632,2.033186813186813,2.5360439560439563
0.6159661659985431,2.6633699633699632,2.033186813186813,2.5360439560439563
0.6204622500008554,2.6633699633699632,2.033186813186813,2.5360439560439563
0.6207463739992818,2.6633699633699632,2.033186813186813,2.5360439560439563
0.6267398499985575,2.6633699633699632,2.033186813186813,2.5360439560439563
0.6337392229979741,2.6633699633699632,2.033186813186813,2.5360439560439563
0.6397485950001283,2.6633699633699632,2.033186813186813,2.5360439560439563
0.6454076230002102,3.269377289377289,0.6350183150183151,0.9339926739926739
0.6533107189970906,3.269377289377289,0.6350183150183151,0.9339926739926739
0.6611873290021322,0.8227838827838827,3.3,2.1556776556776556
0.6647913619963219,0.90014652014652,3.3,1.145128205128205
0.6701168090003193,0.90014652014652,3.3,1.145128205128205
0.6724322599984589,0.49238095238095236,2.067032967032967,1.5214652014652015
0.6726121120009338,2.659340659340659,2.071868131868132,2.3079853479853476
0.6804807489970699,2.659340659340659,2.071868131868132,2.3079853479853476
0.6865019149990985,2.659340659340659,2.071868131868132,2.3079853479853476
0.6939011309950729,2.659340659340659,2.071868131868132,2.3079853479853476
0.7000850409967825,2.659340659340659,2.071868131868132,2.3079853479853476
0.7062585870007752,2.659340659340659,2.071868131868132,2.3079853479853476
0.7101332710008137,2.659340659340659,2.071868131868132,2.3079853479853476
0.7137258860020665,2.659340659340659,2.071868131868132,2.3079853479853476
0.7190748099965276,2.6633699633699632,2.2475457875457874,2.299120879120879
0.7213629460020456,2.4747985347985346,3.2548717948717947,0.49399267399267394
0.7215932089966373,1.7027838827838828,3.3,1.3764102564102565
0.7277477589959744,1.7027838827838828,3.3,1.3764102564102565
0.7319268610008294,1.7027838827838828,3.3,1.3764102564102565
0.7337181559996679,2.1186080586080585,2.54974358974359,3.3
0.7360960070000147,2.1186080586080585,2.54974358974359,3.3
0.7363516490004258,2.1186080586080585,2.54974358974359,3.3
0.7419558740002685,2.1186080586080585,2.54974358974359,3.3
0.7422232249955414,2.1186080586080585,2.54974358974359,3.3
0.7480062009999529,2.1186080586080585,2.54974358974359,3.3
0.7481717939954251,2.1186080586080585,2.54974358974359,3.3
0.7527832229970954,2.1186080586080585,2.54974358974359,3.3
0.7531201909951051,0.9065934065934066,3.3,1.6463736263736264
0.7588435619982192,0.9065934065934066,3.3,1.6463736263736264
0.7679296139976941,0.9065934065934066,3.3,1.6463736263736264
0.7741162809979869,0.9065934065934066,3.3,1.6463736263736264
0.7825033720000647,2.6714285714285713,2.789084249084249,1.3038827838827838
0.7884945469995728,2.6714285714285713,2.789084249084249,1.3038827838827838
0.7960854330012808,2.6714285714285713,2.789084249084249,1.3038827838827838
0.8002337279976928,2.6714285714285713,2.789084249084249,1.3038827838827838
0.8019074839976383,2.6714285714285713,2.789084249084249,1.3038827838827838
0.8059462769961101,2.6714285714285713,2.789084249084249,1.3038827838827838
0.8095235110013164,1.2643956043956044,2.9454212454212456,1.212820512820513
0.8177263859979575,1.2643956043956044,2.9454212454212456,1.212820512820513
0.8243318730019382,1.2643956043956044,2.9454212454212456,1.212820512820513
0.8322929060013848,1.2643956043956044,2.9454212454212456,1.212820512820513
0.8378970909980126,1.0943589743589743,2.577948717948718,3.116263736263736
0.8381265239950153,1.0943589743589743,2.577948717948718,3.116263736263736
0.8478305759999785,1.0943589743589743,2.577948717948718,3.116263736263736
0.8541925440003979,1.0943589743589743,2.577948717948718,3.116263736263736
0.8581944940015092,1.0943589743589743,2.577948717948718,3.116263736263736
0.8626055179993273,1.0943589743589743,2.577948717948718,3.116263736263736
0.8628345139950397,1.0943589743589743,2.577948717948718,3.116263736263736
0.8674911400012206,1.0943589743589743,2.577948717948718,3.116263736263736
0.8677147310008877,2.1709890109890106,2.581978021978022,2.5602197802197804
0.8724871559970779,2.1709890109890106,2.581978021978022,2.5602197802197804
0.87998654400144,2.1709890109890106,2.581978021978022,2.5602197802197804
0.88473647399951,1.5883516483516482,3.3,1.2877655677655677
0.8848700300004566,1.5883516483516482,3.3,1.2877655677655677
0.8897817359975306,1.5883516483516482,3.3,1.2877655677655677
0.9007098779984517,1.5883516483516482,3.3,1.2877655677655677
0.9069300859991927,1.5883516483516482,3.3,1.2877655677655677
0.9125886100009666,1.5883516483516482,3.3,1.2877655677655677
0.9127070329996059,1.5883516483516482,3.3,1.2877655677655677
0.9173473219998414,1.5883516483516482,3.3,1.2877655677655677
0.9175279289993341,3.1968498168498165,3.3,2.1629304029304026
0.9224431319962605,2.9986080586080583,2.784249084249084,0.4424175824175824
0.9303633210001863,1.0298901098901099,2.880952380952381,0.41018315018315016
0.9349049840020598,0.5407326007326007,1.8204395604395605,1.1830036630036629
0.9352374890004285,0.5407326007326007,1.8204395604395605,1.1830036630036629
0.9405896019961801,0.5407326007326007,1.8204395604395605,1.1830036630036629
0.9442786610015901,0.5407326007326007,1.8204395604395605,1.1830036630036629
0.9515045969965286,0.5407326007326007,1.8204395604395605,1.1830036630036629
0.9553258219966665,0.5407326007326007,1.8204395604395605,1.1830036630036629
0.9616177429998061,0.5407326007326007,1.8204395604395605,1.1830036630036629
0.9648026669965475,3.0936996336996336,3.3,2.125054945054945
0.9665106230022502,3.0936996336996336,3.3,2.125054945054945
0.9703707000007853,3.0936996336996336,3.3,2.125054945054945
0.9760141099977773,3.0936996336996336,3.3,2.125054945054945
0.9762133519980125,3.0936996336996336,3.3,2.125054945054945
0.9824491039980785,3.0936996336996336,3.3,2.125054945054945
0.9863698729968746,2.1363369963369965,3.3,1.17010989010989
0.9902079379971838,2.1363369963369965,3.3,1.17010989010989
0.9973243009953876,2.1363369963369965,3.3,1.17010989010989
1.0010793449982884,2.1363369963369965,3.3,1.17010989010989
1.0012174000003142,2.1363369963369965,3.3,1.17010989010989
1.0056877819952206,2.1363369963369965,3.3,1.17010989010989
1.0065416139987065,2.1363369963369965,3.3,1.17010989010989
1.0090655539970612,2.1363369963369965,3.3,1.17010989010989
1.0172119490016485,2.1363369963369965,3.3,1.17010989010989
1.0225792049968732,2.1363369963369965,3.3,1.17010989010989
1.0264451280017965,2.1363369963369965,3.3,1.17010989010989
1.0304962230002275,2.1363369963369965,3.3,1.17010989010989
1.0328553919971455,2.1363369963369965,3.3,1.17010989010989
1.0331682399992133,2.1363369963369965,3.3,1.17010989010989
1.0376437199956854,2.5908424908424905,2.4667399267399266,0.7252747252747253
1.038561020999623,2.8873992673992674,2.5876190476190475,2.5586080586080584
1.040144874001271,2.8873992673992674,2.5876190476190475,2.5586080586080584
1.0471366259953356,2.8873992673992674,2.5876190476190475,2.5586080586080584
1.0511132289975649,2.8873992673992674,2.5876190476190475,2.5586080586080584
1.0548505429978832,2.8873992673992674,2.5876190476190475,2.5586080586080584
1.0615931569991517,2.8873992673992674,2.5876190476190475,2.5586080586080584
1.0650710959962453,2.8873992673992674,2.5876190476190475,2.5586080586080584
1.0653804409957957,2.8873992673992674,2.5876190476190475,2.5586080586080584
1.0699517399989418,2.8873992673992674,2.5876190476190475,2.5586080586080584
1.070217454995145,2.8873992673992674,2.5876190476190475,2.5586080586080584
1.0772337439993862,2.8873992673992674,2.5876190476190475,2.5586080586080584
1.0804544709972106,2.8873992673992674,2.5876190476190475,2.5586080586080584
1.0820320540005923,2.8873992673992674,2.5876190476190475,2.5586080586080584
1.0863308199986932,1.4102564102564101,2.492527472527472,0.7478388278388278
1.0879532489998383,1.4102564102564101,2.492527472527472,0.7478388278388278
1.0922498799991445,0.6559706959706959,2.0823443223443223,0.846153846153846
1.0944351910002297,2.6682051282051282,2.324908424908425,1.5174358974358972
1.0947504389987444,2.6682051282051282,2.324908424908425,1.5174358974358972
1.0995825459976913,2.6682051282051282,2.324908424908425,1.5174358974358972
1.104849565999757,2.6682051282051282,2.324908424908425,1.5174358974358972
1.1073131059965817,2.6682051282051282,2.324908424908425,1.5174358974358972
1.1132576669988339,2.6682051282051282,2.324908424908425,1.5174358974358972
1.1176398280003923,2.6682051282051282,2.324908424908425,1.5174358974358972
1.119878894998692,2.6682051282051282,2.324908424908425,1.5174358974358972
1.1202172129997052,1.9654945054945054,3.3,1.1032234432234431
1.1245511849992909,1.9654945054945054,3.3,1.1032234432234431
1.126196812998387,1.9654945054945054,3.3,1.1032234432234431
1.1304669480014127,1.9654945054945054,3.3,1.1032234432234431
1.1329643610006315,0.5439560439560439,2.5030036630036627,1.3224175824175823
1.1381465649974416,0.5439560439560439,2.5030036630036627,1.3224175824175823
1.1413519729976542,0.5439560439560439,2.5030036630036627,1.3224175824175823
1.1422782570007257,0.5439560439560439,2.5030036630036627,1.3224175824175823
1.1437300870020408,0.5439560439560439,2.5030036630036627,1.3224175824175823
1.1477981720017851,1.145128205128205,2.8108424908424907,1.0532600732600732
1.150607992996811,1.145128205128205,2.8108424908424907,1.0532600732600732
1.1540818110006512,1.145128205128205,2.8108424908424907,1.0532600732600732
1.1543809819995658,1.145128205128205,2.8108424908424907,1.0532600732600732
1.1600188609954785,1.145128205128205,2.8108424908424907,1.0532600732600732
1.1603588049983955,1.145128205128205,2.8108424908424907,1.0532600732600732
1.1669267670004047,1.145128205128205,2.8108424908424907,1.0532600732600732
1.1715617000008933,1.145128205128205,2.8108424908424907,1.0532600732600732
1.1717131409968715,1.145128205128205,2.8108424908424907,1.0532600732600732
1.1788148949999595,1.145128205128205,2.8108424908424907,1.0532600732600732
1.182574405997002,2.9808791208791208,2.585201465201465,2.56989010989011
1.188544978002028,1.5222710622710622,3.3,1.0742124542124543
1.1945489869976882,1.5222710622710622,3.3,1.0742124542124543
1.1985075779957697,1.5222710622710622,3.3,1.0742124542124543
1.2015236809966154,1.5222710622710622,3.3,1.0742124542124543
1.2040157449955586,1.5222710622710622,3.3,1.0742124542124543
1.204194321995601,1.5222710622710622,3.3,1.0742124542124543
1.2092694519960787,1.5222710622710622,3.3,1.0742124542124543
1.2122698149978532,1.5222710622710622,3.3,1.0742124542124543
1.214712665998377,1.5222710622710622,3.3,1.0742124542124543
1.2148239289963385,1.5222710622710622,3.3,1.0742124542124543
1.2192769760004012,1.5222710622710622,3.3,1.0742124542124543
1.2208766940020723,2.449010989010989,3.1565567765567764,0.8042490842490841
1.2247198479963117,2.449010989010989,3.1565567765567764,0.8042490842490841
1.2284672589958063,2.449010989010989,3.1565567765567764,0.8042490842490841
1.23380909399566,2.449010989010989,3.1565567765567764,0.8042490842490841
1.236037470996962,2.449010989010989,3.1565567765567764,0.8042490842490841
1.2369245020017843,2.449010989010989,3.1565567765567764,0.8042490842490841
1.237852541002212,2.449010989010989,3.1565567765567764,0.8042490842490841
1.2393072529957863,2.449010989010989,3.1565567765567764,0.8042490842490841
1.243530996995105,2.449010989010989,3.1565567765567764,0.8042490842490841
1.2462814989994513,2.449010989010989,3.1565567765567764,0.8042490842490841
1.2497443309985101,2.449010989010989,3.1565567765567764,0.8042490842490841
1.250066777000029,2.449010989010989,3.1565567765567764,0.8042490842490841
1.2548038870008895,2.449010989010989,3.1565567765567764,0.8042490842490841
1.2549461710004834,2.449010989010989,3.1565567765567764,0.8042490842490841
1.2592022210010327,2.449010989010989,3.1565567765567764,0.8042490842490841
1.2613280689984094,2.449010989010989,3.1565567765567764,0.8042490842490841
1.2627919890001067,2.449010989010989,3.1565567765567764,0.8042490842490841
1.266904231000808,2.449010989010989,3.1565567765567764,0.8042490842490841
1.2703164080012357,2.449010989010989,3.1565567765567764,0.8042490842490841
1.2706024889994296,2.449010989010989,3.1565567765567764,0.8042490842490841
1.2753726549999556,2.655311355311355,2.037216117216117,2.6109890109890106
1.2755353339962312,2.655311355311355,2.037216117216117,2.6109890109890106
1.2806076080014464,2.655311355311355,2.037216117216117,2.6109890109890106
1.284495797001,2.655311355311355,2.037216117216117,2.6109890109890106
1.2876184549968457,2.655311355311355,2.037216117216117,2.6109890109890106
1.2892025179971824,2.655311355311355,2.037216117216117,2.6109890109890106
1.2938456629999564,2.655311355311355,2.037216117216117,2.6109890109890106
1.2939827989976038,2.4941391941391937,1.9977289377289376,0.9597802197802198
1.2986987639960716,2.4941391941391937,1.9977289377289376,0.9597802197802198
1.2989455279966933,2.4941391941391937,1.9977289377289376,0.9597802197802198
1.3035191649978515,2.4941391941391937,1.9977289377289376,0.9597802197802198
1.3043176249993849,1.3336996336996336,2.3200732600732596,0.5842490842490843
1.306497566998587,1.3336996336996336,2.3200732600732596,0.5842490842490843
1.306766294001136,1.3336996336996336,2.3200732600732596,0.5842490842490843
1.311820226997952,1.3336996336996336,2.3200732600732596,0.5842490842490843
1.3156247939987225,1.3336996336996336,2.3200732600732596,0.5842490842490843
1.3200981659974786,3.3,1.6979487179487176,1.3514285714285714
1.3215964379996876,3.3,1.6979487179487176,1.3514285714285714
1.3258444719976978,3.3,1.6979487179487176,1.3514285714285714
1.3274102470022626,1.7656410256410255,2.8293772893772893,1.3683516483516485
1.3310274059986114,1.7656410256410255,2.8293772893772893,1.3683516483516485
1.3311666959998547,0.9573626373626374,3.3,1.834945054945055
1.3355414229954476,0.9573626373626374,3.3,1.834945054945055
1.3372067140007857,0.9573626373626374,3.3,1.834945054945055
1.3408049099962227,0.9573626373626374,3.3,1.834945054945055
1.3461527629988268,0.9573626373626374,3.3,1.834945054945055
1.3484797060009441,0.9573626373626374,3.3,1.834945054945055
1.348645079000562,0.9573626373626374,3.3,1.834945054945055
1.3530740479982342,0.9573626373626374,3.3,1.834945054945055
1.3546535770001356,0.9573626373626374,3.3,1.834945054945055
1.359110197998234,2.1669597069597066,2.581978021978022,2.5602197802197804
1.360101582002244,2.1669597069597066,2.581978021978022,2.5602197802197804
1.360907894995762,2.1669597069597066,2.581978021978022,2.5602197802197804
1.362417443000595,2.1669597069597066,2.581978021978022,2.5602197802197804
1.367082060998655,2.1669597069597066,2.581978021978022,2.5602197802197804
1.36721535599645,2.1669597069597066,2.581978021978022,2.5602197802197804
1.371630504996574,2.1669597069597066,2.581978021978022,2.5602197802197804
1.3733883039967623,2.1669597069597066,2.581978021978022,2.5602197802197804
1.3764150679999148,2.1669597069597066,2.581978021978022,2.5602197802197804
1.3786739520000992,2.1669597069597066,2.581978021978022,2.5602197802197804
1.3789463079956477,2.1669597069597066,2.581978021978022,2.5602197802197804
1.3835984830002417,2.1669597069597066,2.581978021978022,2.5602197802197804
1.3838886189987534,2.1669597069597066,2.581978021978022,2.5602197802197804
1.388306125998497,2.1669597069597066,2.581978021978022,2.5602197802197804
1.390502590998949,2.1669597069597066,2.581978021978022,2.5602197802197804
1.3907726739998907,2.1669597069597066,2.581978021978022,2.5602197802197804
1.3951422399986768,2.1669597069597066,2.581978021978022,2.5602197802197804
1.3982131609955104,2.5755311355311354,2.349084249084249,0.6293772893772893
1.4010997000004863,2.5755311355311354,2.349084249084249,0.6293772893772893
1.4041760210020584,2.5755311355311354,2.349084249084249,0.6293772893772893
1.4065206949962885,2.5755311355311354,2.349084249084249,0.6293772893772893
1.4067874669999583,2.5755311355311354,2.349084249084249,0.6293772893772893
1.4118064110007253,2.5755311355311354,2.349084249084249,0.6293772893772893
1.4163304729954689,3.3,1.2523076923076921,0.9750915750915751
1.416689794001286,3.3,1.2523076923076921,0.9750915750915751
1.421191096000257,3.2145787545787545,0.42952380952380953,0.8832234432234431
1.421507646999089,3.0727472527472526,2.1049084249084244,0.17003663003663003
1.4267118099960499,1.494871794871795,2.274945054945055,0.5947252747252747
1.4298406210000394,1.7503296703296702,2.565054945054945,1.2555311355311354
1.431371250997472,1.7503296703296702,2.565054945054945,1.2555311355311354
1.435717066997313,1.7503296703296702,2.565054945054945,1.2555311355311354
1.4380676349974237,1.7503296703296702,2.565054945054945,1.2555311355311354
1.43824182300159,1.7503296703296702,2.565054945054945,1.2555311355311354
1.4427088769953116,1.7503296703296702,2.565054945054945,1.2555311355311354
1.4442731910021394,1.7503296703296702,2.565054945054945,1.2555311355311354
1.4480957119958475,1.7503296703296702,2.565054945054945,1.2555311355311354
1.4525412529983441,0.9017582417582416,3.3,1.6778021978021975
1.4541392819955945,0.9017582417582416,3.3,1.6778021978021975
1.4578933699958725,0.9017582417582416,3.3,1.6778021978021975
1.4622237939984188,0.9017582417582416,3.3,1.6778021978021975
1.4639127369955531,0.9017582417582416,3.3,1.6778021978021975
1.4668426179996459,1.2095970695970695,2.4006593406593404,0.8808058608058608
1.4698930029990152,1.2095970695970695,2.4006593406593404,0.8808058608058608
1.4728999090002617,0.9259340659340659,3.1259340659340658,1.3151648351648353
1.4752163219964132,2.61018315018315,1.9082783882783882,0.6567765567765567
1.475484383001458,2.7326739926739925,2.339413919413919,0.614065934065934
1.4807916919962736,2.7326739926739925,2.339413919413919,0.614065934065934
1.4831831080009579,2.581172161172161,3.0856410256410256,0.9750915750915751
1.483329271999537,2.581172161172161,3.0856410256410256,0.9750915750915751
1.4878624069970101,2.581172161172161,3.0856410256410256,0.9750915750915751
1.4882172479992732,2.581172161172161,3.0856410256410256,0.9750915750915751
1.4925755090007442,2.581172161172161,3.0856410256410256,0.9750915750915751
1.4942950909971842,2.6746520146520147,1.8123809523809524,1.775311355311355
1.4980442890009726,2.6746520146520147,1.8123809523809524,1.775311355311355
1.5023809490012354,2.6746520146520147,1.8123809523809524,1.775311355311355
1.5040736219962128,1.4416849816849817,2.378095238095238,0.664029304029304
1.5071150049989228,2.2846153846153845,2.3297435897435896,0.5616849816849817
1.5094905590012786,2.2846153846153845,2.3297435897435896,0.5616849816849817
1.5096869580011116,2.2846153846153845,2.3297435897435896,0.5616849816849817
1.5142073149982025,2.2846153846153845,2.3297435897435896,0.5616849816849817
1.5157098609997774,3.3,1.5802930402930402,1.0903296703296703
1.520095579995541,3.3,1.5802930402930402,1.0903296703296703
1.5209503910009516,2.618241758241758,3.008278388278388,0.772014652014652
1.5225556489967857,2.618241758241758,3.008278388278388,0.772014652014652
1.5262753799979691,1.4304029304029304,2.3418315018315017,0.6672527472527472
1.5264357299965923,1.4304029304029304,2.3418315018315017,0.6672527472527472
1.5308119670007727,1.4304029304029304,2.3418315018315017,0.6672527472527472
1.5323317910006153,1.4304029304029304,2.3418315018315017,0.6672527472527472
1.536598970000341,1.4304029304029304,2.3418315018315017,0.6672527472527472
1.5381693939998513,1.4304029304029304,2.3418315018315017,0.6672527472527472
1.5426950019973447,1.4304029304029304,2.3418315018315017,0.6672527472527472
1.542989977999241,1.4304029304029304,2.3418315018315017,0.6672527472527472
1.54830164899613,1.4304029304029304,2.3418315018315017,0.6672527472527472
1.5520349079961306,1.4304029304029304,2.3418315018315017,0.6672527472527472
1.5567082449997542,1.4304029304029304,2.3418315018315017,0.6672527472527472
1.5569469010006287,1.4304029304029304,2.3418315018315017,0.6672527472527472
1.561535011001979,1.4304029304029304,2.3418315018315017,0.6672527472527472
1.5618422499974258,1.4304029304029304,2.3418315018315017,0.6672527472527472
1.5672779609958525,1.4304029304029304,2.3418315018315017,0.6672527472527472
1.5687610749955638,1.7068131868131868,2.9607326007326007,1.2490842490842489
1.5730636279986356,1.7068131868131868,2.9607326007326007,1.2490842490842489
1.5746348140019109,1.7068131868131868,2.9607326007326007,1.2490842490842489
1.578906131995609,1.7068131868131868,2.9607326007326007,1.2490842490842489
1.5804677069972968,1.7068131868131868,2.9607326007326007,1.2490842490842489
1.5848443110007793,1.7068131868131868,2.9607326007326007,1.2490842490842489
1.5857572730019456,2.5030036630036627,3.2629304029304027,0.954945054945055
1.5872916669977712,2.5030036630036627,3.2629304029304027,0.954945054945055
1.5916086189972702,2.5030036630036627,3.2629304029304027,0.954945054945055
1.593345704000967,2.5030036630036627,3.2629304029304027,0.954945054945055
1.5963424610017682,2.5030036630036627,3.2629304029304027,0.954945054945055
1.5993009349986096,2.5030036630036627,3.2629304029304027,0.954945054945055
1.6023449770000298,2.5030036630036627,3.2629304029304027,0.954945054945055
1.6040677900018636,2.5030036630036627,3.2629304029304027,0.954945054945055
1.6071685329952743,2.5030036630036627,3.2629304029304027,0.954945054945055
1.6095201509961043,2.5030036630036627,3.2629304029304027,0.954945054945055
1.609699634995195,2.5030036630036627,3.2629304029304027,0.954945054945055
1.6142133569956059,2.5030036630036627,3.2629304029304027,0.954945054945055
1.6150741269957507,2.5030036630036627,3.2629304029304027,0.954945054945055
1.6168172559991945,2.5030036630036627,3.2629304029304027,0.954945054945055
1.6197705039958237,2.613406593406593,2.5521611721611723,2.6069597069597066
1.622053708997555,3.2226373626373626,2.253186813186813,0.31750915750915754
1.6230257029965287,3.2226373626373626,2.253186813186813,0.31750915750915754
1.6239096729987068,3.2226373626373626,2.253186813186813,0.31750915750915754
1.6253979359971709,3.2226373626373626,2.253186813186813,0.31750915750915754
1.6298814269975992,3.2226373626373626,2.253186813186813,0.31750915750915754
1.6307097309982055,3.2226373626373626,2.253186813186813,0.31750915750915754
1.6322748539969325,3.2226373626373626,2.253186813186813,0.31750915750915754
1.6367010929971002,3.2226373626373626,2.253186813186813,0.31750915750915754
1.6375657339958707,3.2226373626373626,2.253186813186813,0.31750915750915754
1.6399366339974222,3.2226373626373626,2.253186813186813,0.31750915750915754
1.6454304629951366,3.2226373626373626,2.253186813186813,0.31750915750915754
1.6477607359993272,3.2226373626373626,2.253186813186813,0.31750915750915754
1.6479916809985298,3.2226373626373626,2.253186813186813,0.31750915750915754
1.65315032700164,3.2226373626373626,2.253186813186813,0.31750915750915754
1.6577602159959497,3.2226373626373626,2.253186813186813,0.31750915750915754
1.6579004839950358,3.2226373626373626,3.0654945054945055,1.1088644688644689
1.66274772399629,3.2226373626373626,3.0654945054945055,1.1088644688644689
1.6681431799952406,3.2226373626373626,3.0654945054945055,1.1088644688644689
1.6698278420008137,3.2226373626373626,3.0654945054945055,1.1088644688644689
1.6729629459950957,3.2226373626373626,3.0654945054945055,1.1088644688644689
1.6753718379986822,3.2226373626373626,3.0654945054945055,1.1088644688644689
1.6755382799965446,3.2226373626373626,3.0654945054945055,1.1088644688644689
1.6802440969986492,3.2226373626373626,3.0654945054945055,1.1088644688644689
1.6804647159951855,2.6778754578754578,2.789084249084249,0.5391208791208791
1.684981564001646,2.6778754578754578,2.789084249084249,0.5391208791208791
1.6853253890003543,2.6778754578754578,2.789084249084249,0.5391208791208791
1.6904632020014105,2.6778754578754578,2.789084249084249,0.5391208791208791
1.694154589997197,0.32153846153846155,1.3949450549450548,0.10476190476190475
1.6994440509952256,0.32153846153846155,1.3949450549450548,0.10476190476190475
1.7025442180020036,0.32153846153846155,1.3949450549450548,0.10476190476190475
1.704890537999745,0.32153846153846155,1.3949450549450548,0.10476190476190475
1.7051525079950807,0.32153846153846155,1.3949450549450548,0.10476190476190475
1.7102644779952243,0.32153846153846155,1.3949450549450548,0.10476190476190475
1.7138923890015576,0.32153846153846155,1.3949450549450548,0.10476190476190475
1.718928058995516,0.32153846153846155,1.3949450549450548,0.10476190476190475
1.7233780120004667,2.565054945054945,2.5553846153846154,2.473186813186813
1.7242770719967666,2.565054945054945,2.5553846153846154,2.473186813186813
1.725880566998967,2.565054945054945,2.5553846153846154,2.473186813186813
1.729590424001799,0.5173626373626373,3.3,0.8953113553113552
1.7346789820003323,0.43355311355311354,1.0073260073260073,0.7881318681318681
1.738358843998867,0.43355311355311354,1.0073260073260073,0.7881318681318681
1.7384569459973136,0.43355311355311354,1.0073260073260073,0.7881318681318681
1.7437393459986197,2.735897435897436,2.7906959706959706,0.6116483516483516
1.7462670829991112,1.216043956043956,2.4006593406593404,0.8783882783882784
1.7514053589984542,1.216043956043956,2.4006593406593404,0.8783882783882784
1.7550320189984632,1.216043956043956,2.4006593406593404,0.8783882783882784
1.760363695997512,1.216043956043956,2.4006593406593404,0.8783882783882784
1.7627957559961942,2.954285714285714,1.4787545787545788,0.3916483516483516
1.7629580969951348,2.954285714285714,1.4787545787545788,0.3916483516483516
1.7674279599959846,2.954285714285714,1.4787545787545788,0.3916483516483516
1.7689707269964856,2.954285714285714,1.4787545787545788,0.3916483516483516
1.7726536949994625,2.954285714285714,1.4787545787545788,0.3916483516483516
1.7728215399984038,2.954285714285714,1.4787545787545788,0.3916483516483516
1.777245817000221,2.954285714285714,1.4787545787545788,0.3916483516483516
1.778113371001382,2.954285714285714,1.4787545787545788,0.3916483516483516
1.7797199159977026,2.954285714285714,1.4787545787545788,0.3916483516483516
1.7841820050016395,3.3,2.0347985347985347,0.3545787545787546
1.7857447369970032,3.3,2.0347985347985347,0.3545787545787546
1.7894353430019692,3.3,2.0347985347985347,0.3545787545787546
1.7895615669986,3.3,2.0347985347985347,0.3545787545787546
1.7945453669963172,3.3,2.0347985347985347,0.3545787545787546
1.7983275009974022,2.6682051282051282,2.4949450549450547,1.1717216117216116
1.8036879239953123,2.6682051282051282,2.4949450549450547,1.1717216117216116
1.8060345849953592,2.6682051282051282,2.4949450549450547,1.1717216117216116
1.8062157359963749,2.6682051282051282,2.4949450549450547,1.1717216117216116
1.810602937999647,2.6682051282051282,2.4949450549450547,1.1717216117216116
1.8121634119961527,2.6682051282051282,2.4949450549450547,1.1717216117216116
1.8168589170018095,2.6682051282051282,2.4949450549450547,1.1717216117216116
1.8169983939951635,3.203296703296703,1.8607326007326006,0.7002930402930403
1.8222175139962928,3.203296703296703,1.8607326007326006,0.7002930402930403
1.8251169649956864,3.203296703296703,1.8607326007326006,0.7002930402930403
1.8288547150004888,3.203296703296703,1.8607326007326006,0.7002930402930403
1.8333665859972825,3.203296703296703,1.8607326007326006,0.7002930402930403
1.8348620729957474,3.203296703296703,1.8607326007326006,0.7002930402930403
1.83852920299978,3.203296703296703,1.8607326007326006,0.7002930402930403
1.8388114600020344,3.0227838827838824,1.5883516483516482,0.43032967032967034
1.843844637995062,3.0227838827838824,1.5883516483516482,0.43032967032967034
1.84751028699975,2.319267399267399,3.3,1.8792673992673992
1.852924011000141,2.319267399267399,3.3,1.8792673992673992
1.8546097419966827,2.4095238095238094,2.548937728937729,2.9615384615384617
1.8575744749978185,2.6279120879120876,2.5521611721611723,3.3
1.860517681001511,2.6279120879120876,2.5521611721611723,3.3
1.8634159069988527,2.6279120879120876,2.5521611721611723,3.3
1.8663495020009577,2.6279120879120876,2.5521611721611723,3.3
1.8692998830010765,2.6279120879120876,2.5521611721611723,3.3
1.8722470089996932,2.6279120879120876,2.5521611721611723,3.3
1.8753385009986232,2.6279120879120876,2.5521611721611723,3.3
1.877717090996157,2.0267399267399266,2.5723076923076924,3.3
1.8778534539960674,2.0267399267399266,2.5723076923076924,3.3
1.882265127998835,2.0267399267399266,2.5723076923076924,3.3
1.8840483640015009,2.0267399267399266,2.5723076923076924,3.3
1.8862878930012812,1.5303296703296703,2.8003663003663,1.3151648351648353
1.8865968640020583,1.5303296703296703,2.8003663003663,1.3151648351648353
1.8909986979997484,1.5303296703296703,2.8003663003663,1.3151648351648353
1.892620947000978,1.5303296703296703,2.8003663003663,1.3151648351648353
1.8964625649969094,1.5303296703296703,2.8003663003663,1.3151648351648353
1.9018030229999567,1.5303296703296703,2.8003663003663,1.3151648351648353
1.9042066129986779,1.8164102564102564,2.1846886446886447,0.6003663003663003
1.9043246829969576,1.8164102564102564,2.1846886446886447,0.6003663003663003
1.9094304329992156,2.1548717948717946,2.5586080586080584,3.3
1.912570633001451,2.1548717948717946,2.5586080586080584,3.3
1.9142169339975226,2.1548717948717946,2.5586080586080584,3.3
1.91807546599739,2.1548717948717946,2.5586080586080584,3.3
1.9234303619959974,2.1548717948717946,2.5586080586080584,3.3
1.9256556909967912,2.1548717948717946,2.5586080586080584,3.3
1.9264775260016904,2.1548717948717946,2.5586080586080584,3.3
1.9280121689953376,2.1548717948717946,2.5586080586080584,3.3
1.9323597139955382,2.1548717948717946,2.5586080586080584,3.3
1.9338469139984227,2.1548717948717946,2.5586080586080584,3.3
1.9381753130001016,2.1548717948717946,2.5586080586080584,3.3
1.9397175279955263,2.1548717948717946,2.5586080586080584,3.3
1.9440246509984718,2.1548717948717946,2.5586080586080584,3.3
1.9455767079998623,2.1548717948717946,2.5586080586080584,3.3
1.9493117539968807,2.1548717948717946,2.5586080586080584,3.3
1.9544805170007749,2.1548717948717946,2.5586080586080584,3.3
1.9583660939970287,2.1548717948717946,2.5586080586080584,3.3
1.9626292079992709,2.7117216117216114,2.7004395604395603,2.071868131868132
1.964164739001717,2.7117216117216114,2.7004395604395603,2.071868131868132
1.9687189339965698,2.7117216117216114,2.7004395604395603,2.071868131868132
1.9689458060020115,2.7117216117216114,2.7004395604395603,2.071868131868132
1.97373316300218,2.7117216117216114,2.7004395604395603,2.071868131868132
1.9738765270012664,2.7117216117216114,2.7004395604395603,2.071868131868132
1.978455104996101,2.7117216117216114,2.7004395604395603,2.071868131868132
1.97935077999864,2.7117216117216114,2.7004395604395603,2.071868131868132
1.9815675919962814,2.7117216117216114,2.7004395604395603,2.071868131868132
1.982392986996274,0.9863736263736262,3.3,1.4030036630036629
1.98405858699698,1.394139194139194,2.262051282051282,0.5834432234432234
1.987673192001239,1.394139194139194,2.262051282051282,0.5834432234432234
1.9928318679958466,0.5375091575091575,2.713333333333333,1.4876190476190476
1.9965639910005848,0.5375091575091575,2.713333333333333,1.4876190476190476
2.001859247997345,0.5375091575091575,2.713333333333333,1.4876190476190476
2.004873644997133,0.5375091575091575,2.713333333333333,1.4876190476190476
2.007171846998972,1.743076923076923,2.0847619047619044,1.1467399267399265
2.0074651009999798,1.743076923076923,2.0847619047619044,1.1467399267399265
2.0118614669991075,1.743076923076923,2.0847619047619044,1.1467399267399265
2.0133710369991604,2.6536996336996337,1.830915750915751,2.8946520146520145
2.017660405996139,2.6536996336996337,1.830915750915751,2.8946520146520145
2.0199544899951434,3.1742857142857144,1.3127472527472526,0.6833699633699634
2.020210328999383,3.1742857142857144,1.3127472527472526,0.6833699633699634
2.0254597370003466,3.1742857142857144,1.3127472527472526,0.6833699633699634
2.0284780450019753,3.1742857142857144,1.3127472527472526,0.6833699633699634
2.03074649899645,0.8671062271062271,2.763296703296703,1.7914285714285711
2.031030017999001,0.8671062271062271,2.763296703296703,1.7914285714285711
2.036408734995348,0.8671062271062271,2.763296703296703,1.7914285714285711
2.0379804269978194,0.8671062271062271,2.763296703296703,1.7914285714285711
2.0417617579951184,0.8671062271062271,2.763296703296703,1.7914285714285711
2.0470300009983475,0.8671062271062271,2.763296703296703,1.7914285714285711
2.049324601997796,0.8671062271062271,2.763296703296703,1.7914285714285711
2.049588121000852,0.8671062271062271,2.763296703296703,1.7914285714285711
2.0541648309954326,0.8671062271062271,2.763296703296703,1.7914285714285711
2.0550219119977555,0.8671062271062271,2.763296703296703,1.7914285714285711
2.0567209719956736,0.8671062271062271,2.763296703296703,1.7914285714285711
2.059689185996831,0.8671062271062271,2.763296703296703,1.7914285714285711
2.0626275120011996,0.8671062271062271,2.763296703296703,1.7914285714285711
2.065621417998045,1.4271794871794872,2.2322344322344323,0.3908424908424908
2.067937712999992,1.4271794871794872,2.2322344322344323,0.3908424908424908
2.068275100995379,1.4271794871794872,2.2322344322344323,0.3908424908424908
2.073341655996046,1.4271794871794872,2.2322344322344323,0.3908424908424908
2.077300570999796,1.4271794871794872,2.2322344322344323,0.3908424908424908
2.080976095996448,1.4271794871794872,2.2322344322344323,0.3908424908424908
2.086361080997449,1.4271794871794872,2.2322344322344323,0.3908424908424908
2.089458697999362,1.4271794871794872,2.2322344322344323,0.3908424908424908
2.0916942170006223,1.4271794871794872,2.2322344322344323,0.3908424908424908
2.0919717209981172,1.4271794871794872,2.2322344322344323,0.3908424908424908
2.097554963998846,1.4271794871794872,2.2322344322344323,0.3908424908424908
2.098665847996017,2.5908424908424905,3.3,2.597289377289377
2.0989406969965785,2.5908424908424905,3.3,2.597289377289377
2.1066885569962324,2.5908424908424905,3.3,2.597289377289377
2.114224598000874,2.5908424908424905,3.3,2.597289377289377
2.1206303009967087,2.5908424908424905,3.3,2.597289377289377
2.126155886995548,2.5908424908424905,3.3,2.597289377289377
2.1264047469958314,1.3884981684981685,2.274945054945055,0.6229304029304029
2.1353313119980157,0.3441025641025641,1.0854945054945053,0.2345054945054945
2.141744241998822,0.3441025641025641,1.0854945054945053,0.2345054945054945
2.146778418995382,0.3441025641025641,1.0854945054945053,0.2345054945054945
2.152425699001469,0.3441025641025641,1.0854945054945053,0.2345054945054945
2.1525999270015745,0.3441025641025641,1.0854945054945053,0.2345054945054945
2.1606119579955703,0.3441025641025641,1.0854945054945053,0.2345054945054945
2.168614816000627,0.3441025641025641,1.0854945054945053,0.2345054945054945
2.175284955999814,0.3441025641025641,1.0854945054945053,0.2345054945054945
2.179698895000911,0.3441025641025641,1.0854945054945053,0.2345054945054945
2.1812102569965646,0.3441025641025641,1.0854945054945053,0.2345054945054945
2.1895202489977237,0.3441025641025641,1.0854945054945053,0.2345054945054945
2.1958823149980162,0.3441025641025641,1.0854945054945053,0.2345054945054945
2.2021140969955013,2.6875457875457873,2.5827838827838825,2.561831501831502
2.206858284996997,1.5657875457875456,3.1581684981684983,1.2386080586080586
2.215693965998071,1.5657875457875456,3.1581684981684983,1.2386080586080586
2.2215262219979195,1.5657875457875456,3.1581684981684983,1.2386080586080586
2.228976802995021,1.5657875457875456,3.1581684981684983,1.2386080586080586
2.2343064379965654,1.5657875457875456,3.1581684981684983,1.2386080586080586
2.237296970000898,1.5657875457875456,3.1581684981684983,1.2386080586080586
2.2387796289986,1.5657875457875456,3.1581684981684983,1.2386080586080586
2.24330966299749,3.066300366300366,2.6335531135531136,0.8574358974358974
2.2434672370000044,3.066300366300366,2.6335531135531136,0.8574358974358974
2.248037771001691,3.066300366300366,2.6335531135531136,0.8574358974358974
2.248339396996016,3.066300366300366,2.6335531135531136,0.8574358974358974
2.252717677001783,3.066300366300366,2.6335531135531136,0.8574358974358974
2.254265044000931,3.066300366300366,2.6335531135531136,0.8574358974358974
2.2587070489971666,3.066300366300366,2.6335531135531136,0.8574358974358974
2.259728222998092,3.066300366300366,2.6335531135531136,0.8574358974358974
2.2600547530018957,3.066300366300366,2.6335531135531136,0.8574358974358974
2.2653245850015082,3.066300366300366,2.6335531135531136,0.8574358974358974
2.2690467829961563,1.804322344322344,2.003369963369963,0.8123076923076923
2.274508975999197,1.804322344322344,2.003369963369963,0.8123076923076923
2.276249406997522,1.804322344322344,2.003369963369963,0.8123076923076923
2.279283507996297,1.804322344322344,2.003369963369963,0.8123076923076923
2.282496389998414,1.804322344322344,2.003369963369963,0.8123076923076923
2.2828894589983975,1.804322344322344,2.003369963369963,0.8123076923076923
2.2913207870005863,1.804322344322344,2.003369963369963,0.8123076923076923
2.2979660389974015,1.804322344322344,2.003369963369963,0.8123076923076923
2.3018988389958395,1.804322344322344,2.003369963369963,0.8123076923076923
2.305887693997647,1.804322344322344,2.003369963369963,0.8123076923076923
2.311222397001984,2.1105494505494504,2.3345787545787546,0.5093040293040293
2.31437812600052,2.1105494505494504,2.3345787545787546,0.5093040293040293
2.314697417001298,2.1105494505494504,2.3345787545787546,0.5093040293040293
2.3222097379984916,2.1105494505494504,2.3345787545787546,0.5093040293040293
2.3277541589995963,3.2226373626373626,2.2104761904761903,0.8058608058608058
2.327972132996365,3.2226373626373626,2.2104761904761903,0.8058608058608058
2.3340990049982793,3.2226373626373626,2.2104761904761903,0.8058608058608058
2.3380345109981135,2.4119413919413915,2.5473260073260073,0.4166300366300366
2.341642512998078,2.4119413919413915,2.5473260073260073,0.4166300366300366
2.341820886002097,2.4119413919413915,2.5473260073260073,0.4166300366300366
2.346321060998889,2.4119413919413915,2.5473260073260073,0.4166300366300366
2.3471632299988414,2.4119413919413915,2.5473260073260073,0.4166300366300366
2.3487063709981157,2.4119413919413915,2.5473260073260073,0.4166300366300366
2.3532458179979585,2.4119413919413915,2.5473260073260073,0.4166300366300366
2.3535307069978444,2.6794871794871793,1.9461538461538461,1.2353846153846153
2.359508494999318,2.6794871794871793,1.9461538461538461,1.2353846153846153
2.3679989539959934,2.924468864468864,2.5843956043956045,2.5602197802197804
2.3776515790013946,2.924468864468864,2.5843956043956045,2.5602197802197804
2.3857627929974115,3.3,2.154065934065934,0.7091575091575092
2.393281874996319,0.32798534798534795,1.4352380952380952,0.1265201465201465
2.4006780970012187,3.3,2.5876190476190475,2.4756043956043956
2.4049955390000832,3.3,2.5876190476190475,2.4756043956043956
2.4054014520006604,3.3,2.5876190476190475,2.4756043956043956
2.4131626279995544,3.3,2.5876190476190475,2.4756043956043956
2.4193439349983237,3.3,2.5876190476190475,2.4756043956043956
2.4241031810015556,3.3,2.5876190476190475,2.4756043956043956
2.433284040002036,3.3,2.5876190476190475,2.4756043956043956
2.4394569079959183,0.5157509157509157,3.3,0.7268864468864469
2.443761573995289,0.5157509157509157,3.3,0.7268864468864469
2.4451972320021014,0.5157509157509157,3.3,0.7268864468864469
2.452984520001337,0.5157509157509157,3.3,0.7268864468864469
2.459578406000219,0.5157509157509157,3.3,0.7268864468864469
2.4627954289971967,2.3587545787545787,2.5553846153846154,3.3
2.463696612001513,2.3587545787545787,2.5553846153846154,3.3
2.465289779996965,2.3587545787545787,2.5553846153846154,3.3
2.4699128279971774,2.3587545787545787,2.5553846153846154,3.3
2.4700486229994567,0.6430769230769231,2.5908424908424905,1.4908424908424909
2.4754937249963405,0.6430769230769231,2.5908424908424905,1.4908424908424909
2.4779366169968853,0.6430769230769231,2.5908424908424905,1.4908424908424909
2.48328697100078,3.1613919413919414,2.437728937728938,0.1805128205128205
2.486547870001232,2.8551648351648353,2.8656410256410254,0.47706959706959706
2.4873769319965504,2.8551648351648353,2.8656410256410254,0.47706959706959706
2.4889751469963812,2.8551648351648353,2.8656410256410254,0.47706959706959706
2.493475158000365,0.8268131868131867,3.2717948717948717,1.755164835164835
2.4938235390000045,0.8268131868131867,3.2717948717948717,1.755164835164835
2.4983032699965406,2.428058608058608,2.552967032967033,3.3
2.499232663998555,3.235531135531135,2.4425641025641025,0.09589743589743589
2.500760861999879,3.235531135531135,2.4425641025641025,0.09589743589743589
2.5046335389997694,3.235531135531135,2.4425641025641025,0.09589743589743589
2.5092013260000385,3.235531135531135,2.4425641025641025,0.09589743589743589
2.510013118997449,3.235531135531135,2.4425641025641025,0.09589743589743589
2.5115558149991557,3.235531135531135,2.4425641025641025,0.09589743589743589
2.5160903809955926,2.655311355311355,1.6955311355311353,2.5207326007326003
2.5163579739964916,2.655311355311355,1.6955311355311353,2.5207326007326003
2.520797502998903,2.655311355311355,1.6955311355311353,2.5207326007326003
2.5216441809971,2.2233699633699633,3.1009523809523807,0.8131135531135532
2.523266217998753,2.2233699633699633,3.1009523809523807,0.8131135531135532
2.527173770002264,2.2233699633699633,3.1009523809523807,0.8131135531135532
2.530918334996386,2.2233699633699633,3.1009523809523807,0.8131135531135532
2.536124774997006,2.2233699633699633,3.1009523809523807,0.8131135531135532
2.5398382989951642,2.2233699633699633,3.1009523809523807,0.8131135531135532
2.544198295996466,1.1838095238095236,3.3,1.324029304029304
2.5457265930017456,1.1838095238095236,3.3,1.324029304029304
2.5494678969989764,1.1838095238095236,3.3,1.324029304029304
2.5496433959997375,1.1838095238095236,3.3,1.324029304029304
2.5541927379963454,1.1838095238095236,3.3,1.324029304029304
2.555016275997332,1.1838095238095236,3.3,1.324029304029304
2.556607852995512,2.273333333333333,2.577948717948718,2.5586080586080584
2.563481379998848,2.273333333333333,2.577948717948718,2.5586080586080584
2.569328940997366,2.2878388278388275,2.9228571428571426,0.7268864468864469
2.577005047998682,2.2878388278388275,2.9228571428571426,0.7268864468864469
2.5834046059972025,2.2878388278388275,2.9228571428571426,0.7268864468864469
2.589251895995403,1.477142857142857,2.3120146520146516,0.26109890109890105
2.596839675999945,1.477142857142857,2.3120146520146516,0.26109890109890105
2.6026037970004836,2.71010989010989,2.1919413919413917,0.5802197802197803
2.611157257000741,2.2056410256410253,3.1573626373626373,1.012967032967033
2.6190136520017404,2.2056410256410253,3.1573626373626373,1.012967032967033
2.6247571369967773,2.2056410256410253,3.1573626373626373,1.012967032967033
2.633738889999222,2.5441025641025643,2.581978021978022,2.561831501831502
2.640527939001913,0.8928937728937728,3.3,1.9058608058608055
2.6454820899962215,0.8928937728937728,3.3,1.9058608058608055
2.6497882490002667,0.8928937728937728,3.3,1.9058608058608055
2.650107636996836,0.8928937728937728,3.3,1.9058608058608055
2.657781181995233,0.8928937728937728,3.3,1.9058608058608055
2.6619617530013784,0.8928937728937728,3.3,1.9058608058608055
2.664593016001163,1.68021978021978,3.187179487179487,1.0572893772893772
2.671017535998544,1.68021978021978,3.187179487179487,1.0572893772893772
2.675349646000541,0.38036630036630037,2.577948717948718,2.075091575091575
2.6765311349954573,2.5747252747252745,2.577142857142857,2.561831501831502
2.6767969759966945,2.5747252747252745,2.577142857142857,2.561831501831502
2.685373708001862,2.5747252747252745,2.577142857142857,2.561831501831502
2.692290007995325,2.5747252747252745,2.577142857142857,2.561831501831502
2.697951000001922,0.36344322344322344,1.4674725274725273,0.13619047619047617
2.7083753299957607,0.36344322344322344,1.4674725274725273,0.13619047619047617
2.716335817000072,0.36344322344322344,1.4674725274725273,0.13619047619047617
2.722489654996025,0.36344322344322344,1.4674725274725273,0.13619047619047617
2.7268072169972584,0.36344322344322344,1.4674725274725273,0.13619047619047617
2.7283495020019473,0.36344322344322344,1.4674725274725273,0.13619047619047617
2.7365232419979293,0.36344322344322344,1.4674725274725273,0.13619047619047617
2.743272772000637,0.36344322344322344,1.4674725274725273,0.13619047619047617
2.748016708996147,0.36344322344322344,1.4674725274725273,0.13619047619047617
2.75813724299951,0.36344322344322344,1.4674725274725273,0.13619047619047617
2.7657669210020686,3.08,2.6496703296703297,1.108058608058608
2.771466767997481,3.08,2.6496703296703297,1.108058608058608
2.7716818819972104,3.08,2.6496703296703297,1.108058608058608
2.7812824259963236,3.08,2.6496703296703297,1.108058608058608
2.7906062729962287,2.2483516483516484,2.556996336996337,3.3
2.7951534509993508,2.6617582417582417,1.7285714285714286,2.024322344322344
2.7961243070021737,2.6617582417582417,1.7285714285714286,2.024322344322344
2.7969704380011535,2.6617582417582417,1.7285714285714286,2.024322344322344
2.7987545610012603,2.6617582417582417,1.7285714285714286,2.024322344322344
2.801126225000189,2.6617582417582417,1.7285714285714286,2.024322344322344
2.8013849209964974,2.6617582417582417,1.7285714285714286,2.024322344322344
2.8062343829951715,2.6617582417582417,1.7285714285714286,2.024322344322344
2.811538591995486,2.6617582417582417,1.7285714285714286,2.024322344322344
2.814515810001467,2.655311355311355,1.7479120879120877,2.432893772893773
2.8168195679972996,2.655311355311355,1.7479120879120877,2.432893772893773
2.8170700219998253,2.655311355311355,1.7479120879120877,2.432893772893773
2.8223683460018947,2.655311355311355,1.7479120879120877,2.432893772893773
2.8255392470018705,2.655311355311355,1.7479120879120877,2.432893772893773
2.8270945159965777,2.655311355311355,1.7479120879120877,2.432893772893773
2.8315146819950314,2.655311355311355,1.7479120879120877,2.432893772893773
2.832353110999975,2.655311355311355,1.7479120879120877,2.432893772893773
2.8340118269989034,2.655311355311355,1.7479120879120877,2.432893772893773
2.837952645997575,3.2258608058608056,1.8816849816849814,0.6495238095238095
2.842753334000008,3.2258608058608056,1.8816849816849814,0.6495238095238095
2.8476543229990057,3.2258608058608056,1.8816849816849814,0.6495238095238095
2.855129579002096,3.2258608058608056,1.8816849816849814,0.6495238095238095
2.865612631998374,3.3,1.8494505494505493,0.9476923076923076
2.877704047001316,3.3,1.8494505494505493,0.9476923076923076
2.885457680997206,3.098534798534798,0.4996336996336996,0.6471062271062271
2.892599810998945,3.098534798534798,0.4996336996336996,0.6471062271062271
2.896528441000555,3.098534798534798,0.4996336996336996,0.6471062271062271
2.9004051759984577,3.098534798534798,0.4996336996336996,0.6471062271062271
2.9041684019975946,3.098534798534798,0.4996336996336996,0.6471062271062271
2.9117104219985777,3.098534798534798,0.4996336996336996,0.6471062271062271
2.9169405689972336,2.4747985347985346,2.5441025641025643,3.171868131868132
2.919430233996536,2.4747985347985346,2.5441025641025643,3.171868131868132
2.919551118000527,2.4747985347985346,2.5441025641025643,3.171868131868132
2.9286212779989,2.4747985347985346,2.5441025641025643,3.171868131868132
2.9341760289971717,2.4747985347985346,2.5441025641025643,3.171868131868132
2.934492889995454,2.4747985347985346,2.5441025641025643,3.171868131868132
2.9421605719981017,2.4747985347985346,2.5441025641025643,3.171868131868132
2.9457972689997405,2.4747985347985346,2.5441025641025643,3.171868131868132
2.9503824389976216,2.4747985347985346,2.5441025641025643,3.171868131868132
2.951303433997964,2.4747985347985346,2.5441025641025643,3.171868131868132
2.9532457099994645,2.4747985347985346,2.5441025641025643,3.171868131868132
2.954228278998926,2.4747985347985346,2.5441025641025643,3.171868131868132
2.955211323002004,2.4747985347985346,2.5441025641025643,3.171868131868132
2.956488652002008,2.4747985347985346,2.5441025641025643,3.171868131868132
2.956958440998278,2.4747985347985346,2.5441025641025643,3.171868131868132
2.9609065069962526,2.4747985347985346,2.5441025641025643,3.171868131868132
2.9652910090007936,2.4747985347985346,2.5441025641025643,3.171868131868132
2.9655149530008202,2.4747985347985346,2.5441025641025643,3.171868131868132
2.973174735001521,2.4747985347985346,2.5441025641025643,3.171868131868132
2.9795376719994238,0.7832967032967032,3.055018315018315,1.4666666666666666
2.984127169002022,2.46996336996337,2.763296703296703,0.83003663003663
2.984242776998144,1.5569230769230769,2.307179487179487,0.7558974358974359
2.989531220999197,1.5569230769230769,2.307179487179487,0.7558974358974359
2.9922064900019905,1.5569230769230769,2.307179487179487,0.7558974358974359
2.996108635001292,1.5569230769230769,2.307179487179487,0.7558974358974359
2.9999186279965215,1.5569230769230769,2.307179487179487,0.7558974358974359
3.004197664995445,1.5569230769230769,2.307179487179487,0.7558974358974359
3.0059220109978924,1.4408791208791207,2.1846886446886447,0.3457142857142857
3.0098439220018918,1.4408791208791207,2.1846886446886447,0.3457142857142857
3.014533121000568,0.5487912087912087,2.261245421245421,1.0315018315018314
3.025181701996189,0.5487912087912087,2.261245421245421,1.0315018315018314
3.0337331439950503,2.9695970695970697,2.5956776556776555,0.6495238095238095
3.04041098900052,2.9695970695970697,2.5956776556776555,0.6495238095238095
3.0461151659983443,2.9695970695970697,2.5956776556776555,0.6495238095238095
3.046228888000769,2.9695970695970697,2.5956776556776555,0.6495238095238095
3.050730367998767,2.9695970695970697,2.5956776556776555,0.6495238095238095
3.051638668999658,2.9695970695970697,2.5956776556776555,0.6495238095238095
3.0532158259957214,2.9695970695970697,2.5956776556776555,0.6495238095238095
3.059251067999867,2.9695970695970697,2.5956776556776555,0.6495238095238095
3.064259792001394,2.8326007326007323,2.3120146520146516,1.7035897435897436
3.0672131729952525,1.498095238095238,2.237875457875458,0.35619047619047617
3.070587012996839,1.498095238095238,2.237875457875458,0.35619047619047617
3.0709073780017206,1.498095238095238,2.237875457875458,0.35619047619047617
3.0781816340022488,1.498095238095238,2.237875457875458,0.35619047619047617
3.0819946589981555,1.498095238095238,2.237875457875458,0.35619047619047617
3.086489221001102,1.498095238095238,2.237875457875458,0.35619047619047617
3.0880912729990087,1.498095238095238,2.237875457875458,0.35619047619047617
3.095086228000582,1.498095238095238,2.237875457875458,0.35619047619047617
3.1003014919988345,0.9444688644688644,3.3,1.7156776556776556
3.1019062979976297,0.9444688644688644,3.3,1.7156776556776556
3.105262529999891,0.9444688644688644,3.3,1.7156776556776556
3.1070015090008383,0.9444688644688644,3.3,1.7156776556776556
3.110493938998843,0.9444688644688644,3.3,1.7156776556776556
3.1159062259976054,0.9444688644688644,3.3,1.7156776556776556
3.1168464369984576,0.9444688644688644,3.3,1.7156776556776556
3.11845619900123,0.9444688644688644,3.3,1.7156776556776556
3.122206250001909,0.9444688644688644,3.3,1.7156776556776556
3.1315746260006563,1.4497435897435897,2.313626373626373,0.7035164835164834
3.137816249996831,1.4497435897435897,2.313626373626373,0.7035164835164834
3.14376134199847,2.4264468864468864,2.5747252747252745,2.5561904761904763
3.147672473998682,2.4264468864468864,2.5747252747252745,2.5561904761904763
3.1520846569983405,2.4264468864468864,2.5747252747252745,2.5561904761904763
3.1536570800017216,2.913186813186813,3.3,3.095311355311355
3.158638674998656,3.3,1.892161172161172,0.7446153846153846
3.164600108000741,3.3,1.892161172161172,0.7446153846153846
3.168565699001192,3.3,1.892161172161172,0.7446153846153846
3.1739006119969417,3.3,1.892161172161172,0.7446153846153846
3.1758307659983984,3.3,1.892161172161172,0.7446153846153846
3.177698851999594,2.681098901098901,3.3,2.2402930402930403
3.179326564000803,2.681098901098901,3.3,2.2402930402930403
3.183164461996057,2.681098901098901,3.3,2.2402930402930403
3.1875917299985304,2.681098901098901,3.3,2.2402930402930403
3.1885064259986393,2.681098901098901,3.3,2.2402930402930403
3.1909930979963974,2.681098901098901,3.3,2.2402930402930403
3.1968310349984677,2.681098901098901,3.3,2.2402930402930403
3.201329748997523,2.681098901098901,3.3,2.2402930402930403
3.202152694997494,2.771355311355311,2.7536263736263735,0.6865934065934066
3.2037907959966105,2.771355311355311,2.7536263736263735,0.6865934065934066
3.208991330997378,2.771355311355311,2.7536263736263735,0.6865934065934066
3.2126735470010317,0.6567765567765567,2.763296703296703,1.3095238095238093
3.216570327000227,2.6649816849816848,1.7833699633699631,1.851062271062271
3.220361348001461,2.6649816849816848,1.7833699633699631,1.851062271062271
3.2270193209988065,2.6649816849816848,1.7833699633699631,1.851062271062271
3.231465716002276,0.4553113553113553,2.1564835164835165,1.415091575091575
3.2326766530022724,0.6003663003663003,2.4353113553113555,1.1975091575091574
3.2328248670019093,0.6003663003663003,2.4353113553113555,1.1975091575091574
3.2417347480004537,3.3,1.8558974358974358,0.834065934065934
3.248905480999383,3.3,1.8558974358974358,0.834065934065934
3.2545894509967184,2.033186813186813,2.103296703296703,0.6865934065934066
3.2631326519986033,2.033186813186813,2.103296703296703,0.6865934065934066
3.267956060997676,2.033186813186813,2.103296703296703,0.6865934065934066
3.273133916001825,0.44402930402930396,1.232967032967033,1.1628571428571428
3.2811998819961445,0.44402930402930396,1.232967032967033,1.1628571428571428
3.288176725996891,3.00021978021978,1.9799999999999998,0.1829304029304029
3.295261394996487,3.00021978021978,1.9799999999999998,0.1829304029304029
3.300856278001447,3.00021978021978,1.9799999999999998,0.1829304029304029
3.301099283999065,3.09047619047619,0.7776556776556776,1.1733333333333333
3.3110180479998235,3.09047619047619,0.7776556776556776,1.1733333333333333
3.3170861760008847,3.09047619047619,0.7776556776556776,1.1733333333333333
3.3245617689972278,3.163003663003663,1.2676190476190476,1.3264468864468864
3.33074995700008,3.163003663003663,1.2676190476190476,1.3264468864468864
3.3362485359975835,3.163003663003663,1.2676190476190476,1.3264468864468864
3.3364799990013125,2.3587545787545787,2.5682783882783884,3.3
3.345259748995886,2.3587545787545787,2.5682783882783884,3.3
3.3537433429955854,2.3587545787545787,2.5682783882783884,3.3
3.3613213959979475,2.3587545787545787,2.5682783882783884,3.3
3.366673306998564,2.7004395604395603,2.8293772893772893,0.8904761904761904
3.3669548879988724,0.3658608058608058,0.45692307692307693,0.734139194139194
3.375417142000515,0.3658608058608058,0.45692307692307693,0.734139194139194
3.3794624059955822,0.3658608058608058,0.45692307692307693,0.734139194139194
3.3825107119992026,0.3658608058608058,0.45692307692307693,0.734139194139194
3.3848446310003055,1.3208058608058608,2.253186813186813,0.8775824175824175
3.3850649259984493,1.3208058608058608,2.253186813186813,0.8775824175824175
3.390620703001332,1.3208058608058608,2.253186813186813,0.8775824175824175
3.3909245210015797,1.3208058608058608,2.253186813186813,0.8775824175824175
3.396212147999904,1.3208058608058608,2.253186813186813,0.8775824175824175
3.398644865999813,1.3208058608058608,2.253186813186813,0.8775824175824175
3.4052596429974074,1.3208058608058608,2.253186813186813,0.8775824175824175
3.409106585997506,2.5392673992673993,2.540879120879121,2.3079853479853476
3.4146563449976384,2.5392673992673993,2.540879120879121,2.3079853479853476
3.4149423299968475,2.5392673992673993,2.540879120879121,2.3079853479853476
3.41947902499669,2.5392673992673993,2.540879120879121,2.3079853479853476
3.4203702509985305,2.5392673992673993,2.540879120879121,2.3079853479853476
3.421297423999931,2.5392673992673993,2.540879120879121,2.3079853479853476
3.4233611559975543,2.5392673992673993,2.540879120879121,2.3079853479853476
3.4246716999987257,2.5392673992673993,2.540879120879121,2.3079853479853476
3.431522284001403,2.5392673992673993,2.540879120879121,2.3079853479853476
3.436142477999965,2.5392673992673993,2.540879120879121,2.3079853479853476
3.436971857001481,2.5392673992673993,2.540879120879121,2.3079853479853476
3.4384862369988696,2.5392673992673993,2.540879120879121,2.3079853479853476
3.446566095997696,2.5392673992673993,2.540879120879121,2.3079853479853476
3.4536456860005273,1.4223443223443224,3.2548717948717947,1.3361172161172161
3.4615730899968185,1.4223443223443224,3.2548717948717947,1.3361172161172161
3.465279236996139,2.3635897435897433,2.5787545787545785,2.5553846153846154
3.4697498739988077,2.3635897435897433,2.5787545787545785,2.5553846153846154
3.470580777997384,0.8243956043956043,3.3,1.5964102564102562
3.4721830499984208,0.8243956043956043,3.3,1.5964102564102562
3.479646396001044,0.8243956043956043,3.3,1.5964102564102562
3.4839624800006277,0.8243956043956043,3.3,1.5964102564102562
3.4854887170004076,1.5665934065934064,3.1130402930402927,1.4779487179487178
3.495102691995271,1.5665934065934064,3.1130402930402927,1.4779487179487178
3.4994730399994296,1.5665934065934064,3.1130402930402927,1.4779487179487178
3.501091861995519,1.5665934065934064,3.1130402930402927,1.4779487179487178
3.5088662759953877,1.5665934065934064,3.1130402930402927,1.4779487179487178
3.512827393999032,1.5665934065934064,3.1130402930402927,1.4779487179487178
3.5151637390008545,1.5665934065934064,3.1130402930402927,1.4779487179487178
3.515415538997331,1.5665934065934064,3.1130402930402927,1.4779487179487178
3.5198339109992958,1.5665934065934064,3.1130402930402927,1.4779487179487178
3.5207217679999303,1.5665934065934064,3.1130402930402927,1.4779487179487178
3.5237882219953462,1.5665934065934064,3.1130402930402927,1.4779487179487178
3.5267515599989565,1.6818315018315015,2.9220512820512816,1.361098901098901
3.52771682599996,1.6818315018315015,2.9220512820512816,1.361098901098901
3.5286541789973853,1.6818315018315015,2.9220512820512816,1.361098901098901
3.5303322769977967,1.6818315018315015,2.9220512820512816,1.361098901098901
3.534092492001946,1.6818315018315015,2.9220512820512816,1.361098901098901
3.538575820995902,3.1501098901098903,2.5134798534798533,0.9267399267399267
3.5406845069956034,3.1501098901098903,2.5134798534798533,0.9267399267399267
3.541040890995646,3.1501098901098903,2.5134798534798533,0.9267399267399267
3.547263321997889,3.1501098901098903,2.5134798534798533,0.9267399267399267
3.551029527996434,0.5141391941391941,2.5747252747252745,2.0428571428571427
3.5573589769992395,0.5141391941391941,2.5747252747252745,2.0428571428571427
3.561720999001409,3.3,1.9703296703296702,0.9613919413919414
3.5625789359983173,3.3,1.9703296703296702,0.9613919413919414
3.563510223997582,3.3,1.9703296703296702,0.9613919413919414
3.565151089002029,3.3,1.9703296703296702,0.9613919413919414
3.5688874639963615,2.2999267399267396,2.577948717948718,3.3
3.5754128600019612,2.2999267399267396,2.577948717948718,3.3
3.5796111529998598,3.2838827838827838,1.7849816849816849,0.6535531135531135
3.5812618839991046,3.2838827838827838,1.7849816849816849,0.6535531135531135
3.5850628709958983,3.2838827838827838,1.7849816849816849,0.6535531135531135
3.5909247059971676,1.5657875457875456,3.005860805860806,1.2901831501831502
3.5978454559954116,1.5657875457875456,3.005860805860806,1.2901831501831502
3.601590498998121,3.1243223443223442,0.4142124542124542,1.1265934065934065
3.608020685001975,3.1243223443223442,0.4142124542124542,1.1265934065934065
3.612048615999811,0.38036630036630037,0.5495970695970696,0.5262271062271061
3.6151850649985136,0.38036630036630037,0.5495970695970696,0.5262271062271061
3.616908327996498,0.38036630036630037,0.5495970695970696,0.5262271062271061
3.6203604549955344,0.38036630036630037,0.5495970695970696,0.5262271062271061
3.6206766839968623,0.38036630036630037,0.5495970695970696,0.5262271062271061
3.62760064000031,0.38036630036630037,0.5495970695970696,0.5262271062271061
3.6317646839961526,0.38036630036630037,0.5495970695970696,0.5262271062271061
3.6341034099968965,0.38036630036630037,0.5495970695970696,0.5262271062271061
3.634310640998592,0.38036630036630037,0.5495970695970696,0.5262271062271061
3.640507420997892,0.38036630036630037,0.5495970695970696,0.5262271062271061
3.6455018959968584,0.38036630036630037,0.5495970695970696,0.5262271062271061
3.6484947630015085,0.38036630036630037,0.5495970695970696,0.5262271062271061
3.6516885519959033,0.38036630036630037,0.5495970695970696,0.5262271062271061
3.652580310998019,0.38036630036630037,0.5495970695970696,0.5262271062271061
3.6548671659984393,0.38036630036630037,0.5495970695970696,0.5262271062271061
3.6550660110005992,0.38036630036630037,0.5495970695970696,0.5262271062271061
3.66295225200156,0.38036630036630037,0.5495970695970696,0.5262271062271061
3.667536638000456,1.6657142857142855,3.204102564102564,1.1693040293040293
3.667795486995601,2.3200732600732596,2.984102564102564,0.5995604395604395
3.674128874001326,2.3200732600732596,2.984102564102564,0.5995604395604395
3.6783477179997135,2.3200732600732596,2.984102564102564,0.5995604395604395
3.6786701000019093,2.3200732600732596,2.984102564102564,0.5995604395604395
3.683533762996376,2.3200732600732596,2.984102564102564,0.5995604395604395
3.6836662819987396,2.3200732600732596,2.984102564102564,0.5995604395604395
3.6900307169998996,2.3200732600732596,2.984102564102564,0.5995604395604395
3.69442702899687,0.6591941391941392,3.3,1.6504029304029304
3.6946482109997305,0.6591941391941392,3.3,1.6504029304029304
3.699185227997077,0.6591941391941392,3.3,1.6504029304029304
3.700749712996185,0.6591941391941392,3.3,1.6504029304029304
3.7044902880006703,0.6591941391941392,3.3,1.6504029304029304
3.712332659000822,0.6591941391941392,3.3,1.6504029304029304
3.7169475510017946,0.3964835164835165,0.46336996336996333,0.689010989010989
3.7177834390022326,2.307179487179487,2.5763369963369964,2.552967032967033
3.7193290939976578,2.307179487179487,2.5763369963369964,2.552967032967033
3.724146638000093,2.307179487179487,2.5763369963369964,2.552967032967033
3.731044241001655,2.307179487179487,2.5763369963369964,2.552967032967033
3.735073926000041,3.3,3.3,3.1251282051282048
3.7380723969981773,3.3,3.3,3.1251282051282048
3.7425722609987133,3.175897435897436,2.4707692307692306,0.3545787545787546
3.7487170820022584,3.175897435897436,2.4707692307692306,0.3545787545787546
3.7524631950000185,3.175897435897436,2.4707692307692306,0.3545787545787546
3.7526310309986,3.175897435897436,2.4707692307692306,0.3545787545787546
3.758549525999115,3.175897435897436,2.4707692307692306,0.3545787545787546
3.763525320995541,2.8656410256410254,2.4135531135531134,1.6044688644688643
3.7674565380002605,2.8656410256410254,2.4135531135531134,1.6044688644688643
3.7705895330000203,2.8656410256410254,2.4135531135531134,1.6044688644688643
3.7723533859971212,2.8656410256410254,2.4135531135531134,1.6044688644688643
3.7763924519967986,2.8656410256410254,2.4135531135531134,1.6044688644688643
3.781585954995535,2.8656410256410254,2.4135531135531134,1.6044688644688643
3.785343522002222,2.8656410256410254,2.4135531135531134,1.6044688644688643
3.7914457770020817,2.1830769230769227,2.3007326007326006,0.6172893772893773
3.795477277999453,2.1830769230769227,2.3007326007326006,0.6172893772893773
3.7971668009995483,2.1830769230769227,2.3007326007326006,0.6172893772893773
3.8005601299955742,2.1830769230769227,2.3007326007326006,0.6172893772893773
3.801390692999121,2.1830769230769227,2.3007326007326006,0.6172893772893773
3.8029337549960474,2.1830769230769227,2.3007326007326006,0.6172893772893773
3.8080891400022665,2.1830769230769227,2.3007326007326006,0.6172893772893773
3.8109703619993525,2.1830769230769227,2.3007326007326006,0.6172893772893773
3.813400573999388,2.1830769230769227,2.3007326007326006,0.6172893772893773
3.8135622889967635,2.1830769230769227,2.3007326007326006,0.6172893772893773
3.8180725060010445,2.1830769230769227,2.3007326007326006,0.6172893772893773
3.8189745679992484,2.1830769230769227,2.3007326007326006,0.6172893772893773
3.8207059420019505,2.1830769230769227,2.3007326007326006,0.6172893772893773
3.825266671999998,2.1830769230769227,2.3007326007326006,0.6172893772893773
3.8253995359991677,2.6649816849816848,3.2854945054945053,0.9436630036630036
3.8302766130000236,2.6649816849816848,3.2854945054945053,0.9436630036630036
3.8347808589969645,2.6649816849816848,3.2854945054945053,0.9436630036630036
3.835654524998972,3.1436630036630033,2.398241758241758,0.9202930402930403
3.837181891001819,3.1436630036630033,2.398241758241758,0.9202930402930403
3.8430685240018647,3.1436630036630033,2.398241758241758,0.9202930402930403
3.847610477998387,3.1436630036630033,2.398241758241758,0.9202930402930403
3.8478503599981195,2.262051282051282,2.5835897435897435,2.553772893772894
3.8524757199993473,2.262051282051282,2.5835897435897435,2.553772893772894
3.852791580000485,2.262051282051282,2.5835897435897435,2.553772893772894
3.859484248998342,2.6069597069597066,2.2435164835164834,0.3876190476190476
3.863861197998631,3.151721611721612,2.0742857142857143,0.5471794871794872
3.864737313997466,3.151721611721612,2.0742857142857143,0.5471794871794872
3.866318375999981,3.151721611721612,2.0742857142857143,0.5471794871794872
3.870365340997523,3.151721611721612,2.0742857142857143,0.5471794871794872
3.875151984997501,3.151721611721612,2.0742857142857143,0.5471794871794872
3.880765028996393,2.6545054945054947,1.4271794871794872,0.9839560439560439
3.880940914998064,2.6545054945054947,1.4271794871794872,0.9839560439560439
3.886043544000131,2.6545054945054947,1.4271794871794872,0.9839560439560439
3.8911331669951323,2.3506959706959707,2.5666666666666664,3.3
3.8984435519960243,2.3506959706959707,2.5666666666666664,3.3
3.912611929998093,2.7576556776556775,3.3,2.2515750915750914
3.93008065399772,2.7576556776556775,3.3,2.2515750915750914
3.931113913997251,2.7576556776556775,3.3,2.2515750915750914
3.9314790229982464,2.7576556776556775,3.3,2.2515750915750914
3.941310579997662,2.7576556776556775,3.3,2.2515750915750914
3.947733048997179,3.179120879120879,2.407106227106227,0.18373626373626373
3.9554236469994066,3.179120879120879,2.407106227106227,0.18373626373626373
3.963275918002182,3.179120879120879,2.407106227106227,0.18373626373626373
3.96483381500002,3.179120879120879,2.407106227106227,0.18373626373626373
3.969351927000389,3.179120879120879,2.407106227106227,0.18373626373626373
3.969637674999831,0.5544322344322344,1.1902564102564102,0.3183150183150183
3.976329468001495,0.5544322344322344,1.1902564102564102,0.3183150183150183
3.980158571001084,0.5544322344322344,1.1902564102564102,0.3183150183150183
3.9847406779954326,0.5544322344322344,1.1902564102564102,0.3183150183150183
3.9848940929950913,0.5544322344322344,1.1902564102564102,0.3183150183150183
3.990815978999308,0.5544322344322344,1.1902564102564102,0.3183150183150183
3.9998454579981626,0.5544322344322344,1.1902564102564102,0.3183150183150183
4.004706747000455,0.5544322344322344,1.1902564102564102,0.3183150183150183
4.012892353995994,0.5544322344322344,1.1902564102564102,0.3183150183150183
4.017658589997154,0.5544322344322344,1.1902564102564102,0.3183150183150183
4.017842205001216,0.5544322344322344,1.1902564102564102,0.3183150183150183
4.023307438001211,0.5544322344322344,1.1902564102564102,0.3183150183150183
4.025801263996982,0.5544322344322344,1.1902564102564102,0.3183150183150183
4.031526731996564,0.5544322344322344,1.1902564102564102,0.3183150183150183
4.03182077800011,2.6746520146520147,2.0549450549450547,1.7301831501831502
4.036246033996576,2.6746520146520147,2.0549450549450547,1.7301831501831502
4.037112236001121,2.526373626373626,2.5787545787545785,2.5594139194139194
4.039512014998763,2.526373626373626,2.5787545787545785,2.5594139194139194
4.046437614000752,2.526373626373626,2.5787545787545785,2.5594139194139194
4.050863017997472,2.526373626373626,2.5787545787545785,2.5594139194139194
4.051723365999351,1.813992673992674,2.5473260073260073,3.0308424908424905
4.053294575001928,1.813992673992674,2.5473260073260073,3.0308424908424905
4.058880889999273,2.281391941391941,2.158095238095238,0.518974358974359
4.059154982998734,2.281391941391941,2.158095238095238,0.518974358974359
4.06390935699892,2.281391941391941,2.158095238095238,0.518974358974359
4.068917439995857,1.1789743589743589,2.4087179487179484,0.7413919413919414
4.075468497001566,1.261172161172161,3.3,2.4747985347985346
4.079116406996036,1.261172161172161,3.3,2.4747985347985346
4.084364483998797,1.261172161172161,3.3,2.4747985347985346
4.087748794998333,1.261172161172161,3.3,2.4747985347985346
4.088028061996738,1.261172161172161,3.3,2.4747985347985346
4.0987234490021365,1.261172161172161,3.3,2.4747985347985346
4.108222351002041,1.261172161172161,3.3,2.4747985347985346
4.114487430997542,1.261172161172161,3.3,2.4747985347985346
4.118331963996752,1.261172161172161,3.3,2.4747985347985346
4.124268276995281,1.261172161172161,3.3,2.4747985347985346
4.13180610499694,1.261172161172161,3.3,2.4747985347985346
4.138706550002098,1.261172161172161,3.3,2.4747985347985346
4.14386524099973,2.98974358974359,2.6230769230769226,0.5600732600732601
4.1461178039971855,1.3756043956043955,2.526373626373626,0.9162637362637363
4.146337132995541,1.3756043956043955,2.526373626373626,0.9162637362637363
4.150949629001843,1.3756043956043955,2.526373626373626,0.9162637362637363
4.1512482359976275,1.3756043956043955,2.526373626373626,0.9162637362637363
4.1571376959982445,1.3756043956043955,2.526373626373626,0.9162637362637363
4.163663931001793,1.3756043956043955,2.526373626373626,0.9162637362637363
4.167449331995158,1.3756043956043955,2.526373626373626,0.9162637362637363
4.174529193995113,1.3756043956043955,2.526373626373626,0.9162637362637363
4.178990647997125,1.3756043956043955,2.526373626373626,0.9162637362637363
4.17922363300022,1.3756043956043955,2.526373626373626,0.9162637362637363
4.183717330000945,1.3756043956043955,2.526373626373626,0.9162637362637363
4.184656298995833,1.3756043956043955,2.526373626373626,0.9162637362637363
4.18565391300217,1.3756043956043955,2.526373626373626,0.9162637362637363
4.187309469998581,1.3756043956043955,2.526373626373626,0.9162637362637363
4.19071327799611,1.3756043956043955,2.526373626373626,0.9162637362637363
4.190980066996417,1.3756043956043955,2.526373626373626,0.9162637362637363
4.19659933699586,1.3756043956043955,2.526373626373626,0.9162637362637363
4.19692875599867,2.947032967032967,0.6688644688644688,1.3506227106227104
4.2052918010012945,2.947032967032967,0.6688644688644688,1.3506227106227104
4.211218635995465,1.1967032967032967,2.4820512820512817,0.792967032967033
4.219078821995936,1.1967032967032967,2.4820512820512817,0.792967032967033
4.225123053998686,1.1967032967032967,2.4820512820512817,0.792967032967033
4.228333263999957,1.1967032967032967,2.4820512820512817,0.792967032967033
4.229243886999029,1.1967032967032967,2.4820512820512817,0.792967032967033
4.231442837997747,1.1967032967032967,2.4820512820512817,0.792967032967033
4.232264701997337,1.1967032967032967,2.4820512820512817,0.792967032967033
4.2346918969997205,1.1967032967032967,2.4820512820512817,0.792967032967033
4.24083714599692,1.1967032967032967,2.4820512820512817,0.792967032967033
4.245253984001465,1.1967032967032967,2.4820512820512817,0.792967032967033
4.245506225001009,1.1967032967032967,2.4820512820512817,0.792967032967033
4.253311020998808,1.1967032967032967,2.4820512820512817,0.792967032967033
4.257751028999337,1.1967032967032967,2.4820512820512817,0.792967032967033
4.258098794001853,3.1299633699633698,3.3,2.9188278388278386
4.263702778000152,3.1299633699633698,3.3,2.9188278388278386
4.263847290996637,3.1299633699633698,3.3,2.9188278388278386
4.268485553999199,3.1299633699633698,3.3,2.9188278388278386
4.26872118999745,3.1299633699633698,3.3,2.9188278388278386
4.275627755996538,3.1299633699633698,3.3,2.9188278388278386
4.281710766001197,3.1299633699633698,3.3,2.9188278388278386
4.284940452002047,2.129084249084249,3.3,1.1161172161172161
4.286753745996975,2.129084249084249,3.3,1.1161172161172161
4.289923866999743,2.129084249084249,3.3,1.1161172161172161
4.292762363002112,0.963003663003663,3.3,1.6971428571428568
4.295747065996693,0.963003663003663,3.3,1.6971428571428568
4.296812308995868,0.963003663003663,3.3,1.6971428571428568
4.2983409609951195,0.963003663003663,3.3,1.6971428571428568
4.302480870996078,0.963003663003663,3.3,1.6971428571428568
4.304025375000492,0.963003663003663,3.3,1.6971428571428568
4.312509073999536,0.963003663003663,3.3,1.6971428571428568
4.31763870800205,0.963003663003663,3.3,1.6971428571428568
4.31991889100027,0.963003663003663,3.3,1.6971428571428568
4.320222835995082,0.963003663003663,3.3,1.6971428571428568
4.326096484997834,0.963003663003663,3.3,1.6971428571428568
4.3308751759977895,2.5642490842490844,2.5843956043956045,2.5602197802197804
4.336102219996974,2.5642490842490844,2.5843956043956045,2.5602197802197804
4.339247019997856,3.104175824175824,3.3,2.7117216117216114
4.3413479719965835,3.104175824175824,3.3,2.7117216117216114
4.341651055001421,3.104175824175824,3.3,2.7117216117216114
4.346330599000794,3.104175824175824,3.3,2.7117216117216114
4.346491844997217,3.104175824175824,3.3,2.7117216117216114
4.350958306000393,3.104175824175824,3.3,2.7117216117216114
4.351873501000227,3.104175824175824,3.3,2.7117216117216114
4.3535086779957055,3.104175824175824,3.3,2.7117216117216114
4.357671213998401,3.104175824175824,3.3,2.7117216117216114
4.36035252900183,3.104175824175824,3.3,2.7117216117216114
4.363687564000429,3.104175824175824,3.3,2.7117216117216114
4.363974535001034,3.104175824175824,3.3,2.7117216117216114
4.368517736002104,3.104175824175824,3.3,2.7117216117216114
4.369344982995244,1.0298901098901099,3.3,2.2475457875457874
4.370905267001945,1.0298901098901099,3.3,2.2475457875457874
4.37760791600158,1.0298901098901099,3.3,2.2475457875457874
4.3814913099995465,1.0298901098901099,3.3,2.2475457875457874
4.386061502002121,1.0298901098901099,3.3,2.2475457875457874
4.386922017998586,1.0298901098901099,3.3,2.2475457875457874
4.388530771997466,1.0298901098901099,3.3,2.2475457875457874
4.394075129996054,1.0298901098901099,3.3,2.2475457875457874
4.394220689995564,2.9768498168498168,2.2241758241758243,2.622271062271062
4.40030201299669,2.9768498168498168,2.2241758241758243,2.622271062271062
4.4041694839979755,2.9768498168498168,2.2241758241758243,2.622271062271062
4.4102182909991825,2.9768498168498168,2.2241758241758243,2.622271062271062
4.414978932996746,2.9768498168498168,2.2241758241758243,2.622271062271062
4.41840761200001,2.9768498168498168,2.2241758241758243,2.622271062271062
4.418625016995065,2.9768498168498168,2.2241758241758243,2.622271062271062
4.4251159240011475,2.9768498168498168,2.2241758241758243,2.622271062271062
4.429337902998668,2.4909157509157507,2.577948717948718,2.5545787545787544
4.4303299370003515,2.4909157509157507,2.577948717948718,2.5545787545787544
4.431328462997044,2.4909157509157507,2.577948717948718,2.5545787545787544
4.432239898000262,2.4909157509157507,2.577948717948718,2.5545787545787544
4.433878766001726,2.4909157509157507,2.577948717948718,2.5545787545787544
4.437101546995109,3.3,3.1847619047619045,2.2048351648351647
4.438819791001151,3.012307692307692,2.5843956043956045,2.569084249084249
4.44508008199773,3.012307692307692,2.5843956043956045,2.569084249084249
4.449861399996735,3.012307692307692,2.5843956043956045,2.569084249084249
4.454397888999665,1.079047619047619,3.3,2.0589743589743588
4.455291521000618,1.079047619047619,3.3,2.0589743589743588
4.456450687001052,1.079047619047619,3.3,2.0589743589743588
4.45687236199592,2.6424175824175826,2.5602197802197804,3.3
4.461711728996306,2.6424175824175826,2.5602197802197804,3.3
4.467314362002071,2.6424175824175826,2.5602197802197804,3.3
4.468191542000568,1.4529670329670328,2.565860805860806,1.7035897435897436
4.4698341580005945,1.4529670329670328,2.565860805860806,1.7035897435897436
4.4729822509980295,1.4529670329670328,2.565860805860806,1.7035897435897436
4.474949638999533,1.4529670329670328,2.565860805860806,1.7035897435897436
4.477385475001938,1.4529670329670328,2.565860805860806,1.7035897435897436
4.482688992000476,1.4529670329670328,2.565860805860806,1.7035897435897436
4.484947375000047,1.4529670329670328,2.565860805860806,1.7035897435897436
4.4852180009984295,1.4529670329670328,2.565860805860806,1.7035897435897436
4.4919288370001595,1.4529670329670328,2.565860805860806,1.7035897435897436
4.495799450996856,1.4529670329670328,2.565860805860806,1.7035897435897436
4.49952459600172,2.6746520146520147,3.3,2.9228571428571426
4.504910818999633,2.6746520146520147,3.3,2.9228571428571426
4.509367628998007,2.6746520146520147,3.3,2.9228571428571426
4.509513869001239,2.6746520146520147,3.3,2.9228571428571426
4.5140934309965814,2.6746520146520147,3.3,2.9228571428571426
4.514302411000244,3.3,1.581904761904762,1.701978021978022
4.52034002399887,3.3,1.581904761904762,1.701978021978022
4.526901368000836,3.3,1.581904761904762,1.701978021978022
4.531998603997636,3.3,1.581904761904762,1.701978021978022
4.535024238997721,0.8606593406593407,3.216190476190476,2.1524542124542125
4.536848789997748,0.8606593406593407,3.216190476190476,2.1524542124542125
4.540431396999338,0.8606593406593407,3.216190476190476,2.1524542124542125
4.546257246998721,1.7342124542124542,3.3,1.4287912087912087
4.555971745998249,1.7342124542124542,3.3,1.4287912087912087
4.564350793996709,1.7342124542124542,3.3,1.4287912087912087
4.571098535998317,1.7342124542124542,3.3,1.4287912087912087
4.5773524249962065,1.3441758241758242,2.577948717948718,3.3
4.581671273997927,1.3441758241758242,2.577948717948718,3.3
4.5819626890006475,1.3441758241758242,2.577948717948718,3.3
4.589193840998632,1.3441758241758242,2.577948717948718,3.3
4.595899100997485,1.3441758241758242,2.577948717948718,3.3
4.601082825996855,2.104102564102564,2.577948717948718,2.5682783882783884
4.602700199997344,2.104102564102564,2.577948717948718,2.5682783882783884
4.609108238000772,2.104102564102564,2.577948717948718,2.5682783882783884
4.614322604997142,2.104102564102564,2.577948717948718,2.5682783882783884
4.615770552001777,2.104102564102564,2.577948717948718,2.5682783882783884
4.620698252001603,2.104102564102564,2.577948717948718,2.5682783882783884
4.628182066997397,2.104102564102564,2.577948717948718,2.5682783882783884
4.6338134100005846,1.3095238095238093,2.6875457875457873,0.7357509157509158
4.646110378002049,3.2419780219780217,2.05010989010989,0.9678388278388278
4.654312350998225,3.3,2.021904761904762,1.0395604395604394
4.660664539995196,0.8534065934065934,1.7245421245421246,1.8478388278388278
4.663706824001565,0.8534065934065934,1.7245421245421246,1.8478388278388278
4.6660094690014375,0.8534065934065934,1.7245421245421246,1.8478388278388278
4.666316557995742,0.8534065934065934,1.7245421245421246,1.8478388278388278
4.6709936350016505,0.8534065934065934,1.7245421245421246,1.8478388278388278
4.671167196996976,0.8534065934065934,1.7245421245421246,1.8478388278388278
4.678356682998128,0.8534065934065934,1.7245421245421246,1.8478388278388278
4.682863517999067,0.8534065934065934,1.7245421245421246,1.8478388278388278
4.683710457997222,0.8534065934065934,1.7245421245421246,1.8478388278388278
4.685256703996856,0.8534065934065934,1.7245421245421246,1.8478388278388278
4.690586370001256,0.5600732600732601,3.3,0.7252747252747253
4.694244436999725,0.5600732600732601,3.3,0.7252747252747253
4.697926711996843,0.5600732600732601,3.3,0.7252747252747253
4.70262749199901,3.3,0.7518681318681318,1.6399267399267399
4.703569585995865,3.3,0.7518681318681318,1.6399267399267399
4.704439959998126,3.3,0.7518681318681318,1.6399267399267399
4.707121275001555,3.3,0.7518681318681318,1.6399267399267399
4.712367512998753,0.2917216117216117,3.2548717948717947,1.1596336996336996
4.713913120998768,0.2917216117216117,3.2548717948717947,1.1596336996336996
4.717750167001213,0.2917216117216117,3.2548717948717947,1.1596336996336996
4.722182735997194,0.2917216117216117,3.2548717948717947,1.1596336996336996
4.723726750002243,0.2917216117216117,3.2548717948717947,1.1596336996336996
4.728120954998303,2.6166300366300366,2.5682783882783884,0.9444688644688644
4.7300867550002295,2.4272527472527474,2.573919413919414,2.569084249084249
4.731038380996324,2.4272527472527474,2.573919413919414,2.569084249084249
4.731932561997382,2.4272527472527474,2.573919413919414,2.569084249084249
4.733777044995804,2.4272527472527474,2.573919413919414,2.569084249084249
4.736422854999546,2.4272527472527474,2.573919413919414,2.569084249084249
4.741825805002009,2.4272527472527474,2.573919413919414,2.569084249084249
4.7432892819997505,2.8100366300366297,2.523150183150183,1.1821978021978021
4.749300668001524,2.8100366300366297,2.523150183150183,1.1821978021978021
4.755819275000249,2.8100366300366297,2.523150183150183,1.1821978021978021
4.761145368996949,2.8100366300366297,2.523150183150183,1.1821978021978021
4.763587084002211,2.8100366300366297,2.523150183150183,1.1821978021978021
4.769006843001989,1.0516483516483515,2.7278388278388275,0.2361172161172161
4.770718647996546,1.0516483516483515,2.7278388278388275,0.2361172161172161
4.774970025995572,1.0516483516483515,2.7278388278388275,0.2361172161172161
4.777060011001595,1.0516483516483515,2.7278388278388275,0.2361172161172161
4.777965447996394,1.8526739926739926,2.577948717948718,2.5553846153846154
4.778970813000342,1.8526739926739926,2.577948717948718,2.5553846153846154
4.779896050997195,1.8526739926739926,2.577948717948718,2.5553846153846154
4.781454739997571,1.8526739926739926,2.577948717948718,2.5553846153846154
4.785435368998151,1.0693772893772893,2.6077655677655676,0.19340659340659339
4.789318415998423,1.0693772893772893,2.6077655677655676,0.19340659340659339
4.795546993998869,1.0693772893772893,2.6077655677655676,0.19340659340659339
4.800618895998923,1.0693772893772893,2.6077655677655676,0.19340659340659339
4.803611365998222,1.0693772893772893,2.6077655677655676,0.19340659340659339
4.807702286998392,1.0693772893772893,2.6077655677655676,0.19340659340659339
4.809958972997265,1.0693772893772893,2.6077655677655676,0.19340659340659339
4.8101772270019865,1.0693772893772893,2.6077655677655676,0.19340659340659339
4.814721687995188,1.0693772893772893,2.6077655677655676,0.19340659340659339
4.815560401999392,1.0693772893772893,2.6077655677655676,0.19340659340659339
4.8173144460015465,2.041245421245421,2.5763369963369964,2.561025641025641
4.820313889998943,2.041245421245421,2.5763369963369964,2.561025641025641
4.822736235000775,2.5553846153846154,3.032454212454212,0.12732600732600732
4.822931187001814,2.5553846153846154,3.032454212454212,0.12732600732600732
4.829616579001595,2.5553846153846154,3.032454212454212,0.12732600732600732
4.833506162001868,2.5553846153846154,3.032454212454212,0.12732600732600732
4.838466262997827,2.5553846153846154,3.032454212454212,0.12732600732600732
4.845557921995351,2.5553846153846154,3.032454212454212,0.12732600732600732
4.850856630997441,2.5553846153846154,3.032454212454212,0.12732600732600732
4.852164327996434,2.5553846153846154,3.032454212454212,0.12732600732600732
4.860651787996176,2.5553846153846154,3.032454212454212,0.12732600732600732
4.864813514999696,2.5553846153846154,3.032454212454212,0.12732600732600732
4.867764253001951,2.5553846153846154,3.032454212454212,0.12732600732600732
4.87009901899728,2.5553846153846154,3.032454212454212,0.12732600732600732
4.870237561000977,2.5553846153846154,3.032454212454212,0.12732600732600732
4.878185884001141,2.5553846153846154,3.032454212454212,0.12732600732600732
4.882712528000411,2.5553846153846154,3.032454212454212,0.12732600732600732
4.883058990999416,2.5553846153846154,3.032454212454212,0.12732600732600732
4.888836664998962,2.5553846153846154,3.032454212454212,0.12732600732600732
4.895406299001479,2.5553846153846154,3.032454212454212,0.12732600732600732
4.899209139999584,2.5553846153846154,3.032454212454212,0.12732600732600732
4.903608535998501,2.5553846153846154,3.032454212454212,0.12732600732600732
4.905209135002224,2.5553846153846154,3.032454212454212,0.12732600732600732
4.911279677995481,2.5553846153846154,3.032454212454212,0.12732600732600732
4.915044028995908,2.5553846153846154,3.032454212454212,0.12732600732600732
4.920263054002135,2.5553846153846154,3.032454212454212,0.12732600732600732
4.925014419000945,3.2774358974358972,1.0863003663003663,2.269304029304029
4.9291130139972665,3.2774358974358972,1.0863003663003663,2.269304029304029
4.932154641996021,0.759120879120879,3.3,2.5199267399267398
4.933998629996495,0.759120879120879,3.3,2.5199267399267398
4.936747084000672,0.759120879120879,3.3,2.5199267399267398
4.941701165997074,0.759120879120879,3.3,2.5199267399267398
4.945154781002202,0.759120879120879,3.3,2.5199267399267398
4.94549275800091,0.759120879120879,3.3,2.5199267399267398
4.949999976000981,0.759120879120879,3.3,2.5199267399267398
4.951557307002076,0.759120879120879,3.3,2.5199267399267398
4.956207538998569,0.759120879120879,3.3,2.5199267399267398
4.956330388995411,0.759120879120879,3.3,2.5199267399267398
4.961938362001092,0.759120879120879,3.3,2.5199267399267398
4.962218716995267,2.937362637362637,2.690769230769231,0.846153846153846
4.966722010998637,2.937362637362637,2.690769230769231,0.846153846153846
4.96758495499671,2.937362637362637,2.690769230769231,0.846153846153846
4.968478905997472,2.937362637362637,2.690769230769231,0.846153846153846
4.9701043690001825,2.937362637362637,2.690769230769231,0.846153846153846
4.975815927995427,3.3,2.9454212454212456,3.3
4.981264885995188,3.3,2.9454212454212456,3.3
4.98377688400069,3.3,2.9454212454212456,3.3
4.988280336998287,3.3,2.9454212454212456,3.3
4.990422016999219,3.3,2.9454212454212456,3.3
4.99148407499888,3.3,2.9454212454212456,3.3
4.991809075996571,3.3,2.9454212454212456,3.3
4.995889787998749,3.3,2.9454212454212456,3.3
4.998823796995566,3.3,2.9454212454212456,3.3
5.001792741000827,3.3,0.8453479853479853,1.2305494505494505
5.004851722995227,3.3,0.8453479853479853,1.2305494505494505
5.008107191999443,2.332967032967033,2.5843956043956045,2.5715018315018314
5.009451514997636,2.332967032967033,2.5843956043956045,2.5715018315018314
5.0149137929984136,2.332967032967033,2.5843956043956045,2.5715018315018314
5.015743101001135,2.6633699633699632,1.9252014652014653,3.3
5.017342291001114,2.6633699633699632,1.9252014652014653,3.3
5.021079949001432,2.6633699633699632,1.9252014652014653,3.3
5.027865500000189,2.6633699633699632,1.9252014652014653,3.3
5.031598597000993,2.6633699633699632,1.9252014652014653,3.3
5.037248020998959,2.6633699633699632,1.9252014652014653,3.3
5.038131625995447,2.6633699633699632,1.9252014652014653,3.3
5.040303549001692,2.6633699633699632,1.9252014652014653,3.3
5.040638749997015,2.6633699633699632,1.9252014652014653,3.3
5.046135527998558,2.6633699633699632,1.9252014652014653,3.3
5.0477149930011365,2.6633699633699632,1.9252014652014653,3.3
5.050853904998803,2.6633699633699632,1.9252014652014653,3.3
5.052430436997383,2.6633699633699632,1.9252014652014653,3.3
5.052654293001979,2.6633699633699632,1.9252014652014653,3.3
5.056868681000196,2.6633699633699632,1.9252014652014653,3.3
5.05910711499746,3.074358974358974,1.2273260073260073,2.7246153846153844
5.059252571001707,3.074358974358974,1.2273260073260073,2.7246153846153844
5.0638628890010295,3.074358974358974,1.2273260073260073,2.7246153846153844
5.06422173899773,3.074358974358974,1.2273260073260073,2.7246153846153844
5.068586149995099,3.074358974358974,1.2273260073260073,2.7246153846153844
5.070088022999698,0.7228571428571429,2.785054945054945,1.7237362637362637
5.074502905001282,0.7228571428571429,2.785054945054945,1.7237362637362637
5.075263327002176,0.7228571428571429,2.785054945054945,1.7237362637362637
5.077681687995209,0.7228571428571429,2.785054945054945,1.7237362637362637
5.077798446000088,0.7228571428571429,2.785054945054945,1.7237362637362637
5.08247734500037,0.7228571428571429,2.785054945054945,1.7237362637362637
5.08276965800178,0.7228571428571429,2.785054945054945,1.7237362637362637
5.0871563510008855,0.7228571428571429,2.785054945054945,1.7237362637362637
5.088721123000141,2.6424175824175826,2.5763369963369964,2.573919413919414
5.0923131730014575,2.6424175824175826,2.5763369963369964,2.573919413919414
5.092475373996422,2.6424175824175826,2.5763369963369964,2.573919413919414
5.09772325099766,2.6424175824175826,2.5763369963369964,2.573919413919414
5.101101652995567,2.6424175824175826,2.5763369963369964,2.573919413919414
5.101218491996406,2.6424175824175826,2.5763369963369964,2.573919413919414
5.108190250997723,1.3498168498168497,2.586007326007326,0.0701098901098901
5.112067818001378,0.4762637362637362,0.7776556776556776,0.805054945054945
5.116490569002053,0.4762637362637362,0.7776556776556776,0.805054945054945
5.117303239996545,0.4762637362637362,0.7776556776556776,0.805054945054945
5.11947634399985,0.4762637362637362,0.7776556776556776,0.805054945054945
5.119807335999212,0.4762637362637362,0.7776556776556776,0.805054945054945
5.127243179995276,0.4762637362637362,0.7776556776556776,0.805054945054945
5.131907356997544,0.4762637362637362,0.7776556776556776,0.805054945054945
5.132201428001281,0.4762637362637362,0.7776556776556776,0.805054945054945
5.137303283998335,0.4762637362637362,0.7776556776556776,0.805054945054945
5.141690864998964,0.4762637362637362,0.7776556776556776,0.805054945054945
5.142614593998587,0.4762637362637362,0.7776556776556776,0.805054945054945
5.144372046997887,0.4762637362637362,0.7776556776556776,0.805054945054945
5.146761687996332,0.4762637362637362,0.7776556776556776,0.805054945054945
5.146879637999518,1.2192673992673992,2.548937728937729,2.3692307692307693
5.15128070100036,1.2192673992673992,2.548937728937729,2.3692307692307693
5.152920283995627,1.2192673992673992,2.548937728937729,2.3692307692307693
5.156725348999316,1.2192673992673992,2.548937728937729,2.3692307692307693
5.161254503000237,1.2192673992673992,2.548937728937729,2.3692307692307693
5.161542838999594,1.062930402930403,2.929304029304029,0.22805860805860806
5.166646259996924,1.062930402930403,2.929304029304029,0.22805860805860806
5.170447716001945,1.2893772893772892,2.6633699633699632,0.2063003663003663
5.174950282002101,1.2893772893772892,2.6633699633699632,0.2063003663003663
5.1766001069991034,1.2893772893772892,2.6633699633699632,0.2063003663003663
5.1796689619950484,1.2893772893772892,2.6633699633699632,0.2063003663003663
5.182710718996532,1.2893772893772892,2.6633699633699632,0.2063003663003663
5.1856894599986845,1.5424175824175823,3.0566300366300365,1.2732600732600732
5.188112561998423,1.5424175824175823,3.0566300366300365,1.2732600732600732
5.188269330996263,1.5424175824175823,3.0566300366300365,1.2732600732600732
5.19271141399804,1.5424175824175823,3.0566300366300365,1.2732600732600732
5.193583096996008,1.5424175824175823,3.0566300366300365,1.2732600732600732
5.195148499995412,1.5424175824175823,3.0566300366300365,1.2732600732600732
5.199650942995504,1.5424175824175823,3.0566300366300365,1.2732600732600732
5.201118017001136,1.5424175824175823,3.0566300366300365,1.2732600732600732
5.204864737999742,1.5424175824175823,3.0566300366300365,1.2732600732600732
5.209232740999141,1.5424175824175823,3.0566300366300365,1.2732600732600732
5.211448725996888,1.5424175824175823,3.0566300366300365,1.2732600732600732
5.2117293720002635,1.5424175824175823,3.0566300366300365,1.2732600732600732
5.216140723001445,1.5424175824175823,3.0566300366300365,1.2732600732600732
5.217717467996408,1.5424175824175823,3.0566300366300365,1.2732600732600732
5.222089934999531,1.5424175824175823,3.0566300366300365,1.2732600732600732
5.22297465599695,1.5424175824175823,3.0566300366300365,1.2732600732600732
5.224549348000437,1.5424175824175823,3.0566300366300365,1.2732600732600732
5.2282436640016385,1.5424175824175823,3.0566300366300365,1.2732600732600732
5.228353938997316,1.5424175824175823,3.0566300366300365,1.2732600732600732
5.232751359995746,1.00007326007326,3.3,3.1210989010989008
5.233657061995473,2.6746520146520147,2.315238095238095,3.3
5.235258783999598,2.6746520146520147,2.315238095238095,3.3
5.2395654110005125,2.6746520146520147,2.315238095238095,3.3
5.241135267999198,2.8745054945054944,2.9188278388278386,0.7091575091575092
5.2455870659978245,2.8745054945054944,2.9188278388278386,0.7091575091575092
5.245895419997396,2.8745054945054944,2.9188278388278386,0.7091575091575092
5.250966310995864,2.8745054945054944,2.9188278388278386,0.7091575091575092
5.254652700998122,2.8745054945054944,2.9188278388278386,0.7091575091575092
5.260186077000981,2.8745054945054944,2.9188278388278386,0.7091575091575092
5.26108173099783,3.232307692307692,0.8953113553113552,2.7423443223443225
5.262735700998746,3.232307692307692,0.8953113553113552,2.7423443223443225
5.266464137996081,3.232307692307692,0.8953113553113552,2.7423443223443225
5.270918361995427,3.232307692307692,0.8953113553113552,2.7423443223443225
5.271875443999306,3.232307692307692,0.8953113553113552,2.7423443223443225
5.273411586997099,3.232307692307692,0.8953113553113552,2.7423443223443225
5.277153242997883,3.232307692307692,0.8953113553113552,2.7423443223443225
5.282446510995214,3.1323809523809523,2.5715018315018314,3.3
5.284672836998652,3.1323809523809523,2.5715018315018314,3.3
5.284894689000794,2.4079120879120874,3.3,2.4127472527472524
5.290037392995146,2.4079120879120874,3.3,2.4127472527472524
5.293740458000684,2.6714285714285713,1.5964102564102562,3.3
5.299008777001291,3.3,1.7076190476190476,3.3
5.3013250489966595,3.3,1.7076190476190476,3.3
5.301527832001739,1.3465934065934064,3.3,0.942051282051282
5.309098724996147,1.3465934065934064,3.3,0.942051282051282
5.3144012880002265,1.0387545787545787,2.5473260073260073,2.1194139194139194
5.316766465999535,1.0387545787545787,2.5473260073260073,2.1194139194139194
5.316925494997122,1.0387545787545787,2.5473260073260073,2.1194139194139194
5.321534814000188,1.0387545787545787,2.5473260073260073,2.1194139194139194
5.321871193998959,1.0387545787545787,2.5473260073260073,2.1194139194139194
5.326567415999307,1.0387545787545787,2.5473260073260073,2.1194139194139194
5.326721327997802,1.0387545787545787,2.5473260073260073,2.1194139194139194
5.331270431997837,1.0387545787545787,2.5473260073260073,2.1194139194139194
5.332120649996796,1.0387545787545787,2.5473260073260073,2.1194139194139194
5.33385867299512,1.0387545787545787,2.5473260073260073,2.1194139194139194
5.337626793996606,3.3,3.2717948717948717,1.1604395604395605
5.342055413995695,3.1968498168498165,0.5068864468864469,2.331355311355311
5.3435863589984365,3.1968498168498165,0.5068864468864469,2.331355311355311
5.348036643001251,3.1968498168498165,0.5068864468864469,2.331355311355311
5.349716828997771,3.1968498168498165,0.5068864468864469,2.331355311355311
5.352796346996911,3.1968498168498165,0.5068864468864469,2.331355311355311
5.35678783700132,2.6617582417582417,1.8776556776556774,3.3
5.362036526996235,2.6085714285714285,2.5843956043956045,2.577948717948718
5.362990752997575,0.8292307692307692,3.3,0.9307692307692307
5.363332171997172,0.8292307692307692,3.3,0.9307692307692307
5.37029898599576,0.8292307692307692,3.3,0.9307692307692307
5.377830348996213,0.8292307692307692,3.3,0.9307692307692307
5.383715755000594,0.8292307692307692,3.3,0.9307692307692307
5.388522273999115,1.4553846153846153,2.492527472527472,0.34087912087912087
5.396867941999517,1.4553846153846153,2.492527472527472,0.34087912087912087
5.4018721069951425,1.4553846153846153,2.492527472527472,0.34087912087912087
5.406541133001156,2.5586080586080584,3.3,0.07413919413919413
5.406813889996556,2.5586080586080584,3.3,0.07413919413919413
5.412547200001427,0.5350915750915751,2.2217582417582418,1.6173626373626373
5.412833337999473,0.5350915750915751,2.2217582417582418,1.6173626373626373
5.4180755889974535,0.5350915750915751,2.2217582417582418,1.6173626373626373
5.420643783996638,3.3,2.6037362637362635,0.8066666666666666
5.426604011001473,3.3,2.6037362637362635,0.8066666666666666
5.433124680996116,3.3,2.6037362637362635,0.8066666666666666
5.436348164999799,3.3,2.6037362637362635,0.8066666666666666
5.437293358998431,3.3,2.6037362637362635,0.8066666666666666
5.440265596997051,3.3,2.6037362637362635,0.8066666666666666
5.441694784996798,3.3,2.6037362637362635,0.8066666666666666
5.449500552000245,3.3,2.6037362637362635,0.8066666666666666
5.457214770001883,3.3,2.6037362637362635,0.8066666666666666
5.462235760001931,3.3,2.6037362637362635,0.8066666666666666
5.46758060099819,3.3,2.6037362637362635,0.8066666666666666
5.467834657996718,3.3,2.6037362637362635,0.8066666666666666
5.477370865999546,3.3,2.6037362637362635,0.8066666666666666
5.48178886599635,3.3,2.6037362637362635,0.8066666666666666
5.482087332995434,3.3,2.6037362637362635,0.8066666666666666
5.488075180001033,3.3,2.6037362637362635,0.8066666666666666
5.497673511999892,3.3,2.6037362637362635,0.8066666666666666
5.502371228001721,3.3,2.6037362637362635,0.8066666666666666
5.502704243997869,3.3,2.6037362637362635,0.8066666666666666
5.5096754979967955,1.6109157509157508,3.145274725274725,1.0564835164835162
5.513932796995505,1.6109157509157508,3.145274725274725,1.0564835164835162
5.51550831199711,1.6109157509157508,3.145274725274725,1.0564835164835162
5.519265290000476,1.6109157509157508,3.145274725274725,1.0564835164835162
5.526921705000859,3.2419780219780217,1.3385347985347984,2.5723076923076924
5.532406557002105,3.2419780219780217,1.3385347985347984,2.5723076923076924
5.532809438998811,3.2419780219780217,1.3385347985347984,2.5723076923076924
5.538596198995947,3.2419780219780217,1.3385347985347984,2.5723076923076924
5.545239179999044,3.2419780219780217,1.3385347985347984,2.5723076923076924
5.551095005001116,3.2419780219780217,1.3385347985347984,2.5723076923076924
5.556805617001373,3.2419780219780217,1.3385347985347984,2.5723076923076924
5.564130310995097,3.2419780219780217,1.3385347985347984,2.5723076923076924
5.5686118849989725,3.2419780219780217,1.3385347985347984,2.5723076923076924
5.570231862999208,3.2419780219780217,1.3385347985347984,2.5723076923076924
5.577856393996626,3.2419780219780217,1.3385347985347984,2.5723076923076924
5.582733846997144,3.2419780219780217,1.3385347985347984,2.5723076923076924
5.587864073000674,1.4304029304029304,2.6037362637362635,0.0547985347985348
5.592654615997162,1.4304029304029304,2.6037362637362635,0.0547985347985348
5.596174405000056,1.1225641025641024,3.3,3.037289377289377
5.606219545996282,3.3,0.9517216117216116,1.6584615384615384
5.613388762998511,3.3,0.9517216117216116,1.6584615384615384
5.620325417999993,3.3,0.9517216117216116,1.6584615384615384
5.62552959399909,3.3,2.0146520146520146,1.7358241758241757
5.628149707001285,3.3,2.0146520146520146,1.7358241758241757
5.633270925995021,3.3,2.0146520146520146,1.7358241758241757
5.636421661998611,3.3,2.0146520146520146,1.7358241758241757
5.637463895996916,3.3,2.0146520146520146,1.7358241758241757
5.6393074250008794,3.3,2.0146520146520146,1.7358241758241757
5.641339648995199,3.3,2.0146520146520146,1.7358241758241757
5.643640087997483,1.9453479853479854,3.3,0.6873992673992674
5.6438671040014015,1.9453479853479854,3.3,0.6873992673992674
5.648347575996013,1.9453479853479854,3.3,0.6873992673992674
5.65000250400044,1.9453479853479854,3.3,0.6873992673992674
5.653010802998324,1.9453479853479854,3.3,0.6873992673992674
5.658475799995358,3.3,1.4803663003663003,3.3
5.6588088709977455,2.493333333333333,2.577948717948718,2.5706959706959704
5.66525693499716,2.493333333333333,2.577948717948718,2.5706959706959704
5.670098725000571,2.493333333333333,2.577948717948718,2.5706959706959704
5.67775834799977,2.493333333333333,2.577948717948718,2.5706959706959704
5.682799468995654,2.493333333333333,2.577948717948718,2.5706959706959704
5.688195561000612,2.493333333333333,2.577948717948718,2.5706959706959704
5.688727100998221,2.493333333333333,2.577948717948718,2.5706959706959704
5.693188719997124,2.493333333333333,2.577948717948718,2.5706959706959704
5.693358361997525,2.04043956043956,2.548937728937729,2.5473260073260073
5.697767751997162,2.04043956043956,2.548937728937729,2.5473260073260073
5.698642172996188,2.04043956043956,2.548937728937729,2.5473260073260073
5.700255290001223,2.04043956043956,2.548937728937729,2.5473260073260073
5.70400309300021,2.04043956043956,2.548937728937729,2.5473260073260073
5.710887121997075,2.04043956043956,2.548937728937729,2.5473260073260073
5.714890967996325,2.04043956043956,2.548937728937729,2.5473260073260073
5.717857768999238,2.04043956043956,2.548937728937729,2.5473260073260073
5.721102226998482,2.7745787545787546,2.993772893772894,0.24901098901098898
5.722252943000058,2.7745787545787546,2.993772893772894,0.24901098901098898
5.722714609997638,2.7745787545787546,2.993772893772894,0.24901098901098898
5.727357828996901,2.7745787545787546,2.993772893772894,0.24901098901098898
5.731804397000815,2.7745787545787546,2.993772893772894,0.24901098901098898
5.732657704000303,2.7745787545787546,2.993772893772894,0.24901098901098898
5.73429517600016,2.7745787545787546,2.993772893772894,0.24901098901098898
5.738759216998005,2.7745787545787546,2.993772893772894,0.24901098901098898
5.739819030000945,2.7745787545787546,2.993772893772894,0.24901098901098898
5.74011286500172,2.7745787545787546,2.993772893772894,0.24901098901098898
5.746040776997688,2.7745787545787546,2.993772893772894,0.24901098901098898
5.749694918995374,2.3813186813186813,2.5763369963369964,2.56989010989011
5.7548028339952,2.3813186813186813,2.5763369963369964,2.56989010989011
5.759792357996048,2.8511355311355313,2.24996336996337,2.1798534798534797
5.76404629299941,2.8511355311355313,2.24996336996337,2.1798534798534797
5.765263857996615,2.8511355311355313,2.24996336996337,2.1798534798534797
5.7749594429988065,2.8511355311355313,2.24996336996337,2.1798534798534797
5.780215063998185,2.8511355311355313,2.24996336996337,2.1798534798534797
5.783194180999999,2.8511355311355313,2.24996336996337,2.1798534798534797
5.786314128999948,2.8511355311355313,2.24996336996337,2.1798534798534797
5.788170512998477,2.4989743589743587,2.5706959706959704,2.565860805860806
5.79236562299775,2.4989743589743587,2.5706959706959704,2.565860805860806
5.7925917510001455,3.0808058608058606,3.3,2.8543589743589743
5.797368667997944,3.0808058608058606,3.3,2.8543589743589743
5.797508440999081,3.0808058608058606,3.3,2.8543589743589743
5.801892454997869,3.0808058608058606,3.3,2.8543589743589743
5.80342347700207,3.0808058608058606,3.3,2.8543589743589743
5.810606020997511,3.0808058608058606,3.3,2.8543589743589743
5.814359960000729,3.0808058608058606,3.3,2.8543589743589743
5.819761209000717,3.3,1.627032967032967,3.3
5.821603397998842,3.3,1.627032967032967,3.3
5.8260493369962205,3.3,1.627032967032967,3.3
5.832866231998196,3.3,1.627032967032967,3.3
5.836876732995734,3.3,1.627032967032967,3.3
5.843053527001757,3.3,1.627032967032967,3.3
5.846219694998581,3.3,1.627032967032967,3.3
5.847784357996716,3.3,1.627032967032967,3.3
5.852237104998494,3.3,1.627032967032967,3.3
5.85311732700211,3.3,1.627032967032967,3.3
5.85482075499749,3.3,1.627032967032967,3.3
5.859685848998197,3.3,1.627032967032967,3.3
5.86275121899962,3.248424908424908,1.3046886446886445,2.713333333333333
5.864345699999831,0.9992673992673992,3.3,0.8171428571428572
5.8687074779954855,0.9992673992673992,3.3,0.8171428571428572
5.870247974999074,0.9992673992673992,3.3,0.8171428571428572
5.87478461000137,0.9992673992673992,3.3,0.8171428571428572
5.87495619499532,0.9992673992673992,3.3,0.8171428571428572
5.879604503999872,0.9992673992673992,3.3,0.8171428571428572
5.879881902998022,0.9992673992673992,3.3,0.8171428571428572
5.884469288001128,0.9992673992673992,3.3,0.8171428571428572
5.884744003997184,0.9992673992673992,3.3,0.8171428571428572
5.890094181995664,0.9992673992673992,3.3,0.8171428571428572
5.89354693399946,2.9647619047619047,2.242710622710623,2.565054945054945
5.898793989996193,2.7036630036630034,2.0525274725274723,3.0606593406593405
5.901751272002002,2.415164835164835,2.577948717948718,2.565054945054945
5.904357143997913,2.415164835164835,2.577948717948718,2.565054945054945
5.911480971000856,2.415164835164835,2.577948717948718,2.565054945054945
5.915251200000057,2.415164835164835,2.577948717948718,2.565054945054945
5.924657516996376,2.415164835164835,2.577948717948718,2.565054945054945
5.928919730002235,2.415164835164835,2.577948717948718,2.565054945054945
5.931200936996902,0.8227838827838827,3.3,2.5400732600732603
5.9320440820010845,2.664175824175824,1.8857142857142855,3.3
5.9336659089967725,2.664175824175824,1.8857142857142855,3.3
5.93740217499726,2.664175824175824,1.8857142857142855,3.3
5.937641518998134,3.042124542124542,0.5858608058608058,2.4586813186813186
5.943933185997594,3.042124542124542,0.5858608058608058,2.4586813186813186
5.947688945001573,2.626300366300366,2.5723076923076924,2.5706959706959704
5.95373339499929,2.626300366300366,2.5723076923076924,2.5706959706959704
5.960928735999914,2.626300366300366,2.5723076923076924,2.5706959706959704
5.966305349000322,2.626300366300366,2.5723076923076924,2.5706959706959704
5.966615397999703,0.6398534798534798,1.573846153846154,0.48835164835164835
5.974858472000051,0.6398534798534798,1.573846153846154,0.48835164835164835
5.982153617995209,2.6617582417582417,2.5247619047619043,3.3
5.986033604000113,2.6617582417582417,2.5247619047619043,3.3
5.994124644996191,2.6617582417582417,2.5247619047619043,3.3
5.9977140959963435,2.6617582417582417,2.5247619047619043,3.3
6.003025186997547,2.6617582417582417,2.5247619047619043,3.3
6.006360797997331,1.5295238095238095,3.2097435897435895,0.4126007326007326
6.006667105000815,1.5295238095238095,3.2097435897435895,0.4126007326007326
6.0161142149954685,1.5295238095238095,3.2097435897435895,0.4126007326007326
6.024996562999149,1.5295238095238095,3.2097435897435895,0.4126007326007326
6.029964959998324,3.3,1.1773626373626374,1.6052747252747253
6.033199020996108,3.3,1.1773626373626374,1.6052747252747253
6.034772090999468,3.3,1.1773626373626374,1.6052747252747253
6.0410953009995865,3.3,1.1773626373626374,1.6052747252747253
6.045055228001729,3.3,1.1773626373626374,1.6052747252747253
6.048090420001245,3.3,1.1773626373626374,1.6052747252747253
6.049731396997231,3.3,1.1773626373626374,1.6052747252747253
6.053473177998967,3.3,1.1773626373626374,1.6052747252747253
6.060851745001855,3.295164835164835,3.024395604395604,0.8517948717948718
6.065364916001272,3.295164835164835,3.024395604395604,0.8517948717948718
6.067242486002215,2.4345054945054945,2.577948717948718,2.5666666666666664
6.069710177995148,0.5923076923076923,1.7237362637362637,1.4876190476190476
6.0765798639986315,0.5923076923076923,1.7237362637362637,1.4876190476190476
6.0803298440005165,3.3,1.739047619047619,1.4763369963369963
6.085810427000979,3.3,1.739047619047619,1.4763369963369963
6.08616815500136,3.3,1.739047619047619,1.4763369963369963
6.092688712000381,3.3,1.739047619047619,1.4763369963369963
6.095328768999025,3.3,1.739047619047619,1.4763369963369963
6.100491033997969,2.7455677655677655,2.523150183150183,2.0057875457875456
6.103586598997936,2.7455677655677655,2.523150183150183,2.0057875457875456
6.106070164001721,2.7455677655677655,2.523150183150183,2.0057875457875456
6.111813547999191,2.7455677655677655,2.523150183150183,2.0057875457875456
6.117144698000629,2.7455677655677655,2.523150183150183,2.0057875457875456
6.119449050995172,2.7455677655677655,2.523150183150183,2.0057875457875456
6.1196952760001295,2.7455677655677655,2.523150183150183,2.0057875457875456
6.126613438995264,2.7455677655677655,2.523150183150183,2.0057875457875456
6.130518737001694,2.7455677655677655,2.523150183150183,2.0057875457875456
6.134935360998497,2.7455677655677655,2.523150183150183,2.0057875457875456
6.136540697996679,2.7455677655677655,2.523150183150183,2.0057875457875456
6.143644812997081,2.7455677655677655,2.523150183150183,2.0057875457875456
6.148252950995811,2.7455677655677655,2.523150183150183,2.0057875457875456
6.148578006999742,2.7455677655677655,2.523150183150183,2.0057875457875456
6.153140226000687,2.7455677655677655,2.523150183150183,2.0057875457875456
6.154051391000394,2.7455677655677655,2.523150183150183,2.0057875457875456
6.157283492000715,2.7455677655677655,2.523150183150183,2.0057875457875456
6.157435002998682,2.7455677655677655,2.523150183150183,2.0057875457875456
6.163032113996451,2.7455677655677655,2.523150183150183,2.0057875457875456
6.163215833999857,1.3844688644688645,2.6166300366300366,0.3465201465201465
6.169082647997129,1.3844688644688645,2.6166300366300366,0.3465201465201465
6.176510605000658,1.3844688644688645,2.6166300366300366,0.3465201465201465
6.180973825001274,1.3844688644688645,2.6166300366300366,0.3465201465201465
6.181958891997056,3.3,2.5634432234432234,1.1483516483516483
6.182900792999135,3.3,2.5634432234432234,1.1483516483516483
6.184440265002195,3.3,2.5634432234432234,1.1483516483516483
6.188753657996131,3.3,2.5634432234432234,1.1483516483516483
6.190383438995923,3.3,2.5634432234432234,1.1483516483516483
