time,emg1,emg2,emg3
0.011875421001604991,2.0557509157509157,1.456190476190476,0.6358241758241758
0.018013312001130544,2.984102564102564,2.565860805860806,2.5706959706959704
0.024309577001986327,2.984102564102564,2.565860805860806,2.5706959706959704
0.0296854260013788,2.984102564102564,2.565860805860806,2.5706959706959704
0.030125609002425335,2.984102564102564,2.565860805860806,2.5706959706959704
0.0403181340006995,2.984102564102564,2.565860805860806,2.5706959706959704
0.04653502099972684,0.01934065934065934,0.7583150183150182,0.5906959706959707
0.05027756500203395,1.88007326007326,1.3264468864468864,0.6938461538461538
0.054965617000561906,2.091208791208791,0.49076923076923074,0.5375091575091575
0.06156044499948621,1.884102564102564,1.6544322344322344,2.5868131868131865
0.06606860800093273,1.884102564102564,1.6544322344322344,2.5868131868131865
0.06644261000110419,1.884102564102564,1.6544322344322344,2.5868131868131865
0.07270615200104658,1.884102564102564,1.6544322344322344,2.5868131868131865
0.07658353700026055,1.884102564102564,1.6544322344322344,2.5868131868131865
0.08220705400162842,1.884102564102564,1.6544322344322344,2.5868131868131865
0.09363074000066263,1.884102564102564,1.6544322344322344,2.5868131868131865
0.10404518599898438,0.5882783882783883,0.26593406593406593,0.9065934065934066
0.1119443780007714,1.514212454212454,3.3,3.3
0.11615460200118832,0.5600732600732601,2.215311355311355,1.2506959706959706
0.11781688100018073,0.011282051282051281,0.8614652014652014,0.6777289377289377
0.12162616600107867,0.011282051282051281,0.8614652014652014,0.6777289377289377
0.12630855300085386,0.011282051282051281,0.8614652014652014,0.6777289377289377
0.1265670950015192,3.3,2.840659340659341,2.5706959706959704
0.1356591780022427,3.3,2.840659340659341,2.5706959706959704
0.14270402300098795,3.3,2.840659340659341,2.5706959706959704
0.14833011299924692,3.3,2.840659340659341,2.5706959706959704
0.1552357030013809,3.3,2.840659340659341,2.5706959706959704
0.16009644500081777,3.3,2.840659340659341,2.5706959706959704
0.16540951400020276,3.3,2.840659340659341,2.5706959706959704
0.16773000700050034,3.3,2.840659340659341,2.5706959706959704
0.16803734499990242,3.3,2.840659340659341,2.5706959706959704
0.1726504210018902,3.3,2.840659340659341,2.5706959706959704
0.17295231400203193,3.3,2.840659340659341,2.5706959706959704
0.17754845200033742,3.3,2.840659340659341,2.5706959706959704
0.17777667500195093,3.3,2.840659340659341,2.5706959706959704
0.18416000900106155,3.3,2.840659340659341,2.5706959706959704
0.18732830999942962,2.297509157509157,2.9389743589743587,2.561831501831502
0.18928769800186274,2.297509157509157,2.9389743589743587,2.561831501831502
0.1929214250012592,2.297509157509157,2.9389743589743587,2.561831501831502
0.20235529500132543,2.297509157509157,2.9389743589743587,2.561831501831502
0.21312757499981672,2.297509157509157,2.9389743589743587,2.561831501831502
0.21866878899891162,2.297509157509157,2.9389743589743587,2.561831501831502
0.21896455900059664,2.297509157509157,2.9389743589743587,2.561831501831502
0.22507285000028787,2.297509157509157,2.9389743589743587,2.561831501831502
0.22910260100252344,2.297509157509157,2.9389743589743587,2.561831501831502
0.23233703400183003,2.297509157509157,2.9389743589743587,2.561831501831502
0.23333542000182206,2.297509157509157,2.9389743589743587,2.561831501831502
0.23362783899938222,2.297509157509157,2.9389743589743587,2.561831501831502
0.2385724849991675,2.297509157509157,2.9389743589743587,2.561831501831502
0.24498546999893733,2.297509157509157,2.9389743589743587,2.561831501831502
0.24892996299968217,2.041245421245421,2.581172161172161,2.6037362637362635
0.25284690400076215,2.041245421245421,2.581172161172161,2.6037362637362635
0.25990900300166686,2.041245421245421,2.581172161172161,2.6037362637362635
0.2636228960000153,2.041245421245421,2.581172161172161,2.6037362637362635
0.2691358539996145,2.041245421245421,2.581172161172161,2.6037362637362635
0.26942216899988125,2.041245421245421,2.581172161172161,2.6037362637362635
0.2760163550010475,2.041245421245421,2.581172161172161,2.6037362637362635
0.2808760110019648,2.041245421245421,2.581172161172161,2.6037362637362635
0.2848369259991159,1.9171428571428573,2.8164835164835162,2.9276923076923076
0.2880067370024335,1.9171428571428573,2.8164835164835162,2.9276923076923076
0.28983382700243965,1.9171428571428573,2.8164835164835162,2.9276923076923076
0.2940678310005751,1.9171428571428573,2.8164835164835162,2.9276923076923076
0.2949550340017595,1.9171428571428573,2.8164835164835162,2.9276923076923076
0.2958781160014041,1.9171428571428573,2.8164835164835162,2.9276923076923076
0.2975868339999579,1.9171428571428573,2.8164835164835162,2.9276923076923076
0.3015699570023571,1.9171428571428573,2.8164835164835162,2.9276923076923076
0.30472091900082887,1.9171428571428573,2.8164835164835162,2.9276923076923076
0.30567402300221147,1.9171428571428573,2.8164835164835162,2.9276923076923076
0.3070052629991551,1.9171428571428573,2.8164835164835162,2.9276923076923076
0.31468467800004873,1.9171428571428573,2.8164835164835162,2.9276923076923076
0.31942248700215714,0.022564102564102562,0.6793406593406592,0.6205128205128204
0.31966525399911916,0.10717948717948718,1.2885714285714285,0.6882051282051282
0.3282757609995315,0.10717948717948718,1.2885714285714285,0.6882051282051282
0.333307146000152,0.10717948717948718,1.2885714285714285,0.6882051282051282
0.33727987599922926,0.10717948717948718,1.2885714285714285,0.6882051282051282
0.3432507950019499,0.28205128205128205,0.5149450549450549,0.7526739926739926
0.3489593390004302,0.28205128205128205,0.5149450549450549,0.7526739926739926
0.35966465399906156,0.28205128205128205,0.5149450549450549,0.7526739926739926
0.3647660220012767,2.8358241758241753,2.4046886446886444,2.5505494505494504
0.3687184820009861,2.3684249084249083,1.4586080586080585,1.9896703296703295
0.3721406590011611,2.3684249084249083,1.4586080586080585,1.9896703296703295
0.3726811800006544,2.3684249084249083,1.4586080586080585,1.9896703296703295
0.37748258500141674,2.3684249084249083,1.4586080586080585,1.9896703296703295
0.3816454270017857,2.3684249084249083,1.4586080586080585,1.9896703296703295
0.3834204570011934,2.3684249084249083,1.4586080586080585,1.9896703296703295
0.3866604640024889,2.3684249084249083,1.4586080586080585,1.9896703296703295
0.38763454299987643,2.3684249084249083,1.4586080586080585,1.9896703296703295
0.38868859899957897,2.5344322344322343,0.5350915750915751,0.506080586080586
0.3899053080021986,2.5344322344322343,0.5350915750915751,0.506080586080586
0.3966768200007209,2.5344322344322343,0.5350915750915751,0.506080586080586
0.4007066580015817,0.13699633699633698,0.6358241758241758,0.755091575091575
0.40395470700241276,0.13699633699633698,0.6358241758241758,0.755091575091575
0.40487923999899067,0.13699633699633698,0.6358241758241758,0.755091575091575
0.4064784790025442,0.5778021978021978,2.9518681318681317,2.461904761904762
0.4124400050022814,2.328131868131868,0.8582417582417583,0.5987545787545787
0.41581865700209164,2.328131868131868,0.8582417582417583,0.5987545787545787
0.41606132900051307,2.328131868131868,0.8582417582417583,0.5987545787545787
0.42083164300129283,2.328131868131868,0.8582417582417583,0.5987545787545787
0.42884388500169734,2.328131868131868,0.8582417582417583,0.5987545787545787
0.4336195960022451,2.328131868131868,0.8582417582417583,0.5987545787545787
0.4337791690013546,2.328131868131868,0.8582417582417583,0.5987545787545787
0.4390186420023383,2.328131868131868,0.8582417582417583,0.5987545787545787
0.4446363550014212,2.328131868131868,0.8582417582417583,0.5987545787545787
0.45089203500174335,1.813992673992674,2.759267399267399,2.5602197802197804
0.45504592200086336,2.3893772893772893,0.2772161172161172,0.5367032967032966
0.4584978509992652,0.24578754578754577,0.40534798534798533,0.8534065934065934
0.46621919899916975,0.24578754578754577,0.40534798534798533,0.8534065934065934
0.4710583830019459,0.24578754578754577,0.40534798534798533,0.8534065934065934
0.47971202400003676,0.24578754578754577,0.40534798534798533,0.8534065934065934
0.48565091600175947,0.0,1.079047619047619,0.5995604395604395
0.4932323409993842,1.527106227106227,1.8317216117216117,3.3
0.49729748100071447,1.527106227106227,1.8317216117216117,3.3
0.5005887420011277,1.527106227106227,1.8317216117216117,3.3
0.5014711990006617,1.527106227106227,1.8317216117216117,3.3
0.5032199939996644,1.527106227106227,1.8317216117216117,3.3
0.5061125030006224,2.262857142857143,2.7584615384615385,2.5602197802197804
0.5116261920011311,2.262857142857143,2.7584615384615385,2.5602197802197804
0.5229698410003039,2.4312820512820514,1.2087912087912087,0.5697435897435897
0.530623631002527,1.6286446886446886,1.1749450549450549,2.1677655677655676
0.5354880920021969,0.15311355311355312,2.407106227106227,1.6657142857142855
0.5430583260022104,0.15311355311355312,2.407106227106227,1.6657142857142855
0.5487376300006872,0.15311355311355312,2.407106227106227,1.6657142857142855
0.5605364680013736,0.15311355311355312,2.407106227106227,1.6657142857142855
0.5662193520001892,1.9501831501831501,0.6954578754578754,0.5608791208791208
0.5663622640022368,1.9501831501831501,0.6954578754578754,0.5608791208791208
0.5729336510012217,1.9501831501831501,0.6954578754578754,0.5608791208791208
0.5775123429993982,1.9501831501831501,0.6954578754578754,0.5608791208791208
0.5835564480003086,1.9501831501831501,0.6954578754578754,0.5608791208791208
0.5876950999991095,2.3200732600732596,1.0298901098901099,1.735018315018315
0.5918127549994097,1.9364835164835164,1.332087912087912,0.6575824175824176
0.5932761889998801,1.9364835164835164,1.332087912087912,0.6575824175824176
0.5983837790008693,1.9364835164835164,1.332087912087912,0.6575824175824176
0.6023937919999298,0.012893772893772894,0.9436630036630036,0.6519413919413919
0.608217822998995,2.258827838827839,0.9742857142857142,1.6576556776556775
0.6147800180006016,0.05318681318681319,2.390989010989011,1.5093772893772892
0.6184896910017414,0.05318681318681319,2.390989010989011,1.5093772893772892
0.6256164040023577,0.05318681318681319,2.390989010989011,1.5093772893772892
0.6312293470000441,0.05318681318681319,2.390989010989011,1.5093772893772892
0.6366767090003123,1.797069597069597,0.29655677655677654,0.46820512820512816
0.6396829160003108,1.797069597069597,0.29655677655677654,0.46820512820512816
0.6445111680004629,1.797069597069597,0.29655677655677654,0.46820512820512816
0.6502366029999394,1.797069597069597,0.29655677655677654,0.46820512820512816
0.6575926260011329,1.3659340659340657,1.4537728937728938,0.6801465201465201
0.6617644670004665,3.1194871794871792,3.3,2.826153846153846
0.6628515850024996,1.523076923076923,3.2258608058608056,2.880952380952381
0.6637529069994343,1.523076923076923,3.2258608058608056,2.880952380952381
0.6646695390008972,1.523076923076923,3.2258608058608056,2.880952380952381
0.6663418290008849,1.523076923076923,3.2258608058608056,2.880952380952381
0.6702602780023881,1.523076923076923,3.2258608058608056,2.880952380952381
0.6755899679992581,2.117802197802198,0.42630036630036633,0.5165567765567766
0.6766747889996623,2.117802197802198,0.42630036630036633,0.5165567765567766
0.67684581100184,2.117802197802198,0.42630036630036633,0.5165567765567766
0.6825216300021566,2.117802197802198,0.42630036630036633,0.5165567765567766
0.6827976400018088,2.117802197802198,0.42630036630036633,0.5165567765567766
0.6876878080001916,2.117802197802198,0.42630036630036633,0.5165567765567766
0.6956181839996134,2.117802197802198,0.42630036630036633,0.5165567765567766
0.7003176880025421,2.117802197802198,0.42630036630036633,0.5165567765567766
0.7005554040006245,2.117802197802198,0.42630036630036633,0.5165567765567766
0.705226775000483,2.117802197802198,0.42630036630036633,0.5165567765567766
0.7057727179999347,2.117802197802198,0.42630036630036633,0.5165567765567766
0.7114312190024066,2.117802197802198,0.42630036630036633,0.5165567765567766
0.7165971829999762,2.0976556776556774,0.26673992673992675,0.5350915750915751
0.7196841969998786,0.0,0.5076923076923077,0.7091575091575092
0.7214075049996609,0.0,0.5076923076923077,0.7091575091575092
0.7277837559995533,2.004175824175824,0.9356043956043956,1.556117216117216
0.7317516709990741,2.004175824175824,0.9356043956043956,1.556117216117216
0.7355084090013406,2.004175824175824,0.9356043956043956,1.556117216117216
0.7410100109991618,2.004175824175824,0.9356043956043956,1.556117216117216
0.742690754999785,2.004175824175824,0.9356043956043956,1.556117216117216
0.7461707229995227,2.004175824175824,0.9356043956043956,1.556117216117216
0.7531130349998421,2.004175824175824,0.9356043956043956,1.556117216117216
0.7607897650013911,2.004175824175824,0.9356043956043956,1.556117216117216
0.7664928680023877,2.004175824175824,0.9356043956043956,1.556117216117216
0.7747894220010494,2.004175824175824,0.9356043956043956,1.556117216117216
0.7818687530016177,2.004175824175824,0.9356043956043956,1.556117216117216
0.7861392190025072,2.004175824175824,0.9356043956043956,1.556117216117216
0.7870985150002525,2.004175824175824,0.9356043956043956,1.556117216117216
0.7882155510014854,2.004175824175824,0.9356043956043956,1.556117216117216
0.788579281001148,2.004175824175824,0.9356043956043956,1.556117216117216
0.7974927550021675,2.004175824175824,0.9356043956043956,1.556117216117216
0.8036396230017999,2.004175824175824,0.9356043956043956,1.556117216117216
0.8098962100011704,2.004175824175824,0.9356043956043956,1.556117216117216
0.8141233380010817,0.0032234432234432234,2.166153846153846,1.212014652014652
0.8145038910006406,0.0032234432234432234,2.166153846153846,1.212014652014652
0.8252067840003292,0.0032234432234432234,2.166153846153846,1.212014652014652
0.8339483970012225,1.656043956043956,3.3,3.3
0.840249077999033,1.656043956043956,3.3,3.3
0.8464880610008549,1.278901098901099,3.3,3.3
0.8501439190004021,1.278901098901099,3.3,3.3
0.8576036779995775,1.278901098901099,3.3,3.3
0.8661393620022864,1.278901098901099,3.3,3.3
0.8736053319989878,1.278901098901099,3.3,3.3
0.8790574699996796,1.278901098901099,3.3,3.3
0.8793657130008796,1.4545787545787545,3.3,2.843882783882784
0.8858301649997884,1.4545787545787545,3.3,2.843882783882784
0.8911758470021596,1.7253479853479854,1.1394871794871795,0.6712820512820512
0.8917070630013768,1.7253479853479854,1.1394871794871795,0.6712820512820512
0.899414968000201,1.7253479853479854,1.1394871794871795,0.6712820512820512
0.9034552100019937,1.7253479853479854,1.1394871794871795,0.6712820512820512
0.9077126250012952,1.7253479853479854,1.1394871794871795,0.6712820512820512
0.9100042819991359,1.7253479853479854,1.1394871794871795,0.6712820512820512
0.9101394480021554,1.7253479853479854,1.1394871794871795,0.6712820512820512
0.9151885070023127,1.7253479853479854,1.1394871794871795,0.6712820512820512
0.9214147780003259,1.7253479853479854,1.1394871794871795,0.6712820512820512
0.9284958800017193,1.7253479853479854,1.1394871794871795,0.6712820512820512
0.9333011260023341,3.3,2.8938461538461535,2.5674725274725274
0.9409811309997167,3.3,2.8938461538461535,2.5674725274725274
0.9450531959992077,0.10153846153846154,1.5005128205128204,0.7961904761904761
0.9481624590007414,1.6624908424908424,3.3,3.1767032967032964
0.9497437819991319,1.6624908424908424,3.3,3.1767032967032964
0.9542647550006222,1.6624908424908424,3.3,3.1767032967032964
0.9545633330017154,1.6624908424908424,3.3,3.1767032967032964
0.9617326740008139,0.0,0.8187545787545787,0.5987545787545787
0.9661603349995858,1.6358974358974359,3.3,3.3
0.9666019520009286,1.6358974358974359,3.3,3.3
0.9753915080000297,1.6358974358974359,3.3,3.3
0.979766087999451,1.8865201465201462,0.5842490842490843,0.4964102564102564
0.9807777249989158,1.8865201465201462,0.5842490842490843,0.4964102564102564
0.9817424100001517,1.8865201465201462,0.5842490842490843,0.4964102564102564
0.9826659960017423,1.8865201465201462,0.5842490842490843,0.4964102564102564
0.9842777859994385,1.80996336996337,2.4756043956043956,2.5441025641025643
0.9883557460016164,1.80996336996337,2.4756043956043956,2.5441025641025643
0.996301343999221,1.80996336996337,2.4756043956043956,2.5441025641025643
1.00370984500114,1.523882783882784,2.4425641025641025,3.3
1.0108453829998325,1.506153846153846,3.3,3.192014652014652
1.0147978560016782,1.506153846153846,3.3,3.192014652014652
1.0187142089998815,1.506153846153846,3.3,3.192014652014652
1.022773218999646,1.506153846153846,3.3,3.192014652014652
1.0297548650014505,1.506153846153846,3.3,3.192014652014652
1.0329569560017262,2.146007326007326,0.24901098901098898,0.518974358974359
1.034516749001341,1.722930402930403,0.24175824175824176,0.49560439560439556
1.0400674020020233,1.722930402930403,0.24175824175824176,0.49560439560439556
1.0404195720002463,1.722930402930403,0.24175824175824176,0.49560439560439556
1.0494897800017498,1.722930402930403,0.24175824175824176,0.49560439560439556
1.0591475050023291,1.7172893772893774,1.1644688644688646,0.701098901098901
1.068938115000492,1.7172893772893774,1.1644688644688646,0.701098901098901
1.0786593250013539,1.7172893772893774,1.1644688644688646,0.701098901098901
1.0836652489997505,1.7172893772893774,1.1644688644688646,0.701098901098901
1.0881046540016541,1.7172893772893774,1.1644688644688646,0.701098901098901
1.0895665230018494,1.7172893772893774,1.1644688644688646,0.701098901098901
1.0963663500006078,1.7172893772893774,1.1644688644688646,0.701098901098901
1.1007024099999398,1.7172893772893774,1.1644688644688646,0.701098901098901
1.1024851160000253,1.7172893772893774,1.1644688644688646,0.701098901098901
1.1060502489999635,1.7172893772893774,1.1644688644688646,0.701098901098901
1.1062075970003207,1.0435897435897434,1.813992673992674,0.8139194139194139
1.1114977149991319,1.0435897435897434,1.813992673992674,0.8139194139194139
1.114084148000984,1.0435897435897434,1.813992673992674,0.8139194139194139
1.1187091430001601,1.0435897435897434,1.813992673992674,0.8139194139194139
1.1189943110002787,1.0435897435897434,1.813992673992674,0.8139194139194139
1.1240722610018565,1.0435897435897434,1.813992673992674,0.8139194139194139
1.1272476020021713,1.9687179487179485,2.291062271062271,3.3
1.1288828159995319,1.9687179487179485,2.291062271062271,3.3
1.1327921100019012,1.9687179487179485,2.291062271062271,3.3
1.136585174001084,1.9687179487179485,2.291062271062271,3.3
1.1441033330011123,1.9687179487179485,2.291062271062271,3.3
1.1491500990014174,0.5649084249084249,2.5964835164835165,1.90021978021978
1.1550227260013344,0.5649084249084249,2.5964835164835165,1.90021978021978
1.1638885400025174,0.5649084249084249,2.5964835164835165,1.90021978021978
1.173116938000021,0.5649084249084249,2.5964835164835165,1.90021978021978
1.1784947689993714,0.5649084249084249,2.5964835164835165,1.90021978021978
1.18011531600132,0.5649084249084249,2.5964835164835165,1.90021978021978
1.184865778999665,0.5649084249084249,2.5964835164835165,1.90021978021978
1.1919597160012927,0.5649084249084249,2.5964835164835165,1.90021978021978
1.1967732289995183,0.5649084249084249,2.5964835164835165,1.90021978021978
1.2023683740007982,0.3553846153846154,1.295018315018315,0.7897435897435897
1.2033830729997135,0.3553846153846154,1.295018315018315,0.7897435897435897
1.2043532480020076,0.3553846153846154,1.295018315018315,0.7897435897435897
1.2052707920011017,0.3553846153846154,1.295018315018315,0.7897435897435897
1.2072721570002614,0.3553846153846154,1.295018315018315,0.7897435897435897
1.2101058650005143,0.3553846153846154,1.295018315018315,0.7897435897435897
1.21372746400084,0.3553846153846154,1.295018315018315,0.7897435897435897
1.2223854930016387,1.8397802197802198,1.6995604395604393,2.776190476190476
1.2287834019989532,1.8397802197802198,1.6995604395604393,2.776190476190476
1.2340343910000229,1.8397802197802198,1.6995604395604393,2.776190476190476
1.2354457690016716,1.8397802197802198,1.6995604395604393,2.776190476190476
1.2431948560006276,1.8397802197802198,1.6995604395604393,2.776190476190476
1.2497297850022733,1.1628571428571428,3.3,3.3
1.2545125440010452,1.6552380952380952,0.6704761904761904,0.5141391941391941
1.259918263000145,1.6552380952380952,0.6704761904761904,0.5141391941391941
1.261398940001527,1.6552380952380952,0.6704761904761904,0.5141391941391941
1.2655909909990442,1.6552380952380952,0.6704761904761904,0.5141391941391941
1.2691260150022572,1.6552380952380952,0.6704761904761904,0.5141391941391941
1.2692942169996968,1.6552380952380952,0.6704761904761904,0.5141391941391941
1.274163480000425,1.6552380952380952,0.6704761904761904,0.5141391941391941
1.2742810740019195,1.6262271062271063,2.66014652014652,2.54974358974359
1.2792892630022834,1.6262271062271063,2.66014652014652,2.54974358974359
1.284255876998941,1.6262271062271063,2.66014652014652,2.54974358974359
1.2882674520005821,1.6262271062271063,2.66014652014652,2.54974358974359
1.2916825270003756,1.1902564102564102,1.6632967032967032,0.722051282051282
1.2925340090005193,1.71003663003663,0.6334065934065934,0.5302564102564102
1.2943144950004353,1.71003663003663,0.6334065934065934,0.5302564102564102
1.2967985770010273,1.71003663003663,0.6334065934065934,0.5302564102564102
1.297020883001096,1.71003663003663,0.6334065934065934,0.5302564102564102
1.302061220001633,1.71003663003663,0.6334065934065934,0.5302564102564102
1.3060156610008562,1.71003663003663,0.6334065934065934,0.5302564102564102
1.310964641001192,0.8332600732600732,1.7930402930402929,0.842124542124542
1.3150308730000688,0.8332600732600732,1.7930402930402929,0.842124542124542
1.3173923700014711,2.6682051282051282,2.1685714285714286,3.3
1.3176161270021112,2.6682051282051282,2.1685714285714286,3.3
1.322363358001894,2.6682051282051282,2.1685714285714286,3.3
1.3225587060005637,2.6682051282051282,2.1685714285714286,3.3
1.3273478520022763,2.6682051282051282,2.1685714285714286,3.3
1.3332012190003297,2.6682051282051282,2.1685714285714286,3.3
1.3381773610017262,2.6682051282051282,2.1685714285714286,3.3
1.343018604999088,2.6682051282051282,2.1685714285714286,3.3
1.3486648899997817,3.3,3.3,3.3
1.3489028990006773,3.3,3.3,3.3
1.3538896520003618,1.822051282051282,0.2602930402930403,0.5778021978021978
1.358770591999928,1.822051282051282,0.2602930402930403,0.5778021978021978
1.3642552599994815,0.3191208791208791,1.3691575091575092,0.7091575091575092
1.3659815460014215,3.3,3.3,3.3
1.369268872000248,3.3,3.3,3.3
1.3702981550013646,3.3,3.3,3.3
1.3706462160007504,3.3,3.3,3.3
1.3753483350010356,3.3,3.3,3.3
1.3755837749995408,3.3,3.3,3.3
1.3803675279996241,3.3,3.3,3.3
1.3861784380023892,3.3,3.3,3.3
1.3919366219997755,2.693992673992674,2.548937728937729,2.5561904761904763
1.3921055120008532,2.693992673992674,2.548937728937729,2.5561904761904763
1.3970167740008037,2.768131868131868,2.390989010989011,3.3
1.40189763500166,2.768131868131868,2.390989010989011,3.3
1.4068387530023756,2.768131868131868,2.390989010989011,3.3
1.411475986998994,2.768131868131868,2.390989010989011,3.3
1.4117139289992338,1.6769963369963368,0.6906227106227106,0.6035897435897435
1.4167037750012241,2.352307692307692,1.3385347985347984,2.702051282051282
1.4209445460001007,2.352307692307692,1.3385347985347984,2.702051282051282
1.4231659390025015,2.352307692307692,1.3385347985347984,2.702051282051282
1.4239555140011362,2.352307692307692,1.3385347985347984,2.702051282051282
1.4261651660017378,2.352307692307692,1.3385347985347984,2.702051282051282
1.4264161800019792,2.352307692307692,1.3385347985347984,2.702051282051282
1.4313275210006395,2.352307692307692,1.3385347985347984,2.702051282051282
1.4366267350014823,2.352307692307692,1.3385347985347984,2.702051282051282
1.439718190998974,2.352307692307692,1.3385347985347984,2.702051282051282
1.4414570230001118,2.352307692307692,1.3385347985347984,2.702051282051282
1.4445459170019603,2.352307692307692,1.3385347985347984,2.702051282051282
1.446924174000742,2.352307692307692,1.3385347985347984,2.702051282051282
1.4470600370004831,2.352307692307692,1.3385347985347984,2.702051282051282
1.4514984929992352,2.352307692307692,1.3385347985347984,2.702051282051282
1.4537457530022948,2.352307692307692,1.3385347985347984,2.702051282051282
1.4545927270009997,2.352307692307692,1.3385347985347984,2.702051282051282
1.4567330749996472,2.352307692307692,1.3385347985347984,2.702051282051282
1.457526352001878,2.352307692307692,1.3385347985347984,2.702051282051282
1.4596406199998455,2.352307692307692,1.3385347985347984,2.702051282051282
1.4604731860017637,2.352307692307692,1.3385347985347984,2.702051282051282
1.4619754350023868,2.352307692307692,1.3385347985347984,2.702051282051282
1.466227646000334,2.352307692307692,1.3385347985347984,2.702051282051282
1.4683866650011623,1.519047619047619,3.22021978021978,2.9236630036630036
1.4692231000008178,1.519047619047619,3.22021978021978,2.9236630036630036
1.4707321000023512,1.519047619047619,3.22021978021978,2.9236630036630036
1.4749652419995982,1.9477655677655676,0.3594139194139194,0.43435897435897436
1.4777492489993165,2.61018315018315,2.0702564102564103,3.3
1.481315238001116,2.61018315018315,2.0702564102564103,3.3
1.4815145480024512,2.61018315018315,2.0702564102564103,3.3
1.485898292001366,2.61018315018315,2.0702564102564103,3.3
1.4873415090005437,2.61018315018315,2.0702564102564103,3.3
1.4921861950024322,2.294285714285714,0.3449084249084249,0.5560439560439561
1.4970544579991838,1.5327472527472528,2.6126007326007326,2.5561904761904763
1.4972080789993925,1.5327472527472528,2.6126007326007326,2.5561904761904763
1.50202278299912,1.5327472527472528,2.6126007326007326,2.5561904761904763
1.5021273460006341,1.5327472527472528,2.6126007326007326,2.5561904761904763
1.5069771519993083,1.5327472527472528,2.6126007326007326,2.5561904761904763
1.5119674670022505,1.5327472527472528,2.6126007326007326,2.5561904761904763
1.516848243001732,1.5327472527472528,2.6126007326007326,2.5561904761904763
1.5217883360019187,1.5327472527472528,2.6126007326007326,2.5561904761904763
1.526010107001639,1.7825641025641024,2.4425641025641025,2.5465201465201464
1.5282835559992236,1.7825641025641024,2.4425641025641025,2.5465201465201464
1.5285482149993186,1.7825641025641024,2.4425641025641025,2.5465201465201464
1.5335304440013715,1.7825641025641024,2.4425641025641025,2.5465201465201464
1.5377419100004772,1.7825641025641024,2.4425641025641025,2.5465201465201464
1.5399596919996839,1.7825641025641024,2.4425641025641025,2.5465201465201464
1.5407310299997334,1.7825641025641024,2.4425641025641025,2.5465201465201464
1.5422477899992373,1.7825641025641024,2.4425641025641025,2.5465201465201464
1.546481766999932,1.7825641025641024,2.4425641025641025,2.5465201465201464
1.549310663001961,1.7825641025641024,2.4425641025641025,2.5465201465201464
1.5521866870003578,1.7825641025641024,2.4425641025641025,2.5465201465201464
1.5556160220003221,1.6906959706959706,3.3,2.721391941391941
1.5564359540003352,1.6850549450549448,1.5303296703296703,2.6343589743589746
1.5585641200013924,0.0,1.207179487179487,0.5246153846153846
1.5593921820000105,0.0,1.207179487179487,0.5246153846153846
1.5615468850010075,0.0,1.207179487179487,0.5246153846153846
1.5629928170019411,0.0,1.207179487179487,0.5246153846153846
1.5671282549992611,0.0,1.207179487179487,0.5246153846153846
1.5700224100000923,0.0,1.207179487179487,0.5246153846153846
1.5734736699996574,0.0,1.207179487179487,0.5246153846153846
1.5742521630018018,0.0,1.207179487179487,0.5246153846153846
1.576353469001333,0.0,1.207179487179487,0.5246153846153846
1.577813284999138,0.0,1.207179487179487,0.5246153846153846
1.582173769002111,0.0,1.207179487179487,0.5246153846153846
1.5843795059990953,0.0,1.207179487179487,0.5246153846153846
1.5851383520021045,0.0,1.207179487179487,0.5246153846153846
1.5867053729998588,0.0,1.207179487179487,0.5246153846153846
1.5916985680014477,1.8945787545787542,1.468278388278388,0.7131868131868132
1.5960290629991505,2.1879120879120877,0.7172161172161172,0.5383150183150183
1.5983007230024668,0.0,1.0967765567765566,0.506080586080586
1.5986558170006901,0.0,1.0967765567765566,0.506080586080586
1.6036172400017676,0.0,1.0967765567765566,0.506080586080586
1.607217282999045,0.0,1.0967765567765566,0.506080586080586
1.6073663650022354,0.0,1.0967765567765566,0.506080586080586
1.6123492810002062,0.0,1.0967765567765566,0.506080586080586
1.6172112390013353,0.0,1.0967765567765566,0.506080586080586
1.6221268949993828,0.0,1.0967765567765566,0.506080586080586
1.6272389040022972,0.0,1.0967765567765566,0.506080586080586
1.6314262430023518,0.0,1.0967765567765566,0.506080586080586
1.6336900620008237,0.0,1.0967765567765566,0.506080586080586
1.6344609719999426,0.0,1.0967765567765566,0.506080586080586
1.6366146600012144,0.0,1.0967765567765566,0.506080586080586
1.637452556999051,0.0,1.0967765567765566,0.506080586080586
1.6396262269990984,0.0,1.0967765567765566,0.506080586080586
1.639906799999153,0.0,1.0967765567765566,0.506080586080586
1.6447512340018875,0.0,1.0967765567765566,0.506080586080586
1.6448532520007575,0.0,1.0967765567765566,0.506080586080586
1.6497917279993999,0.0,1.0967765567765566,0.506080586080586
1.6548158100013097,0.0,1.0967765567765566,0.506080586080586
1.6596762170011061,0.0,1.0967765567765566,0.506080586080586
1.6653391270010616,0.0,1.0967765567765566,0.506080586080586
1.665600276999612,0.0,1.0967765567765566,0.506080586080586
1.6710202640024363,0.0,1.0967765567765566,0.506080586080586
1.6727200650020677,2.323296703296703,0.31267399267399265,0.5334798534798535
1.675920125999255,2.323296703296703,0.31267399267399265,0.5334798534798535
1.6775195699992764,2.323296703296703,0.31267399267399265,0.5334798534798535
1.6822688180000114,2.323296703296703,0.31267399267399265,0.5334798534798535
1.6881268659999478,2.2838095238095235,3.00989010989011,2.7584615384615385
1.6883158740020008,2.2838095238095235,3.00989010989011,2.7584615384615385
1.6933262050006306,2.2838095238095235,3.00989010989011,2.7584615384615385
1.697391185000015,2.2838095238095235,3.00989010989011,2.7584615384615385
1.701353365999239,0.0,0.9533333333333331,0.6527472527472526
1.704523151001922,0.0,0.9533333333333331,0.6527472527472526
1.706159433000721,0.0,0.9533333333333331,0.6527472527472526
1.7101811700013059,0.0,0.9533333333333331,0.6527472527472526
1.7134373160006362,0.0,0.9533333333333331,0.6527472527472526
1.7151092650019564,0.0,0.9533333333333331,0.6527472527472526
1.7188992090013926,0.0,0.9533333333333331,0.6527472527472526
1.7238349719991675,0.0,0.9533333333333331,0.6527472527472526
1.7289088050019927,2.3458608058608057,1.1999267399267397,1.706007326007326
1.732732444001158,2.3458608058608057,1.1999267399267397,1.706007326007326
1.7365909410000313,2.3458608058608057,1.1999267399267397,1.706007326007326
1.7411787179989915,2.3458608058608057,1.1999267399267397,1.706007326007326
1.7413156059992616,2.3458608058608057,1.1999267399267397,1.706007326007326
1.7460138810019998,2.3458608058608057,1.1999267399267397,1.706007326007326
1.7462422190001234,1.1136996336996337,2.1234432234432234,1.108058608058608
1.7509690990009403,1.1136996336996337,2.1234432234432234,1.108058608058608
1.751166630001535,1.1136996336996337,2.1234432234432234,1.108058608058608
1.7555311520009127,1.1136996336996337,2.1234432234432234,1.108058608058608
1.7570677510011592,1.1136996336996337,2.1234432234432234,1.108058608058608
1.7611828980006976,1.1136996336996337,2.1234432234432234,1.108058608058608
1.7640553860001091,2.0944322344322344,2.717362637362637,2.614212454212454
1.7668884730010177,2.0944322344322344,2.717362637362637,2.614212454212454
1.7703471429995261,2.0944322344322344,2.717362637362637,2.614212454212454
1.7706362329990952,2.0944322344322344,2.717362637362637,2.614212454212454
1.7754238359993906,2.0944322344322344,2.717362637362637,2.614212454212454
1.7802784400009841,0.0,1.0653479853479852,0.6301831501831501
1.7804789280016848,0.0,1.0653479853479852,0.6301831501831501
1.7855299580005521,0.0,1.0653479853479852,0.6301831501831501
1.790338991999306,1.8212454212454212,1.6367032967032966,0.7293040293040293
1.795028208001895,1.8212454212454212,1.6367032967032966,0.7293040293040293
1.8006605209993722,1.8212454212454212,1.6367032967032966,0.7293040293040293
1.8016872760017577,1.4175091575091574,3.3,3.3
1.8019862530018145,2.02029304029304,0.8397069597069596,1.6334798534798534
1.806780561000778,2.02029304029304,0.8397069597069596,1.6334798534798534
1.8069354520011984,2.02029304029304,0.8397069597069596,1.6334798534798534
1.8121118580020266,2.2136996336996333,1.3087179487179486,0.6454945054945055
1.8159814270002244,1.8204395604395605,0.6422710622710622,0.5479853479853479
1.8205779410018295,1.8204395604395605,0.6422710622710622,0.5479853479853479
1.821444949000579,1.8204395604395605,0.6422710622710622,0.5479853479853479
1.8238136180007132,1.8204395604395605,0.6422710622710622,0.5479853479853479
1.824001438999403,1.8204395604395605,0.6422710622710622,0.5479853479853479
1.8294053339996026,1.8204395604395605,0.6422710622710622,0.5479853479853479
1.832563215000846,1.8204395604395605,0.6422710622710622,0.5479853479853479
1.8335739899994223,1.9123076923076923,0.5947252747252747,0.5504029304029303
1.8338697200015304,1.9123076923076923,0.5947252747252747,0.5504029304029303
1.8392899800019222,1.9123076923076923,0.5947252747252747,0.5504029304029303
1.8409397800023726,1.9123076923076923,0.5947252747252747,0.5504029304029303
1.8446046320023015,1.9123076923076923,0.5947252747252747,0.5504029304029303
1.8447879140003351,1.9123076923076923,0.5947252747252747,0.5504029304029303
1.8496382550001726,1.9123076923076923,0.5947252747252747,0.5504029304029303
1.8497958860025392,1.3304761904761904,1.3288644688644689,0.7518681318681318
1.855137275000743,1.7656410256410255,0.6978754578754578,0.49238095238095236
1.858030815001257,1.7656410256410255,0.6978754578754578,0.49238095238095236
1.8609552050002094,1.7656410256410255,0.6978754578754578,0.49238095238095236
1.86455149700123,1.7656410256410255,0.6978754578754578,0.49238095238095236
1.8647489979994134,2.262857142857143,2.681098901098901,2.556996336996337
1.8690272669991828,2.262857142857143,2.681098901098901,2.556996336996337
1.8712194870022358,2.262857142857143,2.681098901098901,2.556996336996337
1.8720726690007723,2.262857142857143,2.681098901098901,2.556996336996337
1.8737100590005866,2.262857142857143,2.681098901098901,2.556996336996337
1.8773121510021156,2.262857142857143,2.681098901098901,2.556996336996337
1.8775002069996845,2.262857142857143,2.681098901098901,2.556996336996337
1.8824999860007665,2.262857142857143,2.681098901098901,2.556996336996337
1.8878996370003733,2.262857142857143,2.681098901098901,2.556996336996337
1.8895886099999188,2.262857142857143,2.681098901098901,2.556996336996337
1.8933914670014929,2.262857142857143,2.681098901098901,2.556996336996337
1.8979522200024803,2.262857142857143,2.681098901098901,2.556996336996337
1.8981678039999679,2.262857142857143,2.681098901098901,2.556996336996337
1.902770133001468,2.262857142857143,2.681098901098901,2.556996336996337
1.9030391820015211,2.9808791208791208,3.3,2.8293772893772893
1.907671498000127,2.9808791208791208,3.3,2.8293772893772893
1.9079041229997529,2.9808791208791208,3.3,2.8293772893772893
1.9127418140014925,2.9808791208791208,3.3,2.8293772893772893
1.918451355999423,2.9808791208791208,3.3,2.8293772893772893
1.9186284429997613,2.9808791208791208,3.3,2.8293772893772893
1.9232207710010698,2.9808791208791208,3.3,2.8293772893772893
1.9235105190018658,2.9808791208791208,3.3,2.8293772893772893
1.928174365999439,2.9808791208791208,3.3,2.8293772893772893
1.9283208529996045,2.9808791208791208,3.3,2.8293772893772893
1.9328897260020312,2.9808791208791208,3.3,2.8293772893772893
1.9331910850014538,2.9808791208791208,3.3,2.8293772893772893
1.9377053550015262,2.9808791208791208,3.3,2.8293772893772893
1.9392768680008885,0.3505494505494505,0.3811721611721612,0.9960439560439559
1.9431051350002235,0.3505494505494505,0.3811721611721612,0.9960439560439559
1.947842806999688,0.3505494505494505,0.3811721611721612,0.9960439560439559
1.9480262450015289,0.3505494505494505,0.3811721611721612,0.9960439560439559
1.9527826190023916,0.3505494505494505,0.3811721611721612,0.9960439560439559
1.9529223370009277,0.3505494505494505,0.3811721611721612,0.9960439560439559
1.9583116909998353,0.3505494505494505,0.3811721611721612,0.9960439560439559
1.9609073999999964,0.3505494505494505,0.3811721611721612,0.9960439560439559
1.965567210001609,1.4271794871794872,2.8873992673992674,3.1227106227106223
1.9658523590005643,1.4271794871794872,2.8873992673992674,3.1227106227106223
1.9706798070001241,1.4271794871794872,2.8873992673992674,3.1227106227106223
1.976438051002333,1.4271794871794872,2.8873992673992674,3.1227106227106223
1.9766102870016766,1.4271794871794872,2.8873992673992674,3.1227106227106223
1.9812302089994773,1.4271794871794872,2.8873992673992674,3.1227106227106223
1.9815074569996796,1.4271794871794872,2.8873992673992674,3.1227106227106223
1.9861899749994336,1.4271794871794872,2.8873992673992674,3.1227106227106223
1.9863729509997938,1.4271794871794872,2.8873992673992674,3.1227106227106223
1.9917264089999662,1.4271794871794872,2.8873992673992674,3.1227106227106223
1.9933775909994438,1.4271794871794872,2.8873992673992674,3.1227106227106223
1.9971772249991773,1.4271794871794872,2.8873992673992674,3.1227106227106223
2.001726006001263,1.4271794871794872,2.8873992673992674,3.1227106227106223
2.002063078001811,1.4271794871794872,2.8873992673992674,3.1227106227106223
2.0066579609992914,1.4271794871794872,2.8873992673992674,3.1227106227106223
2.0069352890022856,0.9654212454212454,1.747106227106227,1.1676923076923076
2.01170788699892,0.9654212454212454,1.747106227106227,1.1676923076923076
2.017305369001406,0.9654212454212454,1.747106227106227,1.1676923076923076
2.0188720139994984,2.4989743589743587,2.336190476190476,3.3
2.0226866580014757,2.4989743589743587,2.336190476190476,3.3
2.0272140279994346,1.4884249084249084,0.9227106227106227,2.1323076923076925
2.0275581930000044,1.4884249084249084,0.9227106227106227,2.1323076923076925
2.0323026350015425,1.4884249084249084,0.9227106227106227,2.1323076923076925
2.0326159090000147,1.4884249084249084,0.9227106227106227,2.1323076923076925
2.037196967001364,1.4884249084249084,0.9227106227106227,2.1323076923076925
2.037421250999614,1.4884249084249084,0.9227106227106227,2.1323076923076925
2.043186147999222,1.4884249084249084,0.9227106227106227,2.1323076923076925
2.0433589620006387,1.4884249084249084,0.9227106227106227,2.1323076923076925
2.048731040998973,1.4884249084249084,0.9227106227106227,2.1323076923076925
2.05032082300022,1.4884249084249084,0.9227106227106227,2.1323076923076925
2.054151238000486,1.4884249084249084,0.9227106227106227,2.1323076923076925
2.058015669001179,1.4884249084249084,0.9227106227106227,2.1323076923076925
2.0626216660020873,1.4884249084249084,0.9227106227106227,2.1323076923076925
2.062867869000911,1.4884249084249084,0.9227106227106227,2.1323076923076925
2.0676573929995357,1.4884249084249084,0.9227106227106227,2.1323076923076925
2.0731445279998297,1.4884249084249084,0.9227106227106227,2.1323076923076925
2.075558202999673,1.4884249084249084,0.9227106227106227,2.1323076923076925
2.0809266420001222,1.4884249084249084,0.9227106227106227,2.1323076923076925
2.0833864100022765,1.4884249084249084,0.9227106227106227,2.1323076923076925
2.0835087730010855,1.4884249084249084,0.9227106227106227,2.1323076923076925
2.0882761950015265,1.4884249084249084,0.9227106227106227,2.1323076923076925
2.093905148001795,1.4884249084249084,0.9227106227106227,2.1323076923076925
2.0948069500009296,1.4884249084249084,0.9227106227106227,2.1323076923076925
2.0964337149998755,1.4884249084249084,0.9227106227106227,2.1323076923076925
2.1003416620005737,1.4884249084249084,0.9227106227106227,2.1323076923076925
2.104146789999504,1.4884249084249084,0.9227106227106227,2.1323076923076925
2.108626691002428,1.4884249084249084,0.9227106227106227,2.1323076923076925
2.1094720520013652,0.0,2.336190476190476,1.4497435897435897
2.111098959001538,0.0,2.336190476190476,1.4497435897435897
2.115584826999111,0.0,2.336190476190476,1.4497435897435897
2.1164773470009095,0.0,2.336190476190476,1.4497435897435897
2.1181373440012976,0.0,2.336190476190476,1.4497435897435897
2.1220900469998014,0.0,2.336190476190476,1.4497435897435897
2.1259012299997266,1.4432967032967032,1.4497435897435897,3.3
2.1260619230015436,1.4432967032967032,1.4497435897435897,3.3
2.1308494149998296,1.4432967032967032,1.4497435897435897,3.3
2.1366371889998845,1.4432967032967032,1.4497435897435897,3.3
2.136782403002144,1.4432967032967032,1.4497435897435897,3.3
2.1415614950019517,1.4432967032967032,1.4497435897435897,3.3
2.141835786002048,1.7334065934065934,3.3,3.3
2.1466032390017062,1.7334065934065934,3.3,3.3
2.151328875999752,1.7334065934065934,3.3,3.3
2.15144952600167,1.7334065934065934,3.3,3.3
2.1568241870008933,1.7334065934065934,3.3,3.3
2.1584357079991605,1.7334065934065934,3.3,3.3
2.162459876999492,1.7334065934065934,3.3,3.3
2.1663154189991474,1.7334065934065934,3.3,3.3
2.1713333610023255,1.3933333333333333,1.5254945054945055,0.8235897435897436
2.176003917000344,1.9614652014652014,0.6922344322344323,1.834945054945055
2.176870070001314,1.9614652014652014,0.6922344322344323,1.834945054945055
2.1784761939998134,1.9614652014652014,0.6922344322344323,1.834945054945055
2.182432075001998,1.9614652014652014,0.6922344322344323,1.834945054945055
2.1865515819990833,2.2201465201465203,1.3465934065934064,1.7769230769230768
2.189648481002223,2.2201465201465203,1.3465934065934064,1.7769230769230768
2.191394670000591,2.2201465201465203,1.3465934065934064,1.7769230769230768
2.1944224780017976,2.2201465201465203,1.3465934065934064,1.7769230769230768
2.196779196001444,2.2201465201465203,1.3465934065934064,1.7769230769230768
2.1969357779998973,2.2201465201465203,1.3465934065934064,1.7769230769230768
2.2015649970016966,2.2201465201465203,1.3465934065934064,1.7769230769230768
2.202441653000278,1.7599999999999998,3.3,3.3
2.2041441340006713,1.7599999999999998,3.3,3.3
2.207349869000609,3.3,2.8535531135531134,2.5602197802197804
2.208286279001186,1.0137728937728938,1.8325274725274725,0.8880586080586079
2.209857257999829,1.0137728937728938,1.8325274725274725,0.8880586080586079
2.21384337100244,1.9010256410256408,0.26190476190476186,0.5358974358974359
2.218592496999918,1.9010256410256408,0.26190476190476186,0.5358974358974359
2.2188212840010237,1.9010256410256408,0.26190476190476186,0.5358974358974359
2.2237636470017605,1.9010256410256408,0.26190476190476186,0.5358974358974359
2.228293118001602,1.9010256410256408,0.26190476190476186,0.5358974358974359
2.228655462000461,1.9010256410256408,0.26190476190476186,0.5358974358974359
2.2341667030013923,1.9010256410256408,0.26190476190476186,0.5358974358974359
2.2357627650017093,2.0581684981684982,1.759194139194139,2.6956043956043954
2.2395669630022894,0.0,0.8630769230769231,0.47062271062271055
2.244174143001146,0.0,0.8630769230769231,0.47062271062271055
2.2445378840020567,0.0,0.8630769230769231,0.47062271062271055
2.249873706001381,0.0,0.8630769230769231,0.47062271062271055
2.252205942000728,0.0,0.8630769230769231,0.47062271062271055
2.252393283000856,0.0,0.8630769230769231,0.47062271062271055
2.257714292001765,0.0,0.8630769230769231,0.47062271062271055
2.2600273749994813,0.0,1.0863003663003663,0.6285714285714284
2.2602332470014517,0.0,1.0863003663003663,0.6285714285714284
2.2655974440021964,0.0,1.0863003663003663,0.6285714285714284
2.267932419999852,0.0,1.0863003663003663,0.6285714285714284
2.2680652189992543,0.0,1.0863003663003663,0.6285714285714284
2.273425945000781,0.0,1.0863003663003663,0.6285714285714284
2.2757815990007657,0.0,1.0863003663003663,0.6285714285714284
2.2760138900011953,1.3143589743589743,0.834065934065934,1.7664468864468863
2.2805722170014633,0.006446886446886447,0.9444688644688644,0.6446886446886446
2.2814992490020813,1.4916483516483516,3.3,3.3
2.2831636760020046,1.4916483516483516,3.3,3.3
2.286299990999396,1.4916483516483516,3.3,3.3
2.2880039230003604,1.4916483516483516,3.3,3.3
2.291835952000838,1.4916483516483516,3.3,3.3
2.296397870999499,1.9945054945054943,0.32395604395604394,0.5044688644688645
2.296652395001729,1.9945054945054943,0.32395604395604394,0.5044688644688645
2.3011867989989696,1.9945054945054943,0.32395604395604394,0.5044688644688645
2.301421954001853,1.5037362637362637,3.3,3.3
2.3069766799999343,1.5037362637362637,3.3,3.3
2.3078289430013683,1.5037362637362637,3.3,3.3
2.308779636001418,1.5037362637362637,3.3,3.3
2.310391602000891,1.5037362637362637,3.3,3.3
2.3148623449997103,1.5037362637362637,3.3,3.3
2.315179489000002,0.35216117216117215,0.28527472527472525,0.8880586080586079
2.320437872000184,0.35216117216117215,0.28527472527472525,0.8880586080586079
2.323444755998935,0.35216117216117215,0.28527472527472525,0.8880586080586079
2.3257233389995235,0.35216117216117215,0.28527472527472525,0.8880586080586079
2.3258991580005386,0.35216117216117215,0.28527472527472525,0.8880586080586079
2.3312158090011508,0.35216117216117215,0.28527472527472525,0.8880586080586079
2.3337894680007594,0.35216117216117215,0.28527472527472525,0.8880586080586079
2.338397124000039,0.35216117216117215,0.28527472527472525,0.8880586080586079
2.3392195140004333,0.35216117216117215,0.28527472527472525,0.8880586080586079
2.340817498999968,0.35216117216117215,0.28527472527472525,0.8880586080586079
2.344671778999327,1.8849084249084247,3.291135531135531,3.3
2.3491061620006803,0.36747252747252745,2.714945054945055,2.2104761904761903
2.350012811999477,0.36747252747252745,2.714945054945055,2.2104761904761903
2.351569577000191,0.36747252747252745,2.714945054945055,2.2104761904761903
2.355422125001496,2.0767032967032963,0.6092307692307692,0.581025641025641
2.3609720790009305,2.0767032967032963,0.6092307692307692,0.581025641025641
2.3625641600010567,2.0767032967032963,0.6092307692307692,0.581025641025641
2.3671545470024284,2.0767032967032963,0.6092307692307692,0.581025641025641
2.367367707000085,2.0767032967032963,0.6092307692307692,0.581025641025641
2.372941918001743,2.4747985347985346,0.963003663003663,0.5536263736263736
2.3737877650019072,1.838974358974359,0.61003663003663,0.5939194139194138
2.375409500000387,1.838974358974359,0.61003663003663,0.5939194139194138
2.379199751001579,0.05318681318681319,0.5995604395604395,0.6648351648351648
2.384894795999571,0.05318681318681319,0.5995604395604395,0.6648351648351648
2.385116173001734,2.006593406593406,2.7423443223443225,2.553772893772894
2.3898500770010287,2.006593406593406,2.7423443223443225,2.553772893772894
2.389982983000664,2.006593406593406,2.7423443223443225,2.553772893772894
2.394760884999414,2.006593406593406,2.7423443223443225,2.553772893772894
2.4002606560025015,2.006593406593406,2.7423443223443225,2.553772893772894
2.4012522080010967,2.006593406593406,2.7423443223443225,2.553772893772894
2.4021786550001707,2.006593406593406,2.7423443223443225,2.553772893772894
2.4038331629999448,2.006593406593406,2.7423443223443225,2.553772893772894
2.4070557939994615,2.006593406593406,2.7423443223443225,2.553772893772894
2.4086625290001393,2.006593406593406,2.7423443223443225,2.553772893772894
2.412513620001846,2.042051282051282,0.24901098901098898,0.5463736263736263
2.4172350200024084,2.042051282051282,0.24901098901098898,0.5463736263736263
2.417348533999757,0.0547985347985348,0.7454212454212454,0.5504029304029303
2.4228316660010023,0.0547985347985348,0.7454212454212454,0.5504029304029303
2.4246612019996974,0.0547985347985348,0.7454212454212454,0.5504029304029303
2.427138922001177,0.0547985347985348,0.7454212454212454,0.5504029304029303
2.432596697999543,1.706007326007326,1.4368498168498167,0.751062271062271
2.4342088960002,1.577875457875458,3.032454212454212,2.5602197802197804
2.43732836900017,1.577875457875458,3.032454212454212,2.5602197802197804
2.4390340669997386,1.577875457875458,3.032454212454212,2.5602197802197804
2.4429114470003697,1.577875457875458,3.032454212454212,2.5602197802197804
2.4467115590014146,1.577875457875458,3.032454212454212,2.5602197802197804
2.4514394710022316,1.577875457875458,3.032454212454212,2.5602197802197804
2.457085014000768,1.577875457875458,3.032454212454212,2.5602197802197804
2.4579916760012566,1.577875457875458,3.032454212454212,2.5602197802197804
2.4588969809992705,1.577875457875458,3.032454212454212,2.5602197802197804
2.4605335840024054,1.577875457875458,3.032454212454212,2.5602197802197804
2.464447383001243,1.577875457875458,3.032454212454212,2.5602197802197804
2.4682377460012503,2.37003663003663,0.9605860805860806,1.6326739926739926
2.4722640100007993,2.37003663003663,0.9605860805860806,1.6326739926739926
2.475544044998969,2.37003663003663,0.9605860805860806,1.6326739926739926
2.4765129900006286,2.37003663003663,0.9605860805860806,1.6326739926739926
2.477446957000211,2.37003663003663,0.9605860805860806,1.6326739926739926
2.4790345350011194,2.37003663003663,0.9605860805860806,1.6326739926739926
2.483913536001637,1.921978021978022,3.3,3.3
2.4887176470001577,2.0654212454212453,0.7599267399267399,1.6665201465201465
2.493999124999391,2.0654212454212453,0.7599267399267399,1.6665201465201465
2.4964003679997404,2.0654212454212453,0.7599267399267399,1.6665201465201465
2.496616748001543,2.0654212454212453,0.7599267399267399,1.6665201465201465
2.501203733001603,2.0654212454212453,0.7599267399267399,1.6665201465201465
2.501417383002263,2.0654212454212453,0.7599267399267399,1.6665201465201465
2.5067787830012094,2.0654212454212453,0.7599267399267399,1.6665201465201465
2.509143244998995,2.0654212454212453,0.7599267399267399,1.6665201465201465
2.5093073610005376,2.0654212454212453,0.7599267399267399,1.6665201465201465
2.514027047000127,2.0654212454212453,0.7599267399267399,1.6665201465201465
2.5142945930019778,2.0654212454212453,0.7599267399267399,1.6665201465201465
2.519191531002434,2.0654212454212453,0.7599267399267399,1.6665201465201465
2.5237478420021944,2.0654212454212453,0.7599267399267399,1.6665201465201465
2.5240083130011044,2.0654212454212453,0.7599267399267399,1.6665201465201465
2.5288470599989523,2.0654212454212453,0.7599267399267399,1.6665201465201465
2.5346022110024933,2.0654212454212453,0.7599267399267399,1.6665201465201465
2.534827559000405,2.0654212454212453,0.7599267399267399,1.6665201465201465
2.5394348400004674,2.0654212454212453,0.7599267399267399,1.6665201465201465
2.540292509002029,1.2821245421245422,3.3,3.3
2.541886446000717,1.2821245421245422,3.3,3.3
2.545653585999389,1.2821245421245422,3.3,3.3
2.550588329002494,1.2821245421245422,3.3,3.3
2.5554394270002376,1.2821245421245422,3.3,3.3
2.560014673999831,1.2821245421245422,3.3,3.3
2.5603714780008886,1.2821245421245422,3.3,3.3
2.5657751229991845,1.2821245421245422,3.3,3.3
2.56737060299929,1.2821245421245422,3.3,3.3
2.5711623130009684,1.2821245421245422,3.3,3.3
2.5757226160021673,1.2821245421245422,3.3,3.3
2.576025008002034,1.83010989010989,3.046959706959707,2.565860805860806
2.580584891999024,1.83010989010989,3.046959706959707,2.565860805860806
2.58214964400031,1.83010989010989,3.046959706959707,2.565860805860806
2.58600339899931,1.83010989010989,3.046959706959707,2.565860805860806
2.590759851002076,1.6431501831501831,1.3353113553113554,0.6495238095238095
2.590944424002373,1.6431501831501831,1.3353113553113554,0.6495238095238095
2.5957766120009182,1.6431501831501831,1.3353113553113554,0.6495238095238095
2.601292313000158,1.6431501831501831,1.3353113553113554,0.6495238095238095
2.603096668000944,1.8832967032967032,3.3,3.3
2.6055732800014084,1.8832967032967032,3.3,3.3
2.6112104560015723,1.8832967032967032,3.3,3.3
2.6115605990016775,1.8832967032967032,3.3,3.3
2.6165195550020144,1.8832967032967032,3.3,3.3
2.6206503230023372,1.8832967032967032,3.3,3.3
2.623852362001344,2.2394871794871793,1.531941391941392,2.012234432234432
2.624747739999293,2.2394871794871793,1.531941391941392,2.012234432234432
2.62633261800147,2.2394871794871793,1.531941391941392,2.012234432234432
2.6305514330015285,2.2394871794871793,1.531941391941392,2.012234432234432
2.6329165950010065,2.2394871794871793,1.531941391941392,2.012234432234432
2.6330905300019367,2.2394871794871793,1.531941391941392,2.012234432234432
2.637914771999931,2.2394871794871793,1.531941391941392,2.012234432234432
2.638094883001031,2.2394871794871793,1.531941391941392,2.012234432234432
2.6428185180011496,1.1999267399267397,3.3,3.3
2.642990551001276,1.1999267399267397,3.3,3.3
2.647807624001871,1.1999267399267397,3.3,3.3
2.653316738000285,1.1999267399267397,3.3,3.3
2.6541600300006394,1.1999267399267397,3.3,3.3
2.6557580690023315,1.2764835164835164,0.6608058608058608,1.5303296703296703
2.659750630999042,1.2764835164835164,0.6608058608058608,1.5303296703296703
2.66370961299981,1.2764835164835164,0.6608058608058608,1.5303296703296703
2.6676182500013965,1.2764835164835164,0.6608058608058608,1.5303296703296703
2.67073587699997,1.2764835164835164,0.6608058608058608,1.5303296703296703
2.67310885400002,1.2764835164835164,0.6608058608058608,1.5303296703296703
2.6733209929989243,1.730989010989011,0.28769230769230764,0.5504029304029303
2.6786676129995612,1.730989010989011,0.28769230769230764,0.5504029304029303
2.6809357370002544,1.730989010989011,0.28769230769230764,0.5504029304029303
2.6811296090018004,1.730989010989011,0.28769230769230764,0.5504029304029303
2.6865357070018945,1.730989010989011,0.28769230769230764,0.5504029304029303
2.688882950998959,1.730989010989011,0.28769230769230764,0.5504029304029303
2.6890476340013265,1.730989010989011,0.28769230769230764,0.5504029304029303
2.6943350050023582,1.730989010989011,0.28769230769230764,0.5504029304029303
2.69602931999907,1.2466666666666666,0.664029304029304,1.5931868131868132
2.6998469550017035,0.4738461538461538,0.4448351648351648,1.021025641025641
2.7037293489993317,0.4738461538461538,0.4448351648351648,1.021025641025641
2.7084324179995747,0.4738461538461538,0.4448351648351648,1.021025641025641
2.7086334900013753,0.4738461538461538,0.4448351648351648,1.021025641025641
2.714944564002508,0.4738461538461538,0.4448351648351648,1.021025641025641
2.7188016639993293,0.4738461538461538,0.4448351648351648,1.021025641025641
2.7241973250020237,0.4738461538461538,0.4448351648351648,1.021025641025641
2.726482584999758,0.4738461538461538,0.4448351648351648,1.021025641025641
2.7268129930016585,1.0274725274725274,1.767252747252747,0.8872527472527472
2.7314082520024385,1.5416117216117216,1.2692307692307692,1.24021978021978
2.7317563700016763,1.5416117216117216,1.2692307692307692,1.24021978021978
2.736299942000187,1.5416117216117216,1.2692307692307692,1.24021978021978
2.7366007689997787,0.029816849816849816,0.842124542124542,0.6511355311355311
2.741955928999232,0.029816849816849816,0.842124542124542,0.6511355311355311
2.7442361780013016,0.029816849816849816,0.842124542124542,0.6511355311355311
2.7444902989991533,0.029816849816849816,0.842124542124542,0.6511355311355311
2.7497947740012023,0.029816849816849816,0.842124542124542,0.6511355311355311
2.7528885649990116,0.029816849816849816,0.842124542124542,0.6511355311355311
2.7552239460019337,0.029816849816849816,0.842124542124542,0.6511355311355311
2.755495671000972,0.029816849816849816,0.842124542124542,0.6511355311355311
2.762917648000439,0.029816849816849816,0.842124542124542,0.6511355311355311
2.7683759259998624,0.029816849816849816,0.842124542124542,0.6511355311355311
2.768656386000657,0.029816849816849816,0.842124542124542,0.6511355311355311
2.773975359999895,0.029816849816849816,0.842124542124542,0.6511355311355311
2.776288470002328,0.029816849816849816,0.842124542124542,0.6511355311355311
2.7765402290024213,0.029816849816849816,0.842124542124542,0.6511355311355311
2.7814677550013585,0.029816849816849816,0.842124542124542,0.6511355311355311
2.786768818001292,0.029816849816849816,0.842124542124542,0.6511355311355311
2.7896618970007694,0.029816849816849816,0.842124542124542,0.6511355311355311
2.7932268690019555,0.029816849816849816,0.842124542124542,0.6511355311355311
2.7935376599998563,0.029816849816849816,0.842124542124542,0.6511355311355311
2.7984796830023697,0.029816849816849816,0.842124542124542,0.6511355311355311
2.8037334340006055,0.3102564102564102,0.361025641025641,0.9122344322344322
2.80653929500113,0.3102564102564102,0.361025641025641,0.9122344322344322
2.8107335070017143,0.3102564102564102,0.361025641025641,0.9122344322344322
2.8129612720003934,0.3102564102564102,0.361025641025641,0.9122344322344322
2.813177635001921,0.3102564102564102,0.361025641025641,0.9122344322344322
2.818737804002012,0.3102564102564102,0.361025641025641,0.9122344322344322
2.8190743240011216,0.3102564102564102,0.361025641025641,0.9122344322344322
2.8244001240018406,0.3102564102564102,0.361025641025641,0.9122344322344322
2.8276532769996265,0.17245421245421244,2.61018315018315,1.7809523809523808
2.8288774350003223,1.826886446886447,1.2466666666666666,0.7083516483516483
2.8290694009992876,1.826886446886447,1.2466666666666666,0.7083516483516483
2.8367708590012626,1.826886446886447,1.2466666666666666,0.7083516483516483
2.846151682002528,1.826886446886447,1.2466666666666666,0.7083516483516483
2.8517449569990276,1.826886446886447,1.2466666666666666,0.7083516483516483
2.8520155920014076,1.726959706959707,0.7002930402930403,0.5778021978021978
2.862626384001487,1.726959706959707,0.7002930402930403,0.5778021978021978
2.8679267590014206,1.726959706959707,0.7002930402930403,0.5778021978021978
2.870307417000731,2.1008791208791204,0.5931135531135531,0.6229304029304029
2.87820142900091,2.1008791208791204,0.5931135531135531,0.6229304029304029
2.882973708001373,2.1008791208791204,0.5931135531135531,0.6229304029304029
2.883225441000832,2.1008791208791204,0.5931135531135531,0.6229304029304029
2.888142362000508,2.1008791208791204,0.5931135531135531,0.6229304029304029
2.8956653640016157,2.294285714285714,0.30864468864468864,0.5463736263736263
2.9007367010017333,1.904249084249084,0.42630036630036633,0.5665201465201465
2.9052941110021493,1.2337728937728938,3.3,3.3
2.905827919999865,2.1129670329670325,3.3,3.3
2.9099546220022603,2.1129670329670325,3.3,3.3
2.9122519670017937,2.1129670329670325,3.3,3.3
2.9125617150020844,2.1129670329670325,3.3,3.3
2.9171506780003256,2.1129670329670325,3.3,3.3
2.9173672390024876,2.1129670329670325,3.3,3.3
2.92591003599955,2.1129670329670325,3.3,3.3
2.9324387929991644,1.7495238095238095,1.3538461538461537,1.1008058608058606
2.93579008800225,1.7495238095238095,1.3538461538461537,1.1008058608058606
2.9360844050024753,2.8285714285714283,2.5473260073260073,2.561831501831502
2.9439375229994766,2.8285714285714283,2.5473260073260073,2.561831501831502
2.948025433001021,2.8285714285714283,2.5473260073260073,2.561831501831502
2.9514392940000107,2.8285714285714283,2.5473260073260073,2.561831501831502
2.951748714000132,2.01062271062271,0.33282051282051284,0.4996336996336996
2.9605580839997856,2.348278388278388,2.5005860805860802,2.5505494505494504
2.9657955410002614,2.348278388278388,2.5005860805860802,2.5505494505494504
2.968479584000306,2.348278388278388,2.5005860805860802,2.5505494505494504
2.975689623999642,2.348278388278388,2.5005860805860802,2.5505494505494504
2.9795851170019887,2.348278388278388,2.5005860805860802,2.5505494505494504
2.9844740930020635,2.348278388278388,2.5005860805860802,2.5505494505494504
2.991148176999559,2.348278388278388,2.5005860805860802,2.5505494505494504
2.9952707970005576,0.7986080586080586,2.1242490842490844,1.116923076923077
2.9975863479994587,0.7986080586080586,2.1242490842490844,1.116923076923077
2.9978479589990457,0.7986080586080586,2.1242490842490844,1.116923076923077
3.002370191999944,1.0854945054945053,3.3,2.752820512820513
3.0032603649997327,1.0854945054945053,3.3,2.752820512820513
3.0044430480011215,1.0854945054945053,3.3,2.752820512820513
3.004694864001067,1.0854945054945053,3.3,2.752820512820513
3.0108502350012714,0.7631501831501831,2.1645421245421246,1.2966300366300365
3.0140484840012505,0.7631501831501831,2.1645421245421246,1.2966300366300365
3.01556469100251,0.7631501831501831,2.1645421245421246,1.2966300366300365
3.0203616180006065,0.7631501831501831,2.1645421245421246,1.2966300366300365
3.0289118389991927,0.7631501831501831,2.1645421245421246,1.2966300366300365
3.0336767850021715,1.456190476190476,1.676190476190476,3.3
3.0415609270021378,1.456190476190476,1.676190476190476,3.3
3.0471218220009177,1.456190476190476,1.676190476190476,3.3
3.0473192839999683,1.456190476190476,1.676190476190476,3.3
3.0524914620000345,1.456190476190476,1.676190476190476,3.3
3.0584444390005956,1.456190476190476,1.676190476190476,3.3
3.061694026000623,1.456190476190476,1.676190476190476,3.3
3.0633079889994406,1.456190476190476,1.676190476190476,3.3
3.0664973109996936,1.456190476190476,1.676190476190476,3.3
3.068121443000564,2.262051282051282,0.9783150183150182,0.6245421245421244
3.0725737159991695,2.262051282051282,0.9783150183150182,0.6245421245421244
3.0738243230007356,2.0154578754578756,0.3142857142857142,0.5649084249084249
3.080320908000431,1.0137728937728938,0.4214652014652014,1.2764835164835164
3.0845442009995168,1.0137728937728938,0.4214652014652014,1.2764835164835164
3.087045798001782,1.0137728937728938,0.4214652014652014,1.2764835164835164
3.087261867000052,1.0137728937728938,0.4214652014652014,1.2764835164835164
3.096562761998939,1.0137728937728938,0.4214652014652014,1.2764835164835164
3.1012000930022623,0.17406593406593407,0.6132600732600733,0.8018315018315018
3.1015383420017315,2.5843956043956045,1.3256410256410256,1.9090842490842492
3.1086659460015653,2.5843956043956045,1.3256410256410256,1.9090842490842492
3.111886743001378,0.5294505494505495,3.016336996336996,2.424029304029304
3.1127989890010213,0.5294505494505495,3.016336996336996,2.424029304029304
3.114513684002304,0.5294505494505495,3.016336996336996,2.424029304029304
3.1178001850021246,0.5294505494505495,3.016336996336996,2.424029304029304
3.118724451000162,0.5294505494505495,3.016336996336996,2.424029304029304
3.119681552001566,0.5294505494505495,3.016336996336996,2.424029304029304
3.1208118300019123,0.5294505494505495,3.016336996336996,2.424029304029304
3.1213813770009438,0.5294505494505495,3.016336996336996,2.424029304029304
3.127826713000104,0.5294505494505495,3.016336996336996,2.424029304029304
3.1336788209991937,0.10395604395604395,2.7947252747252747,2.1871062271062267
3.14197145900107,2.594065934065934,2.5424908424908423,2.565054945054945
3.149096560999169,2.594065934065934,2.5424908424908423,2.565054945054945
3.153412579002179,2.594065934065934,2.5424908424908423,2.565054945054945
3.154050188000838,2.594065934065934,2.5424908424908423,2.565054945054945
3.1587155890010763,2.594065934065934,2.5424908424908423,2.565054945054945
3.162612382999214,2.594065934065934,2.5424908424908423,2.565054945054945
3.1672792960016523,2.594065934065934,2.5424908424908423,2.565054945054945
3.167432436999661,2.594065934065934,2.5424908424908423,2.565054945054945
3.175008562000585,2.594065934065934,2.5424908424908423,2.565054945054945
3.1822608200018294,2.0621978021978022,0.32717948717948714,0.5141391941391941
3.189375072000985,2.0621978021978022,0.32717948717948714,0.5141391941391941
3.19470673899923,2.1008791208791204,1.788205128205128,0.7712087912087912
3.1950806890017702,1.606080586080586,2.7342857142857144,2.553772893772894
3.2013925930004916,1.606080586080586,2.7342857142857144,2.553772893772894
3.2068601259998104,2.0146520146520146,3.3,3.3
3.208165514999564,2.0686446886446883,3.3,3.3
3.2130415120009275,2.626300366300366,0.9017582417582416,0.5592673992673992
3.2132090340019204,2.626300366300366,0.9017582417582416,0.5592673992673992
3.21797580600105,2.626300366300366,0.9017582417582416,0.5592673992673992
3.226406035999389,1.2490842490842489,3.3,2.843882783882784
3.2312864109990187,2.1959706959706957,2.714945054945055,2.552967032967033
3.236061563002295,2.1959706959706957,2.714945054945055,2.552967032967033
3.243713800999103,2.1959706959706957,2.714945054945055,2.552967032967033
3.248271119999117,0.0,1.1580219780219778,0.6704761904761904
3.2485364470012428,0.0,1.1580219780219778,0.6704761904761904
3.253786379998928,0.0,1.1580219780219778,0.6704761904761904
3.2582086340007663,2.033186813186813,0.48432234432234433,0.4851282051282051
3.2584435810022114,2.033186813186813,0.48432234432234433,0.4851282051282051
3.2642473070009146,2.033186813186813,0.48432234432234433,0.4851282051282051
3.2701632810021692,1.3401465201465201,3.3,3.055018315018315
3.2780805440015683,1.3401465201465201,3.3,3.055018315018315
3.2835222809990228,1.3401465201465201,3.3,3.055018315018315
3.285548022002331,1.3401465201465201,3.3,3.055018315018315
3.286602603002393,1.3401465201465201,3.3,3.055018315018315
3.286897931000567,1.3401465201465201,3.3,3.055018315018315
3.2961186960019404,1.3401465201465201,3.3,3.055018315018315
3.3011532060008903,1.3401465201465201,3.3,3.055018315018315
3.3058416439998837,1.3401465201465201,3.3,3.055018315018315
3.3126446240021323,1.3401465201465201,3.3,3.055018315018315
3.317789017000905,1.3401465201465201,3.3,3.055018315018315
3.3224135199998273,1.3401465201465201,3.3,3.055018315018315
3.3226223940000637,1.3401465201465201,3.3,3.055018315018315
3.3294270549995417,1.3401465201465201,3.3,3.055018315018315
3.333330420002312,1.3401465201465201,3.3,3.055018315018315
3.3390795400009665,1.635091575091575,2.27010989010989,2.5473260073260073
3.339287566999701,1.635091575091575,2.27010989010989,2.5473260073260073
3.3475974909997603,1.635091575091575,2.27010989010989,2.5473260073260073
3.3522704980023263,1.635091575091575,2.27010989010989,2.5473260073260073
3.3523989810018975,1.635091575091575,2.27010989010989,2.5473260073260073
3.3623994270019466,1.635091575091575,2.27010989010989,2.5473260073260073
3.3672197490013787,1.635091575091575,2.27010989010989,2.5473260073260073
3.3754443090001587,1.635091575091575,2.27010989010989,2.5473260073260073
3.3798959189989546,1.635091575091575,2.27010989010989,2.5473260073260073
3.3801042049999523,1.635091575091575,2.27010989010989,2.5473260073260073
3.3881737960000464,1.635091575091575,2.27010989010989,2.5473260073260073
3.394134148999001,1.3336996336996336,1.8768498168498167,0.8977289377289376
3.398566493000544,1.8687912087912086,0.6463003663003662,0.5463736263736263
3.398936194000271,1.8687912087912086,0.6463003663003662,0.5463736263736263
3.4082001080023474,1.8687912087912086,0.6463003663003662,0.5463736263736263
3.41395934799948,1.8687912087912086,0.6463003663003662,0.5463736263736263
3.4193825610018393,1.8687912087912086,0.6463003663003662,0.5463736263736263
3.4211705070010794,0.14908424908424908,0.7027106227106227,0.7671794871794871
3.425876604000223,0.14908424908424908,0.7027106227106227,0.7671794871794871
3.4312739619999775,0.14908424908424908,0.7027106227106227,0.7671794871794871
3.432831484002236,0.14908424908424908,0.7027106227106227,0.7671794871794871
3.43889714100078,0.14908424908424908,0.7027106227106227,0.7671794871794871
3.4455464589991607,0.14908424908424908,0.7027106227106227,0.7671794871794871
3.449561209999956,0.6954578754578754,2.3724542124542123,1.5528937728937728
3.4534923060018627,0.6954578754578754,2.3724542124542123,1.5528937728937728
3.458779463002429,2.5521611721611723,2.3764835164835163,3.3
3.4599595530016813,2.5521611721611723,2.3764835164835163,3.3
3.4657722270021623,2.5521611721611723,2.3764835164835163,3.3
3.465886532001605,2.1871062271062267,3.3,3.3
3.4711047780001536,2.1871062271062267,3.3,3.3
3.4756347430011374,2.1871062271062267,3.3,3.3
3.4825997010011633,2.1871062271062267,3.3,3.3
3.488554497002042,2.320879120879121,3.1178754578754577,2.68996336996337
3.4947836050014303,2.320879120879121,3.1178754578754577,2.68996336996337
3.499722276999819,2.320879120879121,3.1178754578754577,2.68996336996337
3.5074731210006576,2.320879120879121,3.1178754578754577,2.68996336996337
3.511919040000066,2.320879120879121,3.1178754578754577,2.68996336996337
3.512144932999945,2.320879120879121,3.1178754578754577,2.68996336996337
3.5169714980002027,2.320879120879121,3.1178754578754577,2.68996336996337
3.5250887330003025,0.0,1.0613186813186812,0.5084981684981685
3.531561676001729,1.278901098901099,3.3,3.3
3.5361209969996708,1.278901098901099,3.3,3.3
3.536314470002253,3.09047619047619,2.577948717948718,2.5642490842490844
3.5437258050005767,3.09047619047619,2.577948717948718,2.5642490842490844
3.548562762000074,3.09047619047619,2.577948717948718,2.5642490842490844
3.5543410610007413,3.09047619047619,2.577948717948718,2.5642490842490844
3.554796698001155,3.09047619047619,2.577948717948718,2.5642490842490844
3.5612773499997274,3.09047619047619,2.577948717948718,2.5642490842490844
3.5652929050011153,3.09047619047619,2.577948717948718,2.5642490842490844
3.5684458530013217,1.3828571428571428,1.8945787545787542,0.9847619047619047
3.5700676950000343,1.3828571428571428,1.8945787545787542,0.9847619047619047
3.5773283740018087,1.3828571428571428,1.8945787545787542,0.9847619047619047
3.581393313001172,2.241098901098901,3.3,2.8358241758241753
3.584626293999463,2.241098901098901,3.3,2.8358241758241753
3.58629418000055,2.241098901098901,3.3,2.8358241758241753
3.5934670050010027,2.241098901098901,3.3,2.8358241758241753
3.5967177849997825,2.241098901098901,3.3,2.8358241758241753
3.59859854500246,2.241098901098901,3.3,2.8358241758241753
3.6009745440023835,2.241098901098901,3.3,2.8358241758241753
3.6010895389990765,2.241098901098901,3.3,2.8358241758241753
3.6098401859999285,2.241098901098901,3.3,2.8358241758241753
3.614530234000995,2.241098901098901,3.3,2.8358241758241753
3.621179467001639,2.241098901098901,3.3,2.8358241758241753
3.627312262000487,2.241098901098901,3.3,2.8358241758241753
3.6314492970013816,2.241098901098901,3.3,2.8358241758241753
3.634495730002527,2.241098901098901,3.3,2.8358241758241753
3.637194744002045,2.241098901098901,3.3,2.8358241758241753
3.643322118001379,0.07575091575091575,1.3417582417582417,0.7937728937728937
3.646506486002181,0.07575091575091575,1.3417582417582417,0.7937728937728937
3.6488197740000032,0.07575091575091575,1.3417582417582417,0.7937728937728937
3.649016235001909,0.07575091575091575,1.3417582417582417,0.7937728937728937
3.6560472560013295,0.07575091575091575,1.3417582417582417,0.7937728937728937
3.6608264110000164,0.07575091575091575,1.3417582417582417,0.7937728937728937
3.6655451840015303,2.489304029304029,1.1813919413919414,1.7317948717948717
3.6657391330008977,1.7640293040293038,2.3506959706959707,2.5513553113553114
3.670741991001705,1.7640293040293038,2.3506959706959707,2.5513553113553114
3.676445959001285,1.7640293040293038,2.3506959706959707,2.5513553113553114
3.68260070299948,1.7640293040293038,2.3506959706959707,2.5513553113553114
3.6871249050018378,3.1436630036630033,3.3,2.8454945054945053
3.689085153000633,3.1436630036630033,3.3,2.8454945054945053
3.6894198920017516,3.1436630036630033,3.3,2.8454945054945053
3.697118632000638,3.1436630036630033,3.3,2.8454945054945053
3.702531712999189,3.1436630036630033,3.3,2.8454945054945053
3.7064440340000147,3.1436630036630033,3.3,2.8454945054945053
3.7100065510021523,3.1436630036630033,3.3,2.8454945054945053
3.715864619000058,3.1436630036630033,3.3,2.8454945054945053
3.722467358002177,3.1243223443223442,2.565054945054945,2.5682783882783884
3.728263685999991,1.9767765567765565,3.3,3.3
3.7351311390011688,1.9767765567765565,3.3,3.3
3.7394885620014975,1.9026373626373623,0.3167032967032967,0.5375091575091575
3.741598372002045,1.9026373626373623,0.3167032967032967,0.5375091575091575
3.742547731999366,1.9026373626373623,0.3167032967032967,0.5375091575091575
3.743647815001168,1.3852747252747253,1.1322344322344322,2.3845421245421243
3.7439472600017325,1.3852747252747253,1.1322344322344322,2.3845421245421243
3.7486476350022713,1.3852747252747253,1.1322344322344322,2.3845421245421243
3.748882844000036,1.3852747252747253,1.1322344322344322,2.3845421245421243
3.7535495390002325,1.3852747252747253,1.1322344322344322,2.3845421245421243
3.753705084000103,1.3852747252747253,1.1322344322344322,2.3845421245421243
3.7603729690017644,1.3852747252747253,1.1322344322344322,2.3845421245421243
3.764302196999779,1.3852747252747253,1.1322344322344322,2.3845421245421243
3.768153211000026,1.3852747252747253,1.1322344322344322,2.3845421245421243
3.773041911001201,1.3852747252747253,1.1322344322344322,2.3845421245421243
3.778743963001034,1.9316483516483516,0.7599267399267399,0.4754578754578754
3.7841794279993337,1.9316483516483516,0.7599267399267399,0.4754578754578754
3.78513568100243,1.9316483516483516,0.7599267399267399,0.4754578754578754
3.786052928000572,1.9316483516483516,0.7599267399267399,0.4754578754578754
3.788315698999213,1.9316483516483516,0.7599267399267399,0.4754578754578754
3.7885606000018015,1.9316483516483516,0.7599267399267399,0.4754578754578754
3.7952300450015173,1.9316483516483516,0.7599267399267399,0.4754578754578754
3.799917665000976,1.888131868131868,0.7333333333333333,0.5971428571428571
3.8002087630011374,1.888131868131868,0.7333333333333333,0.5971428571428571
3.80801067900029,1.888131868131868,0.7333333333333333,0.5971428571428571
3.8131083200023568,2.3555311355311352,0.3771428571428571,0.5761904761904761
3.8155110930019873,1.9896703296703295,0.6253479853479853,0.5109157509157509
3.815764744002081,1.9896703296703295,0.6253479853479853,0.5109157509157509
3.8225857659999747,1.9896703296703295,0.6253479853479853,0.5109157509157509
3.8265146129997447,0.0,1.1934798534798534,0.6366300366300366
3.8307512480023433,1.7253479853479854,3.3,3.3
3.833195629002148,1.7253479853479854,3.3,3.3
3.8415497690002667,1.7253479853479854,3.3,3.3
3.8472954419994494,1.7253479853479854,3.3,3.3
3.855091358000209,0.5076923076923077,2.332967032967033,1.4191208791208791
3.861019400999794,0.5076923076923077,2.332967032967033,1.4191208791208791
3.865633033001359,0.14747252747252745,1.6536263736263734,0.9678388278388278
3.8658681830020214,3.3,2.847912087912088,2.577142857142857
3.8704749509997782,3.3,2.847912087912088,2.577142857142857
3.870757228000002,3.3,2.847912087912088,2.577142857142857
3.8769891560004908,3.3,2.847912087912088,2.577142857142857
3.8809769170002255,3.3,2.847912087912088,2.577142857142857
3.885370135001722,3.3,2.847912087912088,2.577142857142857
3.885587131000648,3.3,2.847912087912088,2.577142857142857
3.894606018999184,3.3,2.847912087912088,2.577142857142857
3.9009709080019093,3.3,2.847912087912088,2.577142857142857
3.907089509000798,3.3,2.847912087912088,2.577142857142857
3.913689245000569,3.3,2.8358241758241753,2.5545787545787544
3.9182481429998006,3.3,2.8358241758241753,2.5545787545787544
3.918430207999336,3.3,2.8358241758241753,2.5545787545787544
3.9274089710015687,3.3,2.8358241758241753,2.5545787545787544
3.932992509999167,3.3,2.8358241758241753,2.5545787545787544
3.9333888330002083,3.3,2.8358241758241753,2.5545787545787544
3.945011624000472,3.3,2.8358241758241753,2.5545787545787544
3.9567333980012336,3.3,2.8358241758241753,2.5545787545787544
3.968323920998955,3.3,2.8358241758241753,2.5545787545787544
3.9806196960016678,1.7035897435897436,2.423223443223443,2.548937728937729
3.9809397300014098,0.6608058608058608,0.32476190476190475,1.0677655677655677
3.986967764001747,0.6608058608058608,0.32476190476190475,1.0677655677655677
3.9940231639993726,1.6995604395604393,1.7978754578754577,0.7808791208791208
4.002654194999195,1.991282051282051,0.7953846153846154,1.6117216117216115
4.009550233000482,1.991282051282051,0.7953846153846154,1.6117216117216115
4.014094468999247,1.1886446886446886,2.0734798534798533,0.9879853479853479
4.014344216000609,1.1886446886446886,2.0734798534798533,0.9879853479853479
4.019773389001784,1.1886446886446886,2.0734798534798533,0.9879853479853479
4.022379017002095,1.3804395604395605,3.3,3.3
4.027600978999544,1.3804395604395605,3.3,3.3
4.029437503999361,1.3804395604395605,3.3,3.3
4.032091101998958,1.3804395604395605,3.3,3.3
4.036356659999001,1.3804395604395605,3.3,3.3
4.038752125001338,1.3804395604395605,3.3,3.3
4.0452936370020325,1.3804395604395605,3.3,3.3
4.04939745700176,1.3804395604395605,3.3,3.3
4.053592334999848,1.3804395604395605,3.3,3.3
4.057105243002297,2.1798534798534797,3.3,2.8334065934065933
4.064821816999029,0.3384615384615384,1.834139194139194,1.0822710622710623
4.072879418999946,1.804322344322344,2.339413919413919,3.3
4.078156539002521,1.804322344322344,2.339413919413919,3.3
4.079829234000499,1.804322344322344,2.339413919413919,3.3
4.083087213999534,1.804322344322344,2.339413919413919,3.3
4.084015410000575,1.7108424908424908,1.9896703296703295,3.3
4.0850580480000644,1.7108424908424908,1.9896703296703295,3.3
4.0859548859989445,1.7108424908424908,1.9896703296703295,3.3
4.088446973000828,1.7108424908424908,1.9896703296703295,3.3
4.094957801000419,1.7108424908424908,1.9896703296703295,3.3
4.098799970000982,1.7108424908424908,1.9896703296703295,3.3
4.103889744001208,0.1789010989010989,1.5424175824175823,0.826007326007326
4.110406800002238,0.1789010989010989,1.5424175824175823,0.826007326007326
4.114326500999596,2.0396336996336997,1.7035897435897436,0.7558974358974359
4.118252000000211,2.0396336996336997,1.7035897435897436,0.7558974358974359
4.123083331000089,2.0396336996336997,1.7035897435897436,0.7558974358974359
4.1282622660000925,1.739047619047619,3.3,3.2838827838827838
4.130777267000667,1.739047619047619,3.3,3.2838827838827838
4.136706891000358,2.1347252747252745,0.3304029304029304,0.5471794871794872
4.147419708999223,2.1347252747252745,0.3304029304029304,0.5471794871794872
4.156266606001736,2.1347252747252745,0.3304029304029304,0.5471794871794872
4.162108910000825,2.1347252747252745,0.3304029304029304,0.5471794871794872
4.1622474569994665,2.1347252747252745,0.3304029304029304,0.5471794871794872
4.166990657999122,2.1347252747252745,0.3304029304029304,0.5471794871794872
4.167156719002378,2.1347252747252745,0.3304029304029304,0.5471794871794872
4.175783385002433,2.1347252747252745,0.3304029304029304,0.5471794871794872
4.181534489001933,2.017069597069597,0.3263736263736263,0.5753846153846153
4.1879236820022925,2.017069597069597,0.3263736263736263,0.5753846153846153
4.193360082001163,2.017069597069597,0.3263736263736263,0.5753846153846153
4.1936697860001,2.017069597069597,0.3263736263736263,0.5753846153846153
4.199514685002214,2.017069597069597,0.3263736263736263,0.5753846153846153
4.205579593999573,0.12974358974358974,1.481172161172161,0.6865934065934066
4.211558918999799,3.3,2.848717948717949,2.573113553113553
4.215925627002434,3.3,2.848717948717949,2.573113553113553
4.217201277999266,3.3,2.848717948717949,2.573113553113553
4.227019911999378,3.3,2.848717948717949,2.573113553113553
4.232651272999647,3.3,2.848717948717949,2.573113553113553
4.233964418999676,3.3,2.848717948717949,2.573113553113553
4.243591316000675,3.3,2.848717948717949,2.573113553113553
4.24831850800183,3.3,2.848717948717949,2.573113553113553
4.248540266002237,2.3813186813186813,1.4126739926739926,0.5624908424908425
4.25312918200143,2.3813186813186813,1.4126739926739926,0.5624908424908425
4.253397133001272,2.3813186813186813,1.4126739926739926,0.5624908424908425
4.2609561730023415,2.3813186813186813,1.4126739926739926,0.5624908424908425
4.26597788700019,0.12329670329670328,1.3707692307692307,0.5995604395604395
4.270533851002256,0.12329670329670328,1.3707692307692307,0.5995604395604395
4.271613316999719,0.12329670329670328,1.3707692307692307,0.5995604395604395
4.271943558000203,0.12329670329670328,1.3707692307692307,0.5995604395604395
4.280375304999325,0.12329670329670328,1.3707692307692307,0.5995604395604395
4.2855684160022065,0.12329670329670328,1.3707692307692307,0.5995604395604395
4.29057482799908,0.0,2.4997802197802197,1.627032967032967
4.29319154499899,1.9461538461538461,0.7421978021978022,0.5818315018315018
4.297051771001861,1.9461538461538461,0.7421978021978022,0.5818315018315018
4.303044390002469,0.0,1.008131868131868,0.6519413919413919
4.3098385900011635,1.4167032967032966,3.3,3.3
4.313770008000574,1.4167032967032966,3.3,3.3
4.3183168770010525,1.4167032967032966,3.3,3.3
4.318566550002288,1.4167032967032966,3.3,3.3
4.324331889001769,1.4167032967032966,3.3,3.3
4.330172255002253,1.4167032967032966,3.3,3.3
4.335836550999375,1.4167032967032966,3.3,3.3
4.33611040300093,1.4167032967032966,3.3,3.3
4.343991689001996,1.4167032967032966,3.3,3.3
4.3489789080013,1.4167032967032966,3.3,3.3
4.354439063001337,1.4167032967032966,3.3,3.3
4.357149415001913,1.4167032967032966,3.3,3.3
4.360364025000308,1.4167032967032966,3.3,3.3
4.36066604500229,1.4167032967032966,3.3,3.3
4.365424745999917,1.4167032967032966,3.3,3.3
4.36555245099953,1.4167032967032966,3.3,3.3
4.371362169000349,1.4167032967032966,3.3,3.3
4.372796184001345,2.083150183150183,0.3690842490842491,0.4931868131868131
4.37599984100234,2.083150183150183,0.3690842490842491,0.4931868131868131
4.376942959999724,2.083150183150183,0.3690842490842491,0.4931868131868131
4.378507931000058,2.083150183150183,0.3690842490842491,0.4931868131868131
4.382451252000465,2.083150183150183,0.3690842490842491,0.4931868131868131
4.387449372999981,2.083150183150183,0.3690842490842491,0.4931868131868131
4.3929974010025035,2.083150183150183,0.3690842490842491,0.4931868131868131
4.393106483999873,2.083150183150183,0.3690842490842491,0.4931868131868131
4.397806904999015,2.083150183150183,0.3690842490842491,0.4931868131868131
4.3980562960023235,2.083150183150183,0.3690842490842491,0.4931868131868131
4.403466429001128,2.083150183150183,0.3690842490842491,0.4931868131868131
4.407545766000112,2.083150183150183,0.3690842490842491,0.4931868131868131
4.409486661999836,2.083150183150183,0.3690842490842491,0.4931868131868131
4.41120132099968,1.8236630036630037,0.31186813186813184,0.6068131868131869
4.414500545000919,1.8236630036630037,0.31186813186813184,0.6068131868131869
4.415412284000922,1.8236630036630037,0.31186813186813184,0.6068131868131869
4.417059883999173,1.8236630036630037,0.31186813186813184,0.6068131868131869
4.422151077000308,0.052380952380952375,1.2877655677655677,0.6511355311355311
4.4268936600019515,0.052380952380952375,1.2877655677655677,0.6511355311355311
4.431463363001967,0.052380952380952375,1.2877655677655677,0.6511355311355311
4.431767460999254,1.7898168498168496,0.27318681318681315,0.5294505494505495
4.437495640999259,1.7898168498168496,0.27318681318681315,0.5294505494505495
4.438998237001215,0.0,1.129010989010989,0.6011721611721611
4.443625656000222,0.0,1.129010989010989,0.6011721611721611
4.443775435000134,0.0,1.129010989010989,0.6011721611721611
4.449006683000334,0.0,1.129010989010989,0.6011721611721611
4.451430032000644,1.2998534798534798,1.8776556776556774,0.904981684981685
4.451561283000046,1.2998534798534798,1.8776556776556774,0.904981684981685
4.458893697999883,1.2998534798534798,1.8776556776556774,0.904981684981685
4.462778167002398,1.2998534798534798,1.8776556776556774,0.904981684981685
4.4676479890003975,1.2998534798534798,1.8776556776556774,0.904981684981685
4.475015837000683,1.2998534798534798,1.8776556776556774,0.904981684981685
4.48077026700048,1.2998534798534798,1.8776556776556774,0.904981684981685
4.484658708999632,1.8454212454212453,3.3,3.3
4.490738735999912,2.8277655677655673,3.3,3.3
4.494043471000623,1.9131135531135532,0.2772161172161172,0.5624908424908425
4.494903216000239,1.9131135531135532,0.2772161172161172,0.5624908424908425
4.496536466001999,1.9131135531135532,0.2772161172161172,0.5624908424908425
4.500326811001287,1.9131135531135532,0.2772161172161172,0.5624908424908425
4.505970063000859,1.9131135531135532,0.2772161172161172,0.5624908424908425
4.5127960790014185,1.9131135531135532,0.2772161172161172,0.5624908424908425
4.516653802998917,2.025934065934066,0.3924542124542124,0.5383150183150183
4.525142672002403,0.11523809523809524,1.4650549450549448,0.7164102564102564
4.530569654001738,0.11523809523809524,1.4650549450549448,0.7164102564102564
4.5314080030002515,0.11523809523809524,1.4650549450549448,0.7164102564102564
4.533050471000024,2.0589743589743588,0.3997069597069597,0.5254212454212454
4.539487574002123,2.0589743589743588,0.3997069597069597,0.5254212454212454
4.5437084500008496,2.0589743589743588,0.3997069597069597,0.5254212454212454
4.54547579499922,2.207252747252747,1.7495238095238095,1.8051282051282052
4.548222643999907,2.207252747252747,1.7495238095238095,1.8051282051282052
4.552102894002019,2.207252747252747,1.7495238095238095,1.8051282051282052
4.558540082001855,2.207252747252747,1.7495238095238095,1.8051282051282052
4.562156816002243,2.207252747252747,1.7495238095238095,1.8051282051282052
4.5684907479990216,1.9123076923076923,3.3,3.3
4.575864098002057,1.9123076923076923,3.3,3.3
4.581678381000529,1.9123076923076923,3.3,3.3
4.591525503001321,1.8478388278388278,3.3,2.83018315018315
4.596179985001072,1.8478388278388278,3.3,2.83018315018315
4.6018514950010285,1.8478388278388278,3.3,2.83018315018315
4.602092576998984,1.8478388278388278,3.3,2.83018315018315
4.60901982300129,1.8478388278388278,3.3,2.83018315018315
4.612207157999364,1.8478388278388278,3.3,2.83018315018315
4.613828746001673,1.8478388278388278,3.3,2.83018315018315
4.617648276002001,3.1436630036630033,2.56989010989011,2.5674725274725274
4.623443569998926,3.1436630036630033,2.56989010989011,2.5674725274725274
4.628272303001722,3.1436630036630033,2.56989010989011,2.5674725274725274
4.633590766999987,3.1436630036630033,2.56989010989011,2.5674725274725274
4.635364473000664,1.851062271062271,0.6019780219780219,0.5326739926739926
4.639751239999896,1.851062271062271,0.6019780219780219,0.5326739926739926
4.64000537299944,1.1983150183150182,2.5441025641025643,3.3
4.644808982000541,1.1983150183150182,2.5441025641025643,3.3
4.650197390001267,0.33926739926739924,2.4586813186813186,1.5577289377289376
4.651799668001331,0.33926739926739924,2.4586813186813186,1.5577289377289376
4.658589796999877,0.33926739926739924,2.4586813186813186,1.5577289377289376
4.664247209999303,0.33926739926739924,2.4586813186813186,1.5577289377289376
4.6730252240013215,0.33926739926739924,2.4586813186813186,1.5577289377289376
4.677582620999601,0.33926739926739924,2.4586813186813186,1.5577289377289376
4.6778391520019795,0.33926739926739924,2.4586813186813186,1.5577289377289376
4.682833549999486,0.33926739926739924,2.4586813186813186,1.5577289377289376
4.68713900000148,1.804322344322344,3.3,3.3
4.688727366999956,1.804322344322344,3.3,3.3
4.693850719002512,1.804322344322344,3.3,3.3
4.696339546000672,1.804322344322344,3.3,3.3
4.701943617001234,0.15633699633699633,0.4593406593406593,0.8179487179487179
4.702844841001934,0.15633699633699633,0.4593406593406593,0.8179487179487179
4.705619018001016,0.15633699633699633,0.4593406593406593,0.8179487179487179
4.710554008001054,0.15633699633699633,0.4593406593406593,0.8179487179487179
4.712969251999311,0.15633699633699633,0.4593406593406593,0.8179487179487179
4.713142341999628,2.294285714285714,2.1443956043956045,3.3
4.717764775999967,2.294285714285714,2.1443956043956045,3.3
4.7180689240012725,2.294285714285714,2.1443956043956045,3.3
4.725185774001147,1.0306959706959706,3.3,2.792307692307692
4.728876149001735,1.0306959706959706,3.3,2.792307692307692
4.734407448002457,1.0306959706959706,3.3,2.792307692307692
4.735368612000457,1.0306959706959706,3.3,2.792307692307692
4.73636990200248,1.0306959706959706,3.3,2.792307692307692
4.73818594900149,1.0306959706959706,3.3,2.792307692307692
4.740595823001058,1.0306959706959706,3.3,2.792307692307692
4.740875201001472,1.2515018315018314,2.5432967032967033,3.3
4.745088600000599,1.2515018315018314,2.5432967032967033,3.3
4.747600926999439,1.2515018315018314,2.5432967032967033,3.3
4.747749807000218,1.2515018315018314,2.5432967032967033,3.3
4.75234851300047,1.2515018315018314,2.5432967032967033,3.3
4.752616115001729,1.2515018315018314,2.5432967032967033,3.3
4.760162848000618,1.2515018315018314,2.5432967032967033,3.3
4.7647310130014375,1.2515018315018314,2.5432967032967033,3.3
4.765033086001495,1.2515018315018314,2.5432967032967033,3.3
4.7698136850012816,1.2515018315018314,2.5432967032967033,3.3
4.777443252001831,1.2515018315018314,2.5432967032967033,3.3
4.78205296500164,1.2515018315018314,2.5432967032967033,3.3
4.782240960001218,1.2515018315018314,2.5432967032967033,3.3
4.787301021002349,1.2515018315018314,2.5432967032967033,3.3
4.792805198001588,1.2515018315018314,2.5432967032967033,3.3
4.7929539649994695,1.2515018315018314,2.5432967032967033,3.3
4.797553508000419,1.2515018315018314,2.5432967032967033,3.3
4.797840733001067,0.04351648351648352,1.498095238095238,0.763956043956044
4.804155503999937,0.04351648351648352,1.498095238095238,0.763956043956044
4.808881457000098,0.04351648351648352,1.498095238095238,0.763956043956044
4.814420845999848,0.04351648351648352,1.498095238095238,0.763956043956044
4.8159724190009,0.04351648351648352,1.498095238095238,0.763956043956044
4.820072422000521,0.12571428571428572,1.4787545787545788,0.7478388278388278
4.824882315999275,0.12571428571428572,1.4787545787545788,0.7478388278388278
4.829777668001043,0.12571428571428572,1.4787545787545788,0.7478388278388278
4.835164938001981,2.1226373626373625,0.8751648351648351,0.7607326007326007
4.837055666001106,2.1226373626373625,0.8751648351648351,0.7607326007326007
4.841524382001808,2.1226373626373625,0.8751648351648351,0.7607326007326007
4.841778253001394,2.1226373626373625,0.8751648351648351,0.7607326007326007
4.845828189001622,2.1226373626373625,0.8751648351648351,0.7607326007326007
4.848958300000959,2.1226373626373625,0.8751648351648351,0.7607326007326007
4.85061436199976,2.1226373626373625,0.8751648351648351,0.7607326007326007
4.855992961001903,2.1226373626373625,0.8751648351648351,0.7607326007326007
4.857717073999083,2.1226373626373625,0.8751648351648351,0.7607326007326007
4.860911497002235,2.1226373626373625,0.8751648351648351,0.7607326007326007
4.861832086000504,2.1226373626373625,0.8751648351648351,0.7607326007326007
4.86273615400205,2.1226373626373625,0.8751648351648351,0.7607326007326007
4.864524296001036,2.1226373626373625,0.8751648351648351,0.7607326007326007
4.8676345009989745,2.1226373626373625,0.8751648351648351,0.7607326007326007
4.86931049100167,2.1226373626373625,0.8751648351648351,0.7607326007326007
4.874793466002302,2.1226373626373625,0.8751648351648351,0.7607326007326007
4.87514158400154,1.896190476190476,1.804322344322344,2.8535531135531134
4.8816181540023535,1.896190476190476,1.804322344322344,2.8535531135531134
4.886151679002069,0.0,1.2458608058608058,0.5294505494505495
4.88642092200098,2.6069597069597066,3.3,3.3
4.8931336470013775,2.6069597069597066,3.3,3.3
4.897061904001021,2.6069597069597066,3.3,3.3
4.900919910000084,0.09025641025641025,1.2780952380952382,0.5915018315018314
4.906289614998968,0.09025641025641025,1.2780952380952382,0.5915018315018314
4.908496440999443,3.3,2.792307692307692,2.54974358974359
4.908711619002133,3.3,2.792307692307692,2.54974358974359
4.913319226001477,3.3,2.792307692307692,2.54974358974359
4.913562704001379,3.3,2.792307692307692,2.54974358974359
4.918181155000639,3.3,2.792307692307692,2.54974358974359
4.9183849210021435,0.5600732600732601,2.744761904761905,2.5118681318681317
4.926633105002111,0.5600732600732601,2.744761904761905,2.5118681318681317
4.931816914999217,0.5600732600732601,2.744761904761905,2.5118681318681317
4.934819507001521,2.013846153846154,0.38036630036630037,0.5608791208791208
4.9380305760023475,2.013846153846154,0.38036630036630037,0.5608791208791208
4.939677213002142,2.013846153846154,0.38036630036630037,0.5608791208791208
4.944820083001105,2.013846153846154,0.38036630036630037,0.5608791208791208
4.946943122002267,2.013846153846154,0.38036630036630037,0.5608791208791208
4.9484921080002096,1.448131868131868,1.9598534798534797,0.9017582417582416
4.9547303059989645,1.448131868131868,1.9598534798534797,0.9017582417582416
4.960535844002152,1.448131868131868,1.9598534798534797,0.9017582417582416
4.965194092001184,1.2780952380952382,2.5392673992673993,3.3
4.965375261999725,1.2780952380952382,2.5392673992673993,3.3
4.973903561000043,1.2780952380952382,2.5392673992673993,3.3
4.9801177859990275,1.2780952380952382,2.5392673992673993,3.3
4.986380255999393,1.2780952380952382,2.5392673992673993,3.3
4.990078021000954,1.2780952380952382,2.5392673992673993,3.3
4.994711442999687,1.2780952380952382,2.5392673992673993,3.3
4.994989879000059,1.2780952380952382,2.5392673992673993,3.3
4.999519651999435,1.2780952380952382,2.5392673992673993,3.3
5.000444421999418,1.2780952380952382,2.5392673992673993,3.3
5.001374015999318,1.2780952380952382,2.5392673992673993,3.3
5.00303928699941,1.2780952380952382,2.5392673992673993,3.3
5.007183850000729,1.2780952380952382,2.5392673992673993,3.3
5.008842115999869,1.2780952380952382,2.5392673992673993,3.3
5.0118016859996715,1.2780952380952382,2.5392673992673993,3.3
5.014841472002445,1.2780952380952382,2.5392673992673993,3.3
5.017816931002017,2.3418315018315017,2.241904761904762,3.265347985347985
5.020514400999673,2.3418315018315017,2.241904761904762,3.265347985347985
5.024205508001614,2.3418315018315017,2.241904761904762,3.265347985347985
5.024360741001146,3.1968498168498165,3.3,2.8511355311355313
5.030848921000143,3.1968498168498165,3.3,2.8511355311355313
5.035356033000426,3.1968498168498165,3.3,2.8511355311355313
5.035583627999586,3.1968498168498165,3.3,2.8511355311355313
5.0439499220010475,3.1968498168498165,3.3,2.8511355311355313
5.05035898099959,3.1968498168498165,3.3,2.8511355311355313
5.0553198990019155,2.1645421245421246,0.46095238095238095,0.5802197802197803
5.059764763002022,0.5979487179487178,0.3384615384615384,1.099194139194139
5.059994333001669,1.2837362637362637,3.3,3.3
5.067263754001033,1.2837362637362637,3.3,3.3
5.072157135000452,1.9372893772893773,2.0428571428571427,2.087985347985348
5.076815897002234,1.9372893772893773,2.0428571428571427,2.087985347985348
5.083650182001293,1.9372893772893773,2.0428571428571427,2.087985347985348
5.0895815399999265,1.743076923076923,3.3,3.3
5.094415814000968,1.743076923076923,3.3,3.3
5.098730019999493,1.743076923076923,3.3,3.3
5.100507439001376,1.743076923076923,3.3,3.3
5.103372077999666,1.743076923076923,3.3,3.3
5.10760011900129,1.743076923076923,3.3,3.3
5.108443352000904,0.4851282051282051,2.1750183150183147,1.1838095238095236
5.1100770459997875,0.4851282051282051,2.1750183150183147,1.1838095238095236
5.114248427002167,0.4851282051282051,2.1750183150183147,1.1838095238095236
5.115891826000734,0.4851282051282051,2.1750183150183147,1.1838095238095236
5.11982657200133,0.4851282051282051,2.1750183150183147,1.1838095238095236
5.124422742999741,1.315970695970696,2.545714285714286,3.3
5.124634525000147,1.315970695970696,2.545714285714286,3.3
5.129787460999069,1.315970695970696,2.545714285714286,3.3
5.132201352000266,1.315970695970696,2.545714285714286,3.3
5.132374004999292,1.315970695970696,2.545714285714286,3.3
5.138406040001428,1.315970695970696,2.545714285714286,3.3
5.142276750000747,1.315970695970696,2.545714285714286,3.3
5.145999820000725,1.315970695970696,2.545714285714286,3.3
5.15128751100201,1.315970695970696,2.545714285714286,3.3
5.153601453999727,1.315970695970696,2.545714285714286,3.3
5.153834814002039,1.315970695970696,2.545714285714286,3.3
5.158435121000366,1.315970695970696,2.545714285714286,3.3
5.158700415002386,1.315970695970696,2.545714285714286,3.3
5.163283027999569,1.315970695970696,2.545714285714286,3.3
5.163562591002119,1.315970695970696,2.545714285714286,3.3
5.168260746002488,1.315970695970696,2.545714285714286,3.3
5.168398204001278,1.211208791208791,1.8849084249084247,0.9106227106227106
5.1737466270024015,1.211208791208791,1.8849084249084247,0.9106227106227106
5.1754997610005375,1.211208791208791,1.8849084249084247,0.9106227106227106
5.178901036000752,1.211208791208791,1.8849084249084247,0.9106227106227106
5.179342763000022,1.211208791208791,1.8849084249084247,0.9106227106227106
5.18342371000108,1.211208791208791,1.8849084249084247,0.9106227106227106
5.186888849999377,1.211208791208791,1.8849084249084247,0.9106227106227106
5.187043738998909,1.211208791208791,1.8849084249084247,0.9106227106227106
5.19204799200088,1.9284249084249083,1.676190476190476,0.7438095238095238
5.19594555400181,1.9284249084249083,1.676190476190476,0.7438095238095238
5.199862961999315,2.673040293040293,2.8197069597069593,3.3
5.203859017001378,2.673040293040293,2.8197069597069593,3.3
5.20686209500127,2.673040293040293,2.8197069597069593,3.3
5.209194818002288,2.673040293040293,2.8197069597069593,3.3
5.209356702001969,2.266886446886447,0.4254945054945055,0.5205860805860806
5.2148241470022185,2.266886446886447,0.4254945054945055,0.5205860805860806
5.216654988002119,1.9413186813186813,0.6414652014652015,0.5536263736263736
5.219965904001583,1.9413186813186813,0.6414652014652015,0.5536263736263736
5.220886946000974,1.004102564102564,3.3,3.3
5.2225108919992635,1.004102564102564,3.3,3.3
5.2263420060007775,1.004102564102564,3.3,3.3
5.230787888001942,1.004102564102564,3.3,3.3
5.231746948000364,1.004102564102564,3.3,3.3
5.2326575350016356,1.004102564102564,3.3,3.3
5.234974466002313,1.004102564102564,3.3,3.3
5.240574180999829,1.004102564102564,3.3,3.3
5.2414625019991945,1.004102564102564,3.3,3.3
5.242432857001404,1.004102564102564,3.3,3.3
5.244083476001833,1.004102564102564,3.3,3.3
5.2472563039991655,1.004102564102564,3.3,3.3
5.248866457000986,1.004102564102564,3.3,3.3
5.252754232998996,1.004102564102564,3.3,3.3
5.256649221999396,1.991282051282051,0.4996336996336996,0.46739926739926735
5.261189854001714,1.991282051282051,0.4996336996336996,0.46739926739926735
5.261548774000403,1.991282051282051,0.4996336996336996,0.46739926739926735
5.26685588500186,1.991282051282051,0.4996336996336996,0.46739926739926735
5.269879954001226,1.991282051282051,0.4996336996336996,0.46739926739926735
5.272182680000697,1.991282051282051,0.4996336996336996,0.46739926739926735
5.272407889999158,1.991282051282051,0.4996336996336996,0.46739926739926735
5.277780812000856,1.991282051282051,0.4996336996336996,0.46739926739926735
5.279607884000143,1.991282051282051,0.4996336996336996,0.46739926739926735
5.284172596002463,1.991282051282051,0.4996336996336996,0.46739926739926735
5.292022264999105,1.991282051282051,0.4996336996336996,0.46739926739926735
5.2969300110016775,1.991282051282051,0.4996336996336996,0.46739926739926735
5.301633065002534,1.991282051282051,0.4996336996336996,0.46739926739926735
5.301934003000497,1.7769230769230768,3.1613919413919414,2.5062271062271058
5.306899760002125,1.7769230769230768,3.1613919413919414,2.5062271062271058
5.311508791000961,1.7769230769230768,3.1613919413919414,2.5062271062271058
5.311803748001694,1.7769230769230768,3.1613919413919414,2.5062271062271058
5.316492989000835,1.7769230769230768,3.1613919413919414,2.5062271062271058
5.316774933999113,1.7769230769230768,3.1613919413919414,2.5062271062271058
5.32319857100083,1.7769230769230768,3.1613919413919414,2.5062271062271058
5.328788892002194,1.7769230769230768,3.1613919413919414,2.5062271062271058
5.328993117000209,1.7769230769230768,3.1613919413919414,2.5062271062271058
5.334396051999647,1.7769230769230768,3.1613919413919414,2.5062271062271058
5.337239397998928,1.684249084249084,3.3,2.6964102564102563
5.339792544000375,1.684249084249084,3.3,2.6964102564102563
5.346956501001841,1.684249084249084,3.3,2.6964102564102563
5.3530999239992525,2.423223443223443,1.099194139194139,0.5979487179487178
5.360423370999342,2.423223443223443,1.099194139194139,0.5979487179487178
5.366096510002535,0.9855677655677655,3.3,3.3
5.3748463110023295,2.7423443223443225,3.3,3.3
5.379487469999731,2.7423443223443225,3.3,3.3
5.379798509002285,2.7423443223443225,3.3,3.3
5.384568441000738,2.7423443223443225,3.3,3.3
5.390867092999542,2.7423443223443225,3.3,3.3
5.394344422998984,2.7423443223443225,3.3,3.3
5.394624649001344,2.291062271062271,2.2314285714285713,3.3
5.399410041001829,2.291062271062271,2.2314285714285713,3.3
5.409433177999745,2.291062271062271,2.2314285714285713,3.3
5.4151467609990505,0.11765567765567764,2.5553846153846154,1.6592673992673992
5.42219189500247,0.11765567765567764,2.5553846153846154,1.6592673992673992
5.4268995500024175,0.11765567765567764,2.5553846153846154,1.6592673992673992
5.431630368002516,0.06366300366300366,2.6464468864468866,1.963076923076923
5.43186209200212,0.06366300366300366,2.6464468864468866,1.963076923076923
5.438118771002337,0.06366300366300366,2.6464468864468866,1.963076923076923
5.44346869400033,0.06366300366300366,2.6464468864468866,1.963076923076923
5.4443439730021055,0.06366300366300366,2.6464468864468866,1.963076923076923
5.445303716001945,0.06366300366300366,2.6464468864468866,1.963076923076923
5.446991674001765,0.06366300366300366,2.6464468864468866,1.963076923076923
5.450820746002137,0.06366300366300366,2.6464468864468866,1.963076923076923
5.457579050002096,0.06366300366300366,2.6464468864468866,1.963076923076923
5.46073019799951,0.06366300366300366,2.6464468864468866,1.963076923076923
5.4630844370003615,1.9638827838827837,2.5997069597069595,2.2604395604395604
5.463322178002272,1.9638827838827837,2.5997069597069595,2.2604395604395604
5.4679847530023835,1.9638827838827837,2.5997069597069595,2.2604395604395604
5.468138743999589,1.9638827838827837,2.5997069597069595,2.2604395604395604
5.4746808640011295,1.9638827838827837,2.5997069597069595,2.2604395604395604
5.478398086001107,1.9638827838827837,2.5997069597069595,2.2604395604395604
5.483793502000481,1.9638827838827837,2.5997069597069595,2.2604395604395604
5.485491676001402,2.0767032967032963,1.7825641025641024,1.9115018315018315
5.493713492000097,2.0767032967032963,1.7825641025641024,1.9115018315018315
5.497928714001318,2.0767032967032963,1.7825641025641024,1.9115018315018315
5.5002933889991255,2.0767032967032963,1.7825641025641024,1.9115018315018315
5.500427479000791,2.0767032967032963,1.7825641025641024,1.9115018315018315
5.508470304001094,2.0767032967032963,1.7825641025641024,1.9115018315018315
5.512340642002528,2.0767032967032963,1.7825641025641024,1.9115018315018315
5.516491775000759,1.581904761904762,2.6343589743589746,2.5513553113553114
5.518881855001382,1.581904761904762,2.6343589743589746,2.5513553113553114
5.519042740001169,1.581904761904762,2.6343589743589746,2.5513553113553114
5.526598586002365,1.54,2.5553846153846154,3.3
5.532424273998913,1.801098901098901,1.3151648351648353,0.7172161172161172
5.532589737002127,1.801098901098901,1.3151648351648353,0.7172161172161172
5.537782577001053,1.801098901098901,1.3151648351648353,0.7172161172161172
5.542745433001983,1.801098901098901,1.3151648351648353,0.7172161172161172
5.548425955999846,1.801098901098901,1.3151648351648353,0.7172161172161172
5.555394499999238,1.801098901098901,1.3151648351648353,0.7172161172161172
5.560052983000787,1.801098901098901,1.3151648351648353,0.7172161172161172
5.564675723999244,1.6753846153846153,3.3,3.3
5.5655509019998135,1.6753846153846153,3.3,3.3
5.567176591001044,0.04915750915750916,2.613406593406593,1.7406593406593407
5.572522605001723,0.04915750915750916,2.613406593406593,1.7406593406593407
5.57477470899903,2.013040293040293,0.6132600732600733,0.5423443223443223
5.574965699001041,2.0235164835164836,3.3,2.804395604395604
5.579471921999357,2.0235164835164836,3.3,2.804395604395604
5.581335672999558,2.0235164835164836,3.3,2.804395604395604
5.583792003999406,2.0235164835164836,3.3,2.804395604395604
5.591082777998963,3.3,2.7584615384615385,2.5747252747252745
5.595507034999173,1.8486446886446886,0.2715750915750916,0.5882783882783883
5.596464297999773,1.8486446886446886,0.2715750915750916,0.5882783882783883
5.598067404000176,1.8486446886446886,0.2715750915750916,0.5882783882783883
5.602034014998935,1.8486446886446886,0.2715750915750916,0.5882783882783883
5.609246453001106,1.8486446886446886,0.2715750915750916,0.5882783882783883
5.6135923490001005,1.8486446886446886,0.2715750915750916,0.5882783882783883
5.6151930230007565,1.7833699633699631,0.7276923076923076,0.5987545787545787
5.619994442000461,1.7833699633699631,0.7276923076923076,0.5987545787545787
5.627837669002474,1.7833699633699631,0.7276923076923076,0.5987545787545787
5.632698913999775,1.7833699633699631,0.7276923076923076,0.5987545787545787
5.6328225750003185,1.7833699633699631,0.7276923076923076,0.5987545787545787
5.638535026002501,1.7833699633699631,0.7276923076923076,0.5987545787545787
5.6388407410013315,1.7833699633699631,0.7276923076923076,0.5987545787545787
5.645325745001173,1.7833699633699631,0.7276923076923076,0.5987545787545787
5.649834043000737,1.7833699633699631,0.7276923076923076,0.5987545787545787
5.650126483000349,1.7833699633699631,0.7276923076923076,0.5987545787545787
5.659286599002371,1.7833699633699631,0.7276923076923076,0.5987545787545787
5.664028766001138,1.7833699633699631,0.7276923076923076,0.5987545787545787
5.6641445310015115,1.9268131868131868,0.9742857142857142,1.481172161172161
5.670776261998981,1.9268131868131868,0.9742857142857142,1.481172161172161
5.676761365000857,2.01062271062271,0.23853479853479853,0.6084249084249085
5.6801654340015375,2.01062271062271,0.23853479853479853,0.6084249084249085
5.680540666002344,2.01062271062271,0.23853479853479853,0.6084249084249085
5.685435383998993,2.01062271062271,0.23853479853479853,0.6084249084249085
5.694058376000612,2.01062271062271,0.23853479853479853,0.6084249084249085
5.698026223999477,1.759194139194139,0.5745787545787545,0.5649084249084249
5.701995408002404,1.759194139194139,0.5745787545787545,0.5649084249084249
5.709303497998917,1.759194139194139,0.5745787545787545,0.5649084249084249
5.7133797370006505,1.581904761904762,1.4908424908424909,0.7268864468864469
5.717996573999699,1.581904761904762,1.4908424908424909,0.7268864468864469
5.718888039999001,0.20388278388278389,1.44007326007326,0.7647619047619048
5.721461648001423,0.20388278388278389,1.44007326007326,0.7647619047619048
5.727163501000177,0.20388278388278389,1.44007326007326,0.7647619047619048
5.7272780790008255,3.3,2.743150183150183,2.565860805860806
5.732111273002374,3.3,2.743150183150183,2.565860805860806
5.732258296000509,3.3,2.743150183150183,2.565860805860806
5.7386737870001525,3.3,2.743150183150183,2.565860805860806
5.742534609002178,3.3,2.743150183150183,2.565860805860806
5.745975611000176,3.3,2.743150183150183,2.565860805860806
5.746211665002193,2.880952380952381,3.3,2.843882783882784
5.7510368620023655,2.880952380952381,3.3,2.843882783882784
5.761537959999259,2.880952380952381,3.3,2.843882783882784
5.768691183002375,2.880952380952381,3.3,2.843882783882784
5.7761077510003815,2.880952380952381,3.3,2.843882783882784
5.780560410999897,2.880952380952381,3.3,2.843882783882784
5.780866200999299,0.2482051282051282,1.4884249084249084,0.776043956043956
5.7890310309994675,0.2482051282051282,1.4884249084249084,0.776043956043956
5.795704267999099,0.2482051282051282,1.4884249084249084,0.776043956043956
5.798993553999026,1.8897435897435895,0.5487912087912087,0.45692307692307693
5.8000133499990625,1.8897435897435895,0.5487912087912087,0.45692307692307693
5.80095863400129,1.8897435897435895,0.5487912087912087,0.45692307692307693
5.802550763000909,1.8897435897435895,0.5487912087912087,0.45692307692307693
5.808815635002247,1.8897435897435895,0.5487912087912087,0.45692307692307693
5.811991993999982,1.8897435897435895,0.5487912087912087,0.45692307692307693
5.813743636001163,1.8897435897435895,0.5487912087912087,0.45692307692307693
5.816900983001688,1.8897435897435895,0.5487912087912087,0.45692307692307693
5.819264719000785,1.8897435897435895,0.5487912087912087,0.45692307692307693
5.819494122999458,1.8897435897435895,0.5487912087912087,0.45692307692307693
5.8270483410015,1.8897435897435895,0.5487912087912087,0.45692307692307693
5.831850807000592,1.8897435897435895,0.5487912087912087,0.45692307692307693
5.832046794999769,1.7720879120879118,0.25706959706959703,0.4738461538461538
5.839884270000766,1.7720879120879118,0.25706959706959703,0.4738461538461538
5.843176067999593,1.7720879120879118,0.25706959706959703,0.4738461538461538
5.843549781999172,1.7720879120879118,0.25706959706959703,0.4738461538461538
5.849130683000112,1.7720879120879118,0.25706959706959703,0.4738461538461538
5.850193534999562,1.7720879120879118,0.25706959706959703,0.4738461538461538
5.850605035000626,1.7720879120879118,0.25706959706959703,0.4738461538461538
5.856803894999757,1.7720879120879118,0.25706959706959703,0.4738461538461538
5.860457624999981,0.25868131868131866,1.349010989010989,0.7365567765567765
5.866082827000355,0.25868131868131866,1.349010989010989,0.7365567765567765
5.868044769002154,0.25868131868131866,1.349010989010989,0.7365567765567765
5.87043705600081,0.25868131868131866,1.349010989010989,0.7365567765567765
5.870919205000973,0.25868131868131866,1.349010989010989,0.7365567765567765
5.876102333000745,0.25868131868131866,1.349010989010989,0.7365567765567765
5.876342338000541,0.25868131868131866,1.349010989010989,0.7365567765567765
5.88412548999986,0.25868131868131866,1.349010989010989,0.7365567765567765
5.8919488999999885,0.25868131868131866,1.349010989010989,0.7365567765567765
5.898224956999911,0.25868131868131866,1.349010989010989,0.7365567765567765
5.902456849998998,0.5608791208791208,0.32153846153846155,1.0363369963369962
5.907247917999484,1.1725274725274726,2.5400732600732603,3.3
5.910685974999069,1.1725274725274726,2.5400732600732603,3.3
5.91093507199912,1.1725274725274726,2.5400732600732603,3.3
5.915890101001423,1.1725274725274726,2.5400732600732603,3.3
5.921867632001522,1.1725274725274726,2.5400732600732603,3.3
5.926610024002002,1.1725274725274726,2.5400732600732603,3.3
5.926735174001806,1.0049084249084248,3.066300366300366,2.390989010989011
5.931601824002428,1.6367032967032966,1.1604395604395605,0.6414652014652015
5.93681578000178,1.6367032967032966,1.1604395604395605,0.6414652014652015
5.941663356999925,1.6367032967032966,1.1604395604395605,0.6414652014652015
5.944983084998967,1.6367032967032966,1.1604395604395605,0.6414652014652015
5.9452947190002305,3.3,2.8019780219780217,2.569084249084249
5.951336283000273,3.3,2.8019780219780217,2.569084249084249
5.959142047002388,3.3,2.8019780219780217,2.569084249084249
5.962809388001915,1.6753846153846153,2.318461538461538,3.3
5.967846225001267,1.4344322344322344,3.3,2.9986080586080583
5.973785547001171,1.4344322344322344,3.3,2.9986080586080583
5.981360760000825,1.4344322344322344,3.3,2.9986080586080583
5.989753264002502,0.29655677655677654,1.4884249084249084,0.7824908424908424
5.994553157001064,0.29655677655677654,1.4884249084249084,0.7824908424908424
5.999952676000248,0.29655677655677654,1.4884249084249084,0.7824908424908424
6.0007909090018074,0.29655677655677654,1.4884249084249084,0.7824908424908424
6.003307582999696,0.29655677655677654,1.4884249084249084,0.7824908424908424
6.009181028999592,1.8849084249084247,2.3974358974358974,2.5553846153846154
6.013261255000543,1.8849084249084247,2.3974358974358974,2.5553846153846154
6.016436944999441,2.1395604395604395,2.162124542124542,3.3
6.018282340999576,2.1395604395604395,2.162124542124542,3.3
6.021307646999048,2.1395604395604395,2.162124542124542,3.3
6.023950957001944,2.1395604395604395,2.162124542124542,3.3
6.02717112100072,2.1395604395604395,2.162124542124542,3.3
6.028085637000913,2.1395604395604395,2.162124542124542,3.3
6.029947353999887,2.1395604395604395,2.162124542124542,3.3
6.0342815709991555,2.1395604395604395,2.162124542124542,3.3
6.0346690290025435,2.1395604395604395,2.162124542124542,3.3
6.040693769002246,2.1395604395604395,2.162124542124542,3.3
6.043956212000921,0.3287912087912088,1.2821245421245422,0.8211721611721612
6.045561668001028,2.764908424908425,3.3,2.714945054945055
6.049505645001773,0.9194871794871795,2.840659340659341,2.3216849816849816
6.052702781002154,2.096043956043956,0.4448351648351648,0.5294505494505495
6.05534783999974,2.096043956043956,0.4448351648351648,0.5294505494505495
6.062231447001977,1.8784615384615382,3.3,2.740732600732601
6.067978986000526,1.8784615384615382,3.3,2.740732600732601
6.074448757000937,1.8784615384615382,3.3,2.740732600732601
6.078457481999067,2.2217582417582418,2.246739926739927,3.3
6.082270442002482,2.2217582417582418,2.246739926739927,3.3
6.086202477999905,1.4304029304029304,2.7786080586080586,2.523150183150183
6.092891686999792,1.751135531135531,3.3,2.9615384615384617
6.097143271999812,1.6689377289377287,0.26673992673992675,0.6148717948717949
6.099873806000687,1.6689377289377287,0.26673992673992675,0.6148717948717949
6.10794736599928,1.1282051282051282,3.0227838827838824,2.772967032967033
6.11408369900164,1.1282051282051282,3.0227838827838824,2.772967032967033
6.12026911400244,1.1282051282051282,3.0227838827838824,2.772967032967033
6.124312972999178,0.4351648351648352,1.5867399267399267,0.8767765567765567
6.1274765220005065,3.3,2.848717948717949,2.5706959706959704
6.129062143001647,0.2772161172161172,2.3498901098901097,1.3151648351648353
6.132944008000777,0.2772161172161172,2.3498901098901097,1.3151648351648353
6.137790788001439,1.6568498168498167,0.3336263736263736,0.7067399267399267
6.143322527001146,0.19179487179487179,1.2885714285714285,0.7841025641025641
6.143757272002404,1.3691575091575092,3.3,3.3
6.152660081999784,1.3691575091575092,3.3,3.3
6.159177405999799,1.3691575091575092,3.3,3.3
6.163166017002368,0.3602197802197802,0.3457142857142857,1.0492307692307692
6.166848466000374,0.3602197802197802,0.3457142857142857,1.0492307692307692
6.176043948002189,0.3602197802197802,0.3457142857142857,1.0492307692307692
6.182759447001445,0.2796336996336996,1.216043956043956,0.7607326007326007
6.187520309002139,0.3972893772893773,1.3933333333333333,0.9509157509157508
6.194638318000216,0.3972893772893773,1.3933333333333333,0.9509157509157508
6.200047517999337,1.402197802197802,0.48835164835164835,0.6172893772893773
6.200340335999499,1.402197802197802,0.48835164835164835,0.6172893772893773
6.208321461999731,1.402197802197802,0.48835164835164835,0.6172893772893773
6.2132092409992765,0.32395604395604394,2.428864468864469,1.7640293040293038
6.2207875660024,1.7608058608058608,0.6003663003663003,1.2998534798534798
6.2254852059995756,0.07575091575091575,1.0331135531135531,0.6398534798534798
6.232310150000558,0.07575091575091575,1.0331135531135531,0.6398534798534798
6.235800741000276,0.07575091575091575,1.0331135531135531,0.6398534798534798
6.236029124000197,0.07575091575091575,1.0331135531135531,0.6398534798534798
6.244017105000239,0.07575091575091575,1.0331135531135531,0.6398534798534798
6.250847882001835,0.07575091575091575,1.0331135531135531,0.6398534798534798
6.255061840001872,1.502930402930403,0.29010989010989013,0.4891575091575091
6.256622664001043,1.502930402930403,0.29010989010989013,0.4891575091575091
6.26089070099988,1.502930402930403,0.29010989010989013,0.4891575091575091
6.263162999999622,1.502930402930403,0.29010989010989013,0.4891575091575091
6.263979057999677,1.502930402930403,0.29010989010989013,0.4891575091575091
6.265469957001187,1.502930402930403,0.29010989010989013,0.4891575091575091
6.269840782999381,1.502930402930403,0.29010989010989013,0.4891575091575091
6.272486648002086,1.6769963369963368,0.24739926739926738,0.6938461538461538
6.276292223999917,1.6769963369963368,0.24739926739926738,0.6938461538461538
6.279863562001992,0.044322344322344324,1.211208791208791,0.6092307692307692
6.280084294001426,0.044322344322344324,1.211208791208791,0.6092307692307692
6.285442050000711,0.044322344322344324,1.211208791208791,0.6092307692307692
6.288995392002107,1.4102564102564101,2.29025641025641,2.2838095238095235
6.296498964999046,1.4102564102564101,2.29025641025641,2.2838095238095235
6.304301277999912,3.3,2.8148717948717947,2.5706959706959704
6.312285772000905,3.3,2.8148717948717947,2.5706959706959704
6.3188227220016415,3.3,2.8148717948717947,2.5706959706959704
6.323665719999553,3.3,2.8148717948717947,2.5706959706959704
6.330733825001516,3.3,2.8148717948717947,2.5706959706959704
6.334918594999181,3.3,2.8148717948717947,2.5706959706959704
6.33649024099941,3.3,2.8148717948717947,2.5706959706959704
6.340429845000472,3.3,2.8148717948717947,2.5706959706959704
6.344244551000884,3.3,2.8148717948717947,2.5706959706959704
6.348304883998935,3.3,2.8148717948717947,2.5706959706959704
6.351440964001085,3.3,2.8148717948717947,2.5706959706959704
6.353701317999366,3.3,2.8148717948717947,2.5706959706959704
6.353925372000958,3.3,2.8148717948717947,2.5706959706959704
6.358991983001033,3.3,2.8148717948717947,2.5706959706959704
6.3626543800019135,3.3,2.8148717948717947,2.5706959706959704
6.362776895999559,1.2305494505494505,3.216190476190476,2.809230769230769
6.367631454999355,1.2305494505494505,3.216190476190476,2.809230769230769
6.372587379999459,1.2305494505494505,3.216190476190476,2.809230769230769
6.376838266001869,1.4287912087912087,0.7051282051282051,0.5745787545787545
6.378991107001639,1.4287912087912087,0.7051282051282051,0.5745787545787545
6.379789760001586,1.4287912087912087,0.7051282051282051,0.5745787545787545
6.381952358002309,1.4287912087912087,0.7051282051282051,0.5745787545787545
6.3827193079996505,1.4287912087912087,0.7051282051282051,0.5745787545787545
6.384870817000774,1.0387545787545787,1.4916483516483516,3.10014652014652
6.38572945299893,1.0387545787545787,1.4916483516483516,3.10014652014652
6.387253843000508,0.16278388278388278,2.1161904761904764,0.9912087912087911
6.393153732002247,0.16278388278388278,2.1161904761904764,0.9912087912087911
6.400720762001583,0.16278388278388278,2.1161904761904764,0.9912087912087911
6.407675227001164,0.2796336996336996,1.2926007326007325,0.689010989010989
6.4137098970022635,0.2796336996336996,1.2926007326007325,0.689010989010989
6.418468178999319,0.2796336996336996,1.2926007326007325,0.689010989010989
6.425936132000061,0.2796336996336996,1.2926007326007325,0.689010989010989
6.4330399930004205,1.7446886446886447,1.166080586080586,1.6133333333333333
6.438829701000941,2.0235164835164836,0.22564102564102564,0.8816117216117215
6.4455662420004955,0.502051282051282,1.581904761904762,0.9533333333333331
6.451231685001403,0.502051282051282,1.581904761904762,0.9533333333333331
6.461101051001606,0.502051282051282,1.581904761904762,0.9533333333333331
6.470370693001314,0.502051282051282,1.581904761904762,0.9533333333333331
6.47554888599916,0.502051282051282,1.581904761904762,0.9533333333333331
6.478774923001765,0.502051282051282,1.581904761904762,0.9533333333333331
6.47970197000177,0.502051282051282,1.581904761904762,0.9533333333333331
6.480736352001259,0.502051282051282,1.581904761904762,0.9533333333333331
6.481626970002253,1.1225641025641024,3.3,3.3
6.483243393999146,1.1225641025641024,3.3,3.3
6.487118313001702,1.1225641025641024,3.3,3.3
6.492211384000257,1.1225641025641024,3.3,3.3
6.495753134000552,1.1225641025641024,3.3,3.3
6.505178452000109,1.1225641025641024,3.3,3.3
6.513807409999572,1.1225641025641024,3.3,3.3
6.520283049001591,1.1225641025641024,3.3,3.3
6.525239126000088,0.4722344322344322,1.224102564102564,0.7623443223443224
6.53024924300189,0.4722344322344322,1.224102564102564,0.7623443223443224
6.533682556000713,0.4722344322344322,1.224102564102564,0.7623443223443224
6.54339211000115,0.4722344322344322,1.224102564102564,0.7623443223443224
6.551965260001452,0.4722344322344322,1.224102564102564,0.7623443223443224
6.559752608001872,1.236996336996337,0.3473260073260073,0.6052014652014651
6.566809976000513,0.13619047619047617,0.32153846153846155,1.2474725274725273
6.572772957999405,0.909010989010989,1.3353113553113554,1.535164835164835
6.579329268999572,0.909010989010989,1.3353113553113554,1.535164835164835
6.585673420002422,0.909010989010989,1.3353113553113554,1.535164835164835
6.591956374999427,2.763296703296703,2.5586080586080584,2.5271794871794873
6.598145806001412,2.763296703296703,2.5586080586080584,2.5271794871794873
6.60431717100073,2.763296703296703,2.5586080586080584,2.5271794871794873
6.609780122002121,2.763296703296703,2.5586080586080584,2.5271794871794873
6.610022855998977,2.763296703296703,2.5586080586080584,2.5271794871794873
6.619439122001495,2.763296703296703,2.5586080586080584,2.5271794871794873
6.627679317000002,2.763296703296703,2.5586080586080584,2.5271794871794873
6.632462977002433,2.6545054945054947,3.3,2.847912087912088
6.637705109002127,2.5021978021978017,1.999340659340659,2.545714285714286
6.640685867001594,2.5021978021978017,1.999340659340659,2.545714285714286
6.645169231000182,2.5021978021978017,1.999340659340659,2.545714285714286
6.653280806000112,2.5021978021978017,1.999340659340659,2.545714285714286
6.659803548001946,2.5021978021978017,1.999340659340659,2.545714285714286
6.6650951449992135,2.5021978021978017,1.999340659340659,2.545714285714286
6.665444271002343,2.5021978021978017,1.999340659340659,2.545714285714286
6.672771409001143,2.5021978021978017,1.999340659340659,2.545714285714286
6.679470540002512,2.5021978021978017,1.999340659340659,2.545714285714286
6.684395010001026,2.5021978021978017,1.999340659340659,2.545714285714286
6.688637477000157,2.5021978021978017,1.999340659340659,2.545714285714286
