time,emg1,emg2,emg3
0.005918964998272713,1.9783882783882782,1.2627838827838826,0.5608791208791208
0.014923711998562794,1.9783882783882782,1.2627838827838826,0.5608791208791208
0.02320121599768754,1.9783882783882782,1.2627838827838826,0.5608791208791208
0.03177653099919553,1.9783882783882782,1.2627838827838826,0.5608791208791208
0.03926832299839589,1.9783882783882782,1.2627838827838826,0.5608791208791208
0.04612374099815497,1.9783882783882782,1.2627838827838826,0.5608791208791208
0.052342042999953264,1.9783882783882782,1.2627838827838826,0.5608791208791208
0.05816484199749539,1.0895238095238093,2.5295970695970698,3.3
0.06644956799937063,1.0895238095238093,2.5295970695970698,3.3
0.07152430399946752,1.7027838827838828,1.822051282051282,2.6762637362637363
0.07911936099844752,1.7027838827838828,1.822051282051282,2.6762637362637363
0.0851763039972866,1.7027838827838828,1.822051282051282,2.6762637362637363
0.09050873600062914,1.7027838827838828,1.822051282051282,2.6762637362637363
0.09079116299835732,1.7027838827838828,1.822051282051282,2.6762637362637363
0.0955221160002111,1.7027838827838828,1.822051282051282,2.6762637362637363
0.09567386599883321,1.7027838827838828,1.822051282051282,2.6762637362637363
0.10134541200022795,1.7027838827838828,1.822051282051282,2.6762637362637363
0.10162890900028287,0.190989010989011,0.7978021978021977,1.7366300366300367
0.11032949999935227,0.190989010989011,0.7978021978021977,1.7366300366300367
0.12049435500011896,0.190989010989011,0.7978021978021977,1.7366300366300367
0.12799670499953208,0.190989010989011,0.7978021978021977,1.7366300366300367
0.1344335260000662,0.190989010989011,0.7978021978021977,1.7366300366300367
0.14088120799715398,0.029816849816849816,1.0887179487179486,1.926007326007326
0.14712393599984352,1.4787545787545788,1.6568498168498167,2.335384615384615
0.1539295869988564,1.2539194139194139,1.0065201465201465,1.0621245421245422
0.16029430399794364,1.2539194139194139,1.0065201465201465,1.0621245421245422
0.16531185100029688,1.2539194139194139,1.0065201465201465,1.0621245421245422
0.1678073039984156,1.2539194139194139,1.0065201465201465,1.0621245421245422
0.17403553599797306,1.2539194139194139,1.0065201465201465,1.0621245421245422
0.17936102800013032,1.3619047619047617,1.5915750915750915,3.3
0.1796667639973748,1.3619047619047617,1.5915750915750915,3.3
0.18819853400054853,1.3619047619047617,1.5915750915750915,3.3
0.19548906099953456,1.3619047619047617,1.5915750915750915,3.3
0.20356439999886788,0.0,0.4859340659340659,0.9863736263736262
0.20544506499936688,0.66,1.672161172161172,3.2645421245421247
0.2087159469992912,0.66,1.672161172161172,3.2645421245421247
0.2090199449994543,0.66,1.672161172161172,3.2645421245421247
0.21841247900010785,0.66,1.672161172161172,3.2645421245421247
0.2271995449991664,0.66,1.672161172161172,3.2645421245421247
0.235225222997542,0.8711355311355311,1.3498168498168497,2.1024908424908424
0.24177288499777205,0.8711355311355311,1.3498168498168497,2.1024908424908424
0.24774869400062016,0.8711355311355311,1.3498168498168497,2.1024908424908424
0.25515881899991655,0.8711355311355311,1.3498168498168497,2.1024908424908424
0.26155181099966285,0.8711355311355311,1.3498168498168497,2.1024908424908424
0.2685974529995292,0.8711355311355311,1.3498168498168497,2.1024908424908424
0.2742897809985152,0.8711355311355311,1.3498168498168497,2.1024908424908424
0.28583099100069376,0.8711355311355311,1.3498168498168497,2.1024908424908424
0.29406755499803694,0.5624908424908425,0.7816849816849816,0.4528937728937729
0.30358259700005874,0.0,0.2594871794871795,0.28849816849816845
0.31224610099889105,1.5802930402930402,1.83010989010989,2.7624908424908425
0.32172741400063387,1.5802930402930402,1.83010989010989,2.7624908424908425
0.3286443340002734,1.5802930402930402,1.83010989010989,2.7624908424908425
0.3357467739988351,1.5802930402930402,1.83010989010989,2.7624908424908425
0.3411248029988201,1.5802930402930402,1.83010989010989,2.7624908424908425
0.3414592929984792,1.5802930402930402,1.83010989010989,2.7624908424908425
0.3519996929971967,1.5802930402930402,1.83010989010989,2.7624908424908425
0.35906660899854614,1.5802930402930402,1.83010989010989,2.7624908424908425
0.36564009999710834,1.5802930402930402,1.83010989010989,2.7624908424908425
0.3714831539982697,1.5802930402930402,1.83010989010989,2.7624908424908425
0.37564169599863817,1.5802930402930402,1.83010989010989,2.7624908424908425
0.3786314190001576,1.5802930402930402,1.83010989010989,2.7624908424908425
0.38279107400012435,1.5802930402930402,1.83010989010989,2.7624908424908425
0.38415480999901774,1.5802930402930402,1.83010989010989,2.7624908424908425
0.38993355099955807,1.5802930402930402,1.83010989010989,2.7624908424908425
0.3900338200000988,0.09267399267399268,0.1652014652014652,0.28849816849816845
0.3949725769998622,0.09267399267399268,0.1652014652014652,0.28849816849816845
0.40072800000052666,0.0,0.4488644688644688,1.016996336996337
0.407754642998043,0.022564102564102562,0.4754578754578754,1.2724542124542124
0.4130826629989315,1.4078388278388276,1.3925274725274726,1.547252747252747
0.41580458200041903,0.9581684981684981,2.8197069597069593,2.5521611721611723
0.423098425999342,0.9581684981684981,2.8197069597069593,2.5521611721611723
0.4287182779989962,0.9581684981684981,2.8197069597069593,2.5521611721611723
0.42895314899942605,0.9581684981684981,2.8197069597069593,2.5521611721611723
0.43689817099948414,0.9581684981684981,2.8197069597069593,2.5521611721611723
0.44378819600024144,0.9581684981684981,2.8197069597069593,2.5521611721611723
0.45003653399908217,0.9581684981684981,2.8197069597069593,2.5521611721611723
0.4561660750005103,0.9581684981684981,2.8197069597069593,2.5521611721611723
0.45963904399832245,0.9581684981684981,2.8197069597069593,2.5521611721611723
0.4599108250004065,0.9581684981684981,2.8197069597069593,2.5521611721611723
0.4703412329981802,0.9581684981684981,2.8197069597069593,2.5521611721611723
0.47799370699794963,0.32073260073260074,0.3529670329670329,1.054065934065934
0.4849542140000267,0.32073260073260074,0.3529670329670329,1.054065934065934
0.489266291999229,0.32073260073260074,0.3529670329670329,1.054065934065934
0.49099233699962497,0.32073260073260074,0.3529670329670329,1.054065934065934
0.4949680779973278,0.32073260073260074,0.3529670329670329,1.054065934065934
0.5025315149978269,0.32073260073260074,0.3529670329670329,1.054065934065934
0.5062044509977568,0.32073260073260074,0.3529670329670329,1.054065934065934
0.5125344099978975,0.32073260073260074,0.3529670329670329,1.054065934065934
0.5196323300006043,0.32073260073260074,0.3529670329670329,1.054065934065934
0.5231913659990823,0.16842490842490843,0.32395604395604394,0.30139194139194136
0.5317743729974609,0.8695238095238095,2.254798534798535,3.3
0.540372485997068,0.8695238095238095,2.254798534798535,3.3
0.5457458439996117,0.0,0.381978021978022,0.8743589743589744
0.5482964839975466,0.0,0.381978021978022,0.8743589743589744
0.5543481079985213,0.0,0.381978021978022,0.8743589743589744
0.5584700139988854,0.026593406593406595,1.0492307692307692,1.7841758241758239
0.561348616000032,0.026593406593406595,1.0492307692307692,1.7841758241758239
0.5652882629983651,0.026593406593406595,1.0492307692307692,1.7841758241758239
0.5700102119990333,0.026593406593406595,1.0492307692307692,1.7841758241758239
0.5759970889994293,0.22886446886446887,0.6608058608058608,0.39487179487179486
0.582479937998869,0.22886446886446887,0.6608058608058608,0.39487179487179486
0.5870825399979367,0.27076923076923076,0.33684981684981685,0.9364102564102563
0.5931467890004569,1.4626373626373625,1.468278388278388,1.4956776556776556
0.5988323999990826,1.4626373626373625,1.468278388278388,1.4956776556776556
0.6053611839997757,0.1958241758241758,0.25545787545787546,0.365054945054945
0.6093573599973752,1.3917216117216116,1.4175091575091574,1.4916483516483516
0.614048974999605,1.3917216117216116,1.4175091575091574,1.4916483516483516
0.6217132599995239,1.3917216117216116,1.4175091575091574,1.4916483516483516
0.6266445929977635,1.3917216117216116,1.4175091575091574,1.4916483516483516
0.6338934229970619,1.3917216117216116,1.4175091575091574,1.4916483516483516
0.6383060709995334,0.0,0.8243956043956043,1.6004395604395603
0.6386026529980882,0.0,0.8243956043956043,1.6004395604395603
0.6462474369982374,0.0,0.8243956043956043,1.6004395604395603
0.6525959350001358,0.0,0.8243956043956043,1.6004395604395603
0.6567927399992186,0.0,0.8243956043956043,1.6004395604395603
0.6594835840005544,0.0,0.8243956043956043,1.6004395604395603
0.6669898809996084,0.0,0.8243956043956043,1.6004395604395603
0.6719625989971973,0.0,0.8243956043956043,1.6004395604395603
0.6769330389979586,0.0,0.8243956043956043,1.6004395604395603
0.6830733040005725,0.0,0.8243956043956043,1.6004395604395603
0.6876017619979393,0.0,0.8195604395604396,1.5117948717948717
0.6936066469970683,0.0,0.8195604395604396,1.5117948717948717
0.7018838679978217,0.08139194139194139,0.21435897435897436,0.26190476190476186
0.7077314039997873,0.08139194139194139,0.21435897435897436,0.26190476190476186
0.7162323989978177,0.08139194139194139,0.21435897435897436,0.26190476190476186
0.7215024239994818,0.08139194139194139,0.21435897435897436,0.26190476190476186
0.72402255599809,0.08139194139194139,0.21435897435897436,0.26190476190476186
0.7290801439994539,0.08139194139194139,0.21435897435897436,0.26190476190476186
0.7361808929999825,0.26109890109890105,0.7188278388278388,0.46095238095238095
0.7412549589971604,0.26109890109890105,0.7188278388278388,0.46095238095238095
0.7458841640000173,0.26109890109890105,0.7188278388278388,0.46095238095238095
0.7460595960001228,0.26109890109890105,0.7188278388278388,0.46095238095238095
0.7538186679994396,0.26109890109890105,0.7188278388278388,0.46095238095238095
0.7587598499994783,0.0,0.5632967032967032,1.1668864468864468
0.7653424069976609,0.0,0.5632967032967032,1.1668864468864468
0.7694203600003675,0.0,0.5632967032967032,1.1668864468864468
0.7711322119976103,0.026593406593406595,0.27802197802197803,0.30945054945054945
0.7754794659995241,0.026593406593406595,0.27802197802197803,0.30945054945054945
0.7764000789975398,0.0,0.5947252747252747,1.1902564102564102
0.7780171529993822,0.0,0.5947252747252747,1.1902564102564102
0.7843820429989137,0.0,0.5947252747252747,1.1902564102564102
0.7883775800000876,0.0,0.5947252747252747,1.1902564102564102
0.7918402699979197,0.4182417582417582,0.8082783882783882,0.5367032967032966
0.7919556119995832,0.0,0.36747252747252745,0.26673992673992675
0.8001992579993384,0.0,0.36747252747252745,0.26673992673992675
0.8049371300003259,0.0,0.36747252747252745,0.26673992673992675
0.8107124809976085,0.0,0.36747252747252745,0.26673992673992675
0.8108711899985792,0.0,0.36747252747252745,0.26673992673992675
0.8199060869992536,0.0,0.36747252747252745,0.26673992673992675
0.8248750659986399,0.0,0.36747252747252745,0.26673992673992675
0.8294994669995504,0.0,0.36747252747252745,0.26673992673992675
0.8301529489981476,0.24739926739926738,0.17326007326007326,0.3304029304029304
0.8339629879992572,0.24739926739926738,0.17326007326007326,0.3304029304029304
0.8374202979975962,0.24739926739926738,0.17326007326007326,0.3304029304029304
0.837562454998988,0.47465201465201456,0.7212454212454212,0.8936996336996336
0.8430254819977563,0.47465201465201456,0.7212454212454212,0.8936996336996336
0.8453782739998132,0.28285714285714286,0.8832234432234431,1.917948717948718
0.8534139500006859,1.7616117216117215,2.037216117216117,2.6690109890109888
0.8583815489982953,1.7616117216117215,2.037216117216117,2.6690109890109888
0.863770192998345,1.7616117216117215,2.037216117216117,2.6690109890109888
0.865003713999613,1.7616117216117215,2.037216117216117,2.6690109890109888
0.8719990009994945,0.6237362637362637,1.0242490842490841,0.8026373626373626
0.8761694459972205,0.6237362637362637,1.0242490842490841,0.8026373626373626
0.8790107469976647,0.6237362637362637,1.0242490842490841,0.8026373626373626
0.8857106039977225,0.6237362637362637,1.0242490842490841,0.8026373626373626
0.8898008239993942,0.6237362637362637,1.0242490842490841,0.8026373626373626
0.8939177399988694,0.6237362637362637,1.0242490842490841,0.8026373626373626
0.895988574000512,0.6237362637362637,1.0242490842490841,0.8026373626373626
0.8981496109990985,0.6237362637362637,1.0242490842490841,0.8026373626373626
0.8984529099980136,0.6237362637362637,1.0242490842490841,0.8026373626373626
0.9036564809975971,0.6237362637362637,1.0242490842490841,0.8026373626373626
0.9067802079989633,0.3424908424908425,1.2007326007326007,2.4433699633699635
0.9091841640001803,0.66,1.0153846153846153,0.7583150183150182
0.9176453379986924,0.66,1.0153846153846153,0.7583150183150182
0.9216143960002228,0.66,1.0153846153846153,0.7583150183150182
0.9260709289992519,0.66,1.0153846153846153,0.7583150183150182
0.9270885749974695,0.66,1.0153846153846153,0.7583150183150182
0.9280767639975238,0.66,1.0153846153846153,0.7583150183150182
0.929209138997976,0.66,1.0153846153846153,0.7583150183150182
0.9295060269978421,0.66,1.0153846153846153,0.7583150183150182
0.937909200998547,0.66,1.0153846153846153,0.7583150183150182
0.943288610997115,0.66,1.0153846153846153,0.7583150183150182
0.944889238999167,0.66,1.0153846153846153,0.7583150183150182
0.9521455799986143,0.66,1.0153846153846153,0.7583150183150182
0.957930487998965,0.0,0.3465201465201465,0.2651282051282051
0.9628450229974987,0.0,0.3465201465201465,0.2651282051282051
0.9699293529993156,1.818827838827839,2.1234432234432234,2.851941391941392
0.9740797399972507,1.818827838827839,2.1234432234432234,2.851941391941392
0.9774605259990494,1.818827838827839,2.1234432234432234,2.851941391941392
0.9775808019985561,1.818827838827839,2.1234432234432234,2.851941391941392
0.9865526639987365,1.818827838827839,2.1234432234432234,2.851941391941392
0.9911236230000213,1.818827838827839,2.1234432234432234,2.851941391941392
0.9913814529973024,0.11362637362637362,0.25545787545787546,0.24175824175824176
0.9975977260000946,0.11362637362637362,0.25545787545787546,0.24175824175824176
1.002148388997739,0.6148717948717949,0.8985347985347985,1.2394139194139193
1.0024174869977287,0.0,0.6430769230769231,1.49003663003663
1.0078545809992647,0.0,0.6430769230769231,1.49003663003663
1.0096992830003728,0.0,0.6430769230769231,1.49003663003663
1.0122321839990036,0.0,0.6430769230769231,1.49003663003663
1.0227166679978836,0.9412454212454211,2.8422710622710623,3.3
1.0310907519997272,0.9412454212454211,2.8422710622710623,3.3
1.0371634679977433,0.9412454212454211,2.8422710622710623,3.3
1.0406863120006165,0.9412454212454211,2.8422710622710623,3.3
1.040956267999718,0.9412454212454211,2.8422710622710623,3.3
1.0459076299994194,0.9412454212454211,2.8422710622710623,3.3
1.0520720929998788,0.9412454212454211,2.8422710622710623,3.3
1.0560745399998268,0.03062271062271062,0.2482051282051282,0.3199267399267399
1.0592204349995882,0.03062271062271062,0.2482051282051282,0.3199267399267399
1.0609108280004875,0.03062271062271062,0.2482051282051282,0.3199267399267399
1.0660297379981785,0.35216117216117215,0.33926739926739924,0.967032967032967
1.0693926599997212,0.35216117216117215,0.33926739926739924,0.967032967032967
1.0696911019986146,0.35216117216117215,0.33926739926739924,0.967032967032967
1.075753254997835,0.35216117216117215,0.33926739926739924,0.967032967032967
1.0812857989985787,0.0,0.6898168498168498,1.2353846153846153
1.0814899959987088,0.0,0.6898168498168498,1.2353846153846153
1.0877874979996704,0.0,0.6898168498168498,1.2353846153846153
1.0917740629993204,0.0,0.6898168498168498,1.2353846153846153
1.0957243220000237,0.0,0.6898168498168498,1.2353846153846153
1.1012102139975468,1.1475457875457875,2.526373626373626,3.3
1.1015548020004644,1.1475457875457875,2.526373626373626,3.3
1.1063384029985173,1.1475457875457875,2.526373626373626,3.3
1.1118021359980048,0.9662271062271062,1.070989010989011,0.7091575091575092
1.1127399609977147,0.9662271062271062,1.070989010989011,0.7091575091575092
1.113711627000157,0.9662271062271062,1.070989010989011,0.7091575091575092
1.1155869289978,0.9662271062271062,1.070989010989011,0.7091575091575092
1.1180825859992183,0.9662271062271062,1.070989010989011,0.7091575091575092
1.1238020089986094,0.9662271062271062,1.070989010989011,0.7091575091575092
1.124158847000217,0.9662271062271062,1.070989010989011,0.7091575091575092
1.129140147997532,0.9662271062271062,1.070989010989011,0.7091575091575092
1.1347584209979686,0.9662271062271062,1.070989010989011,0.7091575091575092
1.1349709930000245,0.0136996336996337,0.7937728937728937,1.4013919413919413
1.1414719389977108,0.0136996336996337,0.7937728937728937,1.4013919413919413
1.1456812139986141,0.0136996336996337,0.7937728937728937,1.4013919413919413
1.1498334369971417,1.46021978021978,2.9776556776556777,2.577142857142857
1.150268542998674,0.0,0.3038095238095238,0.29655677655677654
1.1549091399974714,0.0,0.3038095238095238,0.29655677655677654
1.1551218499989773,0.0,0.3038095238095238,0.29655677655677654
1.1611712289995921,0.0,0.3038095238095238,0.29655677655677654
1.166311709999718,0.0,0.3038095238095238,0.29655677655677654
1.1686467109975638,0.0,0.3038095238095238,0.29655677655677654
1.1688904099974025,0.0,0.3038095238095238,0.29655677655677654
1.1750425489990448,0.0,0.3038095238095238,0.29655677655677654
1.182045751997066,1.4070329670329669,1.90989010989011,3.3
1.1875020699990273,1.4070329670329669,1.90989010989011,3.3
1.187798588998703,1.4070329670329669,1.90989010989011,3.3
1.192623458999151,1.4070329670329669,1.90989010989011,3.3
1.1988872250003624,1.4070329670329669,1.90989010989011,3.3
1.2033324900003208,1.4070329670329669,1.90989010989011,3.3
1.2036290129981353,1.4070329670329669,1.90989010989011,3.3
1.2107374779989186,1.4578021978021978,1.515018315018315,1.6931135531135528
1.2151596519979648,1.4578021978021978,1.515018315018315,1.6931135531135528
1.2153545709988975,0.02175824175824176,0.16842490842490843,0.5165567765567766
1.22136054099974,0.02901098901098901,0.17326007326007326,0.5181684981684981
1.2252617880003527,0.02901098901098901,0.17326007326007326,0.5181684981684981
1.2290227039993624,1.228937728937729,2.4957509157509157,2.594065934065934
1.2342762160005805,1.228937728937729,2.4957509157509157,2.594065934065934
1.2376217300006829,1.228937728937729,2.4957509157509157,2.594065934065934
1.237925694000296,1.228937728937729,2.4957509157509157,2.594065934065934
1.2428276149985322,1.228937728937729,2.4957509157509157,2.594065934065934
1.2486555379982747,1.228937728937729,2.4957509157509157,2.594065934065934
1.2542487129976507,1.228937728937729,2.4957509157509157,2.594065934065934
1.2544540599992615,1.228937728937729,2.4957509157509157,2.594065934065934
1.259126455999649,1.228937728937729,2.4957509157509157,2.594065934065934
1.2592955689979135,1.228937728937729,2.4957509157509157,2.594065934065934
1.2640099300006113,1.228937728937729,2.4957509157509157,2.594065934065934
1.2641616479995719,0.7663736263736264,1.7978754578754577,3.3
1.268860885000322,0.7663736263736264,1.7978754578754577,3.3
1.2691508469979453,0.7663736263736264,1.7978754578754577,3.3
1.2738331199980166,0.7663736263736264,1.7978754578754577,3.3
1.2740033529989887,0.03626373626373627,1.0347252747252746,1.6874725274725273
1.280481981997582,0.0,0.585054945054945,1.0411721611721612
1.285185905999242,1.3876923076923076,1.9461538461538461,2.56989010989011
1.285409971998888,0.3287912087912088,0.8638827838827838,1.7503296703296702
1.2929404889982834,0.3287912087912088,0.8638827838827838,1.7503296703296702
1.298879058998864,0.3287912087912088,0.8638827838827838,1.7503296703296702
1.3026791310003318,0.3287912087912088,0.8638827838827838,1.7503296703296702
1.3084905609975976,0.3287912087912088,0.8638827838827838,1.7503296703296702
1.3086006889971031,0.3287912087912088,0.8638827838827838,1.7503296703296702
1.3136951979977312,0.3287912087912088,0.8638827838827838,1.7503296703296702
1.3179219640005613,0.3376556776556776,1.806739926739927,3.1573626373626373
1.3203320649990928,0.7623443223443224,0.9525274725274724,1.1185347985347984
1.3205157749980572,0.7623443223443224,0.9525274725274724,1.1185347985347984
1.3253791539973463,0.7623443223443224,0.9525274725274724,1.1185347985347984
1.330668638998759,0.7623443223443224,0.9525274725274724,1.1185347985347984
1.3330643240005884,0.14505494505494507,0.5375091575091575,0.39003663003663
1.3332443910003349,1.270842490842491,2.625494505494505,2.5513553113553114
1.3379749569976411,1.270842490842491,2.625494505494505,2.5513553113553114
1.338185861997772,0.0,0.34813186813186814,0.8727472527472527
1.3436028769974655,0.0,0.34813186813186814,0.8727472527472527
1.3452577269999892,0.0,0.34813186813186814,0.8727472527472527
1.3491821459974744,1.1846153846153846,1.112893772893773,0.9194871794871795
1.3531084329988516,1.1846153846153846,1.112893772893773,0.9194871794871795
1.3566753339982824,1.1846153846153846,1.112893772893773,0.9194871794871795
1.3569796079973457,1.1846153846153846,1.112893772893773,0.9194871794871795
1.36178669599758,1.1846153846153846,1.112893772893773,0.9194871794871795
1.3672126950004895,1.1846153846153846,1.112893772893773,0.9194871794871795
1.3681150949996663,0.06446886446886446,0.4553113553113553,0.33684981684981685
1.369698286998755,0.06446886446886446,0.4553113553113553,0.33684981684981685
1.3745100189989898,0.0,0.19743589743589743,0.28446886446886444
1.379109878998861,0.0,0.19743589743589743,0.28446886446886444
1.3792926599999191,0.0,0.19743589743589743,0.28446886446886444
1.3846600699980627,0.0,0.19743589743589743,0.28446886446886444
1.3869973519977066,0.0,0.19743589743589743,0.28446886446886444
1.3871574149998196,0.0,0.19743589743589743,0.28446886446886444
1.3925182969978778,0.0,0.19743589743589743,0.28446886446886444
1.3942661109977053,0.0,0.19743589743589743,0.28446886446886444
1.3974956739984918,0.0,0.19743589743589743,0.28446886446886444
1.3983561489985732,0.0,0.19743589743589743,0.28446886446886444
1.4000071099981142,0.0,0.19743589743589743,0.28446886446886444
1.403949597999599,0.0,0.19743589743589743,0.28446886446886444
1.407973243000015,0.20146520146520144,0.4287179487179487,1.1668864468864468
1.4112523789990519,0.166007326007326,0.15472527472527473,0.29978021978021974
1.412184046999755,0.166007326007326,0.15472527472527473,0.29978021978021974
1.4138527510003769,0.166007326007326,0.15472527472527473,0.29978021978021974
1.4179201839979214,0.166007326007326,0.15472527472527473,0.29978021978021974
1.4219493999989936,0.166007326007326,0.15472527472527473,0.29978021978021974
1.4244123899989063,1.7213186813186814,2.0009523809523806,2.7004395604395603
1.4245303259995126,1.7213186813186814,2.0009523809523806,2.7004395604395603
1.4294997609977145,1.7213186813186814,2.0009523809523806,2.7004395604395603
1.4343427239982702,0.06124542124542124,0.19743589743589743,0.2772161172161172
1.4400446039981034,0.06124542124542124,0.19743589743589743,0.2772161172161172
1.4403015699972457,0.06124542124542124,0.19743589743589743,0.2772161172161172
1.4457010480000463,0.06124542124542124,0.19743589743589743,0.2772161172161172
1.4474170169996796,1.2684249084249084,1.2144322344322345,1.1402930402930402
1.4505965030002699,1.2684249084249084,1.2144322344322345,1.1402930402930402
1.4523091219998605,0.01934065934065934,0.24256410256410255,0.2361172161172161
1.4561960760001966,0.01934065934065934,0.24256410256410255,0.2361172161172161
1.4609191529998498,0.03062271062271062,0.23208791208791207,0.5947252747252747
1.4610417839976435,0.03062271062271062,0.23208791208791207,0.5947252747252747
1.4663592769975367,0.03062271062271062,0.23208791208791207,0.5947252747252747
1.4686000410001725,1.153186813186813,2.46029304029304,3.3
1.4688917359999323,1.153186813186813,2.46029304029304,3.3
1.4734271639972576,1.153186813186813,2.46029304029304,3.3
1.4737850189994788,1.153186813186813,2.46029304029304,3.3
1.478184825999051,1.153186813186813,2.46029304029304,3.3
1.4797795659978874,1.153186813186813,2.46029304029304,3.3
1.4848168559983606,1.153186813186813,2.46029304029304,3.3
1.489004273997125,0.9855677655677655,1.0605128205128205,0.909010989010989
1.4907459159985592,0.9855677655677655,1.0605128205128205,0.909010989010989
1.4947637939985725,0.9855677655677655,1.0605128205128205,0.909010989010989
1.4980624979980348,0.9855677655677655,1.0605128205128205,0.909010989010989
1.4983375140000135,0.9855677655677655,1.0605128205128205,0.909010989010989
1.5032385099984822,0.9855677655677655,1.0605128205128205,0.909010989010989
1.5080700809994596,0.9855677655677655,1.0605128205128205,0.909010989010989
1.5138638139978866,0.9855677655677655,1.0605128205128205,0.909010989010989
1.5139941220004403,1.1596336996336996,2.6714285714285713,3.3
1.5186795669978892,1.1596336996336996,2.6714285714285713,3.3
1.5188447359978454,1.1596336996336996,2.6714285714285713,3.3
1.5236555539995607,1.1596336996336996,2.6714285714285713,3.3
1.5292343239998445,1.1596336996336996,2.6714285714285713,3.3
1.530103943998256,1.1596336996336996,2.6714285714285713,3.3
1.5319239559976268,1.1596336996336996,2.6714285714285713,3.3
1.534488818000682,1.1596336996336996,2.6714285714285713,3.3
1.5393209779977042,1.1596336996336996,2.6714285714285713,3.3
1.5443364130005648,1.4062271062271061,1.9018315018315015,2.4175824175824174
1.548303173000022,1.4062271062271061,1.9018315018315015,2.4175824175824174
1.5515284129978681,0.0,0.2594871794871795,0.45369963369963373
1.5531392239972774,0.0,0.2594871794871795,0.45369963369963373
1.5587004070002877,0.0,0.2594871794871795,0.45369963369963373
1.5588478360004956,0.0,0.2594871794871795,0.45369963369963373
1.567680025997106,0.0,0.2594871794871795,0.45369963369963373
1.573802885999612,0.0,0.2594871794871795,0.45369963369963373
1.5793911090004258,0.0,0.2594871794871795,0.45369963369963373
1.579549728998245,0.07494505494505493,0.17245421245421244,0.4964102564102564
1.5879297020001104,0.07494505494505493,0.17245421245421244,0.4964102564102564
1.5953594259990496,1.361098901098901,1.3482051282051282,1.3095238095238093
1.6001395099992806,1.361098901098901,1.3482051282051282,1.3095238095238093
1.6058788880000066,1.4715018315018316,1.771282051282051,2.5868131868131865
1.6061264059972018,1.4715018315018316,1.771282051282051,2.5868131868131865
1.6147784879976825,1.4715018315018316,1.771282051282051,2.5868131868131865
1.6219502739986638,1.4715018315018316,1.771282051282051,2.5868131868131865
1.6292957429977832,1.4715018315018316,1.771282051282051,2.5868131868131865
1.6366141049984435,1.4715018315018316,1.771282051282051,2.5868131868131865
1.642575683999894,1.7648351648351648,2.274139194139194,3.3
1.6486408009986917,1.1588278388278386,2.6327472527472526,2.5465201465201464
1.6534790330006217,0.22967032967032966,0.1676190476190476,0.34007326007326005
1.6603496389980137,0.303003663003663,0.24256410256410255,0.41340659340659336
1.6654633469988767,0.303003663003663,0.24256410256410255,0.41340659340659336
1.6678874079989328,0.8018315018315018,1.8204395604395605,3.3
1.677605916000175,0.8018315018315018,1.8204395604395605,3.3
1.6868416789984622,0.8018315018315018,1.8204395604395605,3.3
1.6916725429982762,0.8018315018315018,1.8204395604395605,3.3
1.695733789998485,0.8018315018315018,1.8204395604395605,3.3
1.698335135999514,1.2434432234432233,2.5441025641025643,3.3
1.7034791699989,0.9122344322344322,1.1821978021978021,1.49003663003663
1.7076803969976027,0.9122344322344322,1.1821978021978021,1.49003663003663
1.7102197079984762,0.9122344322344322,1.1821978021978021,1.49003663003663
1.7151571079994028,0.15069597069597068,0.4383882783882784,0.29655677655677654
1.719865041999583,0.15069597069597068,0.4383882783882784,0.29655677655677654
1.720048171999224,0.15069597069597068,0.4383882783882784,0.29655677655677654
1.7260964439992676,0.15069597069597068,0.4383882783882784,0.29655677655677654
1.735288263997063,0.15069597069597068,0.4383882783882784,0.29655677655677654
1.7422812629993132,0.15069597069597068,0.4383882783882784,0.29655677655677654
1.7482801740006835,0.15069597069597068,0.4383882783882784,0.29655677655677654
1.7548032439990493,0.15069597069597068,0.4383882783882784,0.29655677655677654
1.7583891789981863,1.1483516483516483,2.9309157509157506,2.5513553113553114
1.7585642699996242,1.1483516483516483,2.9309157509157506,2.5513553113553114
1.7639910750003764,1.5972161172161172,2.036410256410256,2.445787545787546
1.7657852960001037,0.8824175824175824,1.6439560439560439,2.1202197802197804
1.7685159590000694,0.8824175824175824,1.6439560439560439,2.1202197802197804
1.7727959499970893,0.18776556776556774,0.1668131868131868,0.28124542124542123
1.774576118998084,0.18776556776556774,0.1668131868131868,0.28124542124542123
1.77807940799903,0.18776556776556774,0.1668131868131868,0.28124542124542123
1.7782547589995374,0.18776556776556774,0.1668131868131868,0.28124542124542123
1.784162116000516,0.18776556776556774,0.1668131868131868,0.28124542124542123
1.7842909939972742,1.7035897435897436,1.8784615384615382,2.186300366300366
1.7894303479988594,1.7035897435897436,1.8784615384615382,2.186300366300366
1.7927019870003278,1.7035897435897436,1.8784615384615382,2.186300366300366
1.7943861519997881,1.7035897435897436,1.8784615384615382,2.186300366300366
1.7975429279977106,1.7035897435897436,1.8784615384615382,2.186300366300366
1.7984545799990883,0.21355311355311357,0.41340659340659336,0.3384615384615384
1.8001313659988227,0.21355311355311357,0.41340659340659336,0.3384615384615384
1.8033271759995841,0.6511355311355311,1.4578021978021978,1.9534065934065934
1.8049614129995462,0.6511355311355311,1.4578021978021978,1.9534065934065934
1.8088533349982754,0.6511355311355311,1.4578021978021978,1.9534065934065934
1.8143211659989902,0.6511355311355311,1.4578021978021978,1.9534065934065934
1.8159389169995848,0.6511355311355311,1.4578021978021978,1.9534065934065934
1.819177323999611,0.6511355311355311,1.4578021978021978,1.9534065934065934
1.8201350279996404,0.6511355311355311,1.4578021978021978,1.9534065934065934
1.821735589997843,0.6511355311355311,1.4578021978021978,1.9534065934065934
1.825716866998846,0.6511355311355311,1.4578021978021978,1.9534065934065934
1.829732084999705,0.6511355311355311,1.4578021978021978,1.9534065934065934
1.832923801997822,0.6511355311355311,1.4578021978021978,1.9534065934065934
1.8338927139993757,1.2523076923076921,2.4006593406593404,3.3
1.8355276500005857,1.2523076923076921,2.4006593406593404,3.3
1.838706092999928,1.2523076923076921,2.4006593406593404,3.3
1.8403592449976713,1.2523076923076921,2.4006593406593404,3.3
1.8454083769975114,1.2523076923076921,2.4006593406593404,3.3
1.8504565929979435,1.2523076923076921,2.4006593406593404,3.3
1.852778591997776,0.0,0.3658608058608058,0.23853479853479853
1.8530261339983554,0.0,0.3658608058608058,0.23853479853479853
1.8583837029982533,0.0,0.3658608058608058,0.23853479853479853
1.859377171000233,1.4457142857142857,1.854285714285714,2.6327472527472526
1.8604667449981207,1.4457142857142857,1.854285714285714,2.6327472527472526
1.860783898999216,1.4457142857142857,1.854285714285714,2.6327472527472526
1.8657233619996987,1.4457142857142857,1.854285714285714,2.6327472527472526
1.8717145529990376,1.4457142857142857,1.854285714285714,2.6327472527472526
1.8757615449976583,1.4457142857142857,1.854285714285714,2.6327472527472526
1.8787296419977793,1.4457142857142857,1.854285714285714,2.6327472527472526
1.8826264159979473,1.4457142857142857,1.854285714285714,2.6327472527472526
1.8874249769978633,0.08058608058608058,0.5624908424908425,1.261978021978022
1.8925678049999988,1.0113553113553113,1.212014652014652,1.1241758241758242
1.8958836609999707,1.0113553113553113,1.212014652014652,1.1241758241758242
1.8967937960005656,0.24256410256410255,1.2627838827838826,1.9896703296703295
1.8979572899988852,0.24256410256410255,1.2627838827838826,1.9896703296703295
1.8981966779974755,0.24256410256410255,1.2627838827838826,1.9896703296703295
1.9033003209988237,0.24256410256410255,1.2627838827838826,1.9896703296703295
1.9069004509983642,0.24256410256410255,1.2627838827838826,1.9896703296703295
1.9123211599981005,0.9114285714285715,1.162051282051282,1.0097435897435898
1.913250801000686,0.9114285714285715,1.162051282051282,1.0097435897435898
1.9149049799998465,0.9114285714285715,1.162051282051282,1.0097435897435898
1.9188382149986865,0.9114285714285715,1.162051282051282,1.0097435897435898
1.9235623459971976,0.9114285714285715,1.162051282051282,1.0097435897435898
1.9238850019974052,0.9114285714285715,1.162051282051282,1.0097435897435898
1.9285858779985574,0.9114285714285715,1.162051282051282,1.0097435897435898
1.9287071349972393,0.8485714285714284,1.1306227106227105,0.9388278388278387
1.934113768998941,0.8485714285714284,1.1306227106227105,0.9388278388278387
1.9357604609976988,0.8485714285714284,1.1306227106227105,0.9388278388278387
1.9397467189992312,0.8485714285714284,1.1306227106227105,0.9388278388278387
1.9422219579973898,1.5053479853479852,1.995311355311355,2.5046153846153842
1.9477352239991887,0.7446153846153846,1.7559706959706958,3.3
1.9494167709999601,0.7438095238095238,1.0645421245421245,0.8630769230769231
1.952556745000038,0.7438095238095238,1.0645421245421245,0.8630769230769231
1.9550133909979195,0.2683516483516483,0.17164835164835165,0.2949450549450549
1.9551972079971165,0.2683516483516483,0.17164835164835165,0.2949450549450549
1.9610716739989584,0.2683516483516483,0.17164835164835165,0.2949450549450549
1.966446772999916,0.6664468864468864,1.5883516483516482,2.2354578754578753
1.9681214579977677,1.8317216117216117,2.049304029304029,2.5271794871794873
1.9720014199992875,1.8317216117216117,2.049304029304029,2.5271794871794873
1.9759178629974485,1.8317216117216117,2.049304029304029,2.5271794871794873
1.9798322309979994,0.029816849816849816,0.14908424908424908,0.419047619047619
1.9844513089992688,1.2216849816849817,1.975164835164835,2.4054945054945054
1.9846593649999704,1.2216849816849817,1.975164835164835,2.4054945054945054
1.9901141970003664,1.2216849816849817,1.975164835164835,2.4054945054945054
1.9917608309988282,1.2216849816849817,1.975164835164835,2.4054945054945054
1.995618814999034,1.2216849816849817,1.975164835164835,2.4054945054945054
1.999547249997704,1.2216849816849817,1.975164835164835,2.4054945054945054
2.0034306359993934,1.2216849816849817,1.975164835164835,2.4054945054945054
2.0072934689997055,1.2216849816849817,1.975164835164835,2.4054945054945054
2.0111833730006765,1.2216849816849817,1.975164835164835,2.4054945054945054
2.015133209999476,1.2216849816849817,1.975164835164835,2.4054945054945054
2.0189509019983234,1.2216849816849817,1.975164835164835,2.4054945054945054
2.022882134999236,1.2216849816849817,1.975164835164835,2.4054945054945054
2.0278887249987747,1.2216849816849817,1.975164835164835,2.4054945054945054
2.031720704999316,1.2216849816849817,1.975164835164835,2.4054945054945054
2.0364794380002422,1.2216849816849817,1.975164835164835,2.4054945054945054
2.0420110800005205,1.2216849816849817,1.975164835164835,2.4054945054945054
2.043073352997453,0.0,0.7542857142857142,1.5383882783882783
2.044024167000316,1.2756776556776557,2.514285714285714,3.3
2.0449008689975017,1.2756776556776557,2.514285714285714,3.3
2.046552083000279,1.1016117216117214,1.2756776556776557,1.2772893772893772
2.0504103059975023,0.39487179487179486,0.7599267399267399,0.49721611721611714
2.0543767089984613,0.39487179487179486,0.7599267399267399,0.49721611721611714
2.058746462000272,0.39487179487179486,0.7599267399267399,0.49721611721611714
2.0597528649996093,0.39487179487179486,0.7599267399267399,0.49721611721611714
2.0607820250006625,0.39487179487179486,0.7599267399267399,0.49721611721611714
2.0617011439971975,0.39487179487179486,0.7599267399267399,0.49721611721611714
2.063441349000641,0.39487179487179486,0.7599267399267399,0.49721611721611714
2.066653633999522,0.39487179487179486,0.7599267399267399,0.49721611721611714
2.0683739069972944,1.0967765567765566,1.2257142857142858,1.116923076923077
2.0716283330002625,1.0967765567765566,1.2257142857142858,1.116923076923077
2.072674058999837,1.0967765567765566,1.2257142857142858,1.116923076923077
2.0735954649971973,1.0967765567765566,1.2257142857142858,1.116923076923077
2.074592123997718,1.0967765567765566,1.2257142857142858,1.116923076923077
2.075576834999083,1.0967765567765566,1.2257142857142858,1.116923076923077
2.0760048880001705,1.0967765567765566,1.2257142857142858,1.116923076923077
2.0808214169992425,1.0967765567765566,1.2257142857142858,1.116923076923077
2.086359298999014,1.0967765567765566,1.2257142857142858,1.116923076923077
2.0866298170003574,0.4029304029304029,0.7728205128205128,0.5254212454212454
2.0921987559995614,0.4029304029304029,0.7728205128205128,0.5254212454212454
2.0931612239983224,0.4029304029304029,0.7728205128205128,0.5254212454212454
2.094192063999799,0.4029304029304029,0.7728205128205128,0.5254212454212454
2.095077587997366,0.4029304029304029,0.7728205128205128,0.5254212454212454
2.096719416000269,0.4029304029304029,0.7728205128205128,0.5254212454212454
2.1014756570002646,0.4029304029304029,0.7728205128205128,0.5254212454212454
2.108767812998849,0.4029304029304029,0.7728205128205128,0.5254212454212454
2.113216748999548,0.4029304029304029,0.7728205128205128,0.5254212454212454
2.1134033019989147,0.4029304029304029,0.7728205128205128,0.5254212454212454
2.1187794109973765,0.4029304029304029,0.7728205128205128,0.5254212454212454
2.1218331339987344,0.4029304029304029,0.7728205128205128,0.5254212454212454
2.1241897019972384,0.4029304029304029,0.7728205128205128,0.5254212454212454
2.124425218997203,0.4029304029304029,0.7728205128205128,0.5254212454212454
2.129873099998804,0.4029304029304029,0.7728205128205128,0.5254212454212454
2.1314804539979377,0.3199267399267399,0.7413919413919414,0.4754578754578754
2.1346472639997955,0.3199267399267399,0.7413919413919414,0.4754578754578754
2.137162652998086,0.3199267399267399,0.7413919413919414,0.4754578754578754
2.1426919659970736,0.3199267399267399,0.7413919413919414,0.4754578754578754
2.145145867998508,0.3199267399267399,0.7413919413919414,0.4754578754578754
2.145254742998077,0.3199267399267399,0.7413919413919414,0.4754578754578754
2.150748541000212,0.3199267399267399,0.7413919413919414,0.4754578754578754
2.152376778998587,0.3199267399267399,0.7413919413919414,0.4754578754578754
2.1555295959988143,0.3199267399267399,0.7413919413919414,0.4754578754578754
2.1579104929987807,0.3199267399267399,0.7413919413919414,0.4754578754578754
2.1581397489972005,0.3199267399267399,0.7413919413919414,0.4754578754578754
2.1635388959984994,0.3199267399267399,0.7413919413919414,0.4754578754578754
2.1652761999976065,0.3199267399267399,0.7413919413919414,0.4754578754578754
2.169141767997644,0.3199267399267399,0.7413919413919414,0.4754578754578754
2.1731443839998974,0.3199267399267399,0.7413919413919414,0.4754578754578754
2.1763569449976785,0.3199267399267399,0.7413919413919414,0.4754578754578754
2.1772921459996724,0.3199267399267399,0.7413919413919414,0.4754578754578754
2.1789162439999927,0.3199267399267399,0.7413919413919414,0.4754578754578754
2.1828542229995946,0.3199267399267399,0.7413919413919414,0.4754578754578754
2.1867546059984306,1.4586080586080585,2.4216117216117214,3.3
2.1905983229989943,1.4586080586080585,2.4216117216117214,3.3
2.1945342459985113,1.4586080586080585,2.4216117216117214,3.3
2.197804767998605,1.4586080586080585,2.4216117216117214,3.3
2.1994931970002654,1.4586080586080585,2.4216117216117214,3.3
2.20332861299903,1.4586080586080585,2.4216117216117214,3.3
2.2075709710006777,1.4586080586080585,2.4216117216117214,3.3
2.209437279998383,0.19663003663003664,0.5971428571428571,0.39809523809523806
2.211971075998008,0.0,0.21032967032967032,0.2772161172161172
2.212168991998624,0.0,0.21032967032967032,0.2772161172161172
2.2176578049984528,1.3006593406593405,2.6682051282051282,2.5521611721611723
2.218582665998838,1.3006593406593405,2.6682051282051282,2.5521611721611723
2.2195338109995646,1.3006593406593405,2.6682051282051282,2.5521611721611723
2.220546030999685,1.3006593406593405,2.6682051282051282,2.5521611721611723
2.221458543997869,1.3006593406593405,2.6682051282051282,2.5521611721611723
2.223064186000556,1.3006593406593405,2.6682051282051282,2.5521611721611723
2.2272172029988724,1.3006593406593405,2.6682051282051282,2.5521611721611723
2.2288965359985013,1.3006593406593405,2.6682051282051282,2.5521611721611723
2.232769874997757,1.3006593406593405,2.6682051282051282,2.5521611721611723
2.236817663997499,1.3006593406593405,2.6682051282051282,2.5521611721611723
2.2399705429997994,1.3006593406593405,2.6682051282051282,2.5521611721611723
2.2409040210004605,1.3006593406593405,2.6682051282051282,2.5521611721611723
2.242551346000255,1.3006593406593405,2.6682051282051282,2.5521611721611723
2.2457701489984174,1.3006593406593405,2.6682051282051282,2.5521611721611723
2.247459992999211,1.531135531135531,1.5649816849816849,1.8276923076923077
2.2506195999994816,0.3586080586080586,0.6543589743589743,0.4778754578754579
2.252303186000063,0.3586080586080586,0.6543589743589743,0.4778754578754579
2.256852631999209,0.3586080586080586,0.6543589743589743,0.4778754578754579
2.257758521998767,0.025787545787545788,0.9726739926739927,1.6673260073260072
2.259364231998916,0.025787545787545788,0.9726739926739927,1.6673260073260072
2.2631636849982897,0.025787545787545788,0.9726739926739927,1.6673260073260072
2.268548847998318,0.025787545787545788,0.9726739926739927,1.6673260073260072
2.270173787997919,0.025787545787545788,0.9726739926739927,1.6673260073260072
2.274078628997813,0.025787545787545788,0.9726739926739927,1.6673260073260072
2.2788167879989487,0.025787545787545788,0.9726739926739927,1.6673260073260072
2.2789400199981174,0.025787545787545788,0.9726739926739927,1.6673260073260072
2.2843596389975573,0.025787545787545788,0.9726739926739927,1.6673260073260072
2.286601169998903,0.025787545787545788,0.9726739926739927,1.6673260073260072
2.2869779329994344,0.025787545787545788,0.9726739926739927,1.6673260073260072
2.291741899000044,0.025787545787545788,0.9726739926739927,1.6673260073260072
2.2918450599972857,0.025787545787545788,0.9726739926739927,1.6673260073260072
2.2965594419983972,0.025787545787545788,0.9726739926739927,1.6673260073260072
2.2968307839983026,0.025787545787545788,0.9726739926739927,1.6673260073260072
2.3023093800002243,0.025787545787545788,0.9726739926739927,1.6673260073260072
2.3031849170001806,0.025787545787545788,0.9726739926739927,1.6673260073260072
2.3048366689981776,0.025787545787545788,0.9726739926739927,1.6673260073260072
2.3094565110004623,0.025787545787545788,0.9726739926739927,1.6673260073260072
2.30977847900067,0.025787545787545788,0.9726739926739927,1.6673260073260072
2.3152020999987144,0.025787545787545788,0.9726739926739927,1.6673260073260072
2.3168401479997556,0.025787545787545788,0.9726739926739927,1.6673260073260072
2.3207079359999625,0.025787545787545788,0.9726739926739927,1.6673260073260072
2.325478540999029,0.025787545787545788,0.9726739926739927,1.6673260073260072
2.331023209997511,1.6093040293040293,1.6076923076923075,1.88007326007326
2.3319804159982596,1.6093040293040293,1.6076923076923075,1.88007326007326
2.3328923839981144,1.6093040293040293,1.6076923076923075,1.88007326007326
2.334554556000512,1.6093040293040293,1.6076923076923075,1.88007326007326
2.337755983000534,1.6093040293040293,1.6076923076923075,1.88007326007326
2.339426860999083,1.6093040293040293,1.6076923076923075,1.88007326007326
2.343271352998272,1.6093040293040293,1.6076923076923075,1.88007326007326
2.3471822649989917,0.5495970695970696,1.402197802197802,2.5956776556776555
2.3519885079986125,0.4859340659340659,0.7599267399267399,0.4722344322344322
2.357436925998627,0.4859340659340659,0.7599267399267399,0.4722344322344322
2.3599124859974836,0.4859340659340659,0.7599267399267399,0.4722344322344322
2.360087996999937,0.4859340659340659,0.7599267399267399,0.4722344322344322
2.3647645019991614,0.4859340659340659,0.7599267399267399,0.4722344322344322
2.3650734949987964,0.4859340659340659,0.7599267399267399,0.4722344322344322
2.370489221997559,0.4859340659340659,0.7599267399267399,0.4722344322344322
2.372134012999595,0.4859340659340659,0.7599267399267399,0.4722344322344322
2.376787962999515,0.4859340659340659,0.7599267399267399,0.4722344322344322
2.3770691779973276,0.4859340659340659,0.7599267399267399,0.4722344322344322
2.38244461299837,0.4859340659340659,0.7599267399267399,0.4722344322344322
2.3847846899989236,0.4859340659340659,0.7599267399267399,0.4722344322344322
2.3850724049989367,0.4859340659340659,0.7599267399267399,0.4722344322344322
2.390454055999726,0.4859340659340659,0.7599267399267399,0.4722344322344322
2.392832647998148,0.4859340659340659,0.7599267399267399,0.4722344322344322
2.393072888000461,0.4859340659340659,0.7599267399267399,0.4722344322344322
2.398482004999096,0.4859340659340659,0.7599267399267399,0.4722344322344322
2.4009175099999993,0.0709157509157509,0.25223443223443226,0.29333333333333333
2.406354211998405,0.14908424908424908,0.3537728937728937,1.062930402930403
2.4087258069994277,0.14908424908424908,0.3537728937728937,1.062930402930403
2.4089395249975496,0.14908424908424908,0.3537728937728937,1.062930402930403
2.4143427809976856,0.14908424908424908,0.3537728937728937,1.062930402930403
2.4159751449988107,1.4690842490842488,2.0702564102564103,3.3
2.4198628640006064,0.0,0.30945054945054945,0.7397802197802198
2.424450924998382,1.3812454212454213,1.7994871794871792,2.5134798534798533
2.424713485997927,0.7002930402930403,1.6463736263736264,3.092087912087912
2.430127989999164,0.7002930402930403,1.6463736263736264,3.092087912087912
2.4310565519990632,0.7002930402930403,1.6463736263736264,3.092087912087912
2.4319983440000215,0.7002930402930403,1.6463736263736264,3.092087912087912
2.433697011998447,0.7002930402930403,1.6463736263736264,3.092087912087912
2.4369339309996576,0.7002930402930403,1.6463736263736264,3.092087912087912
2.4387342469999567,0.7002930402930403,1.6463736263736264,3.092087912087912
2.4418889779990423,0.7002930402930403,1.6463736263736264,3.092087912087912
2.4442574519998743,0.0,0.6632234432234432,1.357069597069597
2.4443957900002715,0.0,0.6632234432234432,1.357069597069597
2.4490669810002146,0.0,0.6632234432234432,1.357069597069597
2.4493224329999066,0.0,0.6632234432234432,1.357069597069597
2.4540344689994527,0.0,0.6632234432234432,1.357069597069597
2.4542480380005145,0.0,0.6632234432234432,1.357069597069597
2.459648132997245,0.0,0.6632234432234432,1.357069597069597
2.4621045109997794,0.0,0.6632234432234432,1.357069597069597
2.4622195640004065,0.0,0.5528205128205127,1.324029304029304
2.467675212999893,0.0,0.5528205128205127,1.324029304029304
2.4693207969976356,0.0,0.3223443223443223,0.3594139194139194
2.4732276430004276,0.0,0.3223443223443223,0.3594139194139194
2.4771699070006434,0.0,0.3223443223443223,0.3594139194139194
2.481062293998548,0.0,0.3223443223443223,0.3594139194139194
2.4847108739995747,0.0,0.3223443223443223,0.3594139194139194
2.493425700999069,0.0,0.3223443223443223,0.3594139194139194
2.4981281949985714,0.0,0.3223443223443223,0.3594139194139194
2.4982966619973013,0.0,0.3223443223443223,0.3594139194139194
2.5037871509994147,0.0,0.3223443223443223,0.3594139194139194
2.50544766999883,1.6036630036630035,2.033186813186813,2.518315018315018
2.508655824000016,1.6036630036630035,2.033186813186813,2.518315018315018
2.510347567997087,0.07413919413919413,0.4351648351648352,0.3352380952380952
2.514348489999975,0.07413919413919413,0.4351648351648352,0.3352380952380952
2.5183289239976148,1.324029304029304,1.926007326007326,3.3
2.523144203998527,1.324029304029304,1.926007326007326,3.3
2.528870852998807,1.324029304029304,1.926007326007326,3.3
2.528999776997807,1.324029304029304,1.926007326007326,3.3
2.5339874399978726,1.324029304029304,1.926007326007326,3.3
2.5389362249989063,0.22967032967032966,0.4810989010989011,0.29413919413919415
2.544253118998313,0.22967032967032966,0.4810989010989011,0.29413919413919415
2.546896451000066,0.22967032967032966,0.4810989010989011,0.29413919413919415
2.552065922998736,0.22967032967032966,0.4810989010989011,0.29413919413919415
2.554709632000595,0.22967032967032966,0.4810989010989011,0.29413919413919415
2.5600596529984614,0.22967032967032966,0.4810989010989011,0.29413919413919415
2.562835382999765,0.22967032967032966,0.4810989010989011,0.29413919413919415
2.5682032400000026,0.22967032967032966,0.4810989010989011,0.29413919413919415
2.570026752000558,0.22967032967032966,0.4810989010989011,0.29413919413919415
2.5726823579971096,0.22967032967032966,0.4810989010989011,0.29413919413919415
2.57819165500041,0.22967032967032966,0.4810989010989011,0.29413919413919415
2.5791497909995087,0.22967032967032966,0.4810989010989011,0.29413919413919415
2.5801615989985294,0.22967032967032966,0.4810989010989011,0.29413919413919415
2.581177249998291,0.22967032967032966,0.4810989010989011,0.29413919413919415
2.582149085999845,0.22967032967032966,0.4810989010989011,0.29413919413919415
2.5831970799990813,0.22967032967032966,0.4810989010989011,0.29413919413919415
2.5835199979992467,0.22967032967032966,0.4810989010989011,0.29413919413919415
2.589128436997271,0.22967032967032966,0.4810989010989011,0.29413919413919415
2.5901551649985777,0.22967032967032966,0.4810989010989011,0.29413919413919415
2.591180321000138,0.22967032967032966,0.4810989010989011,0.29413919413919415
2.592152162997081,0.22967032967032966,0.4810989010989011,0.29413919413919415
2.5931561709985544,0.22967032967032966,0.4810989010989011,0.29413919413919415
2.594162729998061,0.22967032967032966,0.4810989010989011,0.29413919413919415
2.595159202999639,0.22967032967032966,0.4810989010989011,0.29413919413919415
2.5961668669988285,0.22967032967032966,0.4810989010989011,0.29413919413919415
2.597189364998485,0.22967032967032966,0.4810989010989011,0.29413919413919415
2.598191949997272,0.22967032967032966,0.4810989010989011,0.29413919413919415
2.599236917998496,0.22967032967032966,0.4810989010989011,0.29413919413919415
2.600224243997218,0.22967032967032966,0.4810989010989011,0.29413919413919415
2.601223277997633,0.22967032967032966,0.4810989010989011,0.29413919413919415
2.6015215789993817,0.22967032967032966,0.4810989010989011,0.29413919413919415
2.6076611039970885,0.22967032967032966,0.4810989010989011,0.29413919413919415
2.6123525299990433,2.88014652014652,3.3,2.843882783882784
2.619035065999924,1.5770695970695972,3.133992673992674,2.5666666666666664
2.6238454489975993,0.4827106227106227,0.9162637362637363,0.448058608058608
2.63079161999849,0.4827106227106227,0.9162637362637363,0.448058608058608
2.635427573997731,0.3811721611721612,0.6495238095238095,0.51010989010989
2.63564986900019,0.9887912087912087,0.46175824175824176,0.9565567765567766
2.641302842999721,0.9887912087912087,0.46175824175824176,0.9565567765567766
2.6416182430002664,0.9887912087912087,0.46175824175824176,0.9565567765567766
2.6471632789980504,0.9887912087912087,0.46175824175824176,0.9565567765567766
2.648183870998764,0.9887912087912087,0.46175824175824176,0.9565567765567766
2.649155344999599,0.9887912087912087,0.46175824175824176,0.9565567765567766
2.6501484839973273,0.9887912087912087,0.46175824175824176,0.9565567765567766
2.651137390999793,0.9887912087912087,0.46175824175824176,0.9565567765567766
2.6521062680003524,0.9887912087912087,0.46175824175824176,0.9565567765567766
2.6524297500000102,0.9887912087912087,0.46175824175824176,0.9565567765567766
2.658487453998532,0.9887912087912087,0.46175824175824176,0.9565567765567766
2.664305914997385,0.9887912087912087,0.46175824175824176,0.9565567765567766
2.6700102719987626,0.9887912087912087,0.46175824175824176,0.9565567765567766
2.670205039998109,0.12087912087912088,0.5906959706959707,0.5552380952380952
2.6758128219989885,0.12087912087912088,0.5906959706959707,0.5552380952380952
2.6768322989992157,1.9880586080586078,2.2282051282051283,3.3
2.6784316259982006,0.7647619047619048,1.166080586080586,0.5076923076923077
2.6822582360000524,0.7647619047619048,1.166080586080586,0.5076923076923077
2.687106916997436,1.510989010989011,2.464322344322344,2.544908424908425
2.691890471000079,1.510989010989011,2.464322344322344,2.544908424908425
2.692024264997599,1.510989010989011,2.464322344322344,2.544908424908425
2.696786415999668,1.510989010989011,2.464322344322344,2.544908424908425
2.6969103400006134,1.510989010989011,2.464322344322344,2.544908424908425
2.7015442659976543,1.510989010989011,2.464322344322344,2.544908424908425
2.7018441740001435,1.510989010989011,2.464322344322344,2.544908424908425
2.7065136450000864,1.510989010989011,2.464322344322344,2.544908424908425
2.706651439999405,1.510989010989011,2.464322344322344,2.544908424908425
2.712216494997847,1.510989010989011,2.464322344322344,2.544908424908425
2.7125040409991925,1.510989010989011,2.464322344322344,2.544908424908425
2.7173621699985233,1.510989010989011,2.464322344322344,2.544908424908425
2.7237232599982235,1.510989010989011,2.464322344322344,2.544908424908425
2.72773933499775,1.510989010989011,2.464322344322344,2.544908424908425
2.7310650819999864,1.510989010989011,2.464322344322344,2.544908424908425
2.7319972009972844,1.510989010989011,2.464322344322344,2.544908424908425
2.7336796909985424,1.510989010989011,2.464322344322344,2.544908424908425
2.737579590000678,1.510989010989011,2.464322344322344,2.544908424908425
2.7408614579981077,1.510989010989011,2.464322344322344,2.544908424908425
2.7417928729992127,1.510989010989011,2.464322344322344,2.544908424908425
2.74341904999892,0.415018315018315,1.046007326007326,1.2853479853479852
2.7466084959996806,0.415018315018315,1.046007326007326,1.2853479853479852
2.748307642999862,0.415018315018315,1.046007326007326,1.2853479853479852
2.7514412159980566,0.39487179487179486,0.6172893772893773,0.6172893772893773
2.7538879929998075,0.20146520146520144,0.5439560439560439,0.5318681318681319
2.754079374997673,0.20146520146520144,0.5439560439560439,0.5318681318681319
2.7589782439972623,0.20146520146520144,0.5439560439560439,0.5318681318681319
2.763818220999383,0.20146520146520144,0.5439560439560439,0.5318681318681319
2.7694266789985704,0.20146520146520144,0.5439560439560439,0.5318681318681319
2.7696593869986827,0.20146520146520144,0.5439560439560439,0.5318681318681319
2.776898620999418,0.20146520146520144,0.5439560439560439,0.5318681318681319
2.784891584000434,2.718168498168498,2.545714285714286,2.5682783882783884
2.7919183509984578,2.718168498168498,2.545714285714286,2.5682783882783884
2.7975260089988296,2.718168498168498,2.545714285714286,2.5682783882783884
2.797719092999614,0.5512087912087912,1.1797802197802196,1.7180952380952381
2.8061784649980837,0.5512087912087912,1.1797802197802196,1.7180952380952381
2.8144493289983075,0.5512087912087912,1.1797802197802196,1.7180952380952381
2.819533562997094,0.5512087912087912,1.1797802197802196,1.7180952380952381
2.8226546509977197,0.5512087912087912,1.1797802197802196,1.7180952380952381
2.825143673999264,0.3706959706959707,1.1177289377289377,1.5609523809523809
2.834449688998575,0.3706959706959707,1.1177289377289377,1.5609523809523809
2.8433752399978403,0.8268131868131867,0.3312087912087912,0.5173626373626373
2.8526923419995,0.8268131868131867,0.3312087912087912,0.5173626373626373
2.8664178929975606,0.971062271062271,0.2369230769230769,0.48754578754578753
2.879457070997887,0.8316483516483516,1.4255677655677657,0.7808791208791208
2.8975330789980944,0.39567765567765567,0.5286446886446886,0.5318681318681319
2.9185478369981865,0.8324542124542124,2.083956043956044,3.3
2.918871570000192,1.8558974358974358,2.880952380952381,2.5545787545787544
2.925704304998362,1.8558974358974358,2.880952380952381,2.5545787545787544
2.9268679689994315,1.8558974358974358,2.880952380952381,2.5545787545787544
2.9273175679991255,1.8558974358974358,2.880952380952381,2.5545787545787544
2.93476033999832,1.8558974358974358,2.880952380952381,2.5545787545787544
2.9385982399981003,1.8558974358974358,2.880952380952381,2.5545787545787544
2.9429939779984124,1.8558974358974358,2.880952380952381,2.5545787545787544
2.9440165809974133,1.8558974358974358,2.880952380952381,2.5545787545787544
2.944309004000388,1.8558974358974358,2.880952380952381,2.5545787545787544
2.9539062779986125,1.8558974358974358,2.880952380952381,2.5545787545787544
2.959081837998383,1.8558974358974358,2.880952380952381,2.5545787545787544
2.9619486779993167,1.8558974358974358,2.880952380952381,2.5545787545787544
2.9668947749996732,1.8558974358974358,2.880952380952381,2.5545787545787544
2.968780101997254,1.7446886446886447,2.681904761904762,2.548937728937729
2.9715511619979225,1.7446886446886447,2.681904761904762,2.548937728937729
2.975414535998425,1.7446886446886447,2.681904761904762,2.548937728937729
2.9804980529988825,2.336190476190476,2.536849816849817,2.5626373626373624
2.9829644540004665,2.336190476190476,2.536849816849817,2.5626373626373624
2.9909802799993486,3.3,2.8422710622710623,2.557802197802198
2.9997800169985567,3.3,2.8422710622710623,2.557802197802198
3.0068534040001396,0.37150183150183147,0.8888644688644688,1.4070329670329669
3.0140861619984207,0.37150183150183147,0.8888644688644688,1.4070329670329669
3.0187868479988538,0.7687912087912088,0.4045421245421245,0.5205860805860806
3.027600680998148,2.8873992673992674,3.3,3.3
3.0360819849993277,2.8873992673992674,3.3,3.3
3.0440412770003604,2.8873992673992674,3.3,3.3
3.053053097999509,2.8873992673992674,3.3,3.3
3.0613967009994667,0.4222710622710622,0.5302564102564102,0.502051282051282
3.0703950459974294,0.9831501831501831,1.7108424908424908,2.3853479853479853
3.0780959900002927,0.9831501831501831,1.7108424908424908,2.3853479853479853
3.08701125099833,0.946080586080586,0.4158241758241758,0.8437362637362636
3.0930754490000254,0.946080586080586,0.4158241758241758,0.8437362637362636
3.100166647000151,0.946080586080586,0.4158241758241758,0.8437362637362636
3.1055717210001603,1.3014652014652013,1.8816849816849814,1.0854945054945053
3.1059349099996325,1.3014652014652013,1.8816849816849814,1.0854945054945053
3.1162427169983857,1.3014652014652013,1.8816849816849814,1.0854945054945053
3.1226073059988266,1.3014652014652013,1.8816849816849814,1.0854945054945053
3.127955010997539,1.3014652014652013,1.8816849816849814,1.0854945054945053
3.1303880119994574,1.3014652014652013,1.8816849816849814,1.0854945054945053
3.1375238919972617,1.3014652014652013,1.8816849816849814,1.0854945054945053
3.141651177997119,1.3014652014652013,1.8816849816849814,1.0854945054945053
3.1447039259983285,1.3014652014652013,1.8816849816849814,1.0854945054945053
3.1486267069994938,1.3014652014652013,1.8816849816849814,1.0854945054945053
3.1509160099994915,1.3014652014652013,1.8816849816849814,1.0854945054945053
3.1510503489989787,1.3014652014652013,1.8816849816849814,1.0854945054945053
3.1563879850000376,1.3014652014652013,1.8816849816849814,1.0854945054945053
3.1590355099979206,1.3014652014652013,1.8816849816849814,1.0854945054945053
3.168852397997398,1.3014652014652013,1.8816849816849814,1.0854945054945053
3.1763215089995356,1.3014652014652013,1.8816849816849814,1.0854945054945053
3.1819576259986206,0.6769230769230768,0.27238095238095233,0.47062271062271055
3.1822197969995614,0.6769230769230768,0.27238095238095233,0.47062271062271055
3.1892655009978625,0.6769230769230768,0.27238095238095233,0.47062271062271055
3.194937590000336,2.664175824175824,2.5521611721611723,2.556996336996337
3.202790073999495,2.664175824175824,2.5521611721611723,2.556996336996337
3.2083067829989886,2.664175824175824,2.5521611721611723,2.556996336996337
3.2094559659999504,1.39010989010989,1.959047619047619,1.2192673992673992
3.2096621799973946,1.39010989010989,1.959047619047619,1.2192673992673992
3.220082403997367,1.39010989010989,1.959047619047619,1.2192673992673992
3.2283705019981426,0.381978021978022,0.44402930402930396,0.5342857142857143
3.237587738000002,1.5448351648351648,2.2024175824175822,1.5134065934065932
3.2482089229997655,1.5448351648351648,2.2024175824175822,1.5134065934065932
3.25801915899865,1.5448351648351648,2.2024175824175822,1.5134065934065932
3.267712896999001,0.5608791208791208,0.33926739926739924,0.4899633699633699
3.2766877579997526,0.15794871794871795,0.8147252747252747,0.5165567765567766
3.285678716998518,0.15794871794871795,0.8147252747252747,0.5165567765567766
3.2906055029998242,0.15794871794871795,0.8147252747252747,0.5165567765567766
3.2973042459998396,0.15794871794871795,0.8147252747252747,0.5165567765567766
3.3019222439979785,1.120952380952381,2.0863736263736263,2.5924542124542125
3.3076012040000933,0.6728937728937728,1.9574358974358974,3.1049816849816847
3.308450033000554,0.6728937728937728,1.9574358974358974,3.1049816849816847
3.3100331309979083,0.6728937728937728,1.9574358974358974,3.1049816849816847
3.316296541997872,0.6728937728937728,1.9574358974358974,3.1049816849816847
3.319682951998402,0.6728937728937728,1.9574358974358974,3.1049816849816847
3.3213711110001896,0.6728937728937728,1.9574358974358974,3.1049816849816847
3.3239316069993947,0.3287912087912088,1.1419047619047618,1.3296703296703296
3.324131170997134,0.3287912087912088,1.1419047619047618,1.3296703296703296
3.3304166389971215,0.3287912087912088,1.1419047619047618,1.3296703296703296
3.3346429569974134,1.008131868131868,0.3594139194139194,0.722051282051282
3.336317332999897,1.008131868131868,0.3594139194139194,0.722051282051282
3.340136842998618,1.008131868131868,0.3594139194139194,0.722051282051282
3.344967769997311,2.4989743589743587,3.3,3.3
3.356359989997145,2.4989743589743587,3.3,3.3
3.367205422000552,2.4989743589743587,3.3,3.3
3.3730154980003135,2.4989743589743587,3.3,3.3
3.3800034359992424,2.4989743589743587,3.3,3.3
3.3845200689975172,2.4989743589743587,3.3,3.3
3.384666138998,0.0709157509157509,2.278168498168498,1.8607326007326006
3.3902766869978223,0.0709157509157509,2.278168498168498,1.8607326007326006
3.3911308120004833,0.0709157509157509,2.278168498168498,1.8607326007326006
3.392826969997259,0.0709157509157509,2.278168498168498,1.8607326007326006
3.398825145999581,0.0709157509157509,2.278168498168498,1.8607326007326006
3.40310583199971,0.0709157509157509,2.278168498168498,1.8607326007326006
3.4034254100006365,1.7736996336996336,2.8704761904761904,2.552967032967033
3.4081594419985777,1.7736996336996336,2.8704761904761904,2.552967032967033
3.4083837549987948,1.7736996336996336,2.8704761904761904,2.552967032967033
3.4148083990003215,1.7736996336996336,2.8704761904761904,2.552967032967033
3.4188414529999136,1.7736996336996336,2.8704761904761904,2.552967032967033
3.421458557997539,1.7736996336996336,2.8704761904761904,2.552967032967033
3.4294249589984247,1.7736996336996336,2.8704761904761904,2.552967032967033
3.436601168999914,1.0879120879120878,0.24739926739926738,0.5794139194139193
3.441122338997957,1.0879120879120878,0.24739926739926738,0.5794139194139193
3.441459579000366,1.0879120879120878,0.24739926739926738,0.5794139194139193
3.4466318060003687,1.0879120879120878,0.24739926739926738,0.5794139194139193
3.4512063049987773,1.0879120879120878,0.24739926739926738,0.5794139194139193
3.4566136760004156,1.0879120879120878,0.24739926739926738,0.5794139194139193
3.4591080869977304,1.0879120879120878,0.24739926739926738,0.5794139194139193
3.4592698699998436,1.0879120879120878,0.24739926739926738,0.5794139194139193
3.4670983989999513,1.0879120879120878,0.24739926739926738,0.5794139194139193
3.4725100079995173,1.0879120879120878,0.24739926739926738,0.5794139194139193
3.4743293399988033,1.0879120879120878,0.24739926739926738,0.5794139194139193
3.477626407999196,1.0879120879120878,0.24739926739926738,0.5794139194139193
3.4795457429972885,0.0,0.31750915750915754,0.8848351648351648
3.4824835609979345,0.0,0.31750915750915754,0.8848351648351648
3.4836454139986017,0.4013186813186813,1.54,2.425641025641026
3.4839282930006448,0.4013186813186813,1.54,2.425641025641026
3.4885588659999485,0.4013186813186813,1.54,2.425641025641026
3.4888389089974225,0.4013186813186813,1.54,2.425641025641026
3.4935011849993316,0.4013186813186813,1.54,2.425641025641026
3.4937137579981936,0.4013186813186813,1.54,2.425641025641026
3.5015711069972895,0.4013186813186813,1.54,2.425641025641026
3.506231673000002,0.4013186813186813,1.54,2.425641025641026
3.5065210979992116,0.4013186813186813,1.54,2.425641025641026
3.5112801529976423,0.4013186813186813,1.54,2.425641025641026
3.511454106999736,0.4013186813186813,1.54,2.425641025641026
3.520295988997532,0.4013186813186813,1.54,2.425641025641026
3.525114656997175,3.1436630036630033,2.5723076923076924,2.5642490842490844
3.5337691530003212,3.1436630036630033,2.5723076923076924,2.5642490842490844
3.5380301699988195,3.1436630036630033,2.5723076923076924,2.5642490842490844
3.539604811998288,3.1436630036630033,2.5723076923076924,2.5642490842490844
3.5434631099997205,2.5392673992673993,2.5424908424908423,3.3
3.549707606998709,2.5392673992673993,2.5424908424908423,3.3
3.552951478999603,0.6213186813186813,0.43274725274725273,0.4593406593406593
3.5546148869980243,0.6213186813186813,0.43274725274725273,0.4593406593406593
3.5577713809980196,0.6213186813186813,0.43274725274725273,0.4593406593406593
3.5594032619992504,0.6213186813186813,0.43274725274725273,0.4593406593406593
3.565126154997415,0.6213186813186813,0.43274725274725273,0.4593406593406593
3.570792252998217,0.6213186813186813,0.43274725274725273,0.4593406593406593
3.571651223999652,0.6213186813186813,0.43274725274725273,0.4593406593406593
3.5733543889982684,0.6213186813186813,0.43274725274725273,0.4593406593406593
3.5764687549999508,0.6213186813186813,0.43274725274725273,0.4593406593406593
3.5790898209997977,0.6213186813186813,0.43274725274725273,0.4593406593406593
3.5862271529986174,2.5247619047619043,3.3,3.3
3.5910394149977947,2.5247619047619043,3.3,3.3
3.5911640390004322,2.5247619047619043,3.3,3.3
3.599083458997484,2.5247619047619043,3.3,3.3
3.604513971000415,2.8124542124542122,3.3,3.3
3.6048592629995255,2.8124542124542122,3.3,3.3
3.6097331499986467,2.8124542124542122,3.3,3.3
3.6171254699984274,2.8124542124542122,3.3,3.3
3.621222901998408,2.8124542124542122,3.3,3.3
3.6247394290003285,2.8124542124542122,3.3,3.3
3.6249411329990835,2.8124542124542122,3.3,3.3
3.6324979529999837,2.8124542124542122,3.3,3.3
3.6359948690005695,2.8124542124542122,3.3,3.3
3.6362073729978874,2.8124542124542122,3.3,3.3
3.640922425998724,2.8124542124542122,3.3,3.3
3.641036933000578,2.8124542124542122,3.3,3.3
3.647099881000031,2.8124542124542122,3.3,3.3
3.65140317499754,2.8124542124542122,3.3,3.3
3.6523171349981567,2.8124542124542122,3.3,3.3
3.6532553439974436,2.8124542124542122,3.3,3.3
3.655133118998492,2.8124542124542122,3.3,3.3
3.6576873429985426,2.8124542124542122,3.3,3.3
3.663060520997533,2.8124542124542122,3.3,3.3
3.6652160079975147,2.8124542124542122,3.3,3.3
3.665678803998162,2.6424175824175826,2.5465201465201464,2.561025641025641
3.670923748999485,2.6424175824175826,2.5465201465201464,2.561025641025641
3.6725066260005406,0.6575824175824176,0.303003663003663,0.5205860805860806
3.6758749919972615,0.6575824175824176,0.303003663003663,0.5205860805860806
3.6768499110003177,0.6575824175824176,0.303003663003663,0.5205860805860806
3.6777570999984164,0.6575824175824176,0.303003663003663,0.5205860805860806
3.679874909998034,0.6575824175824176,0.303003663003663,0.5205860805860806
3.680291087999649,0.6575824175824176,0.303003663003663,0.5205860805860806
3.68632248999711,0.6575824175824176,0.303003663003663,0.5205860805860806
3.690368537998438,0.6575824175824176,0.303003663003663,0.5205860805860806
3.698565630998928,0.6575824175824176,0.303003663003663,0.5205860805860806
3.7031154469987086,3.0606593406593405,2.5674725274725274,2.5634432234432234
3.7033216259987967,3.0606593406593405,2.5674725274725274,2.5634432234432234
3.7080909789983707,3.0606593406593405,2.5674725274725274,2.5634432234432234
3.708200812998257,3.0606593406593405,2.5674725274725274,2.5634432234432234
3.716135849997954,3.0606593406593405,2.5674725274725274,2.5634432234432234
3.721195918999001,3.0606593406593405,2.5674725274725274,2.5634432234432234
3.723629798998445,2.706886446886447,3.3,3.3
3.7306365779986663,2.706886446886447,3.3,3.3
3.73441346799882,2.706886446886447,3.3,3.3
3.7382937149995996,2.706886446886447,3.3,3.3
3.745281003997661,2.2128937728937728,2.6496703296703297,2.2757509157509155
3.7511744429975806,1.2627838827838826,2.4901098901098897,3.3
3.758313681999425,0.0,0.8574358974358974,0.5552380952380952
3.766644000999804,0.0,0.8574358974358974,0.5552380952380952
3.7706035150004027,0.0,0.8574358974358974,0.5552380952380952
3.774688133999007,0.0,0.8574358974358974,0.5552380952380952
3.777127138000651,2.4941391941391937,2.5424908424908423,2.561025641025641
3.7773078969985363,2.4941391941391937,2.5424908424908423,2.561025641025641
3.7851906969990523,2.4941391941391937,2.5424908424908423,2.561025641025641
3.7898421270001563,0.45692307692307693,2.3168498168498166,1.9614652014652014
3.7900432429996727,0.0,1.0218315018315018,0.6301831501831501
3.79719397900044,0.0,1.0218315018315018,0.6301831501831501
3.8013106049984344,2.6416117216117216,3.3,3.3
3.803160529998422,2.6416117216117216,3.3,3.3
3.805636330998823,2.6416117216117216,3.3,3.3
3.8057941049992223,2.6416117216117216,3.3,3.3
3.8105745049979305,2.6416117216117216,3.3,3.3
3.8201458000003186,2.6416117216117216,3.3,3.3
3.8259291979993577,2.6416117216117216,3.3,3.3
3.8261178270004166,2.6416117216117216,3.3,3.3
3.834736853998038,0.3779487179487179,1.531135531135531,0.8195604395604396
3.8395906559999275,0.7631501831501831,0.2683516483516483,0.6035897435897435
3.84649261499726,2.893040293040293,3.3,3.3
3.851085129997955,2.893040293040293,3.3,3.3
3.856418510997173,0.70996336996337,0.36344322344322344,0.44080586080586076
3.860409863998939,0.70996336996337,0.36344322344322344,0.44080586080586076
3.8676107510000293,2.307179487179487,3.3,3.3
3.8724555949993373,2.673040293040293,2.548937728937729,2.5545787545787544
3.872571568997955,2.673040293040293,2.548937728937729,2.5545787545787544
3.877420535998681,2.673040293040293,2.548937728937729,2.5545787545787544
3.8855269349987793,2.673040293040293,2.548937728937729,2.5545787545787544
3.891663736998453,2.673040293040293,2.548937728937729,2.5545787545787544
3.899056247999397,2.673040293040293,2.548937728937729,2.5545787545787544
3.906133422999119,2.673040293040293,2.548937728937729,2.5545787545787544
3.9107572869979776,1.743076923076923,3.3,3.3
3.919796645997849,0.8485714285714284,0.30622710622710625,0.5874725274725274
3.9264294860004156,0.8485714285714284,0.30622710622710625,0.5874725274725274
3.9335530909993395,0.8485714285714284,0.30622710622710625,0.5874725274725274
3.9376674349987297,0.49157509157509155,0.6841758241758242,0.5657142857142857
3.9408239719996345,0.49157509157509155,0.6841758241758242,0.5657142857142857
3.9425199260003865,0.49157509157509155,0.6841758241758242,0.5657142857142857
3.94737425600033,0.49157509157509155,0.6841758241758242,0.5657142857142857
3.952218278998771,0.49157509157509155,0.6841758241758242,0.5657142857142857
3.957104722998338,0.7808791208791208,0.46498168498168496,0.5544322344322344
3.965144968999084,0.7808791208791208,0.46498168498168496,0.5544322344322344
3.9688905109978805,0.7808791208791208,0.46498168498168496,0.5544322344322344
3.973597656997299,0.28849816849816845,0.9178754578754579,0.5697435897435897
3.973899339998752,0.28849816849816845,0.9178754578754579,0.5697435897435897
3.979413803997886,0.28849816849816845,0.9178754578754579,0.5697435897435897
3.98116835899782,0.28849816849816845,0.9178754578754579,0.5697435897435897
3.9839099849996273,0.28849816849816845,0.9178754578754579,0.5697435897435897
3.9878249510002206,0.28849816849816845,0.9178754578754579,0.5697435897435897
3.992365278998477,0.28849816849816845,0.9178754578754579,0.5697435897435897
3.992651633998321,0.28849816849816845,0.9178754578754579,0.5697435897435897
4.002636613000504,0.28849816849816845,0.9178754578754579,0.5697435897435897
4.010102427997481,0.8791941391941391,1.5158241758241757,0.8936996336996336
4.01695891199779,0.5657142857142857,0.3924542124542124,0.5036630036630036
4.021736773000157,0.5657142857142857,0.3924542124542124,0.5036630036630036
4.027344246998837,1.2780952380952382,1.8663736263736261,1.0935531135531134
4.03550534399983,1.2780952380952382,1.8663736263736261,1.0935531135531134
4.041119344998151,1.2780952380952382,1.8663736263736261,1.0935531135531134
4.0414265819999855,1.2780952380952382,1.8663736263736261,1.0935531135531134
4.048551323998254,1.2780952380952382,1.8663736263736261,1.0935531135531134
4.05367754299732,0.1249084249084249,1.0484249084249082,0.6745054945054945
4.057788817997789,1.7769230769230768,2.639194139194139,3.3
4.059003720998589,0.3497435897435897,0.5221978021978021,0.6688644688644688
4.059297796997271,0.3497435897435897,0.5221978021978021,0.6688644688644688
4.067037639997579,0.3497435897435897,0.5221978021978021,0.6688644688644688
4.07113340000069,0.10395604395604395,1.4723076923076923,1.4827838827838828
4.074333831998956,0.10395604395604395,1.4723076923076923,1.4827838827838828
4.075931781997497,0.10395604395604395,1.4723076923076923,1.4827838827838828
4.081929413998296,0.10395604395604395,1.4723076923076923,1.4827838827838828
4.085545121997711,2.1186080586080585,3.3,3.3
4.090284713998699,0.5592673992673992,1.6294505494505493,0.9831501831501831
4.090419300999201,0.5592673992673992,1.6294505494505493,0.9831501831501831
4.096115296997596,0.5592673992673992,1.6294505494505493,0.9831501831501831
4.0963431899981515,0.5592673992673992,1.6294505494505493,0.9831501831501831
4.103879565998795,0.5592673992673992,1.6294505494505493,0.9831501831501831
4.110285856997507,0.5592673992673992,1.6294505494505493,0.9831501831501831
4.116834448999725,0.5592673992673992,1.6294505494505493,0.9831501831501831
4.122930045999965,0.5592673992673992,1.6294505494505493,0.9831501831501831
4.12930077999772,0.5592673992673992,1.6294505494505493,0.9831501831501831
4.134379177998198,0.5592673992673992,1.6294505494505493,0.9831501831501831
4.136087945997133,0.5592673992673992,1.6294505494505493,0.9831501831501831
4.139965990998462,0.5592673992673992,1.6294505494505493,0.9831501831501831
4.144002868997632,0.5592673992673992,1.6294505494505493,0.9831501831501831
4.1496353869988525,0.5592673992673992,1.6294505494505493,0.9831501831501831
4.15430705199833,0.5334798534798535,0.41340659340659336,0.5133333333333333
4.154529649000324,0.35619047619047617,0.4182417582417582,0.4819047619047619
4.159965456998179,0.35619047619047617,0.4182417582417582,0.4819047619047619
4.163044130000344,0.35619047619047617,0.4182417582417582,0.4819047619047619
4.166351740997925,0.35619047619047617,0.4182417582417582,0.4819047619047619
4.171583524999733,0.9976556776556775,1.818021978021978,1.1467399267399265
4.175118155999371,0.28285714285714286,0.4287179487179487,0.6052014652014651
4.175253036999493,0.28285714285714286,0.4287179487179487,0.6052014652014651
4.182516832999681,0.28285714285714286,0.4287179487179487,0.6052014652014651
4.1864125069987494,0.28285714285714286,0.4287179487179487,0.6052014652014651
4.191190531997563,0.28285714285714286,0.4287179487179487,0.6052014652014651
4.191320915997494,0.46659340659340653,0.29655677655677654,0.5576556776556777
4.199551489997248,0.46659340659340653,0.29655677655677654,0.5576556776556777
4.204090361999988,0.46659340659340653,0.29655677655677654,0.5576556776556777
4.205012514998089,2.647252747252747,2.5553846153846154,2.569084249084249
4.2059645549998095,2.647252747252747,2.5553846153846154,2.569084249084249
4.207785809998313,2.647252747252747,2.5553846153846154,2.569084249084249
4.210256018999644,2.647252747252747,2.5553846153846154,2.569084249084249
4.218141979999928,2.647252747252747,2.5553846153846154,2.569084249084249
4.222946095000225,2.647252747252747,2.5553846153846154,2.569084249084249
4.230691015000048,2.647252747252747,2.5553846153846154,2.569084249084249
4.236842668000463,2.647252747252747,2.5553846153846154,2.569084249084249
4.242089130999375,0.8252014652014652,0.9428571428571427,0.5689377289377289
4.243053793998115,0.8252014652014652,0.9428571428571427,0.5689377289377289
4.244288951998897,0.8252014652014652,0.9428571428571427,0.5689377289377289
4.251560422999319,0.8252014652014652,0.9428571428571427,0.5689377289377289
4.256011068999214,0.0,0.6406593406593406,0.5713553113553113
4.257276780997927,0.0,0.6406593406593406,0.5713553113553113
4.265013514999737,0.0,0.6406593406593406,0.5713553113553113
4.269156349000696,1.137069597069597,2.9067399267399265,2.3168498168498166
4.271639628997946,1.137069597069597,2.9067399267399265,2.3168498168498166
4.277640632997645,0.9452747252747251,0.4867399267399267,1.0371428571428571
4.2866355029982515,0.9452747252747251,0.4867399267399267,1.0371428571428571
4.294246440000279,0.9452747252747251,0.4867399267399267,1.0371428571428571
4.3007763370005705,0.07413919413919413,0.7357509157509158,0.5697435897435897
4.304731255997467,0.07413919413919413,0.7357509157509158,0.5697435897435897
4.308688040997367,0.07413919413919413,0.7357509157509158,0.5697435897435897
4.313599851997424,1.4489377289377288,1.9598534798534797,1.2998534798534798
4.318574976998207,1.4489377289377288,1.9598534798534797,1.2998534798534798
4.32112127399887,1.4489377289377288,1.9598534798534797,1.2998534798534798
4.32684402799714,3.150915750915751,3.3,3.3
4.3271599849977065,2.041245421245421,2.440952380952381,1.847032967032967
4.33456405600009,2.041245421245421,2.440952380952381,1.847032967032967
4.340126478997263,0.7849084249084248,0.28527472527472525,0.5721611721611721
4.3417773259971,0.7849084249084248,0.28527472527472525,0.5721611721611721
4.347651850999682,0.7849084249084248,0.28527472527472525,0.5721611721611721
4.3521976259980875,1.5553113553113551,2.6762637362637363,2.5561904761904763
4.352368980999017,1.5553113553113551,2.6762637362637363,2.5561904761904763
4.357083617000171,1.5553113553113551,2.6762637362637363,2.5561904761904763
4.357326101999206,1.5553113553113551,2.6762637362637363,2.5561904761904763
4.362590705997718,1.5553113553113551,2.6762637362637363,2.5561904761904763
4.366256297998916,1.5553113553113551,2.6762637362637363,2.5561904761904763
4.370178605997353,1.5553113553113551,2.6762637362637363,2.5561904761904763
4.373343917999591,1.5553113553113551,2.6762637362637363,2.5561904761904763
4.375009685998521,1.5553113553113551,2.6762637362637363,2.5561904761904763
4.380177612998523,1.5553113553113551,2.6762637362637363,2.5561904761904763
4.383516317997419,1.5553113553113551,2.6762637362637363,2.5561904761904763
4.383645453999634,1.5553113553113551,2.6762637362637363,2.5561904761904763
4.389239277999877,1.5553113553113551,2.6762637362637363,2.5561904761904763
4.390243210997141,1.3627106227106225,1.8865201465201462,1.1999267399267397
4.391287287999148,1.3627106227106225,1.8865201465201462,1.1999267399267397
4.391553068999201,1.3627106227106225,1.8865201465201462,1.1999267399267397
4.398670048998611,1.3627106227106225,1.8865201465201462,1.1999267399267397
4.402153654998983,1.3627106227106225,1.8865201465201462,1.1999267399267397
4.402309606997733,1.8816849816849814,3.3,3.3
4.407106661998114,1.8816849816849814,3.3,3.3
4.414679280998826,1.8816849816849814,3.3,3.3
4.4190481009973155,2.245934065934066,2.2846153846153845,3.3
4.419272035000176,2.245934065934066,2.2846153846153845,3.3
4.4240809269977035,2.245934065934066,2.2846153846153845,3.3
4.431990058998053,1.3079120879120878,3.0848351648351646,2.4957509157509157
4.435599741998885,0.3142857142857142,0.4198534798534798,0.5592673992673992
4.441312797000137,0.3142857142857142,0.4198534798534798,0.5592673992673992
4.441555322999193,0.3142857142857142,0.4198534798534798,0.5592673992673992
4.450473198998225,0.3142857142857142,0.4198534798534798,0.5592673992673992
4.455824780998228,2.602124542124542,3.3,2.8390476190476193
4.456721811999159,2.602124542124542,3.3,2.8390476190476193
4.458407464000629,2.602124542124542,3.3,2.8390476190476193
4.4641555689995585,2.602124542124542,3.3,2.8390476190476193
4.464363242997933,2.602124542124542,3.3,2.8390476190476193
4.468836427997303,2.602124542124542,3.3,2.8390476190476193
4.469095118998666,2.602124542124542,3.3,2.8390476190476193
4.4737680639991595,2.602124542124542,3.3,2.8390476190476193
4.474000004000118,2.602124542124542,3.3,2.8390476190476193
4.479796637999243,2.602124542124542,3.3,2.8390476190476193
4.486612284999865,0.7212454212454212,0.8574358974358974,0.5882783882783883
4.4907531479984755,0.7212454212454212,0.8574358974358974,0.5882783882783883
4.495129487997474,0.18776556776556774,0.523003663003663,0.5093040293040293
4.495630340999924,1.7479120879120877,2.83985347985348,3.3
4.501142585999332,1.7479120879120877,2.83985347985348,3.3
4.5012782310004695,2.7326739926739925,3.3,3.3
4.506087513000239,2.7326739926739925,3.3,3.3
4.512415599998349,2.5989010989010985,3.042124542124542,2.784249084249084
4.516258906998701,2.5989010989010985,3.042124542124542,2.784249084249084
4.520193426997139,0.9920146520146519,1.3578754578754577,0.7002930402930403
4.524281452999276,0.9920146520146519,1.3578754578754577,0.7002930402930403
4.5267290089977905,0.9920146520146519,1.3578754578754577,0.7002930402930403
4.5268368879987975,0.9920146520146519,1.3578754578754577,0.7002930402930403
4.535376381998503,0.9920146520146519,1.3578754578754577,0.7002930402930403
4.540137205000065,0.9920146520146519,1.3578754578754577,0.7002930402930403
4.540375734999543,0.9791208791208791,1.4304029304029304,0.7792673992673992
4.546151563998137,0.9791208791208791,1.4304029304029304,0.7792673992673992
4.553421371998411,0.9791208791208791,1.4304029304029304,0.7792673992673992
4.55828415599899,0.9791208791208791,1.4304029304029304,0.7792673992673992
4.566854878998129,0.9791208791208791,1.4304029304029304,0.7792673992673992
4.573309436000272,0.9791208791208791,1.4304029304029304,0.7792673992673992
4.579976969998825,0.9791208791208791,1.4304029304029304,0.7792673992673992
4.583814923997124,0.28527472527472525,0.8735531135531135,1.4384615384615385
4.5877093889976095,0.28527472527472525,0.8735531135531135,1.4384615384615385
4.591606250000041,0.28527472527472525,0.8735531135531135,1.4384615384615385
4.596308213000157,0.28527472527472525,0.8735531135531135,1.4384615384615385
4.596489472998655,2.2556043956043954,3.3,2.8430769230769233
4.6017980679971515,2.2556043956043954,3.3,2.8430769230769233
4.604158236998046,2.2556043956043954,3.3,2.8430769230769233
4.6043390889972216,2.2556043956043954,3.3,2.8430769230769233
4.609058540998376,2.2556043956043954,3.3,2.8430769230769233
4.609170362000441,2.2556043956043954,3.3,2.8430769230769233
4.616146459000447,2.2556043956043954,3.3,2.8430769230769233
4.621412770000461,1.6745787545787545,1.5593406593406591,2.8148717948717947
4.622316966000653,0.12974358974358974,2.0509157509157507,1.751135531135531
4.624149564999243,0.12974358974358974,2.0509157509157507,1.751135531135531
4.62657578499784,0.12974358974358974,2.0509157509157507,1.751135531135531
4.6367638089977845,0.12974358974358974,2.0509157509157507,1.751135531135531
4.642230077999557,0.12974358974358974,2.0509157509157507,1.751135531135531
4.646462524000526,0.12974358974358974,2.0509157509157507,1.751135531135531
4.648040928997943,0.12974358974358974,2.0509157509157507,1.751135531135531
4.653414845997759,0.12974358974358974,2.0509157509157507,1.751135531135531
4.654447266999341,0.12974358974358974,2.0509157509157507,1.751135531135531
4.654807237999194,0.12974358974358974,2.0509157509157507,1.751135531135531
4.6603612170001725,0.12974358974358974,2.0509157509157507,1.751135531135531
4.660618562000309,2.6585347985347987,3.3,3.3
4.667905670998152,2.6585347985347987,3.3,3.3
4.672784294998564,2.6585347985347987,3.3,3.3
4.6792514079970715,2.6585347985347987,3.3,3.3
4.683742376997543,1.4457142857142857,1.9622710622710622,1.3183882783882783
4.683937634999893,1.4457142857142857,1.9622710622710622,1.3183882783882783
4.688724805000675,1.4457142857142857,1.9622710622710622,1.3183882783882783
4.688845107997622,1.4457142857142857,1.9622710622710622,1.3183882783882783
4.693573892000131,1.4457142857142857,1.9622710622710622,1.3183882783882783
4.701030571999581,1.4457142857142857,1.9622710622710622,1.3183882783882783
4.705768567997438,1.4457142857142857,1.9622710622710622,1.3183882783882783
4.705928313000186,1.4457142857142857,1.9622710622710622,1.3183882783882783
4.710950744000002,1.4457142857142857,1.9622710622710622,1.3183882783882783
4.717265978997602,1.4457142857142857,1.9622710622710622,1.3183882783882783
4.7212306179972074,1.4457142857142857,1.9622710622710622,1.3183882783882783
4.725526578997233,1.4457142857142857,1.9622710622710622,1.3183882783882783
4.727747507997265,1.4457142857142857,1.9622710622710622,1.3183882783882783
4.728016444998502,1.4457142857142857,1.9622710622710622,1.3183882783882783
4.733780736998597,1.4457142857142857,1.9622710622710622,1.3183882783882783
4.739429779998318,1.4457142857142857,1.9622710622710622,1.3183882783882783
4.73959764099709,0.8695238095238095,1.3264468864468864,0.693040293040293
4.744455067000672,0.8695238095238095,1.3264468864468864,0.693040293040293
4.750691342000209,0.8695238095238095,1.3264468864468864,0.693040293040293
4.754668645000493,0.5858608058608058,0.3739194139194139,0.523003663003663
4.759254428998247,0.5858608058608058,0.3739194139194139,0.523003663003663
4.759546974997647,0.5858608058608058,0.3739194139194139,0.523003663003663
4.7658856169982755,0.5858608058608058,0.3739194139194139,0.523003663003663
4.769908193997253,0.5858608058608058,0.3739194139194139,0.523003663003663
4.773076765999576,0.5858608058608058,0.3739194139194139,0.523003663003663
4.7755068320002465,0.5858608058608058,0.3739194139194139,0.523003663003663
4.775635519999923,0.5858608058608058,0.3739194139194139,0.523003663003663
4.7854481779977505,0.5858608058608058,0.3739194139194139,0.523003663003663
4.79227286799869,0.5858608058608058,0.3739194139194139,0.523003663003663
4.797423414998775,0.5858608058608058,0.3739194139194139,0.523003663003663
4.801057045999187,1.6294505494505493,2.613406593406593,3.1775091575091574
4.805703818998154,0.09912087912087912,1.137069597069597,1.3401465201465201
4.806049491999147,0.09912087912087912,1.137069597069597,1.3401465201465201
4.810805068998889,0.09912087912087912,1.137069597069597,1.3401465201465201
4.818140538998705,0.09912087912087912,1.137069597069597,1.3401465201465201
4.822870493000664,0.09912087912087912,1.137069597069597,1.3401465201465201
4.823169343999325,0.09912087912087912,1.137069597069597,1.3401465201465201
4.828328360999876,0.09912087912087912,1.137069597069597,1.3401465201465201
4.832025577998138,0.09912087912087912,1.137069597069597,1.3401465201465201
4.83688851399711,0.09912087912087912,1.137069597069597,1.3401465201465201
4.841461779997189,0.09912087912087912,1.137069597069597,1.3401465201465201
4.841624401000445,0.09912087912087912,1.137069597069597,1.3401465201465201
4.8498547519993735,0.09912087912087912,1.137069597069597,1.3401465201465201
4.855848945000616,0.03706959706959707,1.0331135531135531,0.689010989010989
4.8590202999985195,0.03706959706959707,1.0331135531135531,0.689010989010989
4.861367186997086,0.03706959706959707,1.0331135531135531,0.689010989010989
4.861680748999788,0.03706959706959707,1.0331135531135531,0.689010989010989
4.869497021998541,0.03706959706959707,1.0331135531135531,0.689010989010989
4.874965579998388,0.03706959706959707,1.0331135531135531,0.689010989010989
4.876099585999327,0.03706959706959707,1.0331135531135531,0.689010989010989
4.876330959999905,0.03706959706959707,1.0331135531135531,0.689010989010989
4.885153803999856,0.03706959706959707,1.0331135531135531,0.689010989010989
4.890763474999403,0.03706959706959707,1.0331135531135531,0.689010989010989
4.890986974998668,0.03706959706959707,1.0331135531135531,0.689010989010989
4.900663140000688,0.03706959706959707,1.0331135531135531,0.689010989010989
4.905943466997996,0.03706959706959707,1.0331135531135531,0.689010989010989
4.908266058999288,2.647252747252747,2.548937728937729,2.553772893772894
4.908494085997518,2.647252747252747,2.548937728937729,2.553772893772894
4.9148611839991645,2.647252747252747,2.548937728937729,2.553772893772894
4.918296657997416,2.647252747252747,2.548937728937729,2.553772893772894
4.918452930000058,2.647252747252747,2.548937728937729,2.553772893772894
4.923322599999665,2.647252747252747,2.548937728937729,2.553772893772894
4.930717797997204,0.0,1.3465934065934064,1.4304029304029304
4.934273210998072,0.6463003663003662,1.464249084249084,0.8711355311355311
4.934403070998087,2.2604395604395604,3.3,2.86
4.939212654997391,2.2604395604395604,3.3,2.86
4.945107128998643,2.2604395604395604,3.3,2.86
4.951786620997154,2.2604395604395604,3.3,2.86
4.955679531998612,0.3046153846153846,0.5036630036630036,0.5157509157509157
4.96068877399739,3.3,2.7197802197802194,2.5674725274725274
4.965429452997341,3.3,2.7197802197802194,2.5674725274725274
4.970831492999423,1.6407326007326006,2.1911355311355307,1.5883516483516482
4.97253759600062,1.6407326007326006,2.1911355311355307,1.5883516483516482
4.975811303000228,1.6407326007326006,2.1911355311355307,1.5883516483516482
4.976757555999939,1.6407326007326006,2.1911355311355307,1.5883516483516482
4.977797898998688,1.6407326007326006,2.1911355311355307,1.5883516483516482
4.978181615999347,1.6407326007326006,2.1911355311355307,1.5883516483516482
4.985738797997328,1.6407326007326006,2.1911355311355307,1.5883516483516482
4.99181404599949,1.6407326007326006,2.1911355311355307,1.5883516483516482
4.998254326997994,1.6407326007326006,2.1911355311355307,1.5883516483516482
5.002384211999015,1.6407326007326006,2.1911355311355307,1.5883516483516482
5.005768593000539,1.6407326007326006,2.1911355311355307,1.5883516483516482
5.005969383997581,2.1879120879120877,3.187179487179487,2.613406593406593
5.014110864998656,2.1879120879120877,3.187179487179487,2.613406593406593
5.019449093997537,2.1879120879120877,3.187179487179487,2.613406593406593
5.020498554997175,2.1879120879120877,3.187179487179487,2.613406593406593
5.021599517000141,2.1879120879120877,3.187179487179487,2.613406593406593
5.021907856000325,2.1879120879120877,3.187179487179487,2.613406593406593
5.027001982998627,2.1879120879120877,3.187179487179487,2.613406593406593
5.032366777999414,2.1879120879120877,3.187179487179487,2.613406593406593
5.0334032449973165,2.1879120879120877,3.187179487179487,2.613406593406593
5.034394914000586,2.1879120879120877,3.187179487179487,2.613406593406593
5.035280846997921,2.1879120879120877,3.187179487179487,2.613406593406593
5.0371619679972355,2.1879120879120877,3.187179487179487,2.613406593406593
5.039828033997765,2.1879120879120877,3.187179487179487,2.613406593406593
5.0440161369988346,2.1879120879120877,3.187179487179487,2.613406593406593
5.0460726380006236,2.1879120879120877,3.187179487179487,2.613406593406593
5.047193537997373,2.1879120879120877,3.187179487179487,2.613406593406593
5.047536877998937,2.1879120879120877,3.187179487179487,2.613406593406593
5.053652481998142,2.1879120879120877,3.187179487179487,2.613406593406593
5.058450673997868,1.7946520146520144,2.468351648351648,3.3
5.068061555997701,1.2426373626373626,2.2024175824175822,2.760879120879121
5.074869463998766,1.2426373626373626,2.2024175824175822,2.760879120879121
5.0800315129999944,1.2426373626373626,2.2024175824175822,2.760879120879121
5.0825124439979845,0.7196336996336996,0.826007326007326,0.5673260073260072
5.088511117999587,0.7196336996336996,0.826007326007326,0.5673260073260072
5.093341198000417,0.7196336996336996,0.826007326007326,0.5673260073260072
5.0973502429988,0.7196336996336996,0.826007326007326,0.5673260073260072
5.100511677999748,0.7196336996336996,0.826007326007326,0.5673260073260072
5.10203749199718,0.7196336996336996,0.826007326007326,0.5673260073260072
5.1064035479976155,0.7196336996336996,0.826007326007326,0.5673260073260072
5.1079579170000216,0.6736996336996337,1.411062271062271,0.7873260073260073
5.112242327999411,0.6736996336996337,1.411062271062271,0.7873260073260073
5.113810446997377,0.6736996336996337,1.411062271062271,0.7873260073260073
5.117506593000144,0.6736996336996337,1.411062271062271,0.7873260073260073
5.1226357749983435,0.6736996336996337,1.411062271062271,0.7873260073260073
5.127677397998923,0.6736996336996337,1.411062271062271,0.7873260073260073
5.132191442000476,0.6736996336996337,1.411062271062271,0.7873260073260073
5.1324599139989004,0.6736996336996337,1.411062271062271,0.7873260073260073
5.137831742998969,0.6736996336996337,1.411062271062271,0.7873260073260073
5.139969165997172,0.6736996336996337,1.411062271062271,0.7873260073260073
5.140818515999854,2.90029304029304,3.3,3.3
5.142358911998599,2.90029304029304,3.3,3.3
5.146058341997559,2.90029304029304,3.3,3.3
5.146201121999184,2.90029304029304,3.3,3.3
5.15126973400038,2.90029304029304,3.3,3.3
5.156554643999698,0.083003663003663,0.48754578754578753,0.5068864468864469
5.1596373789980134,0.083003663003663,0.48754578754578753,0.5068864468864469
5.161999528998422,0.083003663003663,0.48754578754578753,0.5068864468864469
5.16219818099853,1.8494505494505493,3.3,2.988131868131868
5.166901542997948,1.8494505494505493,3.3,2.988131868131868
5.1671924910006055,1.8494505494505493,3.3,2.988131868131868
5.171899259999918,1.8494505494505493,3.3,2.988131868131868
5.172074984999199,1.8494505494505493,3.3,2.988131868131868
5.176792876998661,1.8494505494505493,3.3,2.988131868131868
5.176916385997174,0.6519413919413919,0.747032967032967,0.6358241758241758
5.182477106998704,0.6519413919413919,0.747032967032967,0.6358241758241758
5.184058825998363,0.6519413919413919,0.747032967032967,0.6358241758241758
5.188051482997253,0.6519413919413919,0.747032967032967,0.6358241758241758
5.192721100000199,0.6519413919413919,0.747032967032967,0.6358241758241758
5.192910155998106,0.3457142857142857,0.39003663003663,0.5052747252747253
5.198395605999394,0.3457142857142857,0.39003663003663,0.5052747252747253
5.199358416997711,0.3457142857142857,0.39003663003663,0.5052747252747253
5.200365568998677,0.3457142857142857,0.39003663003663,0.5052747252747253
5.2020274120004615,0.3457142857142857,0.39003663003663,0.5052747252747253
5.205772932997206,0.3457142857142857,0.39003663003663,0.5052747252747253
5.211576336998405,0.3457142857142857,0.39003663003663,0.5052747252747253
5.211776992997329,0.3457142857142857,0.39003663003663,0.5052747252747253
5.217208946000028,0.3457142857142857,0.39003663003663,0.5052747252747253
5.218926068999281,0.3457142857142857,0.39003663003663,0.5052747252747253
5.222169263997785,3.0316483516483514,3.3,3.3
5.223044488000596,3.0316483516483514,3.3,3.3
5.224834737000492,3.0316483516483514,3.3,3.3
5.228096226997877,3.0316483516483514,3.3,3.3
5.229012763000355,0.0,0.929157509157509,0.5294505494505495
5.230614337000588,0.0,0.929157509157509,0.5294505494505495
5.233793703999254,0.0,0.929157509157509,0.5294505494505495
5.236313760000485,0.61003663003663,0.3916483516483516,0.5383150183150183
5.242127465997328,0.2635164835164835,0.29413919413919415,0.726080586080586
5.242276155997388,2.705274725274725,3.3,3.3
5.247325569998793,2.705274725274725,3.3,3.3
5.251566041999467,0.3642490842490842,1.3127472527472526,0.755091575091575
5.253407885997149,0.5383150183150183,0.3312087912087912,0.5238095238095237
5.257176235998486,0.5383150183150183,0.3312087912087912,0.5238095238095237
5.262364041998808,1.9090842490842492,3.0574358974358975,3.3
5.264106005997746,2.3837362637362633,2.9357509157509156,3.012307692307692
5.2672699649992865,2.3837362637362633,2.9357509157509156,3.012307692307692
5.268932451999717,2.3837362637362633,2.9357509157509156,3.012307692307692
5.272898251998413,2.3837362637362633,2.9357509157509156,3.012307692307692
5.2761691239975335,2.3837362637362633,2.9357509157509156,3.012307692307692
5.2764812690002145,2.3837362637362633,2.9357509157509156,3.012307692307692
5.281431552997674,2.3837362637362633,2.9357509157509156,3.012307692307692
5.2874629629986885,2.3837362637362633,2.9357509157509156,3.012307692307692
5.2920634990005055,2.3837362637362633,2.9357509157509156,3.012307692307692
5.292324906000431,2.3837362637362633,2.9357509157509156,3.012307692307692
5.297036985997693,2.3837362637362633,2.9357509157509156,3.012307692307692
5.297269765000237,0.8066666666666666,1.6157509157509156,2.169377289377289
5.301990535997902,0.8066666666666666,1.6157509157509156,2.169377289377289
5.302198479999788,0.8066666666666666,1.6157509157509156,2.169377289377289
5.307039716997679,1.6552380952380952,2.5835897435897435,2.54974358974359
5.307154091999109,1.6552380952380952,2.5835897435897435,2.54974358974359
5.312519166000129,1.6552380952380952,2.5835897435897435,2.54974358974359
5.314192543999525,1.6552380952380952,2.5835897435897435,2.54974358974359
5.318214973998693,1.6552380952380952,2.5835897435897435,2.54974358974359
5.322677827000007,0.9573626373626374,1.3353113553113554,0.7865201465201466
5.3229927369975485,0.9573626373626374,1.3353113553113554,0.7865201465201466
5.330687100999057,0.9573626373626374,1.3353113553113554,0.7865201465201466
5.335228436997568,2.651282051282051,2.5553846153846154,2.56989010989011
5.335356486997625,2.651282051282051,2.5553846153846154,2.56989010989011
5.340222491999157,2.651282051282051,2.5553846153846154,2.56989010989011
5.350508649000403,2.651282051282051,2.5553846153846154,2.56989010989011
5.356212335998862,2.651282051282051,2.5553846153846154,2.56989010989011
5.3564509129973885,2.651282051282051,2.5553846153846154,2.56989010989011
5.3616077119986585,2.651282051282051,2.5553846153846154,2.56989010989011
5.365586356998392,2.651282051282051,2.5553846153846154,2.56989010989011
5.368238011000358,2.651282051282051,2.5553846153846154,2.56989010989011
5.373560599000484,2.651282051282051,2.5553846153846154,2.56989010989011
5.3754821980001,2.651282051282051,2.5553846153846154,2.56989010989011
5.3772806960005255,2.651282051282051,2.5553846153846154,2.56989010989011
5.38250740699732,2.651282051282051,2.5553846153846154,2.56989010989011
5.382783165998262,2.651282051282051,2.5553846153846154,2.56989010989011
5.387578665999172,2.651282051282051,2.5553846153846154,2.56989010989011
5.393105407998519,2.651282051282051,2.5553846153846154,2.56989010989011
5.394964443999925,1.577875457875458,1.4142857142857141,2.8293772893772893
5.39745306199984,1.577875457875458,1.4142857142857141,2.8293772893772893
5.403556681998452,1.577875457875458,1.4142857142857141,2.8293772893772893
5.4075879599986365,3.3,2.706886446886447,3.3
5.414370247999614,3.3,2.706886446886447,3.3
5.421062657998846,3.0888644688644686,2.5787545787545785,2.5666666666666664
5.42614098699778,3.0888644688644686,2.5787545787545785,2.5666666666666664
5.429248706997896,3.0888644688644686,2.5787545787545785,2.5666666666666664
5.431177381000452,3.0888644688644686,2.5787545787545785,2.5666666666666664
5.432924258999265,3.0888644688644686,2.5787545787545785,2.5666666666666664
5.435758970997995,3.0888644688644686,2.5787545787545785,2.5666666666666664
5.440482895999594,3.0888644688644686,2.5787545787545785,2.5666666666666664
5.449210918999597,2.6762637362637363,3.3,3.3
5.455827360998228,2.2169230769230768,3.2806593406593407,2.6690109890109888
5.460826495000219,0.3158974358974359,0.9839560439560439,1.5416117216117216
5.467769470997155,0.3158974358974359,0.9839560439560439,1.5416117216117216
5.4725215599974035,0.7816849816849816,1.6044688644688643,0.9057875457875458
5.4768017059977865,0.7816849816849816,1.6044688644688643,0.9057875457875458
5.47949425799743,0.7816849816849816,1.6044688644688643,0.9057875457875458
5.485702042999037,0.7816849816849816,1.6044688644688643,0.9057875457875458
5.49065368599986,0.7816849816849816,1.6044688644688643,0.9057875457875458
5.496092061999661,0.7816849816849816,1.6044688644688643,0.9057875457875458
5.496329606998188,0.7816849816849816,1.6044688644688643,0.9057875457875458
5.501079903999198,0.7816849816849816,1.6044688644688643,0.9057875457875458
5.507220778999908,1.2047619047619047,1.6995604395604393,1.0879120879120878
5.512840504998167,1.2047619047619047,1.6995604395604393,1.0879120879120878
5.513137278998329,0.614065934065934,0.2917216117216117,0.5769963369963369
5.518532406000304,0.614065934065934,0.2917216117216117,0.5769963369963369
5.520221873997798,0.4891575091575091,0.47706959706959706,0.7067399267399267
5.524581063000369,0.4891575091575091,0.47706959706959706,0.7067399267399267
5.5262571869971,0.4891575091575091,0.47706959706959706,0.7067399267399267
5.534202448998258,0.4891575091575091,0.47706959706959706,0.7067399267399267
5.53980675099956,0.4891575091575091,0.47706959706959706,0.7067399267399267
5.540742327997577,0.4891575091575091,0.47706959706959706,0.7067399267399267
5.541818847999821,0.8485714285714284,2.76007326007326,2.1605128205128206
5.5421422899999015,0.8485714285714284,2.76007326007326,2.1605128205128206
5.550008780999633,1.4610256410256408,2.4756043956043956,3.3
5.55411424599879,1.4610256410256408,2.4756043956043956,3.3
5.557250947000284,1.4610256410256408,2.4756043956043956,3.3
5.558878963998723,1.4610256410256408,2.4756043956043956,3.3
5.5654766890002065,1.4610256410256408,2.4756043956043956,3.3
5.569503054997767,1.7849816849816849,3.3,3.0888644688644686
5.573390389999986,0.46175824175824176,1.444102564102564,0.8542124542124543
5.576994270999421,0.46175824175824176,1.444102564102564,0.8542124542124543
5.586445698998432,0.9815384615384615,1.4046153846153846,0.7405860805860806
5.594581967998238,0.9815384615384615,1.4046153846153846,0.7405860805860806
5.600708533998841,0.06849816849816849,0.8243956043956043,0.6390476190476191
5.604770750000171,3.2806593406593407,3.3,3.3
5.607915576998494,3.2806593406593407,3.3,3.3
5.609523076000187,3.2806593406593407,3.3,3.3
5.614802560998214,3.2806593406593407,3.3,3.3
5.6159662709978875,3.2806593406593407,3.3,3.3
5.616155094998248,3.2806593406593407,3.3,3.3
5.621030841997708,3.2806593406593407,3.3,3.3
5.627046756999334,3.2806593406593407,3.3,3.3
5.634492013999989,3.2806593406593407,3.3,3.3
5.639182353999786,3.2806593406593407,3.3,3.3
5.639431919000344,3.2806593406593407,3.3,3.3
5.6452170129996375,3.2806593406593407,3.3,3.3
5.645353833999252,3.2806593406593407,3.3,3.3
5.65099550299783,3.2806593406593407,3.3,3.3
5.651222650998534,3.2806593406593407,3.3,3.3
5.656631699999707,3.2806593406593407,3.3,3.3
5.65836790100002,3.2806593406593407,3.3,3.3
5.663062027997512,3.2806593406593407,3.3,3.3
5.669882636000693,2.789084249084249,3.3,3.3
5.674516470997332,2.789084249084249,3.3,3.3
5.67467022299752,2.789084249084249,3.3,3.3
5.683475974998146,2.789084249084249,3.3,3.3
5.687574913998105,2.789084249084249,3.3,3.3
5.69079534499906,0.10798534798534798,1.1564102564102563,0.6954578754578754
5.693745120999665,0.07252747252747253,0.5213919413919413,0.46417582417582415
5.69643216699842,0.07252747252747253,0.5213919413919413,0.46417582417582415
5.7006373229996825,0.07252747252747253,0.5213919413919413,0.46417582417582415
5.702979399000469,0.07252747252747253,0.5213919413919413,0.46417582417582415
5.703203626999311,0.15633699633699633,1.2652014652014651,2.0646153846153843
5.7078257169996505,0.15633699633699633,1.2652014652014651,2.0646153846153843
5.708737912998913,0.15633699633699633,1.2652014652014651,2.0646153846153843
5.709689658997377,0.15633699633699633,1.2652014652014651,2.0646153846153843
5.711916027998086,0.15633699633699633,1.2652014652014651,2.0646153846153843
5.712234769998759,0.15633699633699633,1.2652014652014651,2.0646153846153843
5.717828803997691,0.15633699633699633,1.2652014652014651,2.0646153846153843
5.718032663997292,0.15633699633699633,1.2652014652014651,2.0646153846153843
5.722714305000409,0.15633699633699633,1.2652014652014651,2.0646153846153843
5.722951163999824,0.15633699633699633,1.2652014652014651,2.0646153846153843
5.7281375259990455,0.15633699633699633,1.2652014652014651,2.0646153846153843
5.732519532997685,0.15633699633699633,1.2652014652014651,2.0646153846153843
5.732714048997877,0.15633699633699633,1.2652014652014651,2.0646153846153843
5.738271361999068,0.15633699633699633,1.2652014652014651,2.0646153846153843
5.738537826000538,0.15633699633699633,1.2652014652014651,2.0646153846153843
5.743806902999495,0.15633699633699633,1.2652014652014651,2.0646153846153843
5.7503800869999395,0.15633699633699633,1.2652014652014651,2.0646153846153843
5.75440965999951,0.15633699633699633,1.2652014652014651,2.0646153846153843
5.757587497999339,0.15633699633699633,1.2652014652014651,2.0646153846153843
5.759288634999393,1.0178021978021978,1.4295970695970697,0.850989010989011
5.7652607719974185,1.0178021978021978,1.4295970695970697,0.850989010989011
5.768830029999663,1.0178021978021978,1.4295970695970697,0.850989010989011
5.7789430459997675,0.4166300366300366,0.42630036630036633,0.4851282051282051
5.788442349999968,1.5786813186813187,2.6279120879120876,3.102564102564102
5.798219178999716,1.5786813186813187,2.6279120879120876,3.102564102564102
5.8042464749996725,2.249157509157509,3.3,3.3
5.8105304229975445,2.606153846153846,3.3,2.8471062271062273
5.816549948998727,2.5199267399267398,2.955091575091575,2.59003663003663
5.820841829998244,2.5199267399267398,2.955091575091575,2.59003663003663
5.823611896998045,2.5199267399267398,2.955091575091575,2.59003663003663
5.828421349000564,2.5199267399267398,2.955091575091575,2.59003663003663
5.832838800997706,2.5199267399267398,2.955091575091575,2.59003663003663
5.833050643999741,2.5199267399267398,2.955091575091575,2.59003663003663
5.838319400998444,2.5199267399267398,2.955091575091575,2.59003663003663
5.840709915999469,0.9621978021978022,1.3707692307692307,0.7687912087912088
5.840921292998246,0.9621978021978022,1.3707692307692307,0.7687912087912088
5.849299127999984,0.9621978021978022,1.3707692307692307,0.7687912087912088
5.856242997000663,0.9621978021978022,1.3707692307692307,0.7687912087912088
5.861790724997263,0.9621978021978022,1.3707692307692307,0.7687912087912088
5.86194580099982,0.9621978021978022,1.3707692307692307,0.7687912087912088
5.868755817999045,0.9621978021978022,1.3707692307692307,0.7687912087912088
5.874077741998917,0.9621978021978022,1.3707692307692307,0.7687912087912088
5.874930492998828,0.22644688644688646,0.47465201465201456,0.5157509157509157
5.876669789999141,0.22644688644688646,0.47465201465201456,0.5157509157509157
5.882642710999789,0.22644688644688646,0.47465201465201456,0.5157509157509157
5.888060721998045,3.1154578754578752,3.3,3.3
5.8883560319991375,2.328131868131868,2.967179487179487,2.46996336996337
5.897505728997203,2.328131868131868,2.967179487179487,2.46996336996337
5.902439596000477,2.328131868131868,2.967179487179487,2.46996336996337
5.906267840997316,2.328131868131868,2.967179487179487,2.46996336996337
5.912510508998821,2.328131868131868,2.967179487179487,2.46996336996337
5.917407740998897,2.328131868131868,2.967179487179487,2.46996336996337
5.920622172998264,2.328131868131868,2.967179487179487,2.46996336996337
5.921569882997574,3.137216117216117,3.3,3.3
5.923156701999687,3.137216117216117,3.3,3.3
5.92856124500031,3.137216117216117,3.3,3.3
5.929671115998644,3.137216117216117,3.3,3.3
5.930205512999237,3.137216117216117,3.3,3.3
5.934543179999309,3.137216117216117,3.3,3.3
5.934846453998034,3.137216117216117,3.3,3.3
5.939649739997549,3.137216117216117,3.3,3.3
5.939838823000173,2.629523809523809,3.2983882783882783,3.3
5.946475200998975,2.629523809523809,3.2983882783882783,3.3
5.9506933049997315,2.629523809523809,3.2983882783882783,3.3
5.952367988000333,0.2627106227106227,0.415018315018315,0.6003663003663003
5.956377295999118,0.2627106227106227,0.415018315018315,0.6003663003663003
5.961264051999024,0.2627106227106227,0.415018315018315,0.6003663003663003
5.967928400998062,0.2627106227106227,0.415018315018315,0.6003663003663003
5.97261027499917,0.4810989010989011,1.3562637362637362,0.8018315018315018
5.972878466000111,0.4810989010989011,1.3562637362637362,0.8018315018315018
5.97833526300019,0.4810989010989011,1.3562637362637362,0.8018315018315018
5.981225027000619,0.4810989010989011,1.3562637362637362,0.8018315018315018
5.9856579459992645,0.4810989010989011,1.3562637362637362,0.8018315018315018
5.996579536000354,0.4810989010989011,1.3562637362637362,0.8018315018315018
6.002795926997351,0.4810989010989011,1.3562637362637362,0.8018315018315018
6.007459509997716,0.4810989010989011,1.3562637362637362,0.8018315018315018
6.01503261399921,0.17084249084249084,1.166080586080586,0.5971428571428571
6.019017635997443,0.0,0.4827106227106227,0.49399267399267394
6.022178734998306,0.0,0.4827106227106227,0.49399267399267394
6.024531011000363,0.0,0.4827106227106227,0.49399267399267394
6.0246230169977935,0.0,0.4827106227106227,0.49399267399267394
6.030892857997969,0.0,0.4827106227106227,0.49399267399267394
6.034093982998456,0.0,0.4827106227106227,0.49399267399267394
6.035675466999237,0.0,0.4827106227106227,0.49399267399267394
6.040202399999544,0.0,0.4827106227106227,0.49399267399267394
6.040464985999279,0.0,0.4827106227106227,0.49399267399267394
6.04678871699798,0.0,0.4827106227106227,0.49399267399267394
6.050032896997436,0.0,0.4827106227106227,0.49399267399267394
6.051642916998389,0.0,0.4827106227106227,0.49399267399267394
6.055637556997681,0.0,0.4827106227106227,0.49399267399267394
6.059133987000678,0.0,0.4827106227106227,0.49399267399267394
6.0662173769997025,0.0,0.4827106227106227,0.49399267399267394
6.0701153480003995,0.0,0.4827106227106227,0.49399267399267394
6.0760388749986305,0.0,0.4827106227106227,0.49399267399267394
6.085163794999971,0.0,0.4827106227106227,0.49399267399267394
6.092092467999464,0.0,0.4827106227106227,0.49399267399267394
6.099566109998705,0.1789010989010989,0.49560439560439556,0.7204395604395604
6.104758396999387,0.1789010989010989,0.49560439560439556,0.7204395604395604
6.108077720997244,2.6714285714285713,2.5505494505494504,2.5561904761904763
6.108391567999206,0.8953113553113552,1.6544322344322344,1.0580952380952382
6.115027243999066,0.8953113553113552,1.6544322344322344,1.0580952380952382
6.11946932399951,0.8953113553113552,1.6544322344322344,1.0580952380952382
6.120413693999581,0.8953113553113552,1.6544322344322344,1.0580952380952382
6.120827028000349,0.8953113553113552,1.6544322344322344,1.0580952380952382
6.126356038999802,0.8953113553113552,1.6544322344322344,1.0580952380952382
6.126574636997248,0.8953113553113552,1.6544322344322344,1.0580952380952382
6.1321987659976,0.8953113553113552,1.6544322344322344,1.0580952380952382
6.133080126997811,0.02901098901098901,0.5520146520146519,0.527032967032967
6.134015425999678,0.02901098901098901,0.5520146520146519,0.527032967032967
6.134902537000016,0.02901098901098901,0.5520146520146519,0.527032967032967
6.136539790997631,0.02901098901098901,0.5520146520146519,0.527032967032967
6.1404208749991085,0.6978754578754578,0.9404395604395603,0.6237362637362637
6.1443592270006775,1.4505494505494505,1.7495238095238095,1.2176556776556777
6.1482740539977385,1.4505494505494505,1.7495238095238095,1.2176556776556777
6.152113066997117,1.4505494505494505,1.7495238095238095,1.2176556776556777
6.157576318997599,1.4505494505494505,1.7495238095238095,1.2176556776556777
6.15867161999995,1.4505494505494505,1.7495238095238095,1.2176556776556777
6.158956776998821,1.4505494505494505,1.7495238095238095,1.2176556776556777
6.163736947997677,1.4505494505494505,1.7495238095238095,1.2176556776556777
6.163849559998198,1.4505494505494505,1.7495238095238095,1.2176556776556777
6.168722255999455,1.4505494505494505,1.7495238095238095,1.2176556776556777
6.174335690997395,1.4505494505494505,1.7495238095238095,1.2176556776556777
6.174574672997551,1.4505494505494505,1.7495238095238095,1.2176556776556777
6.179813193997688,1.4505494505494505,1.7495238095238095,1.2176556776556777
6.183832924998569,1.4505494505494505,1.7495238095238095,1.2176556776556777
6.187179682998249,1.4505494505494505,1.7495238095238095,1.2176556776556777
6.187447375999909,1.4505494505494505,1.7495238095238095,1.2176556776556777
6.192242875000375,1.4505494505494505,1.7495238095238095,1.2176556776556777
6.2018028589991445,1.4505494505494505,1.7495238095238095,1.2176556776556777
6.207241337997402,1.4505494505494505,1.7495238095238095,1.2176556776556777
6.209560514998884,0.7357509157509158,1.4497435897435897,0.9082051282051282
6.217844905000675,0.7357509157509158,1.4497435897435897,0.9082051282051282
6.223588016000576,0.7357509157509158,1.4497435897435897,0.9082051282051282
6.223815674999059,0.7357509157509158,1.4497435897435897,0.9082051282051282
6.2300882389972685,0.7357509157509158,1.4497435897435897,0.9082051282051282
6.23636873400028,0.7035164835164834,1.5295238095238095,0.8775824175824175
6.241439093999361,0.7035164835164834,1.5295238095238095,0.8775824175824175
6.243889853998553,2.0638095238095238,3.3,3.2548717948717947
6.251973210997676,2.0638095238095238,3.3,3.2548717948717947
6.258074041998043,2.0638095238095238,3.3,3.2548717948717947
6.262227708997671,3.163003663003663,3.3,3.3
6.264124548997643,3.163003663003663,3.3,3.3
6.267002622997097,3.163003663003663,3.3,3.3
6.271394029998191,3.163003663003663,3.3,3.3
6.2715487879977445,0.4005128205128205,0.3723076923076923,0.5544322344322344
6.280393170000025,0.4005128205128205,0.3723076923076923,0.5544322344322344
6.285283106997667,0.4005128205128205,0.3723076923076923,0.5544322344322344
6.29322736299946,0.4005128205128205,0.3723076923076923,0.5544322344322344
6.300294991997362,0.4005128205128205,0.3723076923076923,0.5544322344322344
6.306466318997991,0.4005128205128205,0.3723076923076923,0.5544322344322344
6.312750753997534,0.4005128205128205,0.3723076923076923,0.5544322344322344
6.318526233997545,0.4005128205128205,0.3723076923076923,0.5544322344322344
6.325549834997219,0.7027106227106227,0.85018315018315,0.5544322344322344
6.3305460609990405,0.7027106227106227,0.85018315018315,0.5544322344322344
6.334905200998037,1.4167032967032966,0.31186813186813184,0.622124542124542
6.335132648997387,1.4167032967032966,0.31186813186813184,0.622124542124542
6.3438973519987485,1.4167032967032966,0.31186813186813184,0.622124542124542
6.351293878000433,0.684981684981685,1.771282051282051,1.8123809523809524
6.355105466998793,0.684981684981685,1.771282051282051,1.8123809523809524
6.361511428000085,2.7197802197802194,3.3,2.740732600732601
6.36670006499844,2.7197802197802194,3.3,2.740732600732601
6.369581727998593,2.7197802197802194,3.3,2.740732600732601
6.372491851998348,0.27076923076923076,0.4391941391941392,0.606007326007326
6.375512591999723,0.0,0.5093040293040293,0.5495970695970696
6.3772301569988485,0.0,0.5093040293040293,0.5495970695970696
6.381301620000158,0.0,0.5093040293040293,0.5495970695970696
6.383778067000094,0.0,0.5093040293040293,0.5495970695970696
6.390852095999435,0.0,0.5093040293040293,0.5495970695970696
6.396404158000223,0.0,0.5093040293040293,0.5495970695970696
6.396613084998535,0.0975091575091575,0.5221978021978021,1.3562637362637362
6.403382383999997,0.0975091575091575,0.5221978021978021,1.3562637362637362
6.408956358998694,0.0975091575091575,0.5221978021978021,1.3562637362637362
6.419031190998794,0.34007326007326005,0.8252014652014652,0.5931135531135531
6.426240466997115,0.34007326007326005,0.8252014652014652,0.5931135531135531
6.432214791999286,0.029816849816849816,1.51018315018315,1.5037362637362637
6.440370225998777,0.029816849816849816,1.51018315018315,1.5037362637362637
6.446233336999285,0.029816849816849816,1.51018315018315,1.5037362637362637
6.454071151998505,0.029816849816849816,1.51018315018315,1.5037362637362637
6.460724967997521,0.029816849816849816,1.51018315018315,1.5037362637362637
6.466324175999034,0.029816849816849816,1.51018315018315,1.5037362637362637
6.4665004550006415,0.029816849816849816,1.51018315018315,1.5037362637362637
6.47474516299917,0.029816849816849816,1.51018315018315,1.5037362637362637
6.482808859000215,0.029816849816849816,1.51018315018315,1.5037362637362637
6.490023547998135,0.029816849816849816,1.51018315018315,1.5037362637362637
6.495590505997825,0.029816849816849816,1.51018315018315,1.5037362637362637
6.495782612997573,0.029816849816849816,1.51018315018315,1.5037362637362637
6.501356278997264,0.029816849816849816,1.51018315018315,1.5037362637362637
6.502191346997279,0.029816849816849816,1.51018315018315,1.5037362637362637
6.503848607997497,0.029816849816849816,1.51018315018315,1.5037362637362637
6.507014725997578,0.029816849816849816,1.51018315018315,1.5037362637362637
6.508685542998137,0.029816849816849816,1.51018315018315,1.5037362637362637
6.512546896999993,0.029816849816849816,1.51018315018315,1.5037362637362637
6.516497792999871,0.029816849816849816,1.51018315018315,1.5037362637362637
6.521056306999526,0.28124542124542123,0.3545787545787546,0.7752380952380952
6.521327621998353,3.3,3.3,2.8535531135531134
6.526085877998412,3.3,3.3,2.8535531135531134
6.5312429099976725,3.3,3.3,2.8535531135531134
6.534858450999309,3.3,3.3,2.8535531135531134
6.539977488999284,3.3,3.3,2.8535531135531134
6.544163840000692,3.3,3.3,2.8535531135531134
6.5458738060006,3.3,3.3,2.8535531135531134
6.5498852519995125,3.3,3.3,2.8535531135531134
6.553176779998466,0.9621978021978022,0.19743589743589743,0.8413186813186813
6.553447081998456,0.9621978021978022,0.19743589743589743,0.8413186813186813
6.558310227999755,0.9621978021978022,0.19743589743589743,0.8413186813186813
6.5638418329981505,0.9621978021978022,0.19743589743589743,0.8413186813186813
6.564713812000264,0.17164835164835165,1.7873992673992671,1.8768498168498167
6.566264845998376,0.17164835164835165,1.7873992673992671,1.8768498168498167
6.5705765089987835,1.9429304029304029,2.22981684981685,2.2886446886446885
6.5720885890004865,1.9429304029304029,2.22981684981685,2.2886446886446885
6.57636908099812,1.3361172161172161,0.7961904761904761,2.3160439560439556
6.577943542997673,2.313626373626373,2.8197069597069593,3.3
6.583052531997964,2.313626373626373,2.8197069597069593,3.3
6.586031670998636,2.313626373626373,2.8197069597069593,3.3
6.588969434000319,2.313626373626373,2.8197069597069593,3.3
6.591854570997384,2.313626373626373,2.8197069597069593,3.3
6.595484977999149,2.313626373626373,2.8197069597069593,3.3
6.600586388998636,2.313626373626373,2.8197069597069593,3.3
6.604964639998798,3.3,3.3,2.7463736263736265
6.606502237998939,3.3,3.3,2.7463736263736265
6.611619195999083,0.8969230769230768,1.2458608058608058,0.763956043956044
6.6152272219987935,0.581025641025641,0.28446886446886444,0.6785347985347985
6.62034701399898,0.581025641025641,0.28446886446886444,0.6785347985347985
6.6246254759971634,0.581025641025641,0.28446886446886444,0.6785347985347985
6.626865035999799,0.581025641025641,0.28446886446886444,0.6785347985347985
6.627707538998948,0.581025641025641,0.28446886446886444,0.6785347985347985
6.629941343999235,0.581025641025641,0.28446886446886444,0.6785347985347985
6.630245141997875,0.581025641025641,0.28446886446886444,0.6785347985347985
6.635249262999423,0.581025641025641,0.28446886446886444,0.6785347985347985
6.639480180998362,1.5770695970695972,1.8518681318681318,2.5481318681318683
6.641042548999394,1.5770695970695972,1.8518681318681318,2.5481318681318683
6.645398452998052,1.5770695970695972,1.8518681318681318,2.5481318681318683
6.6468744140001945,1.5770695970695972,1.8518681318681318,2.5481318681318683
6.651135273998079,1.5770695970695972,1.8518681318681318,2.5481318681318683
6.653327848998742,1.5770695970695972,1.8518681318681318,2.5481318681318683
6.653626814997551,1.5770695970695972,1.8518681318681318,2.5481318681318683
6.658618028999626,1.5770695970695972,1.8518681318681318,2.5481318681318683
6.662918669000646,1.5770695970695972,1.8518681318681318,2.5481318681318683
6.664456526999857,1.5770695970695972,1.8518681318681318,2.5481318681318683
6.668842315997608,1.5770695970695972,1.8518681318681318,2.5481318681318683
6.6703599379980005,1.5770695970695972,1.8518681318681318,2.5481318681318683
6.674627004998911,1.5770695970695972,1.8518681318681318,2.5481318681318683
6.676887413999793,0.09670329670329669,0.3142857142857142,0.5423443223443223
6.677713664998009,0.09670329670329669,0.3142857142857142,0.5423443223443223
6.67993392399876,0.09670329670329669,0.3142857142857142,0.5423443223443223
6.680746623998857,0.09670329670329669,0.3142857142857142,0.5423443223443223
6.6823731799995585,0.09670329670329669,0.3142857142857142,0.5423443223443223
6.686029012998915,0.49721611721611714,1.2224908424908425,1.4030036630036629
6.6911220679976395,0.49721611721611714,1.2224908424908425,1.4030036630036629
6.695513493999897,0.49721611721611714,1.2224908424908425,1.4030036630036629
6.697688918997301,0.49721611721611714,1.2224908424908425,1.4030036630036629
6.698515961998055,0.49721611721611714,1.2224908424908425,1.4030036630036629
6.7000000570005795,0.49721611721611714,1.2224908424908425,1.4030036630036629
6.705035631999635,0.49721611721611714,1.2224908424908425,1.4030036630036629
6.709472433998599,0.49721611721611714,1.2224908424908425,1.4030036630036629
