time,emg1,emg2,emg3
0.02387944200017955,1.9469597069597069,1.7463003663003662,3.3
0.04358387499814853,1.9469597069597069,1.7463003663003662,3.3
0.04393620799964992,1.9469597069597069,1.7463003663003662,3.3
0.05157222399793682,1.9469597069597069,1.7463003663003662,3.3
0.05724737699711113,1.9469597069597069,1.7463003663003662,3.3
0.06410413999765296,1.9469597069597069,1.7463003663003662,3.3
0.06861022799785133,1.9469597069597069,1.7463003663003662,3.3
0.06887512100001913,0.4174358974358974,0.2804395604395604,0.3384615384615384
0.07903339599943138,0.4174358974358974,0.2804395604395604,0.3384615384615384
0.08863781299805851,0.8284249084249083,0.6551648351648351,0.48754578754578753
0.09594501799801947,0.022564102564102562,0.8034432234432234,0.43274725274725273
0.10105465999731678,1.2764835164835164,1.046007326007326,0.5592673992673992
0.10279843699754565,1.2764835164835164,1.046007326007326,0.5592673992673992
0.10608227899865597,1.2764835164835164,1.046007326007326,0.5592673992673992
0.1069786589978321,1.2764835164835164,1.046007326007326,0.5592673992673992
0.10793639199982863,1.2764835164835164,1.046007326007326,0.5592673992673992
0.10957432499708375,1.2764835164835164,1.046007326007326,0.5592673992673992
0.1134174519975204,1.2764835164835164,1.046007326007326,0.5592673992673992
0.1179775129967311,1.2764835164835164,1.046007326007326,0.5592673992673992
0.11820317599995178,1.7189010989010989,2.432087912087912,1.872014652014652
0.12275161399884382,1.7189010989010989,2.432087912087912,1.872014652014652
0.12306913599968539,2.6843223443223443,3.3,3.3
0.1275794009998208,2.6843223443223443,3.3,3.3
0.12919646299997112,0.20227106227106226,1.02021978021978,0.4383882783882784
0.1330457869989914,0.20227106227106226,1.02021978021978,0.4383882783882784
0.1370226939980057,1.8091575091575092,1.232967032967033,0.4383882783882784
0.14142887799971504,1.8091575091575092,1.232967032967033,0.4383882783882784
0.14233174999753828,1.8091575091575092,1.232967032967033,0.4383882783882784
0.14396617699821945,1.8091575091575092,1.232967032967033,0.4383882783882784
0.14736604199788417,1.8091575091575092,1.232967032967033,0.4383882783882784
0.14905823899971438,1.8091575091575092,1.232967032967033,0.4383882783882784
0.15337027199711883,1.8091575091575092,1.232967032967033,0.4383882783882784
0.15625135699883685,1.8091575091575092,1.232967032967033,0.4383882783882784
0.1578268749981362,1.8091575091575092,1.232967032967033,0.4383882783882784
0.16211198899691226,1.8091575091575092,1.232967032967033,0.4383882783882784
0.16303240199704305,1.8091575091575092,1.232967032967033,0.4383882783882784
0.1646733919988037,1.8091575091575092,1.232967032967033,0.4383882783882784
0.16849802999786334,1.8091575091575092,1.232967032967033,0.4383882783882784
0.1733447669976158,1.8091575091575092,1.232967032967033,0.4383882783882784
0.18226588600009563,1.8091575091575092,1.232967032967033,0.4383882783882784
0.18936336600017967,2.6665934065934067,2.5473260073260073,3.3
0.1952552939983434,2.6665934065934067,2.5473260073260073,3.3
0.20404850999693736,2.6665934065934067,2.5473260073260073,3.3
0.2100454739993438,3.3,2.565054945054945,2.552967032967033
0.2140726369980257,3.3,2.565054945054945,2.552967032967033
0.2176662589990883,3.3,2.565054945054945,2.552967032967033
0.2177880319977703,3.3,2.565054945054945,2.552967032967033
0.22264998899845523,3.3,2.565054945054945,2.552967032967033
0.22832724299951224,3.3,2.565054945054945,2.552967032967033
0.2290258779976284,3.3,2.565054945054945,2.552967032967033
0.23271446400030982,3.3,2.565054945054945,2.552967032967033
0.23899365099714487,3.3,2.565054945054945,2.552967032967033
0.24241890099801822,2.6762637362637363,2.540879120879121,3.3
0.24265980999916792,2.6762637362637363,2.540879120879121,3.3
0.2511881389982591,2.6762637362637363,2.540879120879121,3.3
0.2556856310002331,0.03304029304029304,0.506080586080586,1.5287179487179487
0.25728697999875294,0.03304029304029304,0.506080586080586,1.5287179487179487
0.26112484199984465,0.03304029304029304,0.506080586080586,1.5287179487179487
0.26691721599854645,0.03304029304029304,0.506080586080586,1.5287179487179487
0.26703154999995604,0.03304029304029304,0.506080586080586,1.5287179487179487
0.2723724110001058,0.03304029304029304,0.506080586080586,1.5287179487179487
0.27550367299772915,0.03304029304029304,0.506080586080586,1.5287179487179487
0.2763973849978356,0.03304029304029304,0.506080586080586,1.5287179487179487
0.27811186899998575,0.03304029304029304,0.506080586080586,1.5287179487179487
0.28180023599998094,0.03304029304029304,0.506080586080586,1.5287179487179487
0.2872104109992506,2.9873260073260073,3.3,2.751208791208791
0.2896920349994616,1.4819780219780219,1.739047619047619,0.5600732600732601
0.2898771049985953,1.4819780219780219,1.739047619047619,0.5600732600732601
0.29463338799905614,1.4819780219780219,1.739047619047619,0.5600732600732601
0.3058416239982762,1.4819780219780219,1.739047619047619,0.5600732600732601
0.31561188799969386,1.4819780219780219,1.739047619047619,0.5600732600732601
0.32152348299860023,1.4819780219780219,1.739047619047619,0.5600732600732601
0.326209058999666,1.4819780219780219,1.739047619047619,0.5600732600732601
0.32647299399832264,1.4819780219780219,1.739047619047619,0.5600732600732601
0.33361228499779827,1.4819780219780219,1.739047619047619,0.5600732600732601
0.3375367689986888,1.4819780219780219,1.739047619047619,0.5600732600732601
0.34385536599802435,2.6536996336996337,3.3,3.1130402930402927
0.34979804799877456,1.2095970695970695,1.5222710622710622,0.38278388278388276
0.3532256599974062,1.2095970695970695,1.5222710622710622,0.38278388278388276
0.35344088899728376,1.2095970695970695,1.5222710622710622,0.38278388278388276
0.358127075000084,1.2095970695970695,1.5222710622710622,0.38278388278388276
0.35843900199688505,1.2095970695970695,1.5222710622710622,0.38278388278388276
0.36434346999885747,1.2095970695970695,1.5222710622710622,0.38278388278388276
0.36448891299733077,1.2095970695970695,1.5222710622710622,0.38278388278388276
0.3695623049970891,1.2095970695970695,1.5222710622710622,0.38278388278388276
0.37351794399728533,1.2095970695970695,1.5222710622710622,0.38278388278388276
0.37672117900001467,1.2095970695970695,1.5222710622710622,0.38278388278388276
0.3791811279988906,1.2095970695970695,1.5222710622710622,0.38278388278388276
0.38890035299846204,1.2095970695970695,1.5222710622710622,0.38278388278388276
0.39379621099942597,1.2095970695970695,1.5222710622710622,0.38278388278388276
0.40279405799810775,1.2095970695970695,1.5222710622710622,0.38278388278388276
0.40888450899728923,2.673040293040293,2.5521611721611723,3.3
0.4136861979968671,2.673040293040293,2.5521611721611723,3.3
0.4139499499979138,2.673040293040293,2.5521611721611723,3.3
0.41819014700013213,2.12989010989011,1.5335531135531135,0.70996336996337
0.41993250899759005,2.12989010989011,1.5335531135531135,0.70996336996337
0.42381943500004127,2.12989010989011,1.5335531135531135,0.70996336996337
0.4295267849993252,1.9485714285714284,1.788205128205128,0.6882051282051282
0.43674367999847163,1.9485714285714284,1.788205128205128,0.6882051282051282
0.4408202189988515,0.05882783882783882,0.5084981684981685,1.3401465201465201
0.4435047249971831,0.4287179487179487,1.5287179487179487,1.340952380952381
0.44929978499931167,0.4287179487179487,1.5287179487179487,1.340952380952381
0.45418387799873017,0.4287179487179487,1.5287179487179487,1.340952380952381
0.45890169799895375,3.3,3.3,2.8535531135531134
0.4590154769975925,0.2804395604395604,1.24021978021978,1.4094505494505494
0.46584553299908293,0.2804395604395604,1.24021978021978,1.4094505494505494
0.47024746899842285,2.66014652014652,3.3,3.3
0.471224925997376,2.66014652014652,3.3,3.3
0.4724640200001886,2.66014652014652,3.3,3.3
0.47268062500006636,2.66014652014652,3.3,3.3
0.47936546999699203,2.66014652014652,3.3,3.3
0.4836594669977785,2.66014652014652,3.3,3.3
0.48459407900008955,2.66014652014652,3.3,3.3
0.4856396469986066,2.66014652014652,3.3,3.3
0.4866390009992756,2.66014652014652,3.3,3.3
0.4875498939982208,2.66014652014652,3.3,3.3
0.48846929199862643,2.66014652014652,3.3,3.3
0.49007829499896616,2.66014652014652,3.3,3.3
0.49329795799712883,2.66014652014652,3.3,3.3
0.4967416189974756,1.1596336996336996,1.4126739926739926,2.5876190476190475
0.504073909996805,1.1596336996336996,1.4126739926739926,2.5876190476190475
0.5080315029990743,2.6714285714285713,3.3,3.3
0.5149629150000692,0.25787545787545785,0.9468864468864467,0.5213919413919413
0.5183520509999653,0.8405128205128204,1.2063736263736262,2.249157509157509
0.5186175689996162,2.677069597069597,2.548937728937729,3.3
0.5234095089981565,0.6253479853479853,1.303076923076923,1.7696703296703296
0.523528081997938,0.6253479853479853,1.303076923076923,1.7696703296703296
0.5294375859994034,0.6253479853479853,1.303076923076923,1.7696703296703296
0.5353940629975114,0.929157509157509,1.1515750915750915,0.46095238095238095
0.5394125359998725,1.8986080586080583,1.2692307692307692,0.5600732600732601
0.543203105997236,1.8986080586080583,1.2692307692307692,0.5600732600732601
0.549086326998804,1.8986080586080583,1.2692307692307692,0.5600732600732601
0.5542790869985765,1.8986080586080583,1.2692307692307692,0.5600732600732601
0.557733872999961,1.8986080586080583,1.2692307692307692,0.5600732600732601
0.5579452219972154,1.8986080586080583,1.2692307692307692,0.5600732600732601
0.5650456319999648,0.3191208791208791,1.4255677655677657,1.1886446886446886
0.5695676039977116,0.3191208791208791,1.4255677655677657,1.1886446886446886
0.5697360909980489,0.3191208791208791,1.4255677655677657,1.1886446886446886
0.5753099559988186,0.3191208791208791,1.4255677655677657,1.1886446886446886
0.5755489999974088,0.3191208791208791,1.4255677655677657,1.1886446886446886
0.5833415249981044,0.3191208791208791,1.4255677655677657,1.1886446886446886
0.5882737559986708,0.3191208791208791,1.4255677655677657,1.1886446886446886
0.5937523199972929,1.1435164835164835,0.17406593406593407,0.48835164835164835
0.5956933079978626,1.1435164835164835,0.17406593406593407,0.48835164835164835
0.5989139229968714,1.1435164835164835,0.17406593406593407,0.48835164835164835
0.6046094179982902,1.1435164835164835,0.17406593406593407,0.48835164835164835
0.6048454390002007,2.6504761904761907,3.3,2.8454945054945053
0.6104156009969302,2.6504761904761907,3.3,2.8454945054945053
0.6120336849999148,2.6504761904761907,3.3,2.8454945054945053
0.6162725180001871,0.2063003663003663,0.23531135531135527,1.1354578754578755
0.6182106879969069,0.2063003663003663,0.23531135531135527,1.1354578754578755
0.6200826309977856,0.2063003663003663,0.23531135531135527,1.1354578754578755
0.6226792209999985,0.2063003663003663,0.23531135531135527,1.1354578754578755
0.6283873959982884,0.2063003663003663,0.23531135531135527,1.1354578754578755
0.6288013769990357,0.2063003663003663,0.23531135531135527,1.1354578754578755
0.6340655459971458,0.2063003663003663,0.23531135531135527,1.1354578754578755
0.6364633819976007,1.6979487179487176,1.1684981684981686,0.5504029304029303
0.6366460339995683,1.6979487179487176,1.1684981684981686,0.5504029304029303
0.6414249209992704,1.6979487179487176,1.1684981684981686,0.5504029304029303
0.6509315009971033,1.6979487179487176,1.1684981684981686,0.5504029304029303
0.6556273159985722,1.6979487179487176,1.1684981684981686,0.5504029304029303
0.6558369349986606,1.6979487179487176,1.1684981684981686,0.5504029304029303
0.6598572479997529,1.6979487179487176,1.1684981684981686,0.5504029304029303
0.6670078999995894,1.6979487179487176,1.1684981684981686,0.5504029304029303
0.6720833019971906,1.6979487179487176,1.1684981684981686,0.5504029304029303
0.674877754998306,1.6979487179487176,1.1684981684981686,0.5504029304029303
0.6809533889972954,1.6979487179487176,1.1684981684981686,0.5504029304029303
0.6845584689981479,2.6722344322344322,2.545714285714286,3.3
0.6905942449993745,2.6722344322344322,2.545714285714286,3.3
0.6945816589977767,2.6722344322344322,2.545714285714286,3.3
0.6995242689990846,2.6722344322344322,2.545714285714286,3.3
0.7027181419980479,2.6722344322344322,2.545714285714286,3.3
0.7043494319987076,2.6633699633699632,3.3,3.3
0.7089485750002495,2.6633699633699632,3.3,3.3
0.7185115350002889,2.6633699633699632,3.3,3.3
0.7242744029972528,3.2790476190476188,3.3,2.706886446886447
0.724561757997435,3.0646886446886445,2.2322344322344323,0.9484981684981684
0.7304150179988937,3.0646886446886445,2.2322344322344323,0.9484981684981684
0.7366199249991041,3.0646886446886445,2.2322344322344323,0.9484981684981684
0.7407976609974867,3.0646886446886445,2.2322344322344323,0.9484981684981684
0.7432425929982855,3.0646886446886445,2.2322344322344323,0.9484981684981684
0.7508811659972707,3.3,2.813260073260073,1.7801465201465199
0.7555951529975573,3.3,2.813260073260073,1.7801465201465199
0.7557336519967066,1.5698168498168497,1.070989010989011,0.5737728937728938
0.7609808099987276,1.5698168498168497,1.070989010989011,0.5737728937728938
0.7662357949993748,1.5698168498168497,1.070989010989011,0.5737728937728938
0.7665532619976148,1.5698168498168497,1.070989010989011,0.5737728937728938
0.7716478859983908,1.5698168498168497,1.070989010989011,0.5737728937728938
0.775771579999855,1.5698168498168497,1.070989010989011,0.5737728937728938
0.7792144529994403,1.5698168498168497,1.070989010989011,0.5737728937728938
0.7847271119971992,1.5698168498168497,1.070989010989011,0.5737728937728938
0.7865326020000794,1.5698168498168497,1.070989010989011,0.5737728937728938
0.7889526289982314,1.5698168498168497,1.070989010989011,0.5737728937728938
0.7890856749982049,1.5698168498168497,1.070989010989011,0.5737728937728938
0.7942019379988778,1.5698168498168497,1.070989010989011,0.5737728937728938
0.7997855449975759,1.5698168498168497,1.070989010989011,0.5737728937728938
0.8054617259986117,2.655311355311355,3.3,2.8535531135531134
0.8057733529967663,2.655311355311355,3.3,2.8535531135531134
0.8108817469983478,2.655311355311355,3.3,2.8535531135531134
0.8175592529987625,2.655311355311355,3.3,2.8535531135531134
0.8213540429969726,2.054139194139194,1.5343589743589743,0.6116483516483516
0.8261942329991143,2.054139194139194,1.5343589743589743,0.6116483516483516
0.8341279439991922,2.054139194139194,1.5343589743589743,0.6116483516483516
0.8387180270001409,2.054139194139194,1.5343589743589743,0.6116483516483516
0.8389550920001057,2.054139194139194,1.5343589743589743,0.6116483516483516
0.8435511999996379,1.349010989010989,1.6117216117216115,3.3
0.8438623929978348,2.0090109890109886,1.8365567765567765,0.6189010989010989
0.8510214559973974,2.0090109890109886,1.8365567765567765,0.6189010989010989
0.856294771998364,2.0090109890109886,1.8365567765567765,0.6189010989010989
0.8579040099975828,2.6762637362637363,2.5521611721611723,3.3
0.8639903429975675,2.6762637362637363,2.5521611721611723,3.3
0.8697556539991638,2.6762637362637363,2.5521611721611723,3.3
0.8742511620002915,2.6762637362637363,2.5521611721611723,3.3
0.8751370639984088,2.6762637362637363,2.5521611721611723,3.3
0.8761391019979783,2.6762637362637363,2.5521611721611723,3.3
0.8773318899984588,2.6762637362637363,2.5521611721611723,3.3
0.8780588469999202,2.6762637362637363,2.5521611721611723,3.3
0.8807951050002885,2.6762637362637363,2.5521611721611723,3.3
0.8834748519984714,2.6762637362637363,2.5521611721611723,3.3
0.8881255469968892,2.6762637362637363,2.5521611721611723,3.3
0.8883224159981182,0.2361172161172161,0.788937728937729,0.5923076923076923
0.8938234529996407,0.2361172161172161,0.788937728937729,0.5923076923076923
0.8983166219986742,1.3627106227106225,1.6624908424908424,2.787472527472527
0.9080568179997499,1.3627106227106225,1.6624908424908424,2.787472527472527
0.9165759229981632,1.3627106227106225,1.6624908424908424,2.787472527472527
0.9227049479995912,1.3627106227106225,1.6624908424908424,2.787472527472527
0.9277134009971633,1.3627106227106225,1.6624908424908424,2.787472527472527
0.9314987899997504,1.3627106227106225,1.6624908424908424,2.787472527472527
0.9355611129976751,1.3627106227106225,1.6624908424908424,2.787472527472527
0.9378444739995757,1.3627106227106225,1.6624908424908424,2.787472527472527
0.9381024049980624,1.3627106227106225,1.6624908424908424,2.787472527472527
0.9476575249973394,1.3627106227106225,1.6624908424908424,2.787472527472527
0.9540035669997451,2.6633699633699632,3.3,2.714945054945055
0.9580160129989963,2.6633699633699632,3.3,2.714945054945055
0.9617294309973659,1.2144322344322345,2.0887912087912084,1.5246886446886447
0.9664883949990326,1.2144322344322345,2.0887912087912084,1.5246886446886447
0.9761721099966962,0.6084249084249085,0.8252014652014652,0.5915018315018314
0.9860623959975783,0.6084249084249085,0.8252014652014652,0.5915018315018314
0.9952925619982125,0.6084249084249085,0.8252014652014652,0.5915018315018314
1.0033417569975427,2.422417582417582,2.5763369963369964,3.3
1.0111942829971667,2.7616849816849816,2.1677655677655676,0.8783882783882784
1.0176355819967284,2.7616849816849816,2.1677655677655676,0.8783882783882784
1.0234040469986212,2.7616849816849816,2.1677655677655676,0.8783882783882784
1.0310313959998894,2.7616849816849816,2.1677655677655676,0.8783882783882784
1.0363775519981573,2.7616849816849816,2.1677655677655676,0.8783882783882784
1.0367186539988325,2.7616849816849816,2.1677655677655676,0.8783882783882784
1.0442097459999786,2.7616849816849816,2.1677655677655676,0.8783882783882784
1.052173521999066,2.7616849816849816,2.1677655677655676,0.8783882783882784
1.05618600699745,2.7616849816849816,2.1677655677655676,0.8783882783882784
1.0595531099970685,2.7616849816849816,2.1677655677655676,0.8783882783882784
1.061164018999989,2.7616849816849816,2.1677655677655676,0.8783882783882784
1.067699322997214,2.7616849816849816,2.1677655677655676,0.8783882783882784
1.073379526998906,0.0821978021978022,0.5141391941391941,0.5342857142857143
1.0831471019992023,0.0821978021978022,0.5141391941391941,0.5342857142857143
1.0918946089987003,0.0821978021978022,0.5141391941391941,0.5342857142857143
1.1003267589985626,0.0821978021978022,0.5141391941391941,0.5342857142857143
1.10657837799954,0.0821978021978022,0.5141391941391941,0.5342857142857143
1.1097174539972912,0.0821978021978022,0.5141391941391941,0.5342857142857143
1.1120327440003166,0.0821978021978022,0.5141391941391941,0.5342857142857143
1.1122619599991594,0.0821978021978022,0.5141391941391941,0.5342857142857143
1.1176994389970787,0.0821978021978022,0.5141391941391941,0.5342857142857143
1.1202771379976184,0.0821978021978022,0.5141391941391941,0.5342857142857143
1.1257261889986694,0.0821978021978022,0.5141391941391941,0.5342857142857143
1.1280261449974205,0.0821978021978022,0.5141391941391941,0.5342857142857143
1.1282572019990766,0.0821978021978022,0.5141391941391941,0.5342857142857143
1.1336578679984086,0.0821978021978022,0.5141391941391941,0.5342857142857143
1.1362837909982773,0.0821978021978022,0.5141391941391941,0.5342857142857143
1.1417136860000028,0.0821978021978022,0.5141391941391941,0.5342857142857143
1.1441886719985632,0.0821978021978022,0.5141391941391941,0.5342857142857143
1.1497191409980587,0.0821978021978022,0.5141391941391941,0.5342857142857143
1.152195941998798,0.0821978021978022,0.5141391941391941,0.5342857142857143
1.1613139029977901,0.0821978021978022,0.5141391941391941,0.5342857142857143
1.1695667359999788,0.0821978021978022,0.5141391941391941,0.5342857142857143
1.1747737739970034,1.3183882783882783,0.2369230769230769,0.5302564102564102
1.1778675229979854,2.6456410256410257,2.5441025641025643,2.561831501831502
1.1808512319985311,2.6456410256410257,2.5441025641025643,2.561831501831502
1.1818862289983372,2.6456410256410257,2.5441025641025643,2.561831501831502
1.1821392940000806,2.6456410256410257,2.5441025641025643,2.561831501831502
1.1869195899998886,2.6456410256410257,2.5441025641025643,2.561831501831502
1.1870588849997148,0.5681318681318681,0.28769230769230764,0.5673260073260072
1.1923994209973898,0.5681318681318681,0.28769230769230764,0.5673260073260072
1.1968489979990409,0.5681318681318681,0.28769230769230764,0.5673260073260072
1.1969997809974302,0.5681318681318681,0.28769230769230764,0.5673260073260072
1.2017909169990162,0.5681318681318681,0.28769230769230764,0.5673260073260072
1.201951258997724,2.698827838827839,3.3,2.8422710622710623
1.2070132640001248,2.698827838827839,3.3,2.8422710622710623
1.2101225259975763,0.7236630036630036,1.054065934065934,0.506080586080586
1.2126212519979163,0.7236630036630036,1.054065934065934,0.506080586080586
1.2127870069998608,0.7236630036630036,1.054065934065934,0.506080586080586
1.2180937209996046,1.9598534798534797,1.3377289377289376,0.6124542124542125
1.2197393469978124,1.9598534798534797,1.3377289377289376,0.6124542124542125
1.2242775999984588,1.9598534798534797,1.3377289377289376,0.6124542124542125
1.225117596997734,1.9598534798534797,1.3377289377289376,0.6124542124542125
1.226035226998647,1.9598534798534797,1.3377289377289376,0.6124542124542125
1.2276210229974822,1.9598534798534797,1.3377289377289376,0.6124542124542125
1.2321629749967542,1.9598534798534797,1.3377289377289376,0.6124542124542125
1.2324772889987798,1.9598534798534797,1.3377289377289376,0.6124542124542125
1.2370694439996441,1.9598534798534797,1.3377289377289376,0.6124542124542125
1.2373842659981165,1.9598534798534797,1.3377289377289376,0.6124542124542125
1.241985084998305,1.9598534798534797,1.3377289377289376,0.6124542124542125
1.2423046759977296,0.365054945054945,1.4287912087912087,1.6987545787545786
1.2476532099972246,0.365054945054945,1.4287912087912087,1.6987545787545786
1.2501431290002074,2.561831501831502,1.9888644688644685,0.7276923076923076
1.2556726919974608,2.561831501831502,1.9888644688644685,0.7276923076923076
1.2565255319968855,2.561831501831502,1.9888644688644685,0.7276923076923076
1.2581338370000594,2.561831501831502,1.9888644688644685,0.7276923076923076
1.2620741539976734,2.561831501831502,1.9888644688644685,0.7276923076923076
1.2658736789999239,2.561831501831502,1.9888644688644685,0.7276923076923076
1.271482128999196,2.561831501831502,1.9888644688644685,0.7276923076923076
1.2718546639989654,2.561831501831502,1.9888644688644685,0.7276923076923076
1.276713215997006,2.561831501831502,1.9888644688644685,0.7276923076923076
1.2822258790001797,2.6673992673992672,3.3,2.8108424908424907
1.2832101569983934,2.1476190476190475,2.157289377289377,3.3
1.2841136999995797,2.1476190476190475,2.157289377289377,3.3
1.285690546999831,2.1476190476190475,2.157289377289377,3.3
1.289584907997778,2.1476190476190475,2.157289377289377,3.3
1.2933956009983376,2.1476190476190475,2.157289377289377,3.3
1.2979003170003125,2.1476190476190475,2.157289377289377,3.3
1.298253291999572,2.664175824175824,2.5505494505494504,3.3
1.303233275997627,2.664175824175824,2.5505494505494504,3.3
1.307455605998257,2.664175824175824,2.5505494505494504,3.3
1.3096592339970812,0.36827838827838827,0.5786080586080585,0.5673260073260072
1.3104990819992963,0.36827838827838827,0.5786080586080585,0.5673260073260072
1.3127339129969187,3.3,3.3,2.8551648351648353
1.313011550999363,3.3,3.3,2.8551648351648353
1.3178965169972798,3.3,3.3,2.8551648351648353
1.3229094449998229,0.8364835164835164,1.834945054945055,1.4126739926739926
1.3275897829989844,2.6536996336996337,3.05985347985348,2.0605860805860803
1.3332101319974754,3.3,2.5175091575091573,0.9122344322344322
1.333530913998402,3.3,2.5175091575091573,0.9122344322344322
1.3378234079973481,3.3,2.5175091575091573,0.9122344322344322
1.3400286769974628,3.3,2.5175091575091573,0.9122344322344322
1.3408176809971337,3.3,2.5175091575091573,0.9122344322344322
1.343046833997505,3.3,2.5175091575091573,0.9122344322344322
1.3438243809978303,3.3,2.5175091575091573,0.9122344322344322
1.3453644439978234,3.3,2.5175091575091573,0.9122344322344322
1.349612336998689,3.3,2.5175091575091573,0.9122344322344322
1.3524757569975918,1.0492307692307692,0.16358974358974357,0.5149450549450549
1.3568649419976282,1.0492307692307692,0.16358974358974357,0.5149450549450549
1.3577089119971788,1.0492307692307692,0.16358974358974357,0.5149450549450549
1.3598670350002067,1.0492307692307692,0.16358974358974357,0.5149450549450549
1.3613109399993846,1.0492307692307692,0.16358974358974357,0.5149450549450549
1.366493460998754,1.0492307692307692,0.16358974358974357,0.5149450549450549
1.3706779530002677,1.0492307692307692,0.16358974358974357,0.5149450549450549
1.3728539319999982,1.0492307692307692,0.16358974358974357,0.5149450549450549
1.3737175749993185,1.0492307692307692,0.16358974358974357,0.5149450549450549
1.3758469929998682,1.0492307692307692,0.16358974358974357,0.5149450549450549
1.376692177997029,2.693992673992674,2.548937728937729,3.3
1.378198367998266,2.693992673992674,2.548937728937729,3.3
1.3823771349998424,2.237875457875458,2.6158241758241756,1.7624175824175823
1.3858471479979926,2.6682051282051282,2.544908424908425,2.5634432234432234
1.3859855399969092,0.9815384615384615,1.3602930402930402,0.4786813186813187
1.3908592719999433,0.9815384615384615,1.3602930402930402,0.4786813186813187
1.3957731899972714,0.9815384615384615,1.3602930402930402,0.4786813186813187
1.400069559997064,0.9815384615384615,1.3602930402930402,0.4786813186813187
1.4029753139984678,0.9815384615384615,1.3602930402930402,0.4786813186813187
1.4058297019983002,0.9815384615384615,1.3602930402930402,0.4786813186813187
1.4094061340001645,1.6866666666666665,1.7132600732600733,0.5890842490842491
1.4096253369971237,1.6866666666666665,1.7132600732600733,0.5890842490842491
1.4145285349986807,1.6866666666666665,1.7132600732600733,0.5890842490842491
1.4146372590003011,1.6866666666666665,1.7132600732600733,0.5890842490842491
1.419594678998692,1.6866666666666665,1.7132600732600733,0.5890842490842491
1.4237549879981088,2.66014652014652,2.5513553113553114,3.2097435897435895
1.4260015879990533,2.66014652014652,2.5513553113553114,3.2097435897435895
1.4268397419982648,2.66014652014652,2.5513553113553114,3.2097435897435895
1.4283761970000342,2.66014652014652,2.5513553113553114,3.2097435897435895
1.4326753049972467,2.66014652014652,2.5513553113553114,3.2097435897435895
1.4349326399969868,2.66014652014652,2.5513553113553114,3.2097435897435895
1.4352379880001536,2.66014652014652,2.5513553113553114,3.2097435897435895
1.4408102369998232,2.66014652014652,2.5513553113553114,3.2097435897435895
1.441765484996722,2.66014652014652,2.5513553113553114,3.2097435897435895
1.442107375998603,2.66014652014652,2.5513553113553114,3.2097435897435895
1.4467648829995596,2.66014652014652,2.5513553113553114,3.2097435897435895
1.4469062199968903,2.66014652014652,2.5513553113553114,3.2097435897435895
1.4519293719968118,2.66014652014652,2.5513553113553114,3.2097435897435895
1.456347563998861,2.66014652014652,2.5513553113553114,3.2097435897435895
1.4578303050002432,2.66014652014652,2.5513553113553114,3.2097435897435895
1.462127081998915,2.66014652014652,2.5513553113553114,3.2097435897435895
1.4642592589989363,2.66014652014652,2.5513553113553114,3.2097435897435895
1.4650910179989296,3.008278388278388,2.2201465201465203,0.7583150183150182
1.4665823919967806,3.008278388278388,2.2201465201465203,0.7583150183150182
1.4667281089969038,3.008278388278388,2.2201465201465203,0.7583150183150182
1.4715407619987673,3.008278388278388,2.2201465201465203,0.7583150183150182
1.4716854329999478,0.05963369963369963,0.7728205128205128,0.5165567765567766
1.4764892359999067,0.05963369963369963,0.7728205128205128,0.5165567765567766
1.4766346299984434,0.05963369963369963,0.7728205128205128,0.5165567765567766
1.4814693109983637,0.05963369963369963,0.7728205128205128,0.5165567765567766
1.4863963479983795,0.05963369963369963,0.7728205128205128,0.5165567765567766
1.4906480520003242,0.05963369963369963,0.7728205128205128,0.5165567765567766
1.4934954019990982,0.05963369963369963,0.7728205128205128,0.5165567765567766
1.4970020669970836,2.597289377289377,2.8535531135531134,3.3
1.4971565019986883,3.3,3.3,2.8664468864468864
1.5019468129976303,3.3,3.3,2.8664468864468864
1.5069055219973961,3.3,3.3,2.8664468864468864
1.511783910998929,3.3,3.3,2.8664468864468864
1.5167118319986912,3.3,3.3,2.8664468864468864
1.5216510519967414,2.659340659340659,2.5521611721611723,3.3
1.5257930119987577,2.659340659340659,2.5521611721611723,3.3
1.528681494997727,2.659340659340659,2.5521611721611723,3.3
1.5315754219991504,0.1652014652014652,0.7986080586080586,0.4391941391941392
1.5350548859969422,0.1652014652014652,0.7986080586080586,0.4391941391941392
1.5352292449970264,0.1652014652014652,0.7986080586080586,0.4391941391941392
1.5402558169989788,0.1652014652014652,0.7986080586080586,0.4391941391941392
1.5452729769967846,0.1652014652014652,0.7986080586080586,0.4391941391941392
1.5499185799999395,0.1652014652014652,0.7986080586080586,0.4391941391941392
1.550078140997357,0.1652014652014652,0.7986080586080586,0.4391941391941392
1.5557761370000662,0.1652014652014652,0.7986080586080586,0.4391941391941392
1.5559288949989423,1.1096703296703296,0.6326007326007326,0.7204395604395604
1.5614486069971463,1.1096703296703296,0.6326007326007326,0.7204395604395604
1.5631822089999332,1.1096703296703296,0.6326007326007326,0.7204395604395604
1.5656425709967152,3.3,2.464322344322344,1.0355311355311354
1.565817552000226,3.3,2.464322344322344,1.0355311355311354
1.5705694709977251,3.3,2.464322344322344,1.0355311355311354
1.5707713899973896,3.3,2.464322344322344,1.0355311355311354
1.5753153059995384,1.6624908424908424,2.01062271062271,2.8898168498168495
1.5755922629978159,1.6624908424908424,2.01062271062271,2.8898168498168495
1.58025687099871,1.6624908424908424,2.01062271062271,2.8898168498168495
1.580396978999488,1.6624908424908424,2.01062271062271,2.8898168498168495
1.5851018139983353,1.6624908424908424,2.01062271062271,2.8898168498168495
1.5852318439974624,3.0227838827838824,2.2475457875457874,0.9758974358974358
1.5908321119968605,3.0227838827838824,2.2475457875457874,0.9758974358974358
1.5917340739979409,3.0227838827838824,2.2475457875457874,0.9758974358974358
1.593351248997351,3.0227838827838824,2.2475457875457874,0.9758974358974358
1.5994551529984165,3.0227838827838824,2.2475457875457874,0.9758974358974358
1.6057294759993965,2.6714285714285713,2.544908424908425,3.3
1.6090400539978873,2.6633699633699632,3.3,2.694798534798535
1.6094027849976555,2.6633699633699632,3.3,2.694798534798535
1.616823858999851,2.6633699633699632,3.3,2.694798534798535
1.6216401329984365,2.6633699633699632,3.3,2.694798534798535
1.628395609997824,2.6536996336996337,3.3,2.9824908424908423
1.6339031559982686,0.7687912087912088,0.27399267399267396,0.614065934065934
1.6341300959975342,0.7687912087912088,0.27399267399267396,0.614065934065934
1.6422132259976934,0.7687912087912088,0.27399267399267396,0.614065934065934
1.6461506399973587,0.7687912087912088,0.27399267399267396,0.614065934065934
1.6500872029973834,0.7687912087912088,0.27399267399267396,0.614065934065934
1.655591889997595,0.7687912087912088,0.27399267399267396,0.614065934065934
1.6567220899996755,0.7687912087912088,0.27399267399267396,0.614065934065934
1.6569576669971866,0.7687912087912088,0.27399267399267396,0.614065934065934
1.6636139919974084,0.7687912087912088,0.27399267399267396,0.614065934065934
1.6669141479978862,0.7687912087912088,0.27399267399267396,0.614065934065934
1.6678015409997897,1.3989743589743588,1.4787545787545788,0.5769963369963369
1.668746191997343,1.3989743589743588,1.4787545787545788,0.5769963369963369
1.670411041999614,1.3989743589743588,1.4787545787545788,0.5769963369963369
1.6742956849993789,1.3989743589743588,1.4787545787545788,0.5769963369963369
1.6781464149971725,2.07992673992674,1.514212454212454,0.6656410256410257
1.6819877409980108,2.6682051282051282,2.5465201465201464,3.3
1.685863676997542,2.6682051282051282,2.5465201465201464,3.3
1.6912187729976722,2.6682051282051282,2.5465201465201464,3.3
1.6931371350001427,2.3635897435897433,2.3265201465201466,2.5441025641025643
1.6958085209989804,2.3635897435897433,2.3265201465201466,2.5441025641025643
1.7035066680000455,2.3635897435897433,2.3265201465201466,2.5441025641025643
1.7081258369980787,2.6843223443223443,2.5400732600732603,3.3
1.7082808049999585,2.6843223443223443,2.5400732600732603,3.3
1.7139024529969902,2.6843223443223443,2.5400732600732603,3.3
1.714125463997334,2.6843223443223443,2.5400732600732603,3.3
1.7187360419993638,2.6843223443223443,2.5400732600732603,3.3
1.7195722599972214,3.016336996336996,3.1904029304029304,2.1161904761904764
1.7211718339967774,1.0774358974358973,1.4852014652014651,2.424029304029304
1.7250296530000924,1.0774358974358973,1.4852014652014651,2.424029304029304
1.7295423119976476,1.0774358974358973,1.4852014652014651,2.424029304029304
1.7299062059973949,1.0774358974358973,1.4852014652014651,2.424029304029304
1.7344408119970467,1.0774358974358973,1.4852014652014651,2.424029304029304
1.7347346629976528,1.0774358974358973,1.4852014652014651,2.424029304029304
1.7393124659975001,1.0774358974358973,1.4852014652014651,2.424029304029304
1.739648111997667,0.8082783882783882,1.3095238095238093,2.092014652014652
1.7441465449992393,0.8082783882783882,1.3095238095238093,2.092014652014652
1.7444909609985189,0.8082783882783882,1.3095238095238093,2.092014652014652
1.7497833289999107,0.8082783882783882,1.3095238095238093,2.092014652014652
1.7521624709988828,0.8082783882783882,1.3095238095238093,2.092014652014652
1.7523123329992814,0.8082783882783882,1.3095238095238093,2.092014652014652
1.7586073809980007,0.8082783882783882,1.3095238095238093,2.092014652014652
1.7619626939995214,0.8082783882783882,1.3095238095238093,2.092014652014652
1.7622630609985208,0.8082783882783882,1.3095238095238093,2.092014652014652
1.7677385110000614,0.8082783882783882,1.3095238095238093,2.092014652014652
1.7711000609997427,0.8082783882783882,1.3095238095238093,2.092014652014652
1.7808970569967641,0.8082783882783882,1.3095238095238093,2.092014652014652
1.7903041569989,0.8082783882783882,1.3095238095238093,2.092014652014652
1.8001354079970042,0.9694505494505494,0.18937728937728937,0.5753846153846153
1.8085210229983204,0.9694505494505494,0.18937728937728937,0.5753846153846153
1.8161787479984923,2.6875457875457873,2.5473260073260073,2.553772893772894
1.8233334729993658,3.1646153846153844,2.021904761904762,3.3
1.8293166289986402,3.3,2.4095238095238094,1.0838827838827838
1.8347705749984016,3.3,2.4095238095238094,1.0838827838827838
1.8350257739984954,3.3,2.4095238095238094,1.0838827838827838
1.8436070579991792,3.3,2.4095238095238094,1.0838827838827838
1.852143246000196,3.3,2.4095238095238094,1.0838827838827838
1.859891523999977,3.3,2.4095238095238094,1.0838827838827838
1.867127140998491,3.3,2.4095238095238094,1.0838827838827838
1.8727566380002827,3.3,2.4095238095238094,1.0838827838827838
1.8827622509998037,2.7705494505494506,2.01062271062271,3.3
1.8906822639983147,2.6706227106227107,2.5473260073260073,3.3
1.8973271189970546,2.6706227106227107,2.5473260073260073,3.3
1.9032898849982303,0.523003663003663,0.2917216117216117,0.9541391941391941
1.9092187489986827,0.523003663003663,0.2917216117216117,0.9541391941391941
1.916339170998981,0.3618315018315018,0.3545787545787546,0.46820512820512816
1.9235621849984454,0.3618315018315018,0.3545787545787546,0.46820512820512816
1.9292580379988067,0.3618315018315018,0.3545787545787546,0.46820512820512816
1.9376725839974824,0.10073260073260072,0.5681318681318681,0.45369963369963373
1.9449778309972316,0.10073260073260072,0.5681318681318681,0.45369963369963373
1.9526681729985285,0.10073260073260072,0.5681318681318681,0.45369963369963373
1.9586612379971484,0.10073260073260072,0.5681318681318681,0.45369963369963373
1.9633007839984202,0.10073260073260072,0.5681318681318681,0.45369963369963373
1.9697452820000763,3.3,2.422417582417582,1.1233699633699634
1.9753597039998567,3.3,2.422417582417582,1.1233699633699634
1.986331229996722,1.7656410256410255,2.041245421245421,2.9647619047619047
1.9958633859969268,1.7656410256410255,2.041245421245421,2.9647619047619047
2.0047873299990897,1.7656410256410255,2.041245421245421,2.9647619047619047
2.0137219409989484,1.7656410256410255,2.041245421245421,2.9647619047619047
2.0230240109995066,0.0,0.6994871794871794,0.4786813186813187
2.0316295149968937,1.5206593406593405,1.3562637362637362,0.751062271062271
2.0389799299991864,1.5206593406593405,1.3562637362637362,0.751062271062271
2.0461105959984707,1.3119413919413918,0.805054945054945,0.6398534798534798
2.0522900769974513,0.06769230769230769,0.855018315018315,0.5310622710622711
2.0570478349982295,0.2651282051282051,0.8018315018315018,1.767252747252747
2.0618860449976637,0.2651282051282051,0.8018315018315018,1.767252747252747
2.0674134000000777,0.2651282051282051,0.8018315018315018,1.767252747252747
2.0689718649991846,0.2651282051282051,0.8018315018315018,1.767252747252747
2.0727825989997655,0.2651282051282051,0.8018315018315018,1.767252747252747
2.0773386219989334,3.3,3.3,2.8463003663003663
2.0782688619983674,3.3,3.3,2.8463003663003663
2.0805716759969073,3.3,3.3,2.8463003663003663
2.0807875799982867,3.3,3.3,2.8463003663003663
2.085340247998829,3.3,3.3,2.8463003663003663
2.0856572249977035,3.3,3.3,2.8463003663003663
2.0902300059970003,3.3,3.3,2.8463003663003663
2.0904895209969254,0.5705494505494505,0.2635164835164835,0.5028571428571429
2.095787443999143,0.5705494505494505,0.2635164835164835,0.5028571428571429
2.0981196199973056,0.5705494505494505,0.2635164835164835,0.5028571428571429
2.0983732719978434,0.5705494505494505,0.2635164835164835,0.5028571428571429
2.103635185998428,0.5705494505494505,0.2635164835164835,0.5028571428571429
2.1067061869980535,0.5705494505494505,0.2635164835164835,0.5028571428571429
2.1090499659985653,0.5705494505494505,0.2635164835164835,0.5028571428571429
2.1098753919977753,0.5705494505494505,0.2635164835164835,0.5028571428571429
2.111486537000019,0.5705494505494505,0.2635164835164835,0.5028571428571429
2.1159934009992867,0.5705494505494505,0.2635164835164835,0.5028571428571429
2.1168528460002562,0.5705494505494505,0.2635164835164835,0.5028571428571429
2.1184494239969354,0.5705494505494505,0.2635164835164835,0.5028571428571429
2.122234178998042,0.5705494505494505,0.2635164835164835,0.5028571428571429
2.1274746019989834,0.5705494505494505,0.2635164835164835,0.5028571428571429
2.1313780119999137,0.5705494505494505,0.2635164835164835,0.5028571428571429
2.135126101999049,0.5705494505494505,0.2635164835164835,0.5028571428571429
2.143171847998019,0.5705494505494505,0.2635164835164835,0.5028571428571429
2.1503361189970747,0.5705494505494505,0.2635164835164835,0.5028571428571429
2.155700363997312,0.5705494505494505,0.2635164835164835,0.5028571428571429
2.1560224859968002,0.5705494505494505,0.2635164835164835,0.5028571428571429
2.1646976419979183,0.5705494505494505,0.2635164835164835,0.5028571428571429
2.173613620998367,2.6665934065934067,2.5432967032967033,2.565860805860806
2.180867151997518,3.09047619047619,2.1508424908424906,3.3
2.18560135000007,3.09047619047619,2.1508424908424906,3.3
2.1857409509975696,3.09047619047619,2.1508424908424906,3.3
2.1904912409991084,3.09047619047619,2.1508424908424906,3.3
2.1906084319998627,3.09047619047619,2.1508424908424906,3.3
2.195413262998045,3.09047619047619,2.1508424908424906,3.3
2.1955241809992003,1.510989010989011,0.963003663003663,0.5117216117216117
2.2009707699980936,1.510989010989011,0.963003663003663,0.5117216117216117
2.2019639809986984,1.510989010989011,0.963003663003663,0.5117216117216117
2.202879521999421,1.510989010989011,0.963003663003663,0.5117216117216117
2.2037691629993788,1.510989010989011,0.963003663003663,0.5117216117216117
2.2053819599968847,1.510989010989011,0.963003663003663,0.5117216117216117
2.2102428899997903,1.510989010989011,0.963003663003663,0.5117216117216117
2.2150064509987715,1.510989010989011,0.963003663003663,0.5117216117216117
2.220320726999489,1.510989010989011,0.963003663003663,0.5117216117216117
2.223351458997058,1.510989010989011,0.963003663003663,0.5117216117216117
2.225656293998327,1.510989010989011,0.963003663003663,0.5117216117216117
2.2258615659993666,1.510989010989011,0.963003663003663,0.5117216117216117
2.23069507299806,1.510989010989011,0.963003663003663,0.5117216117216117
2.2308414330000232,0.21838827838827837,0.805054945054945,0.4738461538461538
2.235425648999808,0.21838827838827837,0.805054945054945,0.4738461538461538
2.236311582997587,0.21838827838827837,0.805054945054945,0.4738461538461538
2.2379623879969586,0.21838827838827837,0.805054945054945,0.4738461538461538
2.241744872997515,2.664175824175824,2.545714285714286,3.3
2.246718971997325,2.664175824175824,2.545714285714286,3.3
2.251572989000124,2.664175824175824,2.545714285714286,3.3
2.257390683000267,2.664175824175824,2.545714285714286,3.3
2.262758204997226,2.664175824175824,2.545714285714286,3.3
2.264485578998574,2.664175824175824,2.545714285714286,3.3
2.2683653089989093,2.664175824175824,2.545714285714286,3.3
2.2722128149980563,0.6052014652014651,0.7937728937728937,0.5205860805860806
2.2778045829982148,1.0758241758241758,1.4997069597069597,2.3813186813186813
2.278046742998413,1.0758241758241758,1.4997069597069597,2.3813186813186813
2.2827322619996266,1.0758241758241758,1.4997069597069597,2.3813186813186813
2.2829172569981893,1.0758241758241758,1.4997069597069597,2.3813186813186813
2.287662446997274,1.0758241758241758,1.4997069597069597,2.3813186813186813
2.2878677859989693,1.0758241758241758,1.4997069597069597,2.3813186813186813
2.2926912889997766,1.0758241758241758,1.4997069597069597,2.3813186813186813
2.301215649997175,2.652087912087912,2.548937728937729,2.565054945054945
2.3077233559997694,2.6617582417582417,2.548937728937729,3.3
2.3125247639982263,2.6545054945054947,3.2290842490842486,2.5287912087912088
2.3189002529979916,2.6545054945054947,3.2290842490842486,2.5287912087912088
2.324056572997506,2.6545054945054947,3.2290842490842486,2.5287912087912088
2.3275700060003146,2.6545054945054947,3.2290842490842486,2.5287912087912088
2.3353769079985796,2.6545054945054947,3.2290842490842486,2.5287912087912088
2.342541654998058,2.6545054945054947,3.2290842490842486,2.5287912087912088
2.347465001999808,2.6714285714285713,2.5505494505494504,3.3
2.3526709389989264,2.6714285714285713,2.5505494505494504,3.3
2.3544069469971873,2.6714285714285713,2.5505494505494504,3.3
2.3574791949977225,2.6714285714285713,2.5505494505494504,3.3
2.359710028998961,2.6714285714285713,2.5505494505494504,3.3
2.3599968799971975,2.6714285714285713,2.5505494505494504,3.3
2.366103837997798,1.6487912087912087,1.701978021978022,3.3
2.370597140998143,2.6585347985347987,3.3,3.3
2.3709108309994917,2.6585347985347987,3.3,3.3
2.3791565309984435,2.9986080586080583,2.605347985347985,2.5594139194139194
2.385502801000257,2.9986080586080583,2.605347985347985,2.5594139194139194
2.3912934879990644,2.253992673992674,1.9461538461538461,0.6205128205128204
2.39813025499825,2.253992673992674,1.9461538461538461,0.6205128205128204
2.401617853996868,2.253992673992674,1.9461538461538461,0.6205128205128204
2.401892041998508,2.253992673992674,1.9461538461538461,0.6205128205128204
2.406160974998784,2.253992673992674,1.9461538461538461,0.6205128205128204
2.4083963769990078,2.253992673992674,1.9461538461538461,0.6205128205128204
2.4092124050002894,2.253992673992674,1.9461538461538461,0.6205128205128204
2.410763687999861,2.253992673992674,1.9461538461538461,0.6205128205128204
2.415060363997327,3.0034432234432233,2.5473260073260073,2.561025641025641
2.4166437089988904,0.5334798534798535,1.1048351648351646,1.8784615384615382
2.4208957459995872,2.664175824175824,2.544908424908425,3.3
2.4231416389993683,3.3,3.3,2.7463736263736265
2.4235423489990353,3.3,3.3,2.7463736263736265
2.4283039570000255,3.3,3.3,2.7463736263736265
2.4284290809991944,0.8977289377289376,0.14747252747252745,0.5826373626373627
2.433274140999856,0.8977289377289376,0.14747252747252745,0.5826373626373627
2.4334232740002335,0.8977289377289376,0.14747252747252745,0.5826373626373627
2.4384209780000674,0.8977289377289376,0.14747252747252745,0.5826373626373627
2.4433842479993473,0.8977289377289376,0.14747252747252745,0.5826373626373627
2.447561995999422,0.8977289377289376,0.14747252747252745,0.5826373626373627
2.4496847949994844,0.8977289377289376,0.14747252747252745,0.5826373626373627
2.451121546997456,0.8977289377289376,0.14747252747252745,0.5826373626373627
2.456512009997823,0.8977289377289376,0.14747252747252745,0.5826373626373627
2.4589779319976515,2.6617582417582417,2.5441025641025643,2.5441025641025643
2.464837751998857,2.6617582417582417,2.5441025641025643,2.5441025641025643
2.4721206329995766,2.6246886446886446,2.036410256410256,0.8252014652014652
2.4766844129990204,0.7051282051282051,0.21032967032967032,0.614065934065934
2.4775371359974088,2.6617582417582417,2.5432967032967033,3.3
2.4791427860000113,2.6617582417582417,2.5432967032967033,3.3
2.4830156289972365,2.6617582417582417,2.5432967032967033,3.3
2.4875239389984927,2.6488644688644687,3.3,2.7657142857142856
2.488373406999017,2.6488644688644687,3.3,2.7657142857142856
2.4899629799983813,2.6488644688644687,3.3,2.7657142857142856
2.493544719000056,2.6488644688644687,3.3,2.7657142857142856
2.4937464879985782,1.046007326007326,0.6906227106227106,0.5262271062271061
2.4986485749977874,1.046007326007326,0.6906227106227106,0.5262271062271061
2.503474634999293,1.046007326007326,0.6906227106227106,0.5262271062271061
2.503568189997168,1.046007326007326,0.6906227106227106,0.5262271062271061
2.5084011189974262,1.046007326007326,0.6906227106227106,0.5262271062271061
2.5085466179989453,1.046007326007326,0.6906227106227106,0.5262271062271061
2.513366870000027,1.046007326007326,0.6906227106227106,0.5262271062271061
2.513512584999262,1.046007326007326,0.6906227106227106,0.5262271062271061
2.518326764999074,1.046007326007326,0.6906227106227106,0.5262271062271061
2.51842294999733,1.046007326007326,0.6906227106227106,0.5262271062271061
2.523250885999005,1.046007326007326,0.6906227106227106,0.5262271062271061
2.528836304998549,2.2024175824175822,1.842197802197802,0.6551648351648351
2.529627890999109,0.09589743589743589,0.5641025641025641,0.5141391941391941
2.5318120349984383,0.09589743589743589,0.5641025641025641,0.5141391941391941
2.532641949997924,0.09589743589743589,0.5641025641025641,0.5141391941391941
2.5341859649997787,0.09589743589743589,0.5641025641025641,0.5141391941391941
2.5384942349992343,0.09589743589743589,0.5641025641025641,0.5141391941391941
2.541409046996705,2.6682051282051282,2.545714285714286,3.3
2.5443695389985805,2.6682051282051282,2.545714285714286,3.3
2.5478815119968203,3.3,2.407106227106227,1.2192673992673992
2.548116938000021,3.3,2.407106227106227,1.2192673992673992
2.5529904759969213,3.3,2.407106227106227,1.2192673992673992
2.558049649000168,3.3,2.407106227106227,1.2192673992673992
2.562263042997074,3.3,2.407106227106227,1.2192673992673992
2.5644196779976483,3.3,2.407106227106227,1.2192673992673992
2.5652499520001584,3.3,2.407106227106227,1.2192673992673992
2.5673699799990573,3.3,2.407106227106227,1.2192673992673992
2.568195838997781,3.3,2.407106227106227,1.2192673992673992
2.5697021819978545,3.3,2.407106227106227,1.2192673992673992
2.5739903679968847,3.3,2.407106227106227,1.2192673992673992
2.576101300997834,1.349010989010989,1.805934065934066,2.631135531135531
2.576907481998205,1.349010989010989,1.805934065934066,2.631135531135531
2.5790167249979277,2.664175824175824,2.5465201465201464,3.3
2.5798146609995456,2.664175824175824,2.5465201465201464,3.3
2.5819615660002455,2.664175824175824,2.5465201465201464,3.3
2.582780818000174,2.664175824175824,2.5465201465201464,3.3
2.5842801469989354,2.664175824175824,2.5465201465201464,3.3
2.589072942999337,2.664175824175824,2.5465201465201464,3.3
2.5940298969981086,2.664175824175824,2.5465201465201464,3.3
2.59897470499709,2.664175824175824,2.5465201465201464,3.3
2.6031386379981996,2.664175824175824,2.5465201465201464,3.3
2.6053971289984474,2.664175824175824,2.5465201465201464,3.3
2.6062120809983753,1.5625641025641024,1.5045421245421244,0.6148717948717949
2.6077033869987645,0.06043956043956044,0.5987545787545787,0.4851282051282051
2.611895795998862,0.06043956043956044,0.5987545787545787,0.4851282051282051
2.614739422999264,0.06043956043956044,0.5987545787545787,0.4851282051282051
2.6182200199982617,0.06043956043956044,0.5987545787545787,0.4851282051282051
2.6184956739998597,0.06043956043956044,0.5987545787545787,0.4851282051282051
2.6233462099989993,0.06043956043956044,0.5987545787545787,0.4851282051282051
2.628424800997891,2.9744322344322343,3.3,2.8374358974358973
2.633015188999707,2.9744322344322343,3.3,2.8374358974358973
2.633191678996809,2.9744322344322343,3.3,2.8374358974358973
2.6381093119998695,2.9744322344322343,3.3,2.8374358974358973
2.6428705069993157,2.9744322344322343,3.3,2.8374358974358973
2.6486441050001304,2.9744322344322343,3.3,2.8374358974358973
2.648885088998213,0.4762637362637362,0.826007326007326,0.46820512820512816
2.6542158579977695,0.4762637362637362,0.826007326007326,0.46820512820512816
2.656673759000114,0.49157509157509155,1.0395604395604394,1.8768498168498167
2.6568449970000074,2.702051282051282,3.3,3.3
2.6613815679993422,2.702051282051282,3.3,3.3
2.662935352000204,3.3,2.8986813186813185,2.552967032967033
2.6665389689987933,2.685934065934066,3.116263736263736,2.2564102564102564
2.666647029996966,1.44007326007326,1.4827838827838828,0.5213919413919413
2.6715587149992643,1.44007326007326,1.4827838827838828,0.5213919413919413
2.676366583997151,3.3,3.3,2.8390476190476193
2.6813173449991154,2.722197802197802,3.3,3.3
2.6871724519987765,2.722197802197802,3.3,3.3
2.691735913998855,0.809084249084249,0.16036630036630037,0.6398534798534798
2.6920305829989957,0.809084249084249,0.16036630036630037,0.6398534798534798
2.697204313997645,0.809084249084249,0.16036630036630037,0.6398534798534798
2.7010231519998342,0.809084249084249,0.16036630036630037,0.6398534798534798
2.7055977819982218,2.0686446886446883,1.9880586080586078,2.5432967032967033
2.7065288669982692,2.0686446886446883,1.9880586080586078,2.5432967032967033
2.7081551529990975,2.0686446886446883,1.9880586080586078,2.5432967032967033
2.711895921998803,2.0686446886446883,1.9880586080586078,2.5432967032967033
2.716468997998163,0.5520146520146519,1.0846886446886446,1.9147252747252748
2.717348538997612,0.5520146520146519,1.0846886446886446,1.9147252747252748
2.7189180409986875,0.5520146520146519,1.0846886446886446,1.9147252747252748
2.7226818290000665,0.5520146520146519,1.0846886446886446,1.9147252747252748
2.7272217069985345,0.5520146520146519,1.0846886446886446,1.9147252747252748
2.7274774559991783,3.2935531135531133,2.3563369963369962,0.8493772893772893
2.732240807999915,3.2935531135531133,2.3563369963369962,0.8493772893772893
2.7383818959970085,3.2935531135531133,2.3563369963369962,0.8493772893772893
2.7434825519994774,3.2935531135531133,2.3563369963369962,0.8493772893772893
2.748995472997194,3.2935531135531133,2.3563369963369962,0.8493772893772893
2.7542473180001252,0.11926739926739927,0.5963369963369963,0.5286446886446886
2.756620385000133,0.11926739926739927,0.5963369963369963,0.5286446886446886
2.7568473089995678,0.11926739926739927,0.5963369963369963,0.5286446886446886
2.762267966998479,0.11926739926739927,0.5963369963369963,0.5286446886446886
2.764544344998285,0.11926739926739927,0.5963369963369963,0.5286446886446886
2.7648442549980246,2.403076923076923,1.9558241758241757,0.6559706959706959
2.7696275819980656,2.403076923076923,1.9558241758241757,0.6559706959706959
2.775164926999423,2.403076923076923,1.9558241758241757,0.6559706959706959
2.776121544997295,2.403076923076923,1.9558241758241757,0.6559706959706959
2.7771258689972456,2.403076923076923,1.9558241758241757,0.6559706959706959
2.778030822999426,2.403076923076923,1.9558241758241757,0.6559706959706959
2.7797214049969625,2.403076923076923,1.9558241758241757,0.6559706959706959
2.7829025229984836,2.403076923076923,1.9558241758241757,0.6559706959706959
2.7848342979996232,3.0316483516483514,2.1959706959706957,2.541684981684982
2.7883033589969273,3.0316483516483514,2.1959706959706957,2.541684981684982
2.7947013409975625,0.42468864468864465,0.8074725274725274,0.37150183150183147
2.801598947997263,0.42468864468864465,0.8074725274725274,0.37150183150183147
2.8067400489999272,3.042124542124542,3.3,2.8100366300366297
2.810737424999388,3.3,2.9808791208791208,1.950989010989011
2.814256177000061,3.3,2.9808791208791208,1.950989010989011
2.82334547299979,3.3,2.9808791208791208,1.950989010989011
2.8320783019989904,3.3,2.9808791208791208,1.950989010989011
2.83856018699953,1.2531135531135529,1.3756043956043955,0.5302564102564102
2.8443169299971487,1.2531135531135529,1.3756043956043955,0.5302564102564102
2.853459154997836,0.9726739926739927,1.224102564102564,0.448058608058608
2.862398241999472,0.9726739926739927,1.224102564102564,0.448058608058608
2.869678348997695,0.9726739926739927,1.224102564102564,0.448058608058608
2.875496654000017,0.1829304029304029,0.7196336996336996,0.4222710622710622
2.8830904609967547,0.1829304029304029,0.7196336996336996,0.4222710622710622
2.887109954997868,0.1829304029304029,0.7196336996336996,0.4222710622710622
2.890343880997534,0.1829304029304029,0.7196336996336996,0.4222710622710622
2.8919726479980454,0.1829304029304029,0.7196336996336996,0.4222710622710622
2.900838784997177,0.1829304029304029,0.7196336996336996,0.4222710622710622
2.9081928369996604,2.681098901098901,2.5465201465201464,3.3
2.913521773996763,2.681098901098901,2.5465201465201464,3.3
2.9155501469977025,2.681098901098901,2.5465201465201464,3.3
2.915962202998344,2.681098901098901,2.5465201465201464,3.3
2.921507507999195,2.681098901098901,2.5465201465201464,3.3
2.9216428019972227,2.681098901098901,2.5465201465201464,3.3
2.9278877879987704,2.681098901098901,2.5465201465201464,3.3
2.9320248699987133,2.681098901098901,2.5465201465201464,3.3
2.933712320998893,3.042124542124542,3.3,2.767326007326007
2.9372064969975327,0.5987545787545787,0.21032967032967032,0.9219047619047619
2.9467705269998987,2.6673992673992672,3.3,3.1428571428571423
2.954369686998689,2.6673992673992672,3.3,3.1428571428571423
2.9610877389968664,2.6673992673992672,3.3,3.1428571428571423
2.967543325998122,2.6673992673992672,3.3,3.1428571428571423
2.974031717996695,2.6673992673992672,3.3,3.1428571428571423
2.980737723999482,2.6673992673992672,3.3,3.1428571428571423
2.9863930350002192,2.6673992673992672,3.3,3.1428571428571423
2.9916861609999614,2.6673992673992672,3.3,3.1428571428571423
2.995968497998547,2.6673992673992672,3.3,3.1428571428571423
2.9963226159998158,2.9792673992673993,3.3,3.3
3.000522310998349,2.9792673992673993,3.3,3.3
3.0021542699978454,2.9792673992673993,3.3,3.3
3.0062380069975916,2.9792673992673993,3.3,3.3
3.0093555719977303,2.9792673992673993,3.3,3.3
3.0125844670001243,2.9792673992673993,3.3,3.3
3.0128875709997374,2.9792673992673993,3.3,3.3
3.018627908997587,2.9792673992673993,3.3,3.3
3.0240774550002243,2.9792673992673993,3.3,3.3
3.024911261996749,1.506959706959707,1.9405128205128204,3.3
3.0272509579990583,1.506959706959707,1.9405128205128204,3.3
3.0339113809968694,1.506959706959707,1.9405128205128204,3.3
3.039795486998628,1.506959706959707,1.9405128205128204,3.3
3.048903719998634,3.3,2.5118681318681317,2.5505494505494504
3.055273756999668,0.448058608058608,0.10315018315018315,0.6132600732600733
3.0596902029974444,0.755091575091575,1.2724542124542124,2.071062271062271
3.061402248997183,0.755091575091575,1.2724542124542124,2.071062271062271
3.0657489119985257,0.755091575091575,1.2724542124542124,2.071062271062271
3.0728480359975947,0.755091575091575,1.2724542124542124,2.071062271062271
3.078499829000066,2.705274725274725,1.5367765567765568,3.1404395604395603
3.0789203139975143,2.705274725274725,1.5367765567765568,3.1404395604395603
3.084791776997008,2.705274725274725,1.5367765567765568,3.1404395604395603
3.08934058199884,2.626300366300366,1.9203663003663003,0.7695970695970695
3.089769702997728,2.626300366300366,1.9203663003663003,0.7695970695970695
3.095923059998313,2.626300366300366,1.9203663003663003,0.7695970695970695
3.099295689997234,1.8832967032967032,1.3433699633699634,0.6027838827838827
3.10039975899781,2.6577289377289377,2.548937728937729,3.22021978021978
3.1006934819997696,2.6577289377289377,2.548937728937729,3.22021978021978
3.105594692999148,2.6577289377289377,2.548937728937729,3.22021978021978
3.1115300109995587,2.681098901098901,2.5465201465201464,3.3
3.117112002997601,0.4754578754578754,0.7083516483516483,0.4859340659340659
3.1172734949977894,0.4754578754578754,0.7083516483516483,0.4859340659340659
3.1234707109979354,0.4754578754578754,0.7083516483516483,0.4859340659340659
3.129294757000025,0.4754578754578754,0.7083516483516483,0.4859340659340659
3.1383305749986903,0.4754578754578754,0.7083516483516483,0.4859340659340659
3.145953911996912,2.262051282051282,1.51018315018315,0.6696703296703297
3.1505734999991546,2.262051282051282,1.51018315018315,0.6696703296703297
3.150810836999881,2.262051282051282,1.51018315018315,0.6696703296703297
3.15567138699771,3.3,3.3,2.83018315018315
3.1559922089982138,3.3,3.3,2.83018315018315
3.1594785139968735,3.3,3.3,2.83018315018315
3.1597311819969036,3.3,3.3,2.0936263736263734
3.1666625069992733,3.3,3.3,2.0936263736263734
3.1706001439997635,3.3,3.3,2.0936263736263734
3.175139268998464,3.3,3.3,2.0936263736263734
3.175451292998332,2.013846153846154,1.6673260073260072,0.838095238095238
3.18197099399913,2.013846153846154,1.6673260073260072,0.838095238095238
3.186226474997966,2.652087912087912,3.3,2.6827106227106228
3.1881098479971115,1.3377289377289376,1.3917216117216116,0.5028571428571429
3.1909523839967733,1.3377289377289376,1.3917216117216116,0.5028571428571429
3.1967312509987096,3.04051282051282,2.5521611721611723,2.561025641025641
3.2032799480002723,3.04051282051282,2.5521611721611723,2.561025641025641
3.207128694997664,2.436117216117216,1.8397802197802198,0.7309157509157509
3.212653053997201,2.436117216117216,1.8397802197802198,0.7309157509157509
3.21296017900022,2.436117216117216,1.8397802197802198,0.7309157509157509
3.2183214649994625,1.8865201465201462,1.2063736263736262,0.5778021978021978
3.2207860719972814,2.0613919413919413,1.569010989010989,0.8002197802197801
3.2254195809982775,2.0613919413919413,1.569010989010989,0.8002197802197801
3.2258344659967406,2.0613919413919413,1.569010989010989,0.8002197802197801
3.2331935399997747,2.0613919413919413,1.569010989010989,0.8002197802197801
3.237205664998328,2.0613919413919413,1.569010989010989,0.8002197802197801
3.2446346519973304,2.706886446886447,3.3,3.3
3.248844162997557,2.706886446886447,3.3,3.3
3.2505751219978265,2.706886446886447,3.3,3.3
3.25468479799747,2.706886446886447,3.3,3.3
3.2571255349976127,2.706886446886447,3.3,3.3
3.265122402997804,2.706886446886447,3.3,3.3
3.270629287999327,2.706886446886447,3.3,3.3
3.270944702999259,2.706886446886447,3.3,3.3
3.279264595999848,2.706886446886447,3.3,3.3
3.2836039229987364,2.2483516483516484,1.7197069597069596,0.9122344322344322
3.284037883997371,2.2483516483516484,1.7197069597069596,0.9122344322344322
3.2896975529984047,2.2483516483516484,1.7197069597069596,0.9122344322344322
3.289837072999944,0.8775824175824175,0.19985347985347984,0.7768498168498168
3.298056846997497,2.8229304029304028,2.0428571428571427,3.3
3.305223308998393,2.8229304029304028,2.0428571428571427,3.3
3.3134675539986347,2.8229304029304028,2.0428571428571427,3.3
3.3176045999971393,2.8229304029304028,2.0428571428571427,3.3
3.3208764739974868,2.681098901098901,2.5473260073260073,3.3
3.321172938998643,2.378095238095238,2.713333333333333,1.851062271062271
3.326461823999125,2.378095238095238,2.713333333333333,1.851062271062271
3.330742078000185,2.378095238095238,2.713333333333333,1.851062271062271
3.331022653997934,2.378095238095238,2.713333333333333,1.851062271062271
3.335431779996725,2.378095238095238,2.713333333333333,1.851062271062271
3.3370563539974682,2.378095238095238,2.713333333333333,1.851062271062271
3.3408855849993415,2.378095238095238,2.713333333333333,1.851062271062271
3.3474129309979617,2.378095238095238,2.713333333333333,1.851062271062271
3.3508051259996137,2.378095238095238,2.713333333333333,1.851062271062271
3.351077338997129,2.378095238095238,2.713333333333333,1.851062271062271
3.3556866359976993,2.378095238095238,2.713333333333333,1.851062271062271
3.3567233689973364,2.378095238095238,2.713333333333333,1.851062271062271
3.3570043299987447,2.378095238095238,2.713333333333333,1.851062271062271
3.36409298199942,2.378095238095238,2.713333333333333,1.851062271062271
3.368584338997607,2.378095238095238,2.713333333333333,1.851062271062271
3.3694382839967147,2.378095238095238,2.713333333333333,1.851062271062271
3.370344473998557,2.378095238095238,2.713333333333333,1.851062271062271
3.3721981460003008,2.378095238095238,2.713333333333333,1.851062271062271
3.3755809479989694,1.9316483516483516,2.2556043956043954,3.017142857142857
3.37579476099927,1.9316483516483516,2.2556043956043954,3.017142857142857
3.3832494279995444,2.690769230769231,2.548937728937729,3.3
3.3871755989966914,2.690769230769231,2.548937728937729,3.3
3.3916847039981803,2.690769230769231,2.548937728937729,3.3
3.391946359999565,2.690769230769231,2.548937728937729,3.3
3.4008482930003083,2.0646153846153843,2.339413919413919,3.171868131868132
3.408814286998677,2.6649816849816848,2.5424908424908423,2.561831501831502
3.4222538029971474,2.6649816849816848,2.5424908424908423,2.561831501831502
3.4402651519994834,2.6649816849816848,2.5424908424908423,2.561831501831502
3.4425341529968136,2.6649816849816848,2.5424908424908423,2.561831501831502
3.453146507999918,2.6649816849816848,2.5424908424908423,2.561831501831502
3.4579879299999448,2.6649816849816848,2.5424908424908423,2.561831501831502
3.468209634997038,2.6649816849816848,2.5424908424908423,2.561831501831502
3.472971527997288,2.6649816849816848,2.5424908424908423,2.561831501831502
3.4802471729999525,2.6649816849816848,2.5424908424908423,2.561831501831502
3.4846827169967582,2.6682051282051282,2.5521611721611723,3.3
3.4857118359977903,1.9735531135531135,1.6367032967032966,0.5778021978021978
3.486725499999011,1.9735531135531135,1.6367032967032966,0.5778021978021978
3.487035415997525,1.9735531135531135,1.6367032967032966,0.5778021978021978
3.492371700998774,1.9735531135531135,1.6367032967032966,0.5778021978021978
3.496713770997303,1.9735531135531135,1.6367032967032966,0.5778021978021978
3.496863274998759,2.677069597069597,3.3,3.3
3.5020536149968393,2.677069597069597,3.3,3.3
3.5046874649997335,2.677069597069597,3.3,3.3
3.5115645409969147,2.677069597069597,3.3,3.3
3.515522420999332,2.677069597069597,3.3,3.3
3.519469859998935,2.677069597069597,3.3,3.3
3.5233481539980858,2.677069597069597,3.3,3.3
3.5311453549984435,2.677069597069597,3.3,3.3
3.538187427999219,0.47062271062271055,0.24498168498168496,0.5641025641025641
3.544740738998371,2.0476923076923077,1.514212454212454,0.9098168498168498
3.5495638549982687,2.0476923076923077,1.514212454212454,0.9098168498168498
3.5566139799993834,2.0476923076923077,1.514212454212454,0.9098168498168498
3.564326247997087,2.0476923076923077,1.514212454212454,0.9098168498168498
3.5701450559972727,2.9695970695970697,3.3,2.8503296703296703
3.5784183369978564,0.1668131868131868,0.5890842490842491,0.5761904761904761
3.582714295000187,0.1668131868131868,0.5890842490842491,0.5761904761904761
3.5835489029996097,0.1668131868131868,0.5890842490842491,0.5761904761904761
3.585184343999572,0.1668131868131868,0.5890842490842491,0.5761904761904761
3.589445960999001,0.1668131868131868,0.5890842490842491,0.5761904761904761
3.5919431849979446,0.1668131868131868,0.5890842490842491,0.5761904761904761
3.592090828999062,0.1668131868131868,0.5890842490842491,0.5761904761904761
3.602719274997071,0.1668131868131868,0.5890842490842491,0.5761904761904761
3.6147321669996018,0.1668131868131868,0.5890842490842491,0.5761904761904761
3.6231490039972414,0.1668131868131868,0.5890842490842491,0.5761904761904761
3.633487952996802,0.1668131868131868,0.5890842490842491,0.5761904761904761
3.639406667996809,0.1668131868131868,0.5890842490842491,0.5761904761904761
3.6472906919989327,2.677069597069597,2.5521611721611723,3.3
3.6520163979985227,2.677069597069597,2.5521611721611723,3.3
3.652260735998425,2.714945054945055,2.545714285714286,2.5634432234432234
3.657827439998073,2.714945054945055,2.545714285714286,2.5634432234432234
3.65866303799703,2.075091575091575,1.5158241758241757,0.6914285714285714
3.661957322998205,2.075091575091575,1.5158241758241757,0.6914285714285714
3.662393937000161,2.075091575091575,1.5158241758241757,0.6914285714285714
3.6665694609982893,2.075091575091575,1.5158241758241757,0.6914285714285714
3.6689655359987228,3.3,2.8068131868131867,1.7543589743589743
3.674419022998336,3.3,2.8068131868131867,1.7543589743589743
3.6761514999998326,3.3,2.8068131868131867,1.7543589743589743
3.6811924659996293,3.3,2.8068131868131867,1.7543589743589743
3.6833787319992553,2.681098901098901,2.5521611721611723,3.3
3.6842548869972234,2.681098901098901,2.5521611721611723,3.3
3.6858253799982776,2.681098901098901,2.5521611721611723,3.3
3.689579832000163,2.681098901098901,2.5521611721611723,3.3
3.696156305999466,2.681098901098901,2.5521611721611723,3.3
3.7000754000000597,2.681098901098901,2.5521611721611723,3.3
3.703268555997056,2.681098901098901,2.5521611721611723,3.3
3.7056473859993275,2.681098901098901,2.5521611721611723,3.3
3.705818847996852,2.61018315018315,1.9284249084249083,0.5987545787545787
3.7133542929987016,2.61018315018315,1.9284249084249083,0.5987545787545787
3.717469682000228,0.3142857142857142,0.4827106227106227,0.5987545787545787
3.719773548997182,0.3142857142857142,0.4827106227106227,0.5987545787545787
3.7199813589977566,0.3142857142857142,0.4827106227106227,0.5987545787545787
3.725275682998472,0.3142857142857142,0.4827106227106227,0.5987545787545787
3.729178276997118,0.3142857142857142,0.4827106227106227,0.5987545787545787
3.7326556609987165,0.1926007326007326,0.30622710622710625,0.502051282051282
3.732951714999217,0.1926007326007326,0.30622710622710625,0.502051282051282
3.737480304997007,0.1926007326007326,0.30622710622710625,0.502051282051282
3.7383737609998207,0.1926007326007326,0.30622710622710625,0.502051282051282
3.7400060899999517,0.1926007326007326,0.30622710622710625,0.502051282051282
3.745672378998279,0.1926007326007326,0.30622710622710625,0.502051282051282
3.7459122099971864,0.1926007326007326,0.30622710622710625,0.502051282051282
3.75133246799669,0.1926007326007326,0.30622710622710625,0.502051282051282
3.7529161109996494,0.1926007326007326,0.30622710622710625,0.502051282051282
3.756832464998297,0.1926007326007326,0.30622710622710625,0.502051282051282
3.7633847249999235,0.1926007326007326,0.30622710622710625,0.502051282051282
3.7666215139979613,0.1926007326007326,0.30622710622710625,0.502051282051282
3.768295080997632,2.4216117216117214,1.834139194139194,0.7172161172161172
3.7714321949970326,1.3973626373626373,0.4464468864468864,0.796996336996337
3.7730412889977742,2.3579487179487177,1.2780952380952382,3.269377289377289
3.7786011759999383,2.3579487179487177,1.2780952380952382,3.269377289377289
3.778932271998201,2.3579487179487177,1.2780952380952382,3.269377289377289
3.7842306549973728,2.3579487179487177,1.2780952380952382,3.269377289377289
3.785977509996883,2.3579487179487177,1.2780952380952382,3.269377289377289
3.7891317819994583,2.3579487179487177,1.2780952380952382,3.269377289377289
3.7906909639968944,2.3579487179487177,1.2780952380952382,3.269377289377289
3.7976005639975483,2.3579487179487177,1.2780952380952382,3.269377289377289
3.8015097489987966,2.3579487179487177,1.2780952380952382,3.269377289377289
3.806087774999469,2.3579487179487177,1.2780952380952382,3.269377289377289
3.806293232999451,2.3579487179487177,1.2780952380952382,3.269377289377289
3.814067871997395,2.3579487179487177,1.2780952380952382,3.269377289377289
3.819244174999767,2.3579487179487177,1.2780952380952382,3.269377289377289
3.8214679039992916,2.655311355311355,2.548937728937729,3.3
3.8218257389999053,2.655311355311355,2.548937728937729,3.3
3.8309649729999364,2.655311355311355,2.548937728937729,3.3
3.834845243000018,0.10315018315018315,0.5149450549450549,0.5592673992673992
3.838577049999003,0.10315018315018315,0.5149450549450549,0.5592673992673992
3.838698478997685,0.10315018315018315,0.5149450549450549,0.5592673992673992
3.84561906199815,0.10315018315018315,0.5149450549450549,0.5592673992673992
3.8517135019974376,0.10315018315018315,0.5149450549450549,0.5592673992673992
3.8552491329974146,0.10315018315018315,0.5149450549450549,0.5592673992673992
3.862691079997603,0.10315018315018315,0.5149450549450549,0.5592673992673992
3.8661695749979117,2.169377289377289,1.888131868131868,3.3
3.8663937959972827,2.169377289377289,1.888131868131868,3.3
3.87103697099883,2.169377289377289,1.888131868131868,3.3
3.8712783089977165,2.169377289377289,1.888131868131868,3.3
3.877783419997286,2.169377289377289,1.888131868131868,3.3
3.883272022998426,2.169377289377289,1.888131868131868,3.3
3.883397576999414,2.169377289377289,1.888131868131868,3.3
3.8879050059986184,2.169377289377289,1.888131868131868,3.3
3.8882053649977024,2.169377289377289,1.888131868131868,3.3
3.8947429369982274,2.169377289377289,1.888131868131868,3.3
3.8982152859971393,2.169377289377289,1.888131868131868,3.3
3.9037548929991317,2.169377289377289,1.888131868131868,3.3
3.9047981719995732,2.721391941391941,2.561831501831502,2.561025641025641
3.9056589659994643,2.721391941391941,2.561831501831502,2.561025641025641
3.9083166059972427,2.721391941391941,2.561831501831502,2.561025641025641
3.91404207999949,2.721391941391941,2.561831501831502,2.561025641025641
3.9197593579992827,2.721391941391941,2.561831501831502,2.561025641025641
3.920624577000126,0.622124542124542,1.4916483516483516,0.9573626373626374
3.9222965209992253,0.622124542124542,1.4916483516483516,0.9573626373626374
3.927125097998214,2.7165567765567764,2.552967032967033,2.565860805860806
3.9320731359985075,2.7165567765567764,2.552967032967033,2.565860805860806
3.9351619529988966,2.7165567765567764,2.552967032967033,2.565860805860806
3.936996624997846,2.7165567765567764,2.552967032967033,2.565860805860806
3.939381197997136,2.7165567765567764,2.552967032967033,2.565860805860806
3.939622199999576,2.7165567765567764,2.552967032967033,2.565860805860806
3.94637227199928,2.7165567765567764,2.552967032967033,2.565860805860806
3.950229293997836,2.7165567765567764,2.552967032967033,2.565860805860806
3.9541202789987437,2.7165567765567764,2.552967032967033,2.565860805860806
3.95793091899759,2.7165567765567764,2.552967032967033,2.565860805860806
3.9662821530000656,2.3426373626373627,1.8639560439560439,1.0846886446886446
3.9715720969979884,2.3426373626373627,1.8639560439560439,1.0846886446886446
3.973253737996856,1.3328937728937729,0.38358974358974357,0.7446153846153846
3.978625107996777,1.3328937728937729,0.38358974358974357,0.7446153846153846
3.9790841629983333,1.3328937728937729,0.38358974358974357,0.7446153846153846
3.9835252029988624,2.518315018315018,2.772161172161172,1.7495238095238095
3.984419155996875,1.5569230769230769,1.9123076923076923,3.129157509157509
3.9860475119967305,1.5569230769230769,1.9123076923076923,3.129157509157509
3.989142105998326,1.5569230769230769,1.9123076923076923,3.129157509157509
3.9935792349970143,1.5569230769230769,1.9123076923076923,3.129157509157509
3.993961355998181,3.3,3.3,2.90029304029304
3.9981028499969398,3.3,3.3,2.90029304029304
3.999794193998241,3.3,3.3,2.90029304029304
4.003898330000084,3.3,3.3,2.90029304029304
4.006946268997126,2.6923809523809523,2.5432967032967033,2.565860805860806
4.009970655999496,2.6923809523809523,2.5432967032967033,2.565860805860806
4.014850981999189,2.6923809523809523,2.5432967032967033,2.565860805860806
4.017340844999126,2.6923809523809523,2.5432967032967033,2.565860805860806
4.027356282000255,2.6923809523809523,2.5432967032967033,2.565860805860806
4.033076783998695,2.5513553113553114,2.764908424908425,1.7495238095238095
4.03837138399831,0.28608058608058606,0.3021978021978022,1.0556776556776555
4.041522112998791,0.28608058608058606,0.3021978021978022,1.0556776556776555
4.044032295998477,0.28608058608058606,0.3021978021978022,1.0556776556776555
4.0496989139974175,0.28608058608058606,0.3021978021978022,1.0556776556776555
4.055062327999622,0.28608058608058606,0.3021978021978022,1.0556776556776555
4.0575686849988415,0.28608058608058606,0.3021978021978022,1.0556776556776555
4.057703485999809,0.28608058608058606,0.3021978021978022,1.0556776556776555
4.067403451997961,0.28608058608058606,0.3021978021978022,1.0556776556776555
4.074061378996703,2.7036630036630034,2.5521611721611723,2.5706959706959704
4.081012558999646,2.7036630036630034,2.5521611721611723,2.5706959706959704
4.084181529997295,2.7036630036630034,2.5521611721611723,2.5706959706959704
4.0858402289995865,2.7036630036630034,2.5521611721611723,2.5706959706959704
4.0896589160001895,2.7036630036630034,2.5521611721611723,2.5706959706959704
4.096240561997547,2.7036630036630034,2.5521611721611723,2.5706959706959704
4.101648902997113,0.28930402930402926,0.7953846153846154,1.535164835164835
4.101931381999748,0.28930402930402926,0.7953846153846154,1.535164835164835
4.107230716999766,0.28930402930402926,0.7953846153846154,1.535164835164835
4.109954943996854,0.0,0.6003663003663003,0.48835164835164835
4.11619862599764,0.0,0.6003663003663003,0.48835164835164835
4.120074506998208,3.3,3.3,3.3
4.125560275999305,3.3,3.3,3.3
4.127089377998345,3.3,3.3,3.3
4.132598873999086,0.0975091575091575,0.5939194139194138,0.49479853479853475
4.132886213999882,1.0016849816849815,0.22725274725274724,0.5681318681318681
4.13815454199721,1.0016849816849815,0.22725274725274724,0.5681318681318681
4.140635476996977,2.6609523809523807,2.5505494505494504,3.3
4.1408154599994305,2.6609523809523807,2.5505494505494504,3.3
4.147662636998575,2.6609523809523807,2.5505494505494504,3.3
4.151493722998566,2.6609523809523807,2.5505494505494504,3.3
4.156703818000096,2.697216117216117,2.5481318681318683,2.5642490842490844
4.160034843996982,2.697216117216117,2.5481318681318683,2.5642490842490844
4.160355515999981,0.5447619047619047,1.4997069597069597,1.216043956043956
4.16746751699975,0.5447619047619047,1.4997069597069597,1.216043956043956
4.1716455509995285,0.5447619047619047,1.4997069597069597,1.216043956043956
4.17466675399919,0.5447619047619047,1.4997069597069597,1.216043956043956
4.179456678997667,0.5447619047619047,1.4997069597069597,1.216043956043956
4.183289602999139,0.5447619047619047,1.4997069597069597,1.216043956043956
4.187178246997064,0.5447619047619047,1.4997069597069597,1.216043956043956
4.191248869999981,0.5447619047619047,1.4997069597069597,1.216043956043956
4.199046370998985,0.5447619047619047,1.4997069597069597,1.216043956043956
4.206007224998757,0.5447619047619047,1.4997069597069597,1.216043956043956
4.211813916997926,3.0936996336996336,3.3,2.772161172161172
4.2174956549970375,0.17648351648351646,0.6261538461538461,0.5197802197802197
4.21770324499812,0.17648351648351646,0.6261538461538461,0.5197802197802197
4.22308210600022,0.17648351648351646,0.6261538461538461,0.5197802197802197
4.225432256000204,0.17648351648351646,0.6261538461538461,0.5197802197802197
4.2256343310000375,0.17648351648351646,0.6261538461538461,0.5197802197802197
4.234985316998063,0.17648351648351646,0.6261538461538461,0.5197802197802197
4.241479276999598,0.03223443223443223,0.5133333333333333,0.5165567765567766
4.249806017000083,0.03223443223443223,0.5133333333333333,0.5165567765567766
4.256333930999972,3.261318681318681,2.1911355311355307,1.0016849816849815
4.261316674997943,3.261318681318681,2.1911355311355307,1.0016849816849815
4.267939623998245,3.261318681318681,2.1911355311355307,1.0016849816849815
4.271833460999915,3.261318681318681,2.1911355311355307,1.0016849816849815
4.2758233019994805,2.2314285714285713,2.336190476190476,3.3
4.281541075997666,2.2314285714285713,2.336190476190476,3.3
4.287562366997008,2.2314285714285713,2.336190476190476,3.3
4.291360119997989,3.3,2.3587545787545787,1.137069597069597
4.29793015499672,3.3,2.3587545787545787,1.137069597069597
4.301166950997867,3.3,2.3587545787545787,1.137069597069597
4.30288648199712,3.3,2.3587545787545787,1.137069597069597
4.306702080997638,3.3,2.3587545787545787,1.137069597069597
4.312816354999086,2.693992673992674,1.8986080586080583,0.6527472527472526
4.316423381998902,2.693992673992674,1.8986080586080583,0.6527472527472526
4.316539015999297,3.3,3.092087912087912,2.618241758241758
4.321194531999936,3.3,3.092087912087912,2.618241758241758
4.321442164997279,3.3,3.092087912087912,2.618241758241758
4.32815377499719,3.3,3.092087912087912,2.618241758241758
4.334197983000195,3.3,3.092087912087912,2.618241758241758
4.3379223289994115,3.3,3.092087912087912,2.618241758241758
4.346764722999069,3.3,3.092087912087912,2.618241758241758
4.3507136949992855,2.718168498168498,2.5586080586080584,2.573113553113553
4.35378778499944,2.718168498168498,2.5586080586080584,2.573113553113553
4.356280029998743,2.718168498168498,2.5586080586080584,2.573113553113553
4.356477266999718,2.718168498168498,2.5586080586080584,2.573113553113553
4.362992241996835,2.718168498168498,2.5586080586080584,2.573113553113553
4.366691209997953,2.718168498168498,2.5586080586080584,2.573113553113553
4.372177314999135,2.718168498168498,2.5586080586080584,2.573113553113553
4.37332178199722,2.718168498168498,2.5586080586080584,2.573113553113553
4.373605082997528,2.718168498168498,2.5586080586080584,2.573113553113553
4.381539828998939,2.718168498168498,2.5586080586080584,2.573113553113553
4.3856471619983495,2.6682051282051282,2.5521611721611723,3.3
4.388044464998529,2.6682051282051282,2.5521611721611723,3.3
4.395915095999953,2.6682051282051282,2.5521611721611723,3.3
4.40166522599975,2.6682051282051282,2.5521611721611723,3.3
4.408419430998038,1.6125274725274723,1.9356776556776556,3.112234432234432
4.414626934998523,3.2548717948717947,2.2233699633699633,1.0298901098901099
4.417734511996969,3.2548717948717947,2.2233699633699633,1.0298901098901099
4.420106760997442,3.2548717948717947,2.2233699633699633,1.0298901098901099
4.42039331399792,3.2548717948717947,2.2233699633699633,1.0298901098901099
4.424919349999982,3.2548717948717947,2.2233699633699633,1.0298901098901099
4.425203511000291,3.2548717948717947,2.2233699633699633,1.0298901098901099
4.4311694289972365,3.2548717948717947,2.2233699633699633,1.0298901098901099
4.435813121999672,3.2548717948717947,2.2233699633699633,1.0298901098901099
4.4359718059968145,3.2548717948717947,2.2233699633699633,1.0298901098901099
4.441082235000067,3.2548717948717947,2.2233699633699633,1.0298901098901099
4.4463875999972515,3.2548717948717947,2.2233699633699633,1.0298901098901099
4.447401011999318,0.24256410256410255,0.7268864468864469,0.42952380952380953
4.4482634179985325,0.24256410256410255,0.7268864468864469,0.42952380952380953
4.449953004997951,0.24256410256410255,0.7268864468864469,0.42952380952380953
4.453119327998138,0.24256410256410255,0.7268864468864469,0.42952380952380953
4.454035879000003,0.24256410256410255,0.7268864468864469,0.42952380952380953
4.455675990997406,1.0661538461538462,0.49721611721611714,0.796996336996337
4.4620159829974,1.0661538461538462,0.49721611721611714,0.796996336996337
4.465787240998907,1.0661538461538462,0.49721611721611714,0.796996336996337
4.471860491998086,1.0661538461538462,0.49721611721611714,0.796996336996337
4.477692029999162,1.0661538461538462,0.49721611721611714,0.796996336996337
4.484006676997524,1.0661538461538462,0.49721611721611714,0.796996336996337
4.48793930699685,3.243589743589743,3.1976556776556775,1.8824908424908422
4.491088997998304,3.243589743589743,3.1976556776556775,1.8824908424908422
4.494482242000231,3.243589743589743,3.1976556776556775,1.8824908424908422
4.494846617999428,3.243589743589743,3.1976556776556775,1.8824908424908422
4.501873642999271,3.243589743589743,3.1976556776556775,1.8824908424908422
4.507626528997207,3.243589743589743,3.1976556776556775,1.8824908424908422
4.514918834000127,3.243589743589743,3.1976556776556775,1.8824908424908422
4.519036342997424,3.243589743589743,3.1976556776556775,1.8824908424908422
4.522522461997141,3.243589743589743,3.1976556776556775,1.8824908424908422
4.5329040919968975,3.3,2.9808791208791208,2.1685714285714286
4.538320957999531,3.3,2.9808791208791208,2.1685714285714286
4.5411630460002925,3.3,2.9808791208791208,2.1685714285714286
4.545463504997315,3.3,2.9808791208791208,2.1685714285714286
4.5457864700001664,3.3,2.9808791208791208,2.1685714285714286
4.550463747000322,3.3,2.9808791208791208,2.1685714285714286
4.550643909999053,0.35135531135531134,0.2562637362637363,0.6648351648351648
4.55631003599774,0.35135531135531134,0.2562637362637363,0.6648351648351648
4.556499050999264,0.35135531135531134,0.2562637362637363,0.6648351648351648
4.56531182499748,0.35135531135531134,0.2562637362637363,0.6648351648351648
4.570603647000098,0.35135531135531134,0.2562637362637363,0.6648351648351648
4.572184043998277,0.4182417582417582,0.224029304029304,0.7397802197802198
4.576244080999459,3.3,3.3,2.913186813186813
4.5811700179983745,2.0315750915750916,1.543223443223443,0.8115018315018314
4.584470922996843,3.3,3.3,2.3506959706959707
4.585371543998917,3.3,3.3,2.3506959706959707
4.586950156997773,3.3,3.3,2.3506959706959707
4.590763923999475,0.1104029304029304,0.3376556776556776,0.5689377289377289
4.597235375000309,1.4706959706959708,0.6825641025641025,1.4787545787545788
4.600313495997398,1.4706959706959708,0.6825641025641025,1.4787545787545788
4.602638657997886,1.4706959706959708,0.6825641025641025,1.4787545787545788
4.602833070999623,1.4706959706959708,0.6825641025641025,1.4787545787545788
4.608025418998295,2.6536996336996337,3.253260073260073,2.469157509157509
4.614317319999827,2.6536996336996337,3.253260073260073,2.469157509157509
4.617085971000051,1.8172161172161172,1.0677655677655677,0.4520879120879121
4.6202694209969195,1.8172161172161172,1.0677655677655677,0.4520879120879121
4.621947677998833,1.8172161172161172,1.0677655677655677,0.4520879120879121
4.626750686999003,1.8172161172161172,1.0677655677655677,0.4520879120879121
4.632657684000151,1.751135531135531,1.477142857142857,0.5133333333333333
4.637204517999635,1.751135531135531,1.477142857142857,0.5133333333333333
4.637555467998027,1.751135531135531,1.477142857142857,0.5133333333333333
4.642880387997138,1.751135531135531,1.477142857142857,0.5133333333333333
4.645775543998752,1.751135531135531,1.477142857142857,0.5133333333333333
4.648098333997041,1.751135531135531,1.477142857142857,0.5133333333333333
4.648252757997398,1.751135531135531,1.477142857142857,0.5133333333333333
4.653640292999626,1.751135531135531,1.477142857142857,0.5133333333333333
4.655246522997913,1.751135531135531,1.477142857142857,0.5133333333333333
4.659007296999334,2.5465201465201464,1.934065934065934,1.1781684981684981
4.667901057997369,2.5465201465201464,1.934065934065934,1.1781684981684981
4.673572470997897,2.913186813186813,2.125860805860806,2.544908424908425
4.673874825999519,2.913186813186813,2.125860805860806,2.544908424908425
4.681379828998615,2.913186813186813,2.125860805860806,2.544908424908425
4.685318095998809,2.913186813186813,2.125860805860806,2.544908424908425
4.689811928998097,2.913186813186813,2.125860805860806,2.544908424908425
4.690789771997515,0.303003663003663,0.24336996336996336,0.5238095238095237
4.691883552997751,0.303003663003663,0.24336996336996336,0.5238095238095237
4.69217658299749,0.303003663003663,0.24336996336996336,0.5238095238095237
4.700524594998569,0.303003663003663,0.24336996336996336,0.5238095238095237
4.7051888199966925,0.303003663003663,0.24336996336996336,0.5238095238095237
4.705456793999474,0.303003663003663,0.24336996336996336,0.5238095238095237
4.710381566997967,0.303003663003663,0.24336996336996336,0.5238095238095237
4.719195079000201,0.303003663003663,0.24336996336996336,0.5238095238095237
4.719426657997246,0.303003663003663,0.24336996336996336,0.5238095238095237
4.724711105998722,2.826153846153846,2.9695970695970697,1.7890109890109889
4.729804071997933,2.826153846153846,2.9695970695970697,1.7890109890109889
4.732765964999999,2.826153846153846,2.9695970695970697,1.7890109890109889
4.73370885300028,2.826153846153846,2.9695970695970697,1.7890109890109889
4.735414355000103,2.826153846153846,2.9695970695970697,1.7890109890109889
4.73854335699798,2.826153846153846,2.9695970695970697,1.7890109890109889
4.740281726997637,2.826153846153846,2.9695970695970697,1.7890109890109889
4.745648372998403,1.7825641025641024,2.229010989010989,1.5158241758241757
4.745970201998716,1.7825641025641024,2.229010989010989,1.5158241758241757
4.753023516997928,1.7825641025641024,2.229010989010989,1.5158241758241757
4.756874709997646,1.7825641025641024,2.229010989010989,1.5158241758241757
4.764548966999428,2.6746520146520147,2.5505494505494504,3.3
4.771403034999821,2.6585347985347987,2.872893772893773,1.8413919413919413
4.776899524997134,2.6585347985347987,2.872893772893773,1.8413919413919413
4.777066218997788,2.6617582417582417,2.5553846153846154,2.5682783882783884
4.787036686997453,2.6617582417582417,2.5553846153846154,2.5682783882783884
4.796361212000193,1.1676923076923076,1.1515750915750915,0.5536263736263736
4.803634473999409,3.3,3.3,2.8463003663003663
4.808461496999371,3.3,3.3,2.8463003663003663
4.818135800000164,3.3,3.3,2.8463003663003663
4.8264807509985985,3.3,3.3,2.8463003663003663
4.832752956997865,2.697216117216117,2.5586080586080584,2.5682783882783884
4.836517943000217,2.697216117216117,2.5586080586080584,2.5682783882783884
4.84303655199983,2.697216117216117,2.5586080586080584,2.5682783882783884
4.849029902998154,2.697216117216117,2.5586080586080584,2.5682783882783884
4.85305963099745,2.697216117216117,2.5586080586080584,2.5682783882783884
4.856241143999796,2.8390476190476193,2.1347252747252745,3.3
4.857331711998995,2.5167032967032963,1.8615384615384614,0.9992673992673992
4.858715828999266,2.5167032967032963,1.8615384615384614,0.9992673992673992
4.86831838499711,2.5167032967032963,1.8615384615384614,0.9992673992673992
4.873175724998873,2.5167032967032963,1.8615384615384614,0.9992673992673992
4.880418126998848,2.5167032967032963,1.8615384615384614,0.9992673992673992
4.884409747999598,2.5167032967032963,1.8615384615384614,0.9992673992673992
4.887548771999718,2.5167032967032963,1.8615384615384614,0.9992673992673992
4.889209738998034,2.5167032967032963,1.8615384615384614,0.9992673992673992
4.895787620000192,2.5167032967032963,1.8615384615384614,0.9992673992673992
4.900668350997876,2.5167032967032963,1.8615384615384614,0.9992673992673992
4.904468632998032,2.5167032967032963,1.8615384615384614,0.9992673992673992
4.910117766998155,2.5167032967032963,1.8615384615384614,0.9992673992673992
4.910522946000128,2.5167032967032963,1.8615384615384614,0.9992673992673992
4.916112023998721,2.5167032967032963,1.8615384615384614,0.9992673992673992
4.9162750789982965,2.5167032967032963,1.8615384615384614,0.9992673992673992
4.921626956998807,2.5167032967032963,1.8615384615384614,0.9992673992673992
4.924054814997362,2.5167032967032963,1.8615384615384614,0.9992673992673992
4.9323581629978435,2.5167032967032963,1.8615384615384614,0.9992673992673992
4.937007496999286,2.5167032967032963,1.8615384615384614,0.9992673992673992
4.937256325996714,2.5167032967032963,1.8615384615384614,0.9992673992673992
4.943683171997691,2.5167032967032963,1.8615384615384614,0.9992673992673992
4.948645714997838,2.5167032967032963,1.8615384615384614,0.9992673992673992
4.953271201997268,2.5167032967032963,1.8615384615384614,0.9992673992673992
4.96178285499991,2.5167032967032963,1.8615384615384614,0.9992673992673992
4.966717030998552,2.681098901098901,2.5521611721611723,3.3
4.969888751998951,2.1750183150183147,1.627032967032967,0.6664468864468864
4.970778527997027,2.1750183150183147,1.627032967032967,0.6664468864468864
4.97242544799883,2.1750183150183147,1.627032967032967,0.6664468864468864
4.9774192449986,2.655311355311355,2.5441025641025643,2.565860805860806
4.982246831998054,2.655311355311355,2.5441025641025643,2.565860805860806
4.986997456999234,2.655311355311355,2.5441025641025643,2.565860805860806
4.993519359999482,2.655311355311355,2.5441025641025643,2.565860805860806
4.997722920998058,2.655311355311355,2.5441025641025643,2.565860805860806
4.998665141996753,2.655311355311355,2.5441025641025643,2.565860805860806
5.000264321999566,2.655311355311355,2.5441025641025643,2.565860805860806
5.004058009999426,2.655311355311355,2.5441025641025643,2.565860805860806
5.00863998999921,2.655311355311355,2.5441025641025643,2.565860805860806
5.010023122998973,2.655311355311355,2.5441025641025643,2.565860805860806
5.015893192998192,2.655311355311355,2.5441025641025643,2.565860805860806
5.020414732000063,2.655311355311355,2.5441025641025643,2.565860805860806
5.021325955996872,2.655311355311355,2.5441025641025643,2.565860805860806
5.022881569999299,2.655311355311355,2.5441025641025643,2.565860805860806
5.027128835998155,2.655311355311355,2.5441025641025643,2.565860805860806
5.029939416999696,2.655311355311355,2.5441025641025643,2.565860805860806
5.03317821499877,2.655311355311355,2.5441025641025643,2.565860805860806
5.033449359998485,2.655311355311355,2.5441025641025643,2.565860805860806
5.038131131997943,2.655311355311355,2.5441025641025643,2.565860805860806
5.038363653999113,2.655311355311355,2.5441025641025643,2.565860805860806
5.043286726999213,2.655311355311355,2.5441025641025643,2.565860805860806
5.048598075998598,2.655311355311355,2.5441025641025643,2.565860805860806
5.0510556909976,2.655311355311355,2.5441025641025643,2.565860805860806
5.056422237998049,2.655311355311355,2.5441025641025643,2.565860805860806
5.058970247999241,2.655311355311355,2.5441025641025643,2.565860805860806
5.063581667996914,3.3,3.3,2.269304029304029
5.0638727320001635,3.3,3.3,2.269304029304029
5.068439776998275,3.3,3.3,2.269304029304029
5.069371007997688,1.2595604395604394,1.224102564102564,0.4528937728937729
5.071065344996896,1.2595604395604394,1.224102564102564,0.4528937728937729
5.074141822999081,1.2595604395604394,1.224102564102564,0.4528937728937729
5.076457003997348,2.1024908424908424,1.3796336996336995,0.6027838827838827
5.076710561999789,2.1024908424908424,1.3796336996336995,0.6027838827838827
5.082140832997538,2.1024908424908424,1.3796336996336995,0.6027838827838827
5.083702673997323,2.1024908424908424,1.3796336996336995,0.6027838827838827
5.088179385998956,3.3,2.8140659340659337,1.9050549450549448
5.08918558699952,3.3,2.8140659340659337,1.9050549450549448
5.090127812996798,3.3,2.8140659340659337,1.9050549450549448
5.090985609997006,3.3,2.8140659340659337,1.9050549450549448
5.092582815999776,3.3,2.8140659340659337,1.9050549450549448
5.098993776999123,3.3,2.8140659340659337,1.9050549450549448
5.1040412679976725,3.3,2.8140659340659337,1.9050549450549448
5.110390515998006,3.3,2.8140659340659337,1.9050549450549448
5.11600413299675,3.3,2.8140659340659337,1.9050549450549448
5.1247909019984945,3.3,3.3,2.856776556776557
5.132352396998613,3.3,3.3,2.856776556776557
5.137258978997124,0.18373626373626373,0.29816849816849816,0.6068131868131869
5.142067676999432,0.18373626373626373,0.29816849816849816,0.6068131868131869
5.149045422000199,2.698827838827839,2.565054945054945,2.573919413919414
5.153586219999852,2.698827838827839,2.565054945054945,2.573919413919414
5.153917878997163,0.4287179487179487,0.23047619047619047,0.6148717948717949
5.158845663998363,0.4287179487179487,0.23047619047619047,0.6148717948717949
5.163568480998947,2.4747985347985346,1.843003663003663,0.9960439560439559
5.169731264999427,2.693992673992674,2.5521611721611723,2.5674725274725274
5.1762852409992774,2.693992673992674,2.5521611721611723,2.5674725274725274
5.179732291999244,2.067032967032967,1.3917216117216116,0.5608791208791208
5.179943594997894,2.067032967032967,1.3917216117216116,0.5608791208791208
5.1845050169977185,2.067032967032967,1.3917216117216116,0.5608791208791208
5.18481649000023,2.067032967032967,1.3917216117216116,0.5608791208791208
5.189711331997387,2.067032967032967,1.3917216117216116,0.5608791208791208
5.195072638998681,2.067032967032967,1.3917216117216116,0.5608791208791208
5.197350901999016,2.067032967032967,1.3917216117216116,0.5608791208791208
5.197636316999706,2.067032967032967,1.3917216117216116,0.5608791208791208
5.202882984998723,2.673040293040293,2.5465201465201464,3.3
5.205191255998216,2.673040293040293,2.5465201465201464,3.3
5.205445902996871,2.673040293040293,2.5465201465201464,3.3
5.210067292999156,2.673040293040293,2.5465201465201464,3.3
5.2102778389999,2.673040293040293,2.5465201465201464,3.3
5.215604563996749,2.673040293040293,2.5465201465201464,3.3
5.217884625999432,2.673040293040293,2.5465201465201464,3.3
5.21807196899681,2.673040293040293,2.5465201465201464,3.3
5.222659951999958,2.673040293040293,2.5465201465201464,3.3
5.223532350999449,2.673040293040293,2.5465201465201464,3.3
5.22511058499731,2.673040293040293,2.5465201465201464,3.3
5.229087308998714,1.3433699633699634,1.3353113553113554,0.5205860805860806
5.232903541997075,1.3433699633699634,1.3353113553113554,0.5205860805860806
5.236906101999921,1.3433699633699634,1.3353113553113554,0.5205860805860806
5.2415080819992,1.3433699633699634,1.3353113553113554,0.5205860805860806
5.241813720000209,1.3433699633699634,1.3353113553113554,0.5205860805860806
5.2464156829992135,1.3433699633699634,1.3353113553113554,0.5205860805860806
5.247278775997984,2.664175824175824,3.3,3.3
5.248932112997863,2.664175824175824,3.3,3.3
5.252656395998201,0.0008058608058608059,0.4810989010989011,0.4819047619047619
5.257808247999492,0.0008058608058608059,0.4810989010989011,0.4819047619047619
5.26018611699692,2.681098901098901,2.548937728937729,3.3
5.260399053997389,2.681098901098901,2.548937728937729,3.3
5.265009293998446,2.681098901098901,2.548937728937729,3.3
5.265207843000098,2.681098901098901,2.548937728937729,3.3
5.269838252999762,2.681098901098901,2.548937728937729,3.3
5.270072769999388,2.681098901098901,2.548937728937729,3.3
5.274792962998617,2.681098901098901,2.548937728937729,3.3
5.275018273998285,2.681098901098901,2.548937728937729,3.3
5.279762324997137,2.681098901098901,2.548937728937729,3.3
5.279988305999723,2.681098901098901,2.548937728937729,3.3
5.284555832997285,2.681098901098901,2.548937728937729,3.3
5.285472507999657,3.3,2.8551648351648353,1.8978021978021975
5.2870386029972,2.1202197802197804,1.6334798534798534,0.5947252747252747
5.290842808997695,2.1202197802197804,1.6334798534798534,0.5947252747252747
5.295387785998173,2.1202197802197804,1.6334798534798534,0.5947252747252747
5.296265296998172,2.1202197802197804,1.6334798534798534,0.5947252747252747
5.29788869299955,2.1202197802197804,1.6334798534798534,0.5947252747252747
5.301862536998669,2.1202197802197804,1.6334798534798534,0.5947252747252747
5.308710541998153,0.9219047619047619,1.6431501831501831,1.2498901098901098
5.312556461998611,0.9219047619047619,1.6431501831501831,1.2498901098901098
5.3171006699994905,0.9219047619047619,1.6431501831501831,1.2498901098901098
5.3174447619967395,0.9219047619047619,1.6431501831501831,1.2498901098901098
5.3219851839967305,0.9219047619047619,1.6431501831501831,1.2498901098901098
5.322836308998376,0.9219047619047619,1.6431501831501831,1.2498901098901098
5.324446945000091,0.9219047619047619,1.6431501831501831,1.2498901098901098
5.328973171999678,0.9219047619047619,1.6431501831501831,1.2498901098901098
5.329241359999287,0.9219047619047619,1.6431501831501831,1.2498901098901098
5.333824838999135,0.9219047619047619,1.6431501831501831,1.2498901098901098
5.334729604997847,0.9219047619047619,1.6431501831501831,1.2498901098901098
5.3362975909985835,0.9219047619047619,1.6431501831501831,1.2498901098901098
5.340130523996777,0.9219047619047619,1.6431501831501831,1.2498901098901098
5.344629761999386,0.9219047619047619,1.6431501831501831,1.2498901098901098
5.345478617997287,0.9219047619047619,1.6431501831501831,1.2498901098901098
5.347086975998536,0.9219047619047619,1.6431501831501831,1.2498901098901098
5.35088574099791,1.2176556776556777,0.4126007326007326,0.8316483516483516
5.356717036996997,1.2176556776556777,0.4126007326007326,0.8316483516483516
5.356921197999327,1.2176556776556777,0.4126007326007326,0.8316483516483516
5.360942592997162,1.2176556776556777,0.4126007326007326,0.8316483516483516
5.364994878000289,1.2176556776556777,0.4126007326007326,0.8316483516483516
5.36897956899702,2.685128205128205,2.5465201465201464,3.3
5.371697233997111,2.685128205128205,2.5465201465201464,3.3
5.37821514299867,2.685128205128205,2.5465201465201464,3.3
5.381250596998143,2.685128205128205,2.5465201465201464,3.3
5.383836064997013,2.685128205128205,2.5465201465201464,3.3
5.390103767000255,2.685128205128205,2.5465201465201464,3.3
5.394898859998648,2.685128205128205,2.5465201465201464,3.3
5.403210177999426,2.685128205128205,2.5465201465201464,3.3
5.411010220999742,2.685128205128205,2.5465201465201464,3.3
5.416720047000126,0.8574358974358974,0.2345054945054945,0.7051282051282051
5.427522289999615,0.8574358974358974,0.2345054945054945,0.7051282051282051
5.43766594599947,0.8574358974358974,0.2345054945054945,0.7051282051282051
5.443533298999682,0.8574358974358974,0.2345054945054945,0.7051282051282051
5.443699234998348,2.6665934065934067,3.3,2.6343589743589746
5.450506682998821,2.6665934065934067,3.3,2.6343589743589746
5.4554723119981645,2.6665934065934067,3.3,2.6343589743589746
5.462487767999846,2.6665934065934067,3.3,2.6343589743589746
5.46578933499768,2.6665934065934067,3.3,2.6343589743589746
5.467365567998058,2.6665934065934067,3.3,2.6343589743589746
5.47198152999772,2.6665934065934067,3.3,2.6343589743589746
5.472202633998677,2.6665934065934067,3.3,2.6343589743589746
5.4786235589999706,2.6665934065934067,3.3,2.6343589743589746
5.48183346499718,2.6665934065934067,3.3,2.6343589743589746
5.483476972000062,3.3,3.1904029304029304,1.854285714285714
5.488100224996742,3.3,3.1904029304029304,1.854285714285714
5.4882899499971245,3.3,3.1904029304029304,1.854285714285714
5.494710937997297,3.3,3.1904029304029304,1.854285714285714
5.498977743998694,0.20307692307692307,0.30139194139194136,1.1225641025641024
5.4999679469983676,0.20307692307692307,0.30139194139194136,1.1225641025641024
5.5009998209970945,0.20307692307692307,0.30139194139194136,1.1225641025641024
5.501922019997437,0.8082783882783882,1.4835897435897436,2.198388278388278
5.5036746469995705,0.8082783882783882,1.4835897435897436,2.198388278388278
5.507694656997046,0.8082783882783882,1.4835897435897436,2.198388278388278
5.512702591997368,0.8082783882783882,1.4835897435897436,2.198388278388278
5.515890917999059,0.8082783882783882,1.4835897435897436,2.198388278388278
5.516774361996795,0.8082783882783882,1.4835897435897436,2.198388278388278
5.517677185998764,0.8082783882783882,1.4835897435897436,2.198388278388278
5.519410108998272,0.8082783882783882,1.4835897435897436,2.198388278388278
5.5232170119998045,0.8082783882783882,1.4835897435897436,2.198388278388278
5.529640959997778,0.8082783882783882,1.4835897435897436,2.198388278388278
5.5329593869973905,0.8082783882783882,1.4835897435897436,2.198388278388278
5.533828746996733,0.8082783882783882,1.4835897435897436,2.198388278388278
5.535384319999139,0.8082783882783882,1.4835897435897436,2.198388278388278
5.539872257999377,1.4868131868131869,0.8348717948717947,0.6390476190476191
5.540177708997362,1.4868131868131869,0.8348717948717947,0.6390476190476191
5.5467445639988,1.4868131868131869,0.8348717948717947,0.6390476190476191
5.54991746199812,1.4868131868131869,0.8348717948717947,0.6390476190476191
5.552357942997332,1.4868131868131869,0.8348717948717947,0.6390476190476191
5.5524841569967975,1.4868131868131869,0.8348717948717947,0.6390476190476191
5.557124343999021,1.4868131868131869,0.8348717948717947,0.6390476190476191
5.557282159999886,3.3,2.776190476190476,1.8051282051282052
5.5677761339975405,3.3,2.776190476190476,1.8051282051282052
5.576485933997901,3.3,2.776190476190476,1.8051282051282052
5.584198905999074,3.3,3.3,3.3
5.591443166998943,3.3,3.3,3.3
5.5990280019977945,3.3,3.3,3.3
5.603423884000222,3.3,3.3,3.3
5.60462632099734,3.3,3.3,3.3
5.604835435999121,3.3,3.3,3.3
5.613670811999327,3.3,3.3,3.3
5.617500996999297,3.3,3.3,3.3
5.622014516997297,2.3716483516483513,1.814798534798535,1.0218315018315018
5.622334255000169,2.3716483516483513,1.814798534798535,1.0218315018315018
5.628335042998515,2.3716483516483513,1.814798534798535,1.0218315018315018
5.632517731999542,2.3716483516483513,1.814798534798535,1.0218315018315018
5.635557084999164,2.3716483516483513,1.814798534798535,1.0218315018315018
5.6378944299976865,2.3716483516483513,1.814798534798535,1.0218315018315018
5.638135190998582,2.3716483516483513,1.814798534798535,1.0218315018315018
5.642969951997657,2.3716483516483513,1.814798534798535,1.0218315018315018
5.650049788997421,2.3716483516483513,1.814798534798535,1.0218315018315018
5.654542491000029,3.3,2.3539194139194137,1.1765567765567766
5.654930004999187,3.3,2.3539194139194137,1.1765567765567766
5.660734047996812,2.5118681318681317,1.8204395604395605,0.9831501831501831
5.6681071869970765,2.5118681318681317,1.8204395604395605,0.9831501831501831
5.672939249998308,2.5118681318681317,1.8204395604395605,0.9831501831501831
5.673131820996787,3.3,3.3,2.8382417582417583
5.680291216998739,3.3,3.3,2.8382417582417583
5.684204175999184,3.3,3.3,2.8382417582417583
5.689130528997339,3.3,2.618241758241758,1.5214652014652015
5.697019556999294,0.07736263736263736,0.5568498168498168,0.5141391941391941
5.701414916999056,0.07736263736263736,0.5568498168498168,0.5141391941391941
5.702462506997108,0.07736263736263736,0.5568498168498168,0.5141391941391941
5.7035278439980175,2.698827838827839,2.5642490842490844,2.577142857142857
5.703950753999379,2.698827838827839,2.5642490842490844,2.577142857142857
5.709507681996911,2.698827838827839,2.5642490842490844,2.577142857142857
5.709839282997564,2.698827838827839,2.5642490842490844,2.577142857142857
5.716560944998491,2.698827838827839,2.5642490842490844,2.577142857142857
5.720916465998016,2.698827838827839,2.5642490842490844,2.577142857142857
5.72189914199771,2.698827838827839,2.5642490842490844,2.577142857142857
5.722925269998086,2.038021978021978,1.8736263736263734,3.3
5.723242874999414,2.038021978021978,1.8736263736263734,3.3
5.730880464998336,2.038021978021978,1.8736263736263734,3.3
5.735521356997197,2.038021978021978,1.8736263736263734,3.3
5.735646981000173,2.038021978021978,1.8736263736263734,3.3
5.741478033000021,2.038021978021978,1.8736263736263734,3.3
5.74952850399859,3.2709890109890107,2.3668131868131868,2.5441025641025643
5.75526459199682,3.2709890109890107,2.3668131868131868,2.5441025641025643
5.755586061997747,3.2709890109890107,2.3668131868131868,2.5441025641025643
5.762880152997241,3.2709890109890107,2.3668131868131868,2.5441025641025643
5.769394455997826,3.2709890109890107,2.3668131868131868,2.5441025641025643
5.774091434999718,0.07333333333333333,0.332014652014652,0.5407326007326007
5.780694966997544,0.07333333333333333,0.332014652014652,0.5407326007326007
5.784802083999239,2.5586080586080584,1.9534065934065934,1.1588278388278386
5.787179994997132,2.5586080586080584,1.9534065934065934,1.1588278388278386
5.787390567998955,2.5586080586080584,1.9534065934065934,1.1588278388278386
5.793211415999394,2.5586080586080584,1.9534065934065934,1.1588278388278386
5.793358218998037,2.5586080586080584,1.9534065934065934,1.1588278388278386
5.801100040996971,2.5586080586080584,1.9534065934065934,1.1588278388278386
5.805700753997371,2.5586080586080584,1.9534065934065934,1.1588278388278386
5.807337554997503,2.5586080586080584,1.9534065934065934,1.1588278388278386
5.813181666999299,2.5586080586080584,1.9534065934065934,1.1588278388278386
5.819125484998949,2.5586080586080584,1.9534065934065934,1.1588278388278386
5.824805246000324,2.5586080586080584,1.9534065934065934,1.1588278388278386
5.833681822998187,2.5586080586080584,1.9534065934065934,1.1588278388278386
5.838323924999713,0.6914285714285714,0.26915750915750913,1.0371428571428571
5.838434493998648,0.6914285714285714,0.26915750915750913,1.0371428571428571
5.8467636489986035,0.6914285714285714,0.26915750915750913,1.0371428571428571
5.850960436997411,2.693186813186813,2.561831501831502,2.5715018315018314
5.852601202997903,0.5487912087912087,0.18615384615384614,0.5745787545787545
5.8577987529970414,0.5487912087912087,0.18615384615384614,0.5745787545787545
5.862946473000193,0.5487912087912087,0.18615384615384614,0.5745787545787545
5.864657977999741,3.1259340659340658,3.013113553113553,2.05010989010989
5.867791155000305,3.1259340659340658,3.013113553113553,2.05010989010989
5.869396473997767,3.1259340659340658,3.013113553113553,2.05010989010989
5.873913938998157,3.1259340659340658,3.013113553113553,2.05010989010989
5.874168544996792,3.1259340659340658,3.013113553113553,2.05010989010989
5.8835901629972795,3.1259340659340658,3.013113553113553,2.05010989010989
5.88937113999782,3.1259340659340658,3.013113553113553,2.05010989010989
5.889579814000172,3.1259340659340658,3.013113553113553,2.05010989010989
5.8972458809985255,3.1259340659340658,3.013113553113553,2.05010989010989
5.901122051000129,3.1259340659340658,3.013113553113553,2.05010989010989
5.905097873997875,3.1259340659340658,3.013113553113553,2.05010989010989
5.908632835999015,2.8100366300366297,1.9679120879120877,0.6841758241758242
5.909249622000061,2.8100366300366297,1.9679120879120877,0.6841758241758242
5.9130266749998555,2.8100366300366297,1.9679120879120877,0.6841758241758242
5.9185240999977395,2.8100366300366297,1.9679120879120877,0.6841758241758242
5.9188250719998905,2.8100366300366297,1.9679120879120877,0.6841758241758242
5.9271958299978,2.8100366300366297,1.9679120879120877,0.6841758241758242
5.93426595100027,2.8100366300366297,1.9679120879120877,0.6841758241758242
5.94009975699737,2.8100366300366297,1.9679120879120877,0.6841758241758242
5.945779916997708,2.655311355311355,3.3,3.1049816849816847
5.95688632999736,2.655311355311355,3.3,3.1049816849816847
5.96863877099895,2.655311355311355,3.3,3.1049816849816847
5.980051230999379,2.655311355311355,3.3,3.1049816849816847
5.988123153998458,0.4867399267399267,0.2063003663003663,0.9581684981684981
5.996933615999296,1.1257875457875457,1.826886446886447,2.9994139194139193
6.003833961996861,0.6696703296703297,0.7043223443223443,0.5399267399267399
6.009129728998232,2.801172161172161,2.8793406593406594,1.85025641025641
6.010999889000232,2.801172161172161,2.8793406593406594,1.85025641025641
6.013415805999102,2.801172161172161,2.8793406593406594,1.85025641025641
6.018791497997881,3.3,3.3,2.8422710622710623
6.020551139998133,3.3,3.3,2.8422710622710623
6.024198709998018,3.3,3.3,2.8422710622710623
6.030609145000199,3.3,3.3,2.8422710622710623
6.033722396998201,3.3,3.3,2.8422710622710623
6.036260724999011,3.3,3.3,2.8422710622710623
6.041612305998569,3.3,2.9389743589743587,2.1879120879120877
6.0448131449993525,3.3,2.9389743589743587,2.1879120879120877
6.0451260569971055,3.3,2.9389743589743587,2.1879120879120877
6.050167477998912,3.3,2.9389743589743587,2.1879120879120877
6.053445699999429,3.3,2.9389743589743587,2.1879120879120877
6.0543233579992375,3.3,2.9389743589743587,2.1879120879120877
6.056285876999027,3.3,2.9389743589743587,2.1879120879120877
6.0581433799998194,3.3,2.9389743589743587,2.1879120879120877
6.060950433999096,3.3,2.9389743589743587,2.1879120879120877
6.066666666996753,3.3,2.9389743589743587,2.1879120879120877
6.0733435919974,3.3,2.9389743589743587,2.1879120879120877
6.080411330000061,3.3,2.9389743589743587,2.1879120879120877
6.085623324997869,2.681098901098901,2.5505494505494504,3.3
6.087317628000164,2.681098901098901,2.5505494505494504,3.3
6.091848149997531,2.681098901098901,2.5505494505494504,3.3
6.09235579199958,2.681098901098901,2.5505494505494504,3.3
6.096071152998775,2.681098901098901,2.5505494505494504,3.3
6.1000492599996505,2.407106227106227,1.8325274725274725,1.0347252747252746
6.10312218800027,2.407106227106227,1.8325274725274725,1.0347252747252746
6.106290261999675,2.407106227106227,1.8325274725274725,1.0347252747252746
6.107915773998684,2.407106227106227,1.8325274725274725,1.0347252747252746
6.11263273700024,2.407106227106227,1.8325274725274725,1.0347252747252746
6.118080838998139,2.407106227106227,1.8325274725274725,1.0347252747252746
6.11970846999975,0.31186813186813184,0.3078388278388278,1.0548717948717947
6.123928544999217,0.31186813186813184,0.3078388278388278,1.0548717948717947
6.125790369998867,0.31186813186813184,0.3078388278388278,1.0548717948717947
6.129021218999696,0.31186813186813184,0.3078388278388278,1.0548717948717947
6.1293857249984285,0.31186813186813184,0.3078388278388278,1.0548717948717947
6.135456283998792,0.31186813186813184,0.3078388278388278,1.0548717948717947
6.141425059999165,0.31186813186813184,0.3078388278388278,1.0548717948717947
6.1468991479996475,3.3,3.2339194139194136,2.5997069597069595
6.147074316999351,3.3,3.2339194139194136,2.5997069597069595
6.151596230996802,3.3,3.2339194139194136,2.5997069597069595
6.152531517996977,3.3,3.2339194139194136,2.5997069597069595
6.154090780997649,3.3,3.2339194139194136,2.5997069597069595
6.160048830999585,3.3,3.2339194139194136,2.5997069597069595
6.164466108999477,3.3,3.2339194139194136,2.5997069597069595
6.166117766999378,3.3,3.2339194139194136,2.5997069597069595
6.169088822996855,3.3,3.2339194139194136,2.5997069597069595
6.172337968997454,3.3,3.2339194139194136,2.5997069597069595
6.173225616999844,3.3,3.2339194139194136,2.5997069597069595
6.174818257997686,3.3,3.2339194139194136,2.5997069597069595
6.178831640998396,3.3,3.2339194139194136,2.5997069597069595
6.181854515998566,3.3,3.2339194139194136,2.5997069597069595
6.184174664998864,3.3,3.2339194139194136,2.5997069597069595
6.184443705999001,3.3,3.2339194139194136,2.5997069597069595
6.189173582999501,3.3,3.2339194139194136,2.5997069597069595
6.194503577997239,0.5544322344322344,0.6962637362637363,0.48835164835164835
6.196986004997598,2.9035164835164835,1.805934065934066,3.3
6.202582738998899,2.9035164835164835,1.805934065934066,3.3
6.204152582999086,0.7309157509157509,1.539194139194139,1.1419047619047618
6.207933038000192,0.7309157509157509,1.539194139194139,1.1419047619047618
6.21250643500025,0.7309157509157509,1.539194139194139,1.1419047619047618
6.212790554000094,0.7309157509157509,1.539194139194139,1.1419047619047618
6.217291785997077,0.7309157509157509,1.539194139194139,1.1419047619047618
6.218210808998265,0.7309157509157509,1.539194139194139,1.1419047619047618
6.219993634997081,0.7309157509157509,1.539194139194139,1.1419047619047618
6.222331575998396,0.7309157509157509,1.539194139194139,1.1419047619047618
6.223161093999806,0.7309157509157509,1.539194139194139,1.1419047619047618
6.224716197997623,0.7309157509157509,1.539194139194139,1.1419047619047618
6.232467551999434,0.7309157509157509,1.539194139194139,1.1419047619047618
6.238309235999623,0.7309157509157509,1.539194139194139,1.1419047619047618
6.245034996998584,0.7309157509157509,1.539194139194139,1.1419047619047618
6.248678867999843,0.7309157509157509,1.539194139194139,1.1419047619047618
6.254845575000218,0.7309157509157509,1.539194139194139,1.1419047619047618
6.261239060997468,0.7309157509157509,1.539194139194139,1.1419047619047618
6.264086907998717,2.4747985347985346,1.863150183150183,1.116923076923077
6.267409979998774,2.4747985347985346,1.863150183150183,1.116923076923077
6.268387451000308,2.4747985347985346,1.863150183150183,1.116923076923077
6.27021456500006,2.4747985347985346,1.863150183150183,1.116923076923077
6.272195802997885,0.32717948717948714,0.7478388278388278,0.5673260073260072
6.273987161999685,2.4747985347985346,1.7930402930402929,3.3
6.277183332000277,1.2136263736263737,1.5617582417582416,2.3418315018315017
6.278123070998845,1.2136263736263737,1.5617582417582416,2.3418315018315017
6.2792126549975364,1.2136263736263737,1.5617582417582416,2.3418315018315017
6.280360082997504,1.2136263736263737,1.5617582417582416,2.3418315018315017
6.280571005998354,1.2136263736263737,1.5617582417582416,2.3418315018315017
6.285122968998621,1.2136263736263737,1.5617582417582416,2.3418315018315017
6.285387796997384,2.5441025641025643,1.805934065934066,0.7462271062271062
6.290322639997612,2.5441025641025643,1.805934065934066,0.7462271062271062
6.2953519679977035,0.018534798534798533,0.5358974358974359,0.5616849816849817
6.30010276199755,0.018534798534798533,0.5358974358974359,0.5616849816849817
6.305759656999726,0.018534798534798533,0.5358974358974359,0.5616849816849817
6.306909513998107,0.018534798534798533,0.5358974358974359,0.5616849816849817
6.307089632999123,0.018534798534798533,0.5358974358974359,0.5616849816849817
6.3173649339987605,0.018534798534798533,0.5358974358974359,0.5616849816849817
6.326340712999809,0.14989010989010987,0.3424908424908425,0.5995604395604395
6.334006170000066,0.14989010989010987,0.3424908424908425,0.5995604395604395
6.338419306997821,0.14989010989010987,0.3424908424908425,0.5995604395604395
6.338696347000223,2.6665934065934067,2.541684981684982,3.3
6.34655079499862,2.6665934065934067,2.541684981684982,3.3
6.352115588997549,3.3,3.3,2.2177289377289378
6.352317130000301,3.3,3.3,2.2177289377289378
6.359611456999119,3.3,3.3,2.2177289377289378
6.364660248000291,3.3,3.3,2.2177289377289378
6.3681077049986925,3.3,3.3,2.2177289377289378
6.377887924998504,3.3,3.3,2.2177289377289378
6.38352701599797,3.3,3.3,2.2177289377289378
6.383760557997448,3.3,3.3,2.2177289377289378
6.388526227998227,3.3,3.3,2.2177289377289378
6.3887049570003,0.03948717948717949,0.4545054945054945,0.4528937728937729
6.3935886369981745,0.4448351648351648,0.4198534798534798,0.6398534798534798
6.399115517997416,0.4448351648351648,0.4198534798534798,0.6398534798534798
6.399441647998174,0.4448351648351648,0.4198534798534798,0.6398534798534798
6.404941090997454,0.4448351648351648,0.4198534798534798,0.6398534798534798
6.405836488997011,0.4448351648351648,0.4198534798534798,0.6398534798534798
6.4074554559992976,0.4448351648351648,0.4198534798534798,0.6398534798534798
6.4119343899983505,0.4448351648351648,0.4198534798534798,0.6398534798534798
6.412830196997675,0.4448351648351648,0.4198534798534798,0.6398534798534798
6.414449039999454,0.4448351648351648,0.4198534798534798,0.6398534798534798
6.418078414997581,0.4448351648351648,0.4198534798534798,0.6398534798534798
6.418173755999305,0.4448351648351648,0.4198534798534798,0.6398534798534798
6.42469593900023,0.4448351648351648,0.4198534798534798,0.6398534798534798
6.429906175999349,0.4448351648351648,0.4198534798534798,0.6398534798534798
6.432196519999707,0.010476190476190476,0.30945054945054945,0.4899633699633699
6.432460942000034,0.010476190476190476,0.30945054945054945,0.4899633699633699
6.4422952009990695,0.010476190476190476,0.30945054945054945,0.4899633699633699
6.451129916997161,0.010476190476190476,0.30945054945054945,0.4899633699633699
6.457748782999261,0.010476190476190476,0.30945054945054945,0.4899633699633699
6.462092893998488,3.3,3.3,2.8495238095238093
6.463045096999849,2.6682051282051282,2.5481318681318683,3.3
6.463988420997339,2.6682051282051282,2.5481318681318683,3.3
6.46493179800018,2.6682051282051282,2.5481318681318683,3.3
6.466658582998207,2.6682051282051282,2.5481318681318683,3.3
6.469870081997215,2.6682051282051282,2.5481318681318683,3.3
6.470773216999078,2.6682051282051282,2.5481318681318683,3.3
6.472386653997091,2.6682051282051282,2.5481318681318683,3.3
6.478230601998803,2.6682051282051282,2.5481318681318683,3.3
6.4846324139980425,2.6682051282051282,2.5481318681318683,3.3
6.488556262997008,2.6682051282051282,2.5481318681318683,3.3
6.492883472998074,2.6682051282051282,2.5481318681318683,3.3
6.49461546800012,2.6682051282051282,2.5481318681318683,3.3
6.498591935996956,2.6682051282051282,2.5481318681318683,3.3
6.501735593999911,2.6682051282051282,2.5481318681318683,3.3
6.503417600997636,1.1918681318681317,1.6213919413919413,2.522344322344322
6.507318828997086,1.1918681318681317,1.6213919413919413,2.522344322344322
6.511924741997063,1.1918681318681317,1.6213919413919413,2.522344322344322
6.51207777899981,1.1918681318681317,1.6213919413919413,2.522344322344322
6.516827101997478,1.1918681318681317,1.6213919413919413,2.522344322344322
6.51707965499736,1.1918681318681317,1.6213919413919413,2.522344322344322
6.521843896000064,1.1918681318681317,1.6213919413919413,2.522344322344322
6.5220782209980825,1.1918681318681317,1.6213919413919413,2.522344322344322
6.527195984999707,1.1918681318681317,1.6213919413919413,2.522344322344322
6.531579181999405,1.1918681318681317,1.6213919413919413,2.522344322344322
6.531896838998364,2.3974358974358974,1.7769230769230768,3.3
6.537843144997169,2.3974358974358974,1.7769230769230768,3.3
6.542607556999428,2.3974358974358974,1.7769230769230768,3.3
6.547782693000045,2.3974358974358974,1.7769230769230768,3.3
6.550489327997639,2.3974358974358974,1.7769230769230768,3.3
6.555485126998974,0.7518681318681318,0.21597069597069596,0.763956043956044
6.559672321000107,0.7518681318681318,0.21597069597069596,0.763956043956044
6.5612459359981585,3.00021978021978,2.1161904761904764,1.2434432234432233
6.565237279999565,3.00021978021978,2.1161904761904764,1.2434432234432233
6.5686990809990675,3.00021978021978,2.1161904761904764,1.2434432234432233
6.5688784859994485,3.00021978021978,2.1161904761904764,1.2434432234432233
6.573955197996838,3.00021978021978,2.1161904761904764,1.2434432234432233
6.577883198999189,3.00021978021978,2.1161904761904764,1.2434432234432233
6.584122657997796,3.00021978021978,2.1161904761904764,1.2434432234432233
6.587563811997825,2.693992673992674,2.552967032967033,2.5626373626373624
6.587849252999149,1.9485714285714284,1.2523076923076921,0.5117216117216117
6.595939971997723,1.9485714285714284,1.2523076923076921,0.5117216117216117
6.60271705699779,1.9485714285714284,1.2523076923076921,0.5117216117216117
6.6061189159991045,1.9485714285714284,1.2523076923076921,0.5117216117216117
6.606417211998632,1.9485714285714284,1.2523076923076921,0.5117216117216117
6.611154238999006,1.9485714285714284,1.2523076923076921,0.5117216117216117
6.611260824996862,1.9485714285714284,1.2523076923076921,0.5117216117216117
6.617005015999894,1.9485714285714284,1.2523076923076921,0.5117216117216117
6.61720440299905,1.9485714285714284,1.2523076923076921,0.5117216117216117
6.62646868199954,1.9485714285714284,1.2523076923076921,0.5117216117216117
6.63360124799874,1.9485714285714284,1.2523076923076921,0.5117216117216117
6.638434681997751,1.9485714285714284,1.2523076923076921,0.5117216117216117
6.6453220789990155,1.9485714285714284,1.2523076923076921,0.5117216117216117
6.650421645997994,1.9485714285714284,1.2523076923076921,0.5117216117216117
6.655211645997042,1.9485714285714284,1.2523076923076921,0.5117216117216117
6.662173513999733,1.743076923076923,0.9412454212454211,0.5898901098901098
6.666303684996819,2.6746520146520147,2.544908424908425,3.3
6.668636358997901,2.693186813186813,2.552967032967033,2.569084249084249
6.668853911000042,2.693186813186813,2.552967032967033,2.569084249084249
6.676041825998254,2.693186813186813,2.552967032967033,2.569084249084249
6.680456932997913,1.0572893772893772,0.39890109890109887,0.8671062271062271
6.682021271997655,2.6738461538461538,3.3,3.12029304029304
6.6853158220001205,2.6738461538461538,3.3,3.12029304029304
6.6862824949967035,2.6738461538461538,3.3,3.12029304029304
6.687177105999581,2.6738461538461538,3.3,3.12029304029304
6.688168723998388,2.6738461538461538,3.3,3.12029304029304
6.689205377999315,2.6738461538461538,3.3,3.12029304029304
6.690201132998482,2.6738461538461538,3.3,3.12029304029304
6.690531144999113,2.6738461538461538,3.3,3.12029304029304
6.6952909489991725,2.6738461538461538,3.3,3.12029304029304
6.69544367999697,2.6738461538461538,3.3,3.12029304029304
6.700769336999656,2.6738461538461538,3.3,3.12029304029304
6.702411340000253,3.3,2.481245421245421,1.855091575091575
6.706367956998292,3.3,2.481245421245421,1.855091575091575
6.710322318998806,3.3,2.481245421245421,1.855091575091575
6.714807374999509,3.3,2.481245421245421,1.855091575091575
6.715102771999227,3.3,2.481245421245421,1.855091575091575
6.719825590000255,3.3,2.481245421245421,1.855091575091575
6.720009790999029,3.3,2.481245421245421,1.855091575091575
6.724563443000079,3.3,2.481245421245421,1.855091575091575
6.7248480599992035,3.3,2.481245421245421,1.855091575091575
6.729596474997379,3.3,2.481245421245421,1.855091575091575
6.729756433000148,0.21677655677655677,0.26190476190476186,0.7599267399267399
6.73517599600018,0.21677655677655677,0.26190476190476186,0.7599267399267399
6.736739549996855,0.21677655677655677,0.26190476190476186,0.7599267399267399
6.740519723000034,0.21677655677655677,0.26190476190476186,0.7599267399267399
