time,emg1,emg2,emg3
0.0028290240006754175,1.8534798534798533,1.0903296703296703,2.988937728937729
0.0046569640035158955,1.8534798534798533,1.0903296703296703,2.988937728937729
0.005425984003522899,1.8534798534798533,1.0903296703296703,2.988937728937729
0.014715565004735254,1.8534798534798533,1.0903296703296703,2.988937728937729
0.03423380500316853,1.8534798534798533,1.0903296703296703,2.988937728937729
0.04338411099888617,1.551282051282051,0.8799999999999999,0.6164835164835165
0.051836348000506405,1.4384615384615385,0.8348717948717947,0.6189010989010989
0.05686730600427836,1.4706959706959708,0.7035164835164834,2.299120879120879
0.06056954000086989,1.4706959706959708,0.7035164835164834,2.299120879120879
0.06836076600302476,1.4706959706959708,0.7035164835164834,2.299120879120879
0.07380095600092318,0.527032967032967,0.4931868131868131,1.7954578754578752
0.07566801500070142,0.0,0.06446886446886446,0.9992673992673992
0.07758792000095127,0.0,0.06446886446886446,0.9992673992673992
0.0803220930029056,0.0,0.06446886446886446,0.9992673992673992
0.08463529700384242,0.0,0.06446886446886446,0.9992673992673992
0.08558885900129098,0.0,0.06446886446886446,0.9992673992673992
0.08654923499852885,0.0,0.06446886446886446,0.9992673992673992
0.0875643699982902,0.9243223443223443,0.4810989010989011,1.9469597069597069
0.08856588100024965,0.9243223443223443,0.4810989010989011,1.9469597069597069
0.08957538600225234,0.9243223443223443,0.4810989010989011,1.9469597069597069
0.0905399760013097,0.0,0.048351648351648346,0.9992673992673992
0.09231797800021013,0.0,0.048351648351648346,0.9992673992673992
0.09494475000246894,0.0,0.048351648351648346,0.9992673992673992
0.10074474700377323,0.0,0.048351648351648346,0.9992673992673992
0.10682620599982329,0.0,0.048351648351648346,0.9992673992673992
0.11095495900372043,0.28849816849816845,0.36344322344322344,1.8663736263736261
0.11423572999774478,0.0,0.0556043956043956,0.8880586080586079
0.11519726600090507,0.0,0.0556043956043956,0.8880586080586079
0.1161259840009734,0.0,0.0556043956043956,0.8880586080586079
0.117808426002739,0.0,0.0556043956043956,0.8880586080586079
0.12097298599837814,0.0,0.0556043956043956,0.8880586080586079
0.12269104699953459,0.0,0.0556043956043956,0.8880586080586079
0.12653413900261512,0.0,0.03223443223443223,1.2224908424908425
0.13118361600209028,0.0,0.03223443223443223,1.2224908424908425
0.1312750409997534,0.004835164835164835,0.083003663003663,0.9098168498168498
0.1395946120028384,0.004835164835164835,0.083003663003663,0.9098168498168498
0.14428898400365142,1.216043956043956,0.5504029304029303,2.6246886446886446
0.14458657600334845,1.216043956043956,0.5504029304029303,2.6246886446886446
0.1504027160044643,1.216043956043956,0.5504029304029303,2.6246886446886446
0.15060971600178163,1.216043956043956,0.5504029304029303,2.6246886446886446
0.15848850100155687,1.216043956043956,0.5504029304029303,2.6246886446886446
0.16396306500246283,1.216043956043956,0.5504029304029303,2.6246886446886446
0.16558468500443269,0.029816849816849816,0.19985347985347984,1.4263736263736264
0.16960520700376946,0.029816849816849816,0.19985347985347984,1.4263736263736264
0.17364401499798987,0.029816849816849816,0.19985347985347984,1.4263736263736264
0.17756685899803415,0.029816849816849816,0.19985347985347984,1.4263736263736264
0.18201107200002298,0.029816849816849816,0.19985347985347984,1.4263736263736264
0.18371974600449903,0.029816849816849816,0.19985347985347984,1.4263736263736264
0.18676767100259895,0.029816849816849816,0.19985347985347984,1.4263736263736264
0.189206823000859,0.029816849816849816,0.19985347985347984,1.4263736263736264
0.18949656400218373,0.029816849816849816,0.19985347985347984,1.4263736263736264
0.19434945299872197,0.029816849816849816,0.19985347985347984,1.4263736263736264
0.19994357300311094,0.029816849816849816,0.19985347985347984,1.4263736263736264
0.20093886600079713,0.029816849816849816,0.19985347985347984,1.4263736263736264
0.20184195099864155,0.029816849816849816,0.19985347985347984,1.4263736263736264
0.20359897600428667,0.029816849816849816,0.19985347985347984,1.4263736263736264
0.20819791000394616,0.029816849816849816,0.19985347985347984,1.4263736263736264
0.21446805100276833,0.029816849816849816,0.19985347985347984,1.4263736263736264
0.2201769660023274,0.0,0.0838095238095238,1.0258608058608059
0.23040095299802488,0.0,0.0838095238095238,1.0258608058608059
0.2398822340037441,0.0,0.0838095238095238,1.0258608058608059
0.24592153500270797,0.0,0.0838095238095238,1.0258608058608059
0.25210468500154093,0.23531135531135527,0.14908424908424908,1.8212454212454212
0.2562300459976541,0.23531135531135527,0.14908424908424908,1.8212454212454212
0.2591740159987239,0.23531135531135527,0.14908424908424908,1.8212454212454212
0.26208487799885916,0.23531135531135527,0.14908424908424908,1.8212454212454212
0.26704676700319396,0.23531135531135527,0.14908424908424908,1.8212454212454212
0.2705425849999301,2.0525274725274723,0.8816117216117215,3.013919413919414
0.2764597170025809,2.0525274725274723,0.8816117216117215,3.013919413919414
0.2841032680007629,2.0525274725274723,0.8816117216117215,3.013919413919414
0.2900637740021921,1.5577289377289376,1.008937728937729,1.58996336996337
0.29575057300098706,0.0,0.0709157509157509,1.1378754578754577
0.30679903399868635,0.43758241758241756,0.2087179487179487,2.8326007326007323
0.3127391450034338,0.43758241758241756,0.2087179487179487,2.8326007326007323
0.31303052000293974,0.6648351648351648,0.4835164835164835,1.0685714285714285
0.32170959300128743,0.6648351648351648,0.4835164835164835,1.0685714285714285
0.32586961700144457,0.3529670329670329,0.14505494505494507,2.943003663003663
0.32818487400072627,0.5971428571428571,0.3312087912087912,1.9308424908424908
0.32845385200198507,0.5971428571428571,0.3312087912087912,1.9308424908424908
0.3374348920042394,0.03948717948717949,0.12893772893772892,1.1435164835164835
0.3437263220039313,1.8607326007326006,1.2136263736263737,2.6045421245421245
0.34883234000153607,1.8607326007326006,1.2136263736263737,2.6045421245421245
0.35174394600471715,0.585054945054945,0.32395604395604394,1.8599267399267398
0.3542133360024309,0.585054945054945,0.32395604395604394,1.8599267399267398
0.35990436199790565,0.585054945054945,0.32395604395604394,1.8599267399267398
0.36017497000284493,0.585054945054945,0.32395604395604394,1.8599267399267398
0.3700324070014176,0.585054945054945,0.32395604395604394,1.8599267399267398
0.3786864380017505,0.585054945054945,0.32395604395604394,1.8599267399267398
0.3845241029994213,0.585054945054945,0.32395604395604394,1.8599267399267398
0.39124764400185086,0.585054945054945,0.32395604395604394,1.8599267399267398
0.3972384520020569,0.585054945054945,0.32395604395604394,1.8599267399267398
0.4021746729995357,1.7704761904761903,1.133040293040293,2.723003663003663
0.40548720600054367,1.4175091575091574,0.8429304029304028,0.6769230769230768
0.405763005001063,0.05318681318681319,0.0846153846153846,1.6463736263736264
0.41594717599946307,0.05318681318681319,0.0846153846153846,1.6463736263736264
0.42147848500462715,0.02901098901098901,0.14102564102564102,1.1862271062271061
0.4232359040033771,1.6528205128205127,0.9339926739926739,0.3771428571428571
0.4257111970000551,1.6528205128205127,0.9339926739926739,0.3771428571428571
0.4259149389981758,1.6528205128205127,0.9339926739926739,0.3771428571428571
0.4329452259989921,1.6528205128205127,0.9339926739926739,0.3771428571428571
0.4385798369985423,1.6528205128205127,0.9339926739926739,0.3771428571428571
0.4504345259992988,1.6528205128205127,0.9339926739926739,0.3771428571428571
0.45869654700072715,1.6528205128205127,0.9339926739926739,0.3771428571428571
0.46787279700220097,1.6528205128205127,0.9339926739926739,0.3771428571428571
0.474446207001165,1.6528205128205127,0.9339926739926739,0.3771428571428571
0.48021025599882705,1.6528205128205127,0.9339926739926739,0.3771428571428571
0.48852392900153063,1.6528205128205127,0.9339926739926739,0.3771428571428571
0.4941658780007856,1.6528205128205127,0.9339926739926739,0.3771428571428571
0.4943216930041672,0.0,0.033846153846153845,1.0024908424908423
0.5016502299986314,0.0,0.033846153846153845,1.0024908424908423
0.5057260550020146,0.8751648351648351,0.415018315018315,2.313626373626373
0.5090901570001733,0.8751648351648351,0.415018315018315,2.313626373626373
0.5101031840022188,0.03868131868131868,0.17245421245421244,1.0774358974358973
0.5110002389992587,0.03868131868131868,0.17245421245421244,1.0774358974358973
0.512855639004556,0.03868131868131868,0.17245421245421244,1.0774358974358973
0.5178767500037793,0.03868131868131868,0.17245421245421244,1.0774358974358973
0.5222091510004248,0.03868131868131868,0.17245421245421244,1.0774358974358973
0.5224767830004566,1.5013186813186812,0.896117216117216,0.6841758241758242
0.5281996690027881,1.5013186813186812,0.896117216117216,0.6841758241758242
0.5360114939976484,1.5013186813186812,0.896117216117216,0.6841758241758242
0.5408946680036024,1.3401465201465201,0.6068131868131869,2.6416117216117216
0.5460611060043448,1.3401465201465201,0.6068131868131869,2.6416117216117216
0.5518043650008622,1.3401465201465201,0.6068131868131869,2.6416117216117216
0.5568516690036631,0.5109157509157509,0.3658608058608058,1.1556043956043955
0.5601387780043297,0.5109157509157509,0.3658608058608058,1.1556043956043955
0.5618751639995025,1.4352380952380952,0.8783882783882784,0.9718681318681318
0.5673405690031359,1.4352380952380952,0.8783882783882784,0.9718681318681318
0.5675937539999723,1.4352380952380952,0.8783882783882784,0.9718681318681318
0.574090050002269,1.4352380952380952,0.8783882783882784,0.9718681318681318
0.5803409880027175,1.4352380952380952,0.8783882783882784,0.9718681318681318
0.5852943010031595,1.4352380952380952,0.8783882783882784,0.9718681318681318
0.5893282789984369,0.6503296703296703,0.47465201465201456,1.5327472527472528
0.5925862110016169,0.6503296703296703,0.47465201465201456,1.5327472527472528
0.5934337979997508,1.6173626373626373,0.971062271062271,2.230622710622711
0.5952921069983859,1.6173626373626373,0.971062271062271,2.230622710622711
0.6008214140019845,1.6173626373626373,0.971062271062271,2.230622710622711
0.6102348409986007,1.3482051282051282,0.6817582417582417,2.9873260073260073
0.6191307109984336,1.3482051282051282,0.6817582417582417,2.9873260073260073
0.6232859360025031,1.5335531135531135,0.9839560439560439,3.2838827838827838
0.6263785629998893,1.5335531135531135,0.9839560439560439,3.2838827838827838
0.6280239949992392,1.5335531135531135,0.9839560439560439,3.2838827838827838
0.6348593330039876,1.5335531135531135,0.9839560439560439,3.2838827838827838
0.6381684959997074,0.0,0.051575091575091575,1.0024908424908423
0.639043938004761,0.0,0.051575091575091575,1.0024908424908423
0.6409196189997601,0.0,0.051575091575091575,1.0024908424908423
0.6425892480037874,0.0,0.051575091575091575,1.0024908424908423
0.6477284749998944,0.0,0.0838095238095238,1.3345054945054944
0.6516106950002722,2.0589743589743588,0.8945054945054944,2.8656410256410254
0.6548014779982623,2.0589743589743588,0.8945054945054944,2.8656410256410254
0.6557783800017205,1.4666666666666666,0.9686446886446887,3.3
0.6575388359997305,1.4666666666666666,0.9686446886446887,3.3
0.6598569900015718,1.4666666666666666,0.9686446886446887,3.3
0.6601831110019702,1.4666666666666666,0.9686446886446887,3.3
0.6674429089980549,1.4666666666666666,0.9686446886446887,3.3
0.671510970001691,1.4666666666666666,0.9686446886446887,3.3
0.6739662850013701,1.4666666666666666,0.9686446886446887,3.3
0.6741423260027659,1.4666666666666666,0.9686446886446887,3.3
0.678889535003691,1.4666666666666666,0.9686446886446887,3.3
0.6881620260028285,1.4666666666666666,0.9686446886446887,3.3
0.6936688069981756,1.4666666666666666,0.9686446886446887,3.3
0.6955326440001954,1.4666666666666666,0.9686446886446887,3.3
0.7001729929979774,1.4666666666666666,0.9686446886446887,3.3
0.7052465669985395,1.7221245421245421,0.9033699633699634,1.3723809523809525
0.7077098590016249,1.7221245421245421,0.9033699633699634,1.3723809523809525
0.714127979001205,1.9606593406593404,0.8727472527472527,2.9019047619047615
0.718212065003172,1.9606593406593404,0.8727472527472527,2.9019047619047615
0.7199138939977274,1.9606593406593404,0.8727472527472527,2.9019047619047615
0.7231683350037201,1.9606593406593404,0.8727472527472527,2.9019047619047615
0.7247797529998934,1.9606593406593404,0.8727472527472527,2.9019047619047615
0.7279397300007986,1.9606593406593404,0.8727472527472527,2.9019047619047615
0.730522721001762,1.9606593406593404,0.8727472527472527,2.9019047619047615
0.736200799998187,1.9606593406593404,0.8727472527472527,2.9019047619047615
0.7363928940030746,1.9606593406593404,0.8727472527472527,2.9019047619047615
0.7411204509990057,1.9606593406593404,0.8727472527472527,2.9019047619047615
0.741245383003843,1.9606593406593404,0.8727472527472527,2.9019047619047615
0.7458893889997853,1.9606593406593404,0.8727472527472527,2.9019047619047615
0.7462837109997054,1.9606593406593404,0.8727472527472527,2.9019047619047615
0.7523455690025003,1.9606593406593404,0.8727472527472527,2.9019047619047615
0.756191216998559,1.9606593406593404,0.8727472527472527,2.9019047619047615
0.7606023550033569,1.9606593406593404,0.8727472527472527,2.9019047619047615
0.7615546669985633,1.5964102564102562,0.8284249084249083,2.6488644688644687
0.7624846690014238,1.5964102564102562,0.8284249084249083,2.6488644688644687
0.7645671819991549,1.5964102564102562,0.8284249084249083,2.6488644688644687
0.7662128080046386,1.5964102564102562,0.8284249084249083,2.6488644688644687
0.7699051630042959,1.5964102564102562,0.8284249084249083,2.6488644688644687
0.7745791760025895,1.5964102564102562,0.8284249084249083,2.6488644688644687
0.7746857649981393,0.0,0.07575091575091575,0.9863736263736262
0.7824992340028984,0.0,0.07575091575091575,0.9863736263736262
0.7871492839985876,1.3756043956043955,0.664029304029304,2.681904761904762
0.7933651300045312,0.03948717948717949,0.2111355311355311,1.3844688644688645
0.799270018003881,0.0,0.14989010989010987,1.2692307692307692
0.8035211770038586,0.0,0.14989010989010987,1.2692307692307692
0.8051588989983429,0.0,0.14989010989010987,1.2692307692307692
0.809095693002746,0.0,0.14989010989010987,1.2692307692307692
0.8143663110022317,0.0,0.14989010989010987,1.2692307692307692
0.816891055997985,0.0,0.14989010989010987,1.2692307692307692
0.8229258440042031,0.0,0.14989010989010987,1.2692307692307692
0.826123432998429,0.0,0.14989010989010987,1.2692307692307692
0.8277528890030226,0.0,0.14989010989010987,1.2692307692307692
0.833473539998522,0.0,0.14989010989010987,1.2692307692307692
0.8389875060020131,0.0,0.14989010989010987,1.2692307692307692
0.8405935089976992,1.967106227106227,0.8880586080586079,1.2756776556776557
0.8442731559989625,1.967106227106227,0.8880586080586079,1.2756776556776557
0.8505644169999869,0.13377289377289378,0.27399267399267396,1.2805128205128204
0.8546537580041331,2.036410256410256,0.9621978021978022,3.3
0.857829890002904,2.036410256410256,0.9621978021978022,3.3
0.8594332190041314,2.036410256410256,0.9621978021978022,3.3
0.8643579659983516,2.036410256410256,0.9621978021978022,3.3
0.8684746869985247,2.036410256410256,0.9621978021978022,3.3
0.8708387220031,2.036410256410256,0.9621978021978022,3.3
0.8710817099999986,2.036410256410256,0.9621978021978022,3.3
0.8758948460017564,2.036410256410256,0.9621978021978022,3.3
0.881384230000549,0.5520146520146519,0.27238095238095233,2.519120879120879
0.8824478530004853,1.7946520146520144,1.0258608058608059,0.24417582417582417
0.8828014910031925,0.3505494505494505,0.24417582417582417,1.5303296703296703
0.8875552469980903,0.3505494505494505,0.24417582417582417,1.5303296703296703
0.8930417700030375,0.3505494505494505,0.24417582417582417,1.5303296703296703
0.893953220002004,0.3505494505494505,0.24417582417582417,1.5303296703296703
0.8956166229982045,1.5536996336996336,0.942051282051282,2.8793406593406594
0.8997229020023951,1.5536996336996336,0.942051282051282,2.8793406593406594
0.901575114003208,1.5536996336996336,0.942051282051282,2.8793406593406594
0.9039659710033447,1.5536996336996336,0.942051282051282,2.8793406593406594
0.9041868560016155,1.5536996336996336,0.942051282051282,2.8793406593406594
0.9088648859979003,1.5536996336996336,0.942051282051282,2.8793406593406594
0.9089998609997565,1.5536996336996336,0.942051282051282,2.8793406593406594
0.9180704270038405,1.5536996336996336,0.942051282051282,2.8793406593406594
0.9227065619998029,1.5536996336996336,0.942051282051282,2.8793406593406594
0.9229857120008091,1.365128205128205,0.8163369963369963,0.7236630036630036
0.9276971310027875,1.365128205128205,0.8163369963369963,0.7236630036630036
0.9279644080015714,1.365128205128205,0.8163369963369963,0.7236630036630036
0.9353485820029164,0.06043956043956044,0.19179487179487179,1.257142857142857
0.9400016459985636,0.06043956043956044,0.19179487179487179,1.257142857142857
0.940133001000504,1.3353113553113554,0.6229304029304029,2.6206593406593406
0.9451392749979277,1.3353113553113554,0.6229304029304029,2.6206593406593406
0.9549188790042535,1.3353113553113554,0.6229304029304029,2.6206593406593406
0.9597825860037119,0.0,0.044322344322344324,1.0145787545787546
0.9657581959982053,0.0,0.044322344322344324,1.0145787545787546
0.9709070020035142,0.0,0.044322344322344324,1.0145787545787546
0.9733348320005462,0.0,0.12893772893772892,1.2313553113553113
0.973453281003458,0.0,0.12893772893772892,1.2313553113553113
0.9788107050044346,0.0,0.12893772893772892,1.2313553113553113
0.9829699769979925,1.1120879120879121,0.4722344322344322,2.5755311355311354
0.9839636649994645,1.3054945054945053,0.8663003663003663,1.3594871794871795
0.9850399429997196,1.3054945054945053,0.8663003663003663,1.3594871794871795
0.9853595730019151,1.3054945054945053,0.8663003663003663,1.3594871794871795
0.9901537859987002,1.3054945054945053,0.8663003663003663,1.3594871794871795
0.9961979209983838,0.0,0.03304029304029304,0.917069597069597
1.0039471729978686,0.0,0.03304029304029304,0.917069597069597
1.0094049480030662,0.0,0.03304029304029304,0.917069597069597
1.0110615130033693,0.008058608058608058,0.15875457875457877,1.191062271062271
1.016576410002017,0.008058608058608058,0.15875457875457877,1.191062271062271
1.0168706629992812,0.008058608058608058,0.15875457875457877,1.191062271062271
1.0216497410001466,0.008058608058608058,0.15875457875457877,1.191062271062271
1.0218425620041671,1.4231501831501832,0.6873992673992674,2.2217582417582418
1.0263868140027625,1.4231501831501832,0.6873992673992674,2.2217582417582418
1.0266670170021825,0.07252747252747253,0.07252747252747253,1.767252747252747
1.0348542339997948,0.07252747252747253,0.07252747252747253,1.767252747252747
1.0388003550033318,0.0,0.06527472527472526,0.838095238095238
1.0434363700042013,0.0,0.06527472527472526,0.838095238095238
1.043561819999013,0.0,0.06527472527472526,0.838095238095238
1.0510548770034802,0.0,0.06527472527472526,0.838095238095238
1.0550018339999951,0.0,0.06527472527472526,0.838095238095238
1.0595903740031645,0.0,0.06527472527472526,0.838095238095238
1.0598396249988582,1.7011721611721609,0.8936996336996336,3.094505494505494
1.0662766750028823,1.7011721611721609,0.8936996336996336,3.094505494505494
1.0703197210023063,1.7011721611721609,0.8936996336996336,3.094505494505494
1.0743481130048167,1.7011721611721609,0.8936996336996336,3.094505494505494
1.0769685460036271,1.7011721611721609,0.8936996336996336,3.094505494505494
1.083666352002183,0.35135531135531134,0.14989010989010987,2.9784615384615383
1.0878080230031628,0.35135531135531134,0.14989010989010987,2.9784615384615383
1.0909792899983586,0.17567765567765567,0.2683516483516483,1.1241758241758242
1.092723867004679,0.0,0.06205128205128205,1.0661538461538462
1.0974933059987961,0.0,0.06205128205128205,1.0661538461538462
1.1065887410004507,0.0,0.06205128205128205,1.0661538461538462
1.112414927003556,1.6657142857142855,0.9976556776556775,0.1821245421245421
1.1126203809981234,0.0,0.02901098901098901,0.9404395604395603
1.118483507001656,0.0,0.02901098901098901,0.9404395604395603
1.1232686869989266,0.0,0.02901098901098901,0.9404395604395603
1.1284978699986823,0.0,0.02901098901098901,0.9404395604395603
1.131483864999609,0.5407326007326007,0.5286446886446886,1.7599999999999998
1.1338617670044187,0.5407326007326007,0.5286446886446886,1.7599999999999998
1.134012264003104,0.5407326007326007,0.5286446886446886,1.7599999999999998
1.1394101210025838,0.5407326007326007,0.5286446886446886,1.7599999999999998
1.1417577660031384,0.5407326007326007,0.5286446886446886,1.7599999999999998
1.14203458600241,0.5407326007326007,0.5286446886446886,1.7599999999999998
1.1477175879990682,0.5407326007326007,0.5286446886446886,1.7599999999999998
1.1486553770009778,0.5407326007326007,0.5286446886446886,1.7599999999999998
1.1496403380006086,0.5407326007326007,0.5286446886446886,1.7599999999999998
1.1505962720038951,0.5407326007326007,0.5286446886446886,1.7599999999999998
1.1514877500012517,0.5407326007326007,0.5286446886446886,1.7599999999999998
1.1531644350034185,0.5407326007326007,0.5286446886446886,1.7599999999999998
1.1573766119981883,0.5407326007326007,0.5286446886446886,1.7599999999999998
1.1599285810007132,0.5407326007326007,0.5286446886446886,1.7599999999999998
1.1678884389984887,0.5407326007326007,0.5286446886446886,1.7599999999999998
1.176444534001348,0.7599267399267399,0.5729670329670329,1.5883516483516482
1.1846898130024783,0.6608058608058608,0.5350915750915751,3.0445421245421245
1.1895219590005581,1.4328205128205127,0.7905494505494506,1.4908424908424909
1.1952293290014495,1.4328205128205127,0.7905494505494506,1.4908424908424909
1.1969107120021363,0.0,0.045128205128205125,0.8695238095238095
1.199565775001247,0.0,0.045128205128205125,0.8695238095238095
1.2055131130036898,0.0,0.045128205128205125,0.8695238095238095
1.2124556490016403,0.43032967032967034,0.3706959706959707,1.3731868131868132
1.2165849480006727,0.43032967032967034,0.3706959706959707,1.3731868131868132
1.218531669001095,0.43032967032967034,0.3706959706959707,1.3731868131868132
1.2223947500024224,0.43032967032967034,0.3706959706959707,1.3731868131868132
1.225093412998831,0.43032967032967034,0.3706959706959707,1.3731868131868132
1.2321109269978479,0.43032967032967034,0.3706959706959707,1.3731868131868132
1.2368691860028775,0.0,0.07897435897435898,1.0347252747252746
1.2426427989994409,1.7084249084249086,0.9122344322344322,3.138021978021978
1.2503723710033228,1.7084249084249086,0.9122344322344322,3.138021978021978
1.2570615830045426,0.06205128205128205,0.20388278388278389,1.1064468864468864
1.261853884003358,0.06205128205128205,0.20388278388278389,1.1064468864468864
1.2683114320025197,0.06205128205128205,0.20388278388278389,1.1064468864468864
1.2733228779979981,0.06205128205128205,0.20388278388278389,1.1064468864468864
1.2786976780043915,1.8284981684981685,1.1354578754578755,2.2088644688644687
1.278916360999574,1.8284981684981685,1.1354578754578755,2.2088644688644687
1.2867976130000898,1.8284981684981685,1.1354578754578755,2.2088644688644687
1.2933309630025178,1.8284981684981685,1.1354578754578755,2.2088644688644687
1.2988307010018616,1.8284981684981685,1.1354578754578755,2.2088644688644687
1.3081129359998158,1.8284981684981685,1.1354578754578755,2.2088644688644687
1.3150926840025932,0.44402930402930396,0.46095238095238095,1.8252747252747252
1.3200224579995847,1.810769230769231,1.1596336996336996,2.763296703296703
1.325847371997952,1.6898901098901096,0.9871794871794871,0.2804395604395604
1.3321809589979239,0.09589743589743589,0.10798534798534798,1.826080586080586
1.3372051420010393,0.09589743589743589,0.10798534798534798,1.826080586080586
1.342107534997922,0.09589743589743589,0.10798534798534798,1.826080586080586
1.3469271840003785,0.09589743589743589,0.10798534798534798,1.826080586080586
1.3517215669999132,0.09589743589743589,0.10798534798534798,1.826080586080586
1.3571156480029458,0.09589743589743589,0.10798534798534798,1.826080586080586
1.3596255340016796,0.09589743589743589,0.10798534798534798,1.826080586080586
1.3637067649979144,0.09589743589743589,0.10798534798534798,1.826080586080586
1.3664192490032292,0.5657142857142857,0.4496703296703296,1.4868131868131869
1.372507077998307,0.5399267399267399,0.5205860805860806,1.735018315018315
1.381784023004002,0.5399267399267399,0.5205860805860806,1.735018315018315
1.3862814879976213,0.43999999999999995,0.18534798534798536,3.063076923076923
1.3872126240021316,0.43999999999999995,0.18534798534798536,3.063076923076923
1.3882205560003058,0.43999999999999995,0.18534798534798536,3.063076923076923
1.3890438560047187,0.43999999999999995,0.18534798534798536,3.063076923076923
1.3912092710015713,0.43999999999999995,0.18534798534798536,3.063076923076923
1.3927014470027643,0.0,0.07655677655677656,1.0323076923076921
1.3969511940013035,0.0,0.07655677655677656,1.0323076923076921
1.3992357419992913,0.5608791208791208,0.2715750915750916,2.453846153846154
1.4000491990009323,0.5608791208791208,0.2715750915750916,2.453846153846154
1.4021955040007015,1.5464468864468863,0.9323809523809523,0.4520879120879121
1.4030600010009948,1.5464468864468863,0.9323809523809523,0.4520879120879121
1.4051744770040386,1.5464468864468863,0.9323809523809523,0.4520879120879121
1.405993671003671,1.5464468864468863,0.9323809523809523,0.4520879120879121
1.4074738150011399,0.0,0.045128205128205125,1.7084249084249086
1.4128469420029433,0.0,0.045128205128205125,1.7084249084249086
1.4144842550012982,0.0,0.04915750915750916,1.1547985347985346
1.4184072290008771,0.0,0.04915750915750916,1.1547985347985346
1.4215851179978927,0.0,0.04915750915750916,1.1547985347985346
1.4232303780008806,0.0,0.04915750915750916,1.1547985347985346
1.4269084129991825,0.0,0.04915750915750916,1.1547985347985346
1.4322839220039896,2.0573626373626372,0.9968498168498168,3.3
1.4346179460044368,2.0573626373626372,0.9968498168498168,3.3
1.4347665710010915,2.0573626373626372,0.9968498168498168,3.3
1.4395655030020862,2.0573626373626372,0.9968498168498168,3.3
1.4450942900002701,2.0573626373626372,0.9968498168498168,3.3
1.4460805760027142,2.0573626373626372,0.9968498168498168,3.3
1.447050845999911,2.0573626373626372,0.9968498168498168,3.3
1.4479353950009681,1.224102564102564,0.5600732600732601,2.0734798534798533
1.4494771949975984,1.224102564102564,0.5600732600732601,2.0734798534798533
1.454119416004687,0.0,0.112014652014652,1.0282783882783881
1.4543591020046733,0.0,0.112014652014652,1.0282783882783881
1.4596819880025578,0.954945054945055,0.6043956043956044,3.0856410256410256
1.4620467409986304,1.5464468864468863,0.8679120879120878,0.4657875457875458
1.462240834000113,1.5464468864468863,0.8679120879120878,0.4657875457875458
1.4670622339981492,1.5464468864468863,0.8679120879120878,0.4657875457875458
1.4726760810008273,1.5464468864468863,0.8679120879120878,0.4657875457875458
1.4729762970018783,0.0,0.08622710622710622,0.8719413919413919
1.478267409002001,1.8969963369963367,1.062930402930403,2.4820512820512817
1.480378173000645,1.8969963369963367,1.062930402930403,2.4820512820512817
1.4817865209988668,1.8969963369963367,1.062930402930403,2.4820512820512817
1.4860077280027326,1.8969963369963367,1.062930402930403,2.4820512820512817
1.4887642610046896,1.8969963369963367,1.062930402930403,2.4820512820512817
1.492847638000967,1.8969963369963367,1.062930402930403,2.4820512820512817
1.4956321839999873,1.8969963369963367,1.062930402930403,2.4820512820512817
1.499141149004572,1.8969963369963367,1.062930402930403,2.4820512820512817
1.4994443410032545,1.8969963369963367,1.062930402930403,2.4820512820512817
1.504286615003366,1.8969963369963367,1.062930402930403,2.4820512820512817
1.5093292559977272,1.8969963369963367,1.062930402930403,2.4820512820512817
1.5135183060046984,1.8969963369963367,1.062930402930403,2.4820512820512817
1.5157181020040298,1.8969963369963367,1.062930402930403,2.4820512820512817
1.5165603060013382,1.8969963369963367,1.062930402930403,2.4820512820512817
1.5180372480026563,1.8969963369963367,1.062930402930403,2.4820512820512817
1.5229395360001945,1.8969963369963367,1.062930402930403,2.4820512820512817
1.5272187180016772,1.8969963369963367,1.062930402930403,2.4820512820512817
1.5293802240048535,1.8969963369963367,1.062930402930403,2.4820512820512817
1.5302053749983315,1.8969963369963367,1.062930402930403,2.4820512820512817
1.5317235090042232,1.8969963369963367,1.062930402930403,2.4820512820512817
1.536471277999226,1.8969963369963367,1.062930402930403,2.4820512820512817
1.5418582060010522,1.8969963369963367,1.062930402930403,2.4820512820512817
1.5434820360023878,1.8969963369963367,1.062930402930403,2.4820512820512817
1.5472926040019956,1.8969963369963367,1.062930402930403,2.4820512820512817
1.5518676729989238,1.8969963369963367,1.062930402930403,2.4820512820512817
1.552043080002477,1.8969963369963367,1.062930402930403,2.4820512820512817
1.5574591280019376,1.8969963369963367,1.062930402930403,2.4820512820512817
1.558527872999548,1.8969963369963367,1.062930402930403,2.4820512820512817
1.5594545479980297,1.8969963369963367,1.062930402930403,2.4820512820512817
1.5603547010032344,1.8969963369963367,1.062930402930403,2.4820512820512817
1.5619105470032082,1.8969963369963367,1.062930402930403,2.4820512820512817
1.5658008760001394,1.8969963369963367,1.062930402930403,2.4820512820512817
1.5704367170037585,1.8969963369963367,1.062930402930403,2.4820512820512817
1.5705876770007308,1.8969963369963367,1.062930402930403,2.4820512820512817
1.5751911660045153,0.0,0.022564102564102562,0.9017582417582416
1.5760655400008545,0.0,0.022564102564102562,0.9017582417582416
1.577633072003664,0.0,0.022564102564102562,0.9017582417582416
1.5813384840002982,0.0,0.022564102564102562,0.9017582417582416
1.5865895930037368,0.0,0.022564102564102562,0.9017582417582416
1.5895127570038312,0.0,0.022564102564102562,0.9017582417582416
1.5918030579996412,1.7398534798534797,0.7558974358974359,2.606153846153846
1.5921276529988972,1.7398534798534797,0.7558974358974359,2.606153846153846
1.5972680080012651,1.7398534798534797,0.7558974358974359,2.606153846153846
1.6006723899990902,1.83010989010989,0.954945054945055,3.2645421245421247
1.6009387689991854,1.6915018315018313,0.9484981684981684,0.3457142857142857
1.6061612530029379,1.1894505494505494,0.8437362637362636,1.6149450549450548
1.6091638400030206,1.1894505494505494,0.8437362637362636,1.6149450549450548
1.6114621430024272,1.9324542124542123,0.7671794871794871,3.1210989010989008
1.6117522610002197,1.9324542124542123,0.7671794871794871,3.1210989010989008
1.6171936200044001,1.9324542124542123,0.7671794871794871,3.1210989010989008
1.6181151170021622,1.9324542124542123,0.7671794871794871,3.1210989010989008
1.6196920580041478,1.9324542124542123,0.7671794871794871,3.1210989010989008
1.6234900940035004,1.9324542124542123,0.7671794871794871,3.1210989010989008
1.6280565089982701,1.9324542124542123,0.7671794871794871,3.1210989010989008
1.6289987420022953,1.9324542124542123,0.7671794871794871,3.1210989010989008
1.6306068640042213,1.9324542124542123,0.7671794871794871,3.1210989010989008
1.6343730139997206,1.9324542124542123,0.7671794871794871,3.1210989010989008
1.639743024999916,1.9324542124542123,0.7671794871794871,3.1210989010989008
1.6420688970029005,1.9324542124542123,0.7671794871794871,3.1210989010989008
1.6430805990021327,1.9324542124542123,0.7671794871794871,3.1210989010989008
1.643400623004709,1.9324542124542123,0.7671794871794871,3.1210989010989008
1.6487395330041181,1.9324542124542123,0.7671794871794871,3.1210989010989008
1.6497546610044083,0.06849816849816849,0.1789010989010989,1.0661538461538462
1.650613126999815,0.06849816849816849,0.1789010989010989,1.0661538461538462
1.652213061999646,0.06849816849816849,0.1789010989010989,1.0661538461538462
1.65699257900269,0.06849816849816849,0.1789010989010989,1.0661538461538462
1.6571170800016262,0.06849816849816849,0.1789010989010989,1.0661538461538462
1.66252746200189,0.06849816849816849,0.1789010989010989,1.0661538461538462
1.664834419003455,0.06849816849816849,0.1789010989010989,1.0661538461538462
1.665115584997693,0.06849816849816849,0.1789010989010989,1.0661538461538462
1.6703810239996528,0.06849816849816849,0.1789010989010989,1.0661538461538462
1.6734116779989563,0.06849816849816849,0.1789010989010989,1.0661538461538462
1.6765005769993877,0.06849816849816849,0.1789010989010989,1.0661538461538462
1.6787891190033406,0.06849816849816849,0.1789010989010989,1.0661538461538462
1.6791277140000602,0.06849816849816849,0.1789010989010989,1.0661538461538462
1.6842362349998439,0.06849816849816849,0.1789010989010989,1.0661538461538462
1.6889856019988656,0.06849816849816849,0.1789010989010989,1.0661538461538462
1.689120716000616,0.06849816849816849,0.1789010989010989,1.0661538461538462
1.6943677500021295,0.06849816849816849,0.1789010989010989,1.0661538461538462
1.697445088000677,0.06849816849816849,0.1789010989010989,1.0661538461538462
1.700521477003349,0.06849816849816849,0.1789010989010989,1.0661538461538462
1.702839748999395,0.06849816849816849,0.1789010989010989,1.0661538461538462
1.7031180129997665,0.06849816849816849,0.1789010989010989,1.0661538461538462
1.7083744390038191,0.06849816849816849,0.1789010989010989,1.0661538461538462
1.7114357340033166,0.06849816849816849,0.1789010989010989,1.0661538461538462
1.7144237020038418,0.06849816849816849,0.1789010989010989,1.0661538461538462
1.7174616100019193,0.06849816849816849,0.1789010989010989,1.0661538461538462
1.719944212003611,0.06849816849816849,0.1789010989010989,1.0661538461538462
1.7201669220012263,0.06849816849816849,0.1789010989010989,1.0661538461538462
1.725316472002305,0.06849816849816849,0.1789010989010989,1.0661538461538462
1.7291542450038833,0.06849816849816849,0.1789010989010989,1.0661538461538462
1.7336149800030398,0.06849816849816849,0.1789010989010989,1.0661538461538462
1.7351689690040075,0.06849816849816849,0.1789010989010989,1.0661538461538462
1.7398130580040743,0.06849816849816849,0.1789010989010989,1.0661538461538462
1.7401159729997744,0.06849816849816849,0.1789010989010989,1.0661538461538462
1.7453857639993657,0.06849816849816849,0.1789010989010989,1.0661538461538462
1.7485540400011814,0.06849816849816849,0.1789010989010989,1.0661538461538462
1.750156412999786,0.06849816849816849,0.1789010989010989,1.0661538461538462
1.7546179720011423,0.06849816849816849,0.1789010989010989,1.0661538461538462
1.75619401899894,0.06849816849816849,0.1789010989010989,1.0661538461538462
1.7607213110022712,0.06849816849816849,0.1789010989010989,1.0661538461538462
1.7615583509978023,0.06849816849816849,0.1789010989010989,1.0661538461538462
1.7631809290032834,0.06849816849816849,0.1789010989010989,1.0661538461538462
1.7678100730045117,0.06849816849816849,0.1789010989010989,1.0661538461538462
1.7681175030011218,0.06849816849816849,0.1789010989010989,1.0661538461538462
1.7732268850013497,0.06849816849816849,0.1789010989010989,1.0661538461538462
1.7776605280014337,0.06849816849816849,0.1789010989010989,1.0661538461538462
1.7785835230024531,1.796263736263736,0.9307692307692307,3.17992673992674
1.7803408260006108,1.796263736263736,0.9307692307692307,3.17992673992674
1.7835471790021984,1.796263736263736,0.9307692307692307,3.17992673992674
1.784390954002447,0.0,0.02901098901098901,1.2265201465201465
1.7860170760031906,0.0,0.02901098901098901,1.2265201465201465
1.7906884199983324,0.8364835164835164,0.3852014652014652,1.9614652014652014
1.7908142970045446,0.8364835164835164,0.3852014652014652,1.9614652014652014
1.7956281490041874,0.8364835164835164,0.3852014652014652,1.9614652014652014
1.8013064609986031,0.8364835164835164,0.3852014652014652,1.9614652014652014
1.8023388770016027,0.8364835164835164,0.3852014652014652,1.9614652014652014
1.8032670899992809,0.8364835164835164,0.3852014652014652,1.9614652014652014
1.804152744000021,0.8364835164835164,0.3852014652014652,1.9614652014652014
1.8057111860034638,0.8364835164835164,0.3852014652014652,1.9614652014652014
1.8105572120039142,0.4835164835164835,0.43597069597069593,1.7873992673992671
1.81606580800144,1.0468131868131867,0.6954578754578754,2.021904761904762
1.8184939620041405,1.0468131868131867,0.6954578754578754,2.021904761904762
1.818610816000728,1.0468131868131867,0.6954578754578754,2.021904761904762
1.823999027001264,1.0468131868131867,0.6954578754578754,2.021904761904762
1.82563675900019,1.0468131868131867,0.6954578754578754,2.021904761904762
1.8293422080023447,1.0468131868131867,0.6954578754578754,2.021904761904762
1.8346673010019003,1.0468131868131867,0.6954578754578754,2.021904761904762
1.836949263997667,1.0468131868131867,0.6954578754578754,2.021904761904762
1.8372613730025478,1.0468131868131867,0.6954578754578754,2.021904761904762
1.8423555580011453,1.0468131868131867,0.6954578754578754,2.021904761904762
1.845424772000115,1.0661538461538462,0.7156043956043956,1.1153113553113554
1.8484187880021636,1.0661538461538462,0.7156043956043956,1.1153113553113554
1.8506770960011636,1.0661538461538462,0.7156043956043956,1.1153113553113554
1.8509717490014737,1.0661538461538462,0.7156043956043956,1.1153113553113554
1.8562113720035995,1.0661538461538462,0.7156043956043956,1.1153113553113554
1.8591974330047378,0.4448351648351648,0.1805128205128205,3.013113553113553
1.8622298469999805,0.4448351648351648,0.1805128205128205,3.013113553113553
1.8644731710010092,0.4448351648351648,0.1805128205128205,3.013113553113553
1.8646697660005884,0.4448351648351648,0.1805128205128205,3.013113553113553
1.869816926002386,0.4448351648351648,0.1805128205128205,3.013113553113553
1.8735107820029953,0.0,0.12893772893772892,1.1427106227106225
1.8736417710024398,0.0,0.12893772893772892,1.1427106227106225
1.8790035600031842,0.0,0.12893772893772892,1.1427106227106225
1.8815507050021552,0.5939194139194138,0.3344322344322344,2.2596336996336994
1.886816620004538,0.5939194139194138,0.3344322344322344,2.2596336996336994
1.8892969130029087,0.5939194139194138,0.3344322344322344,2.2596336996336994
1.8948642710020067,0.5939194139194138,0.3344322344322344,2.2596336996336994
1.8958299689984415,1.8413919413919413,1.1588278388278386,2.3958241758241754
1.8967970329977106,1.8413919413919413,1.1588278388278386,2.3958241758241754
1.897691420999763,1.8413919413919413,1.1588278388278386,2.3958241758241754
1.8993758619981236,1.8413919413919413,1.1588278388278386,2.3958241758241754
1.9032607230037684,1.8413919413919413,1.1588278388278386,2.3958241758241754
1.9070286770001985,1.8413919413919413,1.1588278388278386,2.3958241758241754
1.911649096000474,1.8413919413919413,1.1588278388278386,2.3958241758241754
1.9118661850006902,1.8413919413919413,1.1588278388278386,2.3958241758241754
1.916792998999881,1.8413919413919413,1.1588278388278386,2.3958241758241754
1.9213905479991809,1.8413919413919413,1.1588278388278386,2.3958241758241754
1.921657425002195,0.9984615384615383,0.6511355311355311,1.0766300366300365
1.9270972450030968,0.9984615384615383,0.6511355311355311,1.0766300366300365
1.9288837909989525,0.9082051282051282,0.45692307692307693,1.8567032967032966
1.932045219000429,2.063003663003663,0.9033699633699634,3.021172161172161
1.9337852259995998,2.063003663003663,0.9033699633699634,3.021172161172161
1.9369199959983234,2.063003663003663,0.9033699633699634,3.021172161172161
1.938605583003664,0.4174358974358974,0.1668131868131868,3.0614652014652015
1.9431251440037158,0.4174358974358974,0.1668131868131868,3.0614652014652015
1.9446739720006008,0.4174358974358974,0.1668131868131868,3.0614652014652015
1.9492961799987825,0.0,0.04271062271062271,1.2216849816849817
1.9502352970011998,0.0,0.195018315018315,1.1709157509157508
1.9511267650013906,0.0,0.195018315018315,1.1709157509157508
1.9534078760043485,0.0,0.195018315018315,1.1709157509157508
1.9536146850005025,0.0,0.195018315018315,1.1709157509157508
1.9589271619988722,0.0,0.195018315018315,1.1709157509157508
1.9612752430039109,0.0,0.195018315018315,1.1709157509157508
1.9615522419990157,1.0057142857142858,0.6777289377289377,1.3836630036630035
1.9661145080026472,1.0057142857142858,0.6777289377289377,1.3836630036630035
1.967714086000342,1.0057142857142858,0.6777289377289377,1.3836630036630035
1.970819169000606,1.0057142857142858,0.6777289377289377,1.3836630036630035
1.9731635360003565,1.0057142857142858,0.6777289377289377,1.3836630036630035
1.9734041440024157,1.0057142857142858,0.6777289377289377,1.3836630036630035
1.9780089220002992,1.0057142857142858,0.6777289377289377,1.3836630036630035
1.978861556002812,1.0057142857142858,0.6777289377289377,1.3836630036630035
1.979780565998226,1.0057142857142858,0.6777289377289377,1.3836630036630035
1.9813517759976094,1.0057142857142858,0.6777289377289377,1.3836630036630035
1.985855488004745,1.0057142857142858,0.6777289377289377,1.3836630036630035
1.9861814360046992,1.0057142857142858,0.6777289377289377,1.3836630036630035
1.9908654860046227,1.0057142857142858,0.6777289377289377,1.3836630036630035
1.99102013099764,0.0,0.09267399267399268,0.9960439560439559
1.996312315997784,0.0,0.09267399267399268,0.9960439560439559
1.999593188003928,0.0,0.09267399267399268,0.9960439560439559
2.0004897990002064,0.0,0.09267399267399268,0.9960439560439559
2.0020506240034592,0.0,0.09267399267399268,0.9960439560439559
2.0065844979981193,0.0,0.09267399267399268,0.9960439560439559
2.006853468999907,0.08622710622710622,0.0838095238095238,1.6246153846153846
2.012231464999786,0.08622710622710622,0.0838095238095238,1.6246153846153846
2.0146691980044125,0.08622710622710622,0.0838095238095238,1.6246153846153846
2.014777126001718,0.08622710622710622,0.0838095238095238,1.6246153846153846
2.020038957998622,0.08622710622710622,0.0838095238095238,1.6246153846153846
2.023365876004391,0.08622710622710622,0.0838095238095238,1.6246153846153846
2.024184749003325,0.08622710622710622,0.0838095238095238,1.6246153846153846
2.0257574440038297,0.08622710622710622,0.0838095238095238,1.6246153846153846
2.029770619003102,0.08622710622710622,0.0838095238095238,1.6246153846153846
2.0329067400016356,0.08622710622710622,0.0838095238095238,1.6246153846153846
2.03519633399992,0.08622710622710622,0.0838095238095238,1.6246153846153846
2.0354607699991902,1.7954578754578752,1.1725274725274726,2.8245421245421243
2.0400392369992915,1.7954578754578752,1.1725274725274726,2.8245421245421243
2.0403301609985647,1.7954578754578752,1.1725274725274726,2.8245421245421243
2.04483455800073,1.7954578754578752,1.1725274725274726,2.8245421245421243
2.0451734680027585,0.3376556776556776,0.39809523809523806,1.5536996336996336
2.0503828410001006,0.3376556776556776,0.39809523809523806,1.5536996336996336
2.0541109510013484,0.3376556776556776,0.39809523809523806,1.5536996336996336
2.0594669050042285,0.3376556776556776,0.39809523809523806,1.5536996336996336
2.0611685320036486,0.3376556776556776,0.39809523809523806,1.5536996336996336
2.064926026003377,0.3376556776556776,0.39809523809523806,1.5536996336996336
2.0702069660037523,0.07897435897435898,0.2095238095238095,1.2797069597069597
2.0726783010031795,0.07897435897435898,0.2095238095238095,1.2797069597069597
2.078186539001763,0.07897435897435898,0.2095238095238095,1.2797069597069597
2.0799317400014843,0.07897435897435898,0.2095238095238095,1.2797069597069597
2.0823444449997623,1.9074725274725273,1.0774358974358973,1.3151648351648353
2.0825668559991755,1.9074725274725273,1.0774358974358973,1.3151648351648353
2.0872100289998343,1.9074725274725273,1.0774358974358973,1.3151648351648353
2.0874483170046005,0.4802930402930403,0.5391208791208791,1.7535531135531135
2.0925634630038985,0.4802930402930403,0.5391208791208791,1.7535531135531135
2.096508836999419,0.4802930402930403,0.5391208791208791,1.7535531135531135
2.1002704790007556,0.4802930402930403,0.5391208791208791,1.7535531135531135
2.1047892549977405,0.4802930402930403,0.5391208791208791,1.7535531135531135
2.105609092002851,0.4802930402930403,0.5391208791208791,1.7535531135531135
2.1072248729979037,0.4802930402930403,0.5391208791208791,1.7535531135531135
2.1117483109992463,0.4802930402930403,0.5391208791208791,1.7535531135531135
2.112004970003909,0.4802930402930403,0.5391208791208791,1.7535531135531135
2.117437977998634,0.4802930402930403,0.5391208791208791,1.7535531135531135
2.1197210509999422,0.4802930402930403,0.5391208791208791,1.7535531135531135
2.1198767829991993,0.4802930402930403,0.5391208791208791,1.7535531135531135
2.125262758003373,0.4802930402930403,0.5391208791208791,1.7535531135531135
2.1269340130020282,0.4383882783882784,0.43435897435897436,1.548058608058608
2.1300968270006706,0.4383882783882784,0.43435897435897436,1.548058608058608
2.132379729002423,0.4383882783882784,0.43435897435897436,1.548058608058608
2.1327024810016155,0.4383882783882784,0.43435897435897436,1.548058608058608
2.1373901090046274,0.4383882783882784,0.43435897435897436,1.548058608058608
2.137632890000532,1.7398534798534797,1.1112820512820514,2.804395604395604
2.142295812998782,1.7398534798534797,1.1112820512820514,2.804395604395604
2.1425086119998014,1.9622710622710622,1.1217582417582417,1.1056410256410254
2.147059269998863,1.9622710622710622,1.1217582417582417,1.1056410256410254
2.14789521000057,1.9622710622710622,1.1217582417582417,1.1056410256410254
2.1489692789982655,1.9622710622710622,1.1217582417582417,1.1056410256410254
2.1498682029996417,1.9622710622710622,1.1217582417582417,1.1056410256410254
2.1507687359990086,1.9622710622710622,1.1217582417582417,1.1056410256410254
2.1523446060018614,1.9622710622710622,1.1217582417582417,1.1056410256410254
2.156435026001418,1.9622710622710622,1.1217582417582417,1.1056410256410254
2.1595533060026355,1.9622710622710622,1.1217582417582417,1.1056410256410254
2.161140064999927,1.9622710622710622,1.1217582417582417,1.1056410256410254
2.165041411004495,1.9622710622710622,1.1217582417582417,1.1056410256410254
2.1696377620028215,1.9622710622710622,1.1217582417582417,1.1056410256410254
2.1698641370021505,1.9622710622710622,1.1217582417582417,1.1056410256410254
2.174779872999352,1.9622710622710622,1.1217582417582417,1.1056410256410254
2.1802181099992595,1.9622710622710622,1.1217582417582417,1.1056410256410254
2.181790476999595,1.9622710622710622,1.1217582417582417,1.1056410256410254
2.1854632070026128,1.9622710622710622,1.1217582417582417,1.1056410256410254
2.185581898003875,1.9622710622710622,1.1217582417582417,1.1056410256410254
2.1902528680002433,1.9622710622710622,1.1217582417582417,1.1056410256410254
2.190593646002526,0.0,0.18695970695970696,1.248278388278388
2.195201602000452,0.0,0.18695970695970696,1.248278388278388
2.19542995300435,0.0,0.18695970695970696,1.248278388278388
2.200967752003635,0.0,0.18695970695970696,1.248278388278388
2.2020170600007987,0.0,0.18695970695970696,1.248278388278388
2.2030335680028656,0.0,0.18695970695970696,1.248278388278388
2.2033332670034724,0.0,0.18695970695970696,1.248278388278388
2.2086183610008447,0.0,0.18695970695970696,1.248278388278388
2.2109037620029994,0.2949450549450549,0.3964835164835165,1.5126007326007325
2.2111746099981247,0.2949450549450549,0.3964835164835165,1.5126007326007325
2.2164028090046486,0.2949450549450549,0.3964835164835165,1.5126007326007325
2.219484672001272,0.2949450549450549,0.3964835164835165,1.5126007326007325
2.2218463469980634,0.2949450549450549,0.3964835164835165,1.5126007326007325
2.221960749004211,0.2949450549450549,0.3964835164835165,1.5126007326007325
2.2272980010020547,0.2949450549450549,0.3964835164835165,1.5126007326007325
2.2303561580047244,0.7575091575091575,0.4762637362637362,2.016263736263736
2.2327137300017057,0.7575091575091575,0.4762637362637362,2.016263736263736
2.2383509569990565,0.7575091575091575,0.4762637362637362,2.016263736263736
2.2392655750009,0.43355311355311354,0.17567765567765567,2.9913553113553113
2.240862664002634,0.43355311355311354,0.17567765567765567,2.9913553113553113
2.2452865640007076,0.43355311355311354,0.17567765567765567,2.9913553113553113
2.246876287004852,0.43355311355311354,0.17567765567765567,2.9913553113553113
2.2509044539983734,0.43355311355311354,0.17567765567765567,2.9913553113553113
2.254798704001587,0.43355311355311354,0.17567765567765567,2.9913553113553113
2.259812155003601,1.4432967032967032,0.9178754578754579,3.1009523809523807
2.264934879000066,0.386007326007326,0.19824175824175824,2.9704029304029302
2.2682833900034893,0.386007326007326,0.19824175824175824,2.9704029304029302
2.2685967779980274,0.386007326007326,0.19824175824175824,2.9704029304029302
2.2741659930034075,0.386007326007326,0.19824175824175824,2.9704029304029302
2.275220020004781,0.0,0.112014652014652,0.9646153846153847
2.275487652004813,0.0,0.112014652014652,0.9646153846153847
2.281615514002624,0.0,0.112014652014652,0.9646153846153847
2.2867375050045666,0.0,0.112014652014652,0.9646153846153847
2.2884727400014526,0.20307692307692307,0.24336996336996336,1.4739194139194138
2.291636314999778,0.20307692307692307,0.24336996336996336,1.4739194139194138
2.293315677001374,0.20307692307692307,0.24336996336996336,1.4739194139194138
2.29691822300083,0.20307692307692307,0.24336996336996336,1.4739194139194138
2.3021088750028866,0.20307692307692307,0.24336996336996336,1.4739194139194138
2.3055720210031723,0.20307692307692307,0.24336996336996336,1.4739194139194138
2.3058148640047875,0.033846153846153845,0.19985347985347984,1.3747985347985348
2.3117887769985828,0.033846153846153845,0.19985347985347984,1.3747985347985348
2.316615329000342,1.8865201465201462,0.8429304029304028,3.1654212454212454
2.322513701998105,1.8865201465201462,0.8429304029304028,3.1654212454212454
2.322676028998103,1.8865201465201462,0.8429304029304028,3.1654212454212454
2.3274223250045907,1.8865201465201462,0.8429304029304028,3.1654212454212454
2.333436569002515,1.8865201465201462,0.8429304029304028,3.1654212454212454
2.337880890001543,1.8865201465201462,0.8429304029304028,3.1654212454212454
2.3387277119982173,1.8865201465201462,0.8429304029304028,3.1654212454212454
2.340309266000986,1.8865201465201462,0.8429304029304028,3.1654212454212454
2.345435055998678,1.8865201465201462,0.8429304029304028,3.1654212454212454
2.34837349299778,1.8865201465201462,0.8429304029304028,3.1654212454212454
2.3505683629991836,1.8865201465201462,0.8429304029304028,3.1654212454212454
2.3513940650009317,1.8865201465201462,0.8429304029304028,3.1654212454212454
2.3535505330000888,1.8865201465201462,0.8429304029304028,3.1654212454212454
2.3543396489985753,0.0975091575091575,0.1789010989010989,0.9057875457875458
2.356507925003825,1.5037362637362637,0.9283516483516483,3.059047619047619
2.3574643270039815,1.672161172161172,1.0564835164835162,3.266153846153846
2.358930827002041,1.672161172161172,1.0564835164835162,3.266153846153846
2.3630465820024256,1.672161172161172,1.0564835164835162,3.266153846153846
2.3665379189988016,1.672161172161172,1.0564835164835162,3.266153846153846
2.3721021410019603,0.0,0.06124542124542124,1.2740659340659342
2.3731924120002077,0.0,0.06124542124542124,1.2740659340659342
2.373533115001919,0.0,0.06124542124542124,1.2740659340659342
2.3793408510027803,0.0,0.06124542124542124,1.2740659340659342
2.3839211169979535,1.8156043956043957,1.0137728937728938,0.5383150183150183
2.384211973003403,1.8156043956043957,1.0137728937728938,0.5383150183150183
2.3889080730004935,1.8156043956043957,1.0137728937728938,0.5383150183150183
2.389071466997848,1.8156043956043957,1.0137728937728938,0.5383150183150183
2.3947170300016296,1.8156043956043957,1.0137728937728938,0.5383150183150183
2.394919676000427,0.0,0.07333333333333333,0.8622710622710623
2.400463411999226,0.0,0.07333333333333333,0.8622710622710623
2.401488795003388,0.0,0.07333333333333333,0.8622710622710623
2.4017916209995747,0.0,0.07333333333333333,0.8622710622710623
2.4071833370035165,0.0,0.07333333333333333,0.8622710622710623
2.4087879400030943,0.21838827838827837,0.25545787545787546,1.4755311355311356
2.4123741970033734,0.21838827838827837,0.25545787545787546,1.4755311355311356
2.4126201510007377,0.21838827838827837,0.25545787545787546,1.4755311355311356
2.4174062090023654,0.21838827838827837,0.25545787545787546,1.4755311355311356
2.417601018001733,1.2772893772893772,0.5278388278388277,2.6569230769230767
2.422503954003332,1.2772893772893772,0.5278388278388277,2.6569230769230767
2.4273597900028108,1.2772893772893772,0.5278388278388277,2.6569230769230767
2.4323209159992984,1.2772893772893772,0.5278388278388277,2.6569230769230767
2.4373548610019498,1.2772893772893772,0.5278388278388277,2.6569230769230767
2.440973741002381,1.2772893772893772,0.5278388278388277,2.6569230769230767
2.4411232359998394,1.2772893772893772,0.5278388278388277,2.6569230769230767
2.4460715590030304,1.2772893772893772,0.5278388278388277,2.6569230769230767
2.451075793003838,1.2772893772893772,0.5278388278388277,2.6569230769230767
2.455228767998051,1.2772893772893772,0.5278388278388277,2.6569230769230767
2.458001179002167,1.2772893772893772,0.5278388278388277,2.6569230769230767
2.461573710999801,1.2772893772893772,0.5278388278388277,2.6569230769230767
2.4617264289991,1.2772893772893772,0.5278388278388277,2.6569230769230767
2.466605353001796,1.2772893772893772,0.5278388278388277,2.6569230769230767
2.4714027820009505,0.14586080586080585,0.24256410256410255,1.8607326007326006
2.4715831110006548,0.0,0.13135531135531134,1.2563369963369961
2.4764804130027187,0.0,0.13135531135531134,1.2563369963369961
2.48135615800129,0.0,0.13135531135531134,1.2563369963369961
2.481481287999486,0.0,0.13135531135531134,1.2563369963369961
2.4864596350016654,0.0,0.13135531135531134,1.2563369963369961
2.4910253640045994,0.166007326007326,0.13457875457875457,1.830915750915751
2.4912825650026207,0.166007326007326,0.13457875457875457,1.830915750915751
2.4965253740010667,0.166007326007326,0.13457875457875457,1.830915750915751
2.4989445300016087,0.166007326007326,0.13457875457875457,1.830915750915751
2.4991261739996844,0.166007326007326,0.13457875457875457,1.830915750915751
2.504392740003823,0.166007326007326,0.13457875457875457,1.830915750915751
2.5073258740012534,0.166007326007326,0.13457875457875457,1.830915750915751
2.5096917190021486,0.166007326007326,0.13457875457875457,1.830915750915751
2.509833668002102,0.166007326007326,0.13457875457875457,1.830915750915751
2.515107135004655,0.166007326007326,0.13457875457875457,1.830915750915751
2.518192312003521,0.166007326007326,0.13457875457875457,1.830915750915751
2.5205622569992556,0.6656410256410257,0.3287912087912088,2.211282051282051
2.5208352850022493,0.6656410256410257,0.3287912087912088,2.211282051282051
2.5261059410040616,0.6656410256410257,0.3287912087912088,2.211282051282051
2.529095657002472,0.6656410256410257,0.3287912087912088,2.211282051282051
2.531888572004391,0.6656410256410257,0.3287912087912088,2.211282051282051
2.5349917790008476,0.6656410256410257,0.3287912087912088,2.211282051282051
2.53720076999889,0.6656410256410257,0.3287912087912088,2.211282051282051
2.5386403520024032,0.6656410256410257,0.3287912087912088,2.211282051282051
2.542915352001728,0.6656410256410257,0.3287912087912088,2.211282051282051
2.5450916870031506,0.6656410256410257,0.3287912087912088,2.211282051282051
2.54596395399858,0.6656410256410257,0.3287912087912088,2.211282051282051
2.547429928003112,0.0,0.14424908424908423,1.8131868131868132
2.5527473730035126,0.0,0.14424908424908423,1.8131868131868132
2.555719374002365,0.0,0.14424908424908423,1.8131868131868132
2.5580677190009737,1.4175091575091574,0.9436630036630036,2.967179487179487
2.5583279810016393,1.4175091575091574,0.9436630036630036,2.967179487179487
2.562879602999601,1.4175091575091574,0.9436630036630036,2.967179487179487
2.563185971004714,1.4175091575091574,0.9436630036630036,2.967179487179487
2.5677548739986378,1.4175091575091574,0.9436630036630036,2.967179487179487
2.568012488001841,0.22725274725274724,0.29010989010989013,1.8865201465201462
2.5733651880000252,0.22725274725274724,0.29010989010989013,1.8865201465201462
2.5757252350013005,0.22725274725274724,0.29010989010989013,1.8865201465201462
2.5758841760034557,0.22725274725274724,0.29010989010989013,1.8865201465201462
2.581287760003761,0.22725274725274724,0.29010989010989013,1.8865201465201462
2.5829897750008968,0.22725274725274724,0.29010989010989013,1.8865201465201462
2.58693216300162,0.22725274725274724,0.29010989010989013,1.8865201465201462
2.5906851809995715,0.6720879120879121,0.32556776556776557,1.9582417582417582
2.5907834290046594,0.6720879120879121,0.32556776556776557,1.9582417582417582
2.59606429500127,0.6720879120879121,0.32556776556776557,1.9582417582417582
2.5984581650045584,0.6720879120879121,0.32556776556776557,1.9582417582417582
2.5985956540025654,0.6720879120879121,0.32556776556776557,1.9582417582417582
2.6039511740018497,0.6720879120879121,0.32556776556776557,1.9582417582417582
2.6057896170023014,0.6720879120879121,0.32556776556776557,1.9582417582417582
2.6081664040029864,0.3723076923076923,0.4029304029304029,1.4852014652014651
2.608411576002254,0.3723076923076923,0.4029304029304029,1.4852014652014651
2.6139291939980467,0.3723076923076923,0.4029304029304029,1.4852014652014651
2.6149723370035645,0.0,0.16197802197802197,1.070989010989011
2.615900517004775,0.0,0.16197802197802197,1.070989010989011
2.6175591409992194,0.0,0.16197802197802197,1.070989010989011
2.621459328001947,0.40615384615384614,0.1668131868131868,2.947032967032967
2.625316924000799,0.40615384615384614,0.1668131868131868,2.947032967032967
2.629725339000288,0.40615384615384614,0.1668131868131868,2.947032967032967
2.63130350800202,0.40615384615384614,0.1668131868131868,2.947032967032967
2.6357329329985077,0.40615384615384614,0.1668131868131868,2.947032967032967
2.636552453004697,0.40615384615384614,0.1668131868131868,2.947032967032967
2.6386700619987096,0.40615384615384614,0.1668131868131868,2.947032967032967
2.6401578650038573,0.40615384615384614,0.1668131868131868,2.947032967032967
2.6449743550037965,0.40615384615384614,0.1668131868131868,2.947032967032967
2.6451161810036865,0.40615384615384614,0.1668131868131868,2.947032967032967
2.6499932630031253,0.40615384615384614,0.1668131868131868,2.947032967032967
2.654233724999358,0.40615384615384614,0.1668131868131868,2.947032967032967
2.6571033540021745,0.40615384615384614,0.1668131868131868,2.947032967032967
2.6599487120038248,0.40615384615384614,0.1668131868131868,2.947032967032967
2.6634350559979794,0.40615384615384614,0.1668131868131868,2.947032967032967
2.664187934002257,0.40615384615384614,0.1668131868131868,2.947032967032967
2.6656907930009766,0.40615384615384614,0.1668131868131868,2.947032967032967
2.66988410599879,0.40615384615384614,0.1668131868131868,2.947032967032967
2.6720943079999415,0.0,0.12893772893772892,1.1821978021978021
2.673647308998625,0.0,0.12893772893772892,1.1821978021978021
2.677228061002097,0.0,0.12893772893772892,1.1821978021978021
2.677494720002869,0.0,0.12893772893772892,1.1821978021978021
2.682303457004309,0.0,0.12893772893772892,1.1821978021978021
2.682388881003135,0.0,0.12893772893772892,1.1821978021978021
2.688292076003563,0.0,0.12893772893772892,1.1821978021978021
2.693534712998371,0.0,0.12893772893772892,1.1821978021978021
2.697200533002615,0.0,0.09428571428571428,0.9057875457875458
2.702395387997967,0.0,0.09428571428571428,0.9057875457875458
2.705398142003105,0.0,0.09428571428571428,0.9057875457875458
2.7077444340029615,0.0,0.09428571428571428,0.9057875457875458
2.7080196410024655,1.3304761904761904,0.6301831501831501,2.2604395604395604
2.713318622998486,1.3304761904761904,0.6301831501831501,2.2604395604395604
2.7156308620033087,1.3304761904761904,0.6301831501831501,2.2604395604395604
2.7159102049990906,1.3304761904761904,0.6301831501831501,2.2604395604395604
2.721085092998692,1.3304761904761904,0.6301831501831501,2.2604395604395604
2.7247720930026844,1.3304761904761904,0.6301831501831501,2.2604395604395604
2.7293144080031198,1.3304761904761904,0.6301831501831501,2.2604395604395604
2.729552358003275,1.7873992673992671,0.8002197802197801,2.4393406593406595
2.7357362960028695,1.7873992673992671,0.8002197802197801,2.4393406593406595
2.7395334399989224,1.7873992673992671,0.8002197802197801,2.4393406593406595
2.7447572160017444,0.5391208791208791,0.25787545787545785,2.8334065934065933
2.7485085770022124,0.5391208791208791,0.25787545787545785,2.8334065934065933
2.7536804060000577,0.5391208791208791,0.25787545787545785,2.8334065934065933
2.757350296000368,0.0,0.09347985347985348,0.8614652014652014
2.757465405004041,0.0,0.09347985347985348,0.8614652014652014
2.7628165889982483,1.6544322344322344,0.9025641025641026,3.3
2.764422034000745,2.008205128205128,1.1273992673992674,0.7905494505494506
2.7682963800034486,2.008205128205128,1.1273992673992674,0.7905494505494506
2.772833859999082,2.008205128205128,1.1273992673992674,0.7905494505494506
2.773132408998208,2.008205128205128,1.1273992673992674,0.7905494505494506
2.777740691002691,2.008205128205128,1.1273992673992674,0.7905494505494506
2.777938967999944,0.6761172161172161,0.3441025641025641,2.1726007326007326
2.785049299003731,1.80996336996337,0.9428571428571427,3.0526007326007325
2.792339687999629,1.80996336996337,0.9428571428571427,3.0526007326007325
2.797498963001999,0.025787545787545788,0.14747252747252745,0.8477655677655677
2.8002221139977337,0.701098901098901,0.34087912087912087,2.1766300366300366
2.807033417004277,0.701098901098901,0.34087912087912087,2.1766300366300366
2.8120748270011973,0.701098901098901,0.34087912087912087,2.1766300366300366
2.8158879690017784,0.701098901098901,0.34087912087912087,2.1766300366300366
2.819710864998342,0.701098901098901,0.34087912087912087,2.1766300366300366
2.825176983002166,1.9187545787545788,1.0580952380952382,1.099194139194139
2.825382408002042,1.9187545787545788,1.0580952380952382,1.099194139194139
2.8319628610042855,1.9187545787545788,1.0580952380952382,1.099194139194139
2.836374461003288,1.9187545787545788,1.0580952380952382,1.099194139194139
2.837262141001702,1.5166300366300365,0.9525274725274724,2.722197802197802
2.83918734100007,1.5166300366300365,0.9525274725274724,2.722197802197802
2.840868243998557,1.5166300366300365,0.9525274725274724,2.722197802197802
2.845549347999622,1.5166300366300365,0.9525274725274724,2.722197802197802
2.845820326998364,1.5166300366300365,0.9525274725274724,2.722197802197802
2.8505837510019774,1.5166300366300365,0.9525274725274724,2.722197802197802
2.858989214000758,1.5166300366300365,0.9525274725274724,2.722197802197802
2.868530682004348,1.5166300366300365,0.9525274725274724,2.722197802197802
2.876046748999215,2.004175824175824,0.8534065934065934,2.9156043956043955
2.882010077002633,0.0,0.07494505494505493,0.9267399267399267
2.8878541849990143,0.0,0.07494505494505493,0.9267399267399267
2.8917475679991185,0.0,0.07494505494505493,0.9267399267399267
2.895784594998986,0.0,0.07494505494505493,0.9267399267399267
2.9019268850024673,0.0,0.07494505494505493,0.9267399267399267
2.908036022003216,0.0,0.07494505494505493,0.9267399267399267
2.9115430599995307,0.0,0.07494505494505493,0.9267399267399267
2.9117960010044044,0.0,0.07494505494505493,0.9267399267399267
2.921053120000579,0.0,0.07494505494505493,0.9267399267399267
2.9275530310042086,1.0887179487179486,0.4593406593406593,2.4917216117216117
2.933837491000304,0.24578754578754577,0.307032967032967,1.5593406593406591
2.938512360000459,0.0,0.0693040293040293,0.9178754578754579
2.950642253003025,0.0,0.0693040293040293,0.9178754578754579
2.9581611600006,0.0,0.0693040293040293,0.9178754578754579
2.9640855390025536,0.0,0.10073260073260072,0.834065934065934
2.9689989110047463,0.0,0.10073260073260072,0.834065934065934
2.9739256590037257,0.0,0.10073260073260072,0.834065934065934
2.980138070000976,0.0,0.10073260073260072,0.834065934065934
2.9858087960019475,0.0,0.10073260073260072,0.834065934065934
2.9966407300016726,0.0,0.10073260073260072,0.834065934065934
3.0050428489994374,0.0,0.11362637362637362,1.191062271062271
3.010945674002869,0.0,0.11362637362637362,1.191062271062271
3.016681505003362,0.0,0.11362637362637362,1.191062271062271
3.026791743002832,0.0,0.11362637362637362,1.191062271062271
3.035606582001492,0.8534065934065934,0.5786080586080585,1.257142857142857
3.0433231280039763,0.8534065934065934,0.5786080586080585,1.257142857142857
3.050931046003825,0.8534065934065934,0.5786080586080585,1.257142857142857
3.056516032003856,0.8534065934065934,0.5786080586080585,1.257142857142857
3.0567717669982812,0.0,0.09912087912087912,0.8912820512820512
3.0628173730001436,0.0,0.09912087912087912,0.8912820512820512
3.0680010380019667,0.0,0.09912087912087912,0.8912820512820512
3.070363355000154,0.0,0.09912087912087912,0.8912820512820512
3.0705651829994167,0.0,0.09912087912087912,0.8912820512820512
3.0763392110020504,0.0,0.09912087912087912,0.8912820512820512
3.0766042539980845,1.2458608058608058,0.8614652014652014,3.1299633699633698
3.084889548998035,1.2458608058608058,0.8614652014652014,3.1299633699633698
3.0888254520032206,1.1757509157509156,0.39567765567765567,2.702857142857143
3.0932299030027934,0.0,0.15472527472527473,1.0959706959706959
3.0953121810016455,0.0,0.15472527472527473,1.0959706959706959
3.0963296679983614,0.0,0.15472527472527473,1.0959706959706959
3.0975325940016774,0.0,0.15472527472527473,1.0959706959706959
3.0976868030047626,0.0,0.15472527472527473,1.0959706959706959
3.1042746960010845,0.0,0.15472527472527473,1.0959706959706959
3.1081044590027886,0.0,0.06688644688644689,1.1975091575091574
3.1128290920023574,0.4657875457875458,0.47062271062271055,1.8413919413919413
3.1130783519984107,0.4657875457875458,0.47062271062271055,1.8413919413919413
3.1191555640034494,0.4657875457875458,0.47062271062271055,1.8413919413919413
3.1236847510008374,0.4657875457875458,0.47062271062271055,1.8413919413919413
3.1239291630045045,0.4657875457875458,0.47062271062271055,1.8413919413919413
3.130109652003739,0.1241025641025641,0.2909157509157509,1.3191941391941393
3.1354658359996392,0.1241025641025641,0.2909157509157509,1.3191941391941393
3.135822891003045,1.3127472527472526,0.913040293040293,3.03003663003663
3.140435870998772,1.3127472527472526,0.913040293040293,3.03003663003663
3.140687760998844,1.3127472527472526,0.913040293040293,3.03003663003663
3.1464473650048603,1.3127472527472526,0.913040293040293,3.03003663003663
3.146623548003845,0.2651282051282051,0.34813186813186814,1.90989010989011
3.1521223180025117,0.2651282051282051,0.34813186813186814,1.90989010989011
3.153718753004796,0.2651282051282051,0.34813186813186814,1.90989010989011
3.1582871999999043,0.2651282051282051,0.34813186813186814,1.90989010989011
3.1585579220045474,0.2651282051282051,0.34813186813186814,1.90989010989011
3.164701123001578,0.2651282051282051,0.34813186813186814,1.90989010989011
3.168610525004624,0.2651282051282051,0.34813186813186814,1.90989010989011
3.1724218829986057,1.7865934065934064,0.8977289377289376,3.150915750915751
3.178086919004272,0.0,0.09267399267399268,0.9887912087912087
3.1783857199989143,0.0,0.09267399267399268,0.9887912087912087
3.18431545200292,0.0,0.09267399267399268,0.9887912087912087
3.1904818160037394,0.7293040293040293,0.5753846153846153,1.6552380952380952
3.195108837004227,0.7293040293040293,0.5753846153846153,1.6552380952380952
3.1955455930001335,0.7293040293040293,0.5753846153846153,1.6552380952380952
3.201183602002857,0.7293040293040293,0.5753846153846153,1.6552380952380952
3.2087612239993177,0.7293040293040293,0.5753846153846153,1.6552380952380952
3.215934924999601,0.7293040293040293,0.5753846153846153,1.6552380952380952
3.220061109001108,0.7293040293040293,0.5753846153846153,1.6552380952380952
3.222407455003122,1.593992673992674,0.7365567765567765,2.5021978021978017
3.2226893910046783,1.593992673992674,0.7365567765567765,2.5021978021978017
3.227331905000028,1.593992673992674,0.7365567765567765,2.5021978021978017
3.227567777998047,1.593992673992674,0.7365567765567765,2.5021978021978017
3.234430128002714,1.593992673992674,0.7365567765567765,2.5021978021978017
3.238307571002224,1.593992673992674,0.7365567765567765,2.5021978021978017
3.2431453660028637,1.593992673992674,0.7365567765567765,2.5021978021978017
3.2489357960002962,1.593992673992674,0.7365567765567765,2.5021978021978017
3.254335751000326,1.593992673992674,0.7365567765567765,2.5021978021978017
3.255957009001577,1.593992673992674,0.7365567765567765,2.5021978021978017
3.259968074999051,0.5794139194139193,0.29333333333333333,2.9534798534798536
3.2651068519990076,0.5794139194139193,0.29333333333333333,2.9534798534798536
3.266902673000004,0.5794139194139193,0.29333333333333333,2.9534798534798536
3.269295443998999,0.5794139194139193,0.29333333333333333,2.9534798534798536
3.2696242930032895,0.5794139194139193,0.29333333333333333,2.9534798534798536
3.2749468280017027,0.5794139194139193,0.29333333333333333,2.9534798534798536
3.2777709970032447,0.0,0.0556043956043956,1.0653479853479852
3.2825596180045977,0.0,0.0556043956043956,1.0653479853479852
3.2865019220043905,0.0,0.0556043956043956,1.0653479853479852
3.290343949003727,0.30622710622710625,0.3545787545787546,1.5053479853479852
3.295088159000443,1.0879120879120878,0.5004395604395604,2.154065934065934
3.2951845790012158,0.0,0.0846153846153846,0.9823443223443222
3.301460622002196,0.0,0.0846153846153846,0.9823443223443222
3.305218663001142,0.0,0.0846153846153846,0.9823443223443222
3.31042925100337,0.381978021978022,0.38036630036630037,1.5649816849816849
3.3161251860001357,0.0024175824175824176,0.05641025641025641,1.602051282051282
3.321907622004801,0.0024175824175824176,0.05641025641025641,1.602051282051282
3.3311748760024784,0.701098901098901,0.4553113553113553,1.2982417582417582
3.3383909260010114,0.701098901098901,0.4553113553113553,1.2982417582417582
3.343622733002121,0.701098901098901,0.4553113553113553,1.2982417582417582
3.3487812809980824,1.2466666666666666,0.7059340659340658,0.921098901098901
3.3516219270022702,1.2466666666666666,0.7059340659340658,0.921098901098901
3.355488143999537,1.2466666666666666,0.7059340659340658,0.921098901098901
3.3599461330013582,1.2466666666666666,0.7059340659340658,0.921098901098901
3.361101182999846,1.8978021978021975,1.0073260073260073,1.0258608058608059
3.361329694998858,1.6189743589743588,0.9098168498168498,0.28769230769230764
3.369791630000691,1.6189743589743588,0.9098168498168498,0.28769230769230764
3.3746874530042987,1.6189743589743588,0.9098168498168498,0.28769230769230764
3.3800582629992277,1.6189743589743588,0.9098168498168498,0.28769230769230764
3.383822814001178,0.4472527472527472,0.1789010989010989,2.984908424908425
3.3868089629977476,0.4472527472527472,0.1789010989010989,2.984908424908425
3.3903796509985114,0.09992673992673992,0.2562637362637363,1.3304761904761904
3.3905173060047673,0.09992673992673992,0.2562637362637363,1.3304761904761904
3.3969417629996315,0.09992673992673992,0.2562637362637363,1.3304761904761904
3.4011140020011226,0.09992673992673992,0.2562637362637363,1.3304761904761904
3.4027335650025634,1.7640293040293038,0.9646153846153847,0.5778021978021978
3.407669361004082,0.5117216117216117,0.41018315018315016,1.510989010989011
3.416004079997947,0.4142124542124542,0.4045421245421245,1.7414652014652015
3.4198755210018135,0.0,0.0701098901098901,1.0468131868131867
3.4233143140008906,0.0,0.0701098901098901,1.0468131868131867
3.423610258003464,0.0,0.0701098901098901,1.0468131868131867
3.430226410004252,0.0,0.0701098901098901,1.0468131868131867
3.4339153160035494,0.0,0.05963369963369963,1.120952380952381
3.4395734630015795,0.0,0.05963369963369963,1.120952380952381
3.439813306002179,0.0,0.05963369963369963,1.120952380952381
3.4456930750020547,0.0,0.05963369963369963,1.120952380952381
3.4515981869990355,1.4295970695970697,0.8590476190476191,0.6753113553113552
3.4561672780037043,1.4295970695970697,0.8590476190476191,0.6753113553113552
3.456449311997858,1.0242490842490841,0.7905494505494506,3.084029304029304
3.4628656080021756,0.4520879120879121,0.1789010989010989,2.959120879120879
3.466930599002808,0.5592673992673992,0.42952380952380953,1.3586813186813185
3.4694722780041047,0.3892307692307692,0.42630036630036633,1.876043956043956
3.474414574004186,0.3892307692307692,0.42630036630036633,1.876043956043956
3.4793256070042844,0.9952380952380951,0.6479120879120879,1.4779487179487178
3.484460878004029,0.9952380952380951,0.6479120879120879,1.4779487179487178
3.4867929110041587,0.9952380952380951,0.6479120879120879,1.4779487179487178
3.4870146800021757,0.9952380952380951,0.6479120879120879,1.4779487179487178
3.492707518998941,0.9952380952380951,0.6479120879120879,1.4779487179487178
3.492860299003951,0.9952380952380951,0.6479120879120879,1.4779487179487178
3.499769934001961,0.9952380952380951,0.6479120879120879,1.4779487179487178
3.5036575510021066,0.9952380952380951,0.6479120879120879,1.4779487179487178
3.508314878003148,0.9952380952380951,0.6479120879120879,1.4779487179487178
3.5086016720015323,0.5084981684981685,0.5109157509157509,1.7487179487179487
3.516785592000815,0.5084981684981685,0.5109157509157509,1.7487179487179487
3.5224044990027323,0.0,0.12974358974358974,1.124981684981685
3.5226484579980024,0.0,0.12974358974358974,1.124981684981685
3.531676113998401,0.0,0.12974358974358974,1.124981684981685
3.5367081680014962,0.3553846153846154,0.3972893772893773,1.8986080586080583
3.5405375699992874,1.5496703296703296,1.0282783882783881,2.78021978021978
3.5485861230044975,1.5496703296703296,1.0282783882783881,2.78021978021978
3.553647787004593,1.9308424908424908,0.8147252747252747,2.8454945054945053
3.5567528219980886,1.9308424908424908,0.8147252747252747,2.8454945054945053
3.5584853410036885,1.9308424908424908,0.8147252747252747,2.8454945054945053
3.5633797440023045,1.9308424908424908,0.8147252747252747,2.8454945054945053
3.5673246860023937,1.7575824175824175,0.9968498168498168,0.3046153846153846
3.5710845990033704,1.7575824175824175,0.9968498168498168,0.3046153846153846
3.575778596998134,1.9969230769230766,0.8437362637362636,2.8777289377289375
3.5759774270045455,1.647985347985348,1.0798534798534798,2.8285714285714283
3.5849629160002223,1.647985347985348,1.0798534798534798,2.8285714285714283
3.590329771002871,1.647985347985348,1.0798534798534798,2.8285714285714283
3.5920459990011295,1.647985347985348,1.0798534798534798,2.8285714285714283
3.597622364999552,1.647985347985348,1.0798534798534798,2.8285714285714283
3.6045107770041795,1.647985347985348,1.0798534798534798,2.8285714285714283
3.6097443100006785,1.647985347985348,1.0798534798534798,2.8285714285714283
3.6132646149999346,0.0,0.16842490842490843,1.7414652014652015
3.6195330070040654,0.0,0.16842490842490843,1.7414652014652015
3.6227821220018086,0.0,0.16842490842490843,1.7414652014652015
3.6244057349977084,0.0,0.16842490842490843,1.7414652014652015
3.6293869750006706,0.0,0.16842490842490843,1.7414652014652015
3.635375121004472,0.0,0.16842490842490843,1.7414652014652015
3.639732827003172,0.0,0.16842490842490843,1.7414652014652015
3.6411785680029425,0.0,0.16842490842490843,1.7414652014652015
3.6507364740027697,0.0,0.16842490842490843,1.7414652014652015
3.6578277759981574,0.9694505494505494,0.5778021978021978,1.1016117216117214
3.663169856998138,1.2539194139194139,0.5802197802197803,2.784249084249084
3.6660640410045744,1.2539194139194139,0.5802197802197803,2.784249084249084
3.6702867170024547,0.24498168498168496,0.26109890109890105,1.3852747252747253
3.670617823001521,0.24498168498168496,0.26109890109890105,1.3852747252747253
3.6789561490004417,0.0,0.05318681318681319,1.1265934065934065
3.6863957440000377,1.3691575091575092,0.8292307692307692,3.1976556776556775
3.693149883998558,1.3691575091575092,0.8292307692307692,3.1976556776556775
3.6992199279993656,0.0,0.07736263736263736,1.157216117216117
3.702394091000315,0.0,0.07736263736263736,1.157216117216117
3.70334239800286,0.0,0.07736263736263736,1.157216117216117
3.7049303419989883,0.0,0.07736263736263736,1.157216117216117
3.708962173004693,0.0,0.07736263736263736,1.157216117216117
3.714036155004578,0.32717948717948714,0.3223443223443223,1.8486446886446886
3.7176597689976916,1.5835164835164834,0.9082051282051282,2.0154578754578756
3.7215383630027645,1.5835164835164834,0.9082051282051282,2.0154578754578756
3.7253525240012095,1.5835164835164834,0.9082051282051282,2.0154578754578756
3.7338370279976516,1.5835164835164834,0.9082051282051282,2.0154578754578756
3.739319090003846,1.8913553113553112,1.0411721611721612,2.6665934065934067
3.7404875549982535,1.8913553113553112,1.0411721611721612,2.6665934065934067
3.7407228240044788,1.8913553113553112,1.0411721611721612,2.6665934065934067
3.749022344003606,1.8913553113553112,1.0411721611721612,2.6665934065934067
3.7546194450042094,1.8913553113553112,1.0411721611721612,2.6665934065934067
3.754800315000466,1.8913553113553112,1.0411721611721612,2.6665934065934067
3.759415740001714,1.8913553113553112,1.0411721611721612,2.6665934065934067
3.75966595600039,1.8913553113553112,1.0411721611721612,2.6665934065934067
3.7671381710024434,1.934065934065934,1.004102564102564,0.9227106227106227
3.7712340119978762,1.2845421245421245,0.7768498168498168,1.1717216117216116
3.7748362880010973,1.2845421245421245,0.7768498168498168,1.1717216117216116
3.782185734002269,1.2845421245421245,0.7768498168498168,1.1717216117216116
3.786121764998825,0.6076190476190476,0.4254945054945055,2.8833699633699634
3.7905793219979387,0.6076190476190476,0.4254945054945055,2.8833699633699634
3.7914068450045306,0.6076190476190476,0.4254945054945055,2.8833699633699634
3.7930321099993307,0.6076190476190476,0.4254945054945055,2.8833699633699634
3.8001056389985024,0.6076190476190476,0.4254945054945055,2.8833699633699634
3.8050502330006566,0.6076190476190476,0.4254945054945055,2.8833699633699634
3.8081510350020835,0.6076190476190476,0.4254945054945055,2.8833699633699634
3.8107007240032544,0.6076190476190476,0.4254945054945055,2.8833699633699634
3.8177858810013277,0.0,0.07736263736263736,1.0895238095238093
3.8226904760012985,0.0,0.07736263736263736,1.0895238095238093
3.8283398380008293,1.0435897435897434,0.6358241758241758,1.0427838827838827
3.8300468520028517,0.23934065934065935,0.2989743589743589,1.872014652014652
3.8327579949982464,0.23934065934065935,0.2989743589743589,1.872014652014652
3.8369425630007754,0.23934065934065935,0.2989743589743589,1.872014652014652
3.8393301280011656,0.23934065934065935,0.2989743589743589,1.872014652014652
3.8395679669993115,0.23934065934065935,0.2989743589743589,1.872014652014652
3.844685825999477,0.23934065934065935,0.2989743589743589,1.872014652014652
3.8506473300003563,0.23934065934065935,0.2989743589743589,1.872014652014652
3.853844987002958,0.23934065934065935,0.2989743589743589,1.872014652014652
3.8554584290031926,0.23934065934065935,0.2989743589743589,1.872014652014652
3.859833984002762,0.23934065934065935,0.2989743589743589,1.872014652014652
3.862558815999364,1.714065934065934,0.838095238095238,3.07032967032967
3.8676687460028916,1.714065934065934,0.838095238095238,3.07032967032967
3.8686030360040604,1.714065934065934,0.838095238095238,3.07032967032967
3.869637021998642,1.714065934065934,0.838095238095238,3.07032967032967
3.8705871050042333,1.714065934065934,0.838095238095238,3.07032967032967
3.871502968999266,1.714065934065934,0.838095238095238,3.07032967032967
3.8730872430023737,1.714065934065934,0.838095238095238,3.07032967032967
3.8788092949980637,1.714065934065934,0.838095238095238,3.07032967032967
3.878936134999094,1.714065934065934,0.838095238095238,3.07032967032967
3.885210348002147,1.714065934065934,0.838095238095238,3.07032967032967
3.8884892249989207,1.714065934065934,0.838095238095238,3.07032967032967
3.889398177001567,1.714065934065934,0.838095238095238,3.07032967032967
3.8909646780011826,1.995311355311355,0.8808058608058608,3.1323809523809523
3.8963589089980815,1.995311355311355,0.8808058608058608,3.1323809523809523
3.8989535860018805,1.995311355311355,0.8808058608058608,3.1323809523809523
3.9021414579983684,1.995311355311355,0.8808058608058608,3.1323809523809523
3.9045305820036447,1.995311355311355,0.8808058608058608,3.1323809523809523
3.904693871998461,1.995311355311355,0.8808058608058608,3.1323809523809523
3.909208379998745,1.995311355311355,0.8808058608058608,3.1323809523809523
3.9108415439986857,1.995311355311355,0.8808058608058608,3.1323809523809523
3.914350746003038,0.0,0.08864468864468865,1.112893772893773
3.9144893900011084,0.0,0.08864468864468865,1.112893772893773
3.9204249329995946,0.0,0.08864468864468865,1.112893772893773
3.9296209849999286,0.0,0.08864468864468865,1.112893772893773
3.9379670810012612,0.0,0.08864468864468865,1.112893772893773
3.946629040998232,0.0,0.08864468864468865,1.112893772893773
3.9517808480013628,0.0,0.08864468864468865,1.112893772893773
3.9541500589984935,0.0,0.06527472527472526,1.1024175824175824
3.954323233003379,0.0,0.06527472527472526,1.1024175824175824
3.95948030299769,0.0,0.06527472527472526,1.1024175824175824
3.9628391610021936,0.0,0.06527472527472526,1.1024175824175824
3.9632513020042097,0.0,0.06527472527472526,1.1024175824175824
3.968882041001052,0.6761172161172161,0.5890842490842491,1.6544322344322344
3.9743485290018725,2.025128205128205,0.8840293040293039,3.08
3.9760808810024173,2.025128205128205,0.8840293040293039,3.08
3.9807484289995045,2.025128205128205,0.8840293040293039,3.08
3.981039480000618,2.025128205128205,0.8840293040293039,3.08
3.987751845001185,2.025128205128205,0.8840293040293039,3.08
3.991020870002103,1.2224908424908425,0.5729670329670329,2.007399267399267
3.9925796870011254,1.2224908424908425,0.5729670329670329,2.007399267399267
3.99943253499805,1.2224908424908425,0.5729670329670329,2.007399267399267
4.002510702004656,0.45692307692307693,0.21435897435897436,2.8277655677655673
4.005522284001927,0.45692307692307693,0.21435897435897436,2.8277655677655673
4.007128830999136,0.45692307692307693,0.21435897435897436,2.8277655677655673
4.012914167004055,0.45692307692307693,0.21435897435897436,2.8277655677655673
4.018497775003198,0.45692307692307693,0.21435897435897436,2.8277655677655673
4.018788642002619,0.45692307692307693,0.21435897435897436,2.8277655677655673
4.024040843003604,1.859120879120879,0.9364102564102563,3.075164835164835
4.0271180140043725,1.859120879120879,0.9364102564102563,3.075164835164835
4.029444325999066,1.859120879120879,0.9364102564102563,3.075164835164835
4.029567384000984,1.859120879120879,0.9364102564102563,3.075164835164835
4.034523424001236,1.859120879120879,0.9364102564102563,3.075164835164835
4.039919358998304,0.0,0.0821978021978022,1.0806593406593406
4.042506600999332,0.0,0.0821978021978022,1.0806593406593406
4.051090074004605,0.0,0.0821978021978022,1.0806593406593406
4.0572354160030955,0.0,0.07333333333333333,1.2555311355311354
4.061958361999132,1.7487179487179487,1.025054945054945,2.2080586080586078
4.067418445003568,1.7487179487179487,1.025054945054945,2.2080586080586078
4.0676897060038755,1.7487179487179487,1.025054945054945,2.2080586080586078
4.0728659110027365,1.7487179487179487,1.025054945054945,2.2080586080586078
4.075985003000824,1.7487179487179487,1.025054945054945,2.2080586080586078
4.077890756998386,1.7487179487179487,1.025054945054945,2.2080586080586078
4.080770581000252,1.7487179487179487,1.025054945054945,2.2080586080586078
4.0832198670032085,1.8687912087912086,1.0572893772893772,0.5697435897435897
4.083328382999753,1.8687912087912086,1.0572893772893772,0.5697435897435897
4.087969430998783,1.8687912087912086,1.0572893772893772,0.5697435897435897
4.088108437004848,0.0,0.03062271062271062,1.2555311355311354
4.093285228998866,0.0,0.03062271062271062,1.2555311355311354
4.097200939002505,0.0,0.03062271062271062,1.2555311355311354
4.1003930540027795,0.0,0.03062271062271062,1.2555311355311354
4.102231623000989,0.0,0.03062271062271062,1.2555311355311354
4.1045974400039995,0.0,0.03062271062271062,1.2555311355311354
4.104743584997777,0.0,0.03062271062271062,1.2555311355311354
4.110023373999866,0.0,0.03062271062271062,1.2555311355311354
4.113488082999538,0.0,0.06688644688644689,1.1459340659340658
4.113724941998953,0.0,0.10798534798534798,1.008131868131868
4.11833800200111,0.0,0.10798534798534798,1.008131868131868
4.118661667002016,0.0,0.10798534798534798,1.008131868131868
4.123232113997801,0.0,0.10798534798534798,1.008131868131868
4.12353854200046,1.2926007326007325,0.8437362637362636,1.3643223443223442
4.1281547250036965,1.2926007326007325,0.8437362637362636,1.3643223443223442
4.129684924002504,1.2926007326007325,0.8437362637362636,1.3643223443223442
4.135403464002593,0.3183150183150183,0.29655677655677654,1.1088644688644689
4.141296403999149,0.3183150183150183,0.29655677655677654,1.1088644688644689
4.141413514000305,2.0597802197802197,1.1016117216117214,0.946080586080586
4.146545142997638,2.0597802197802197,1.1016117216117214,0.946080586080586
4.150279810004577,2.0597802197802197,1.1016117216117214,0.946080586080586
4.155091392000031,2.0597802197802197,1.1016117216117214,0.946080586080586
4.160129345000314,2.0597802197802197,1.1016117216117214,0.946080586080586
4.165833270999428,0.7172161172161172,0.46014652014652013,2.9913553113553113
4.165958245997899,0.7172161172161172,0.46014652014652013,2.9913553113553113
4.170762200999889,0.7172161172161172,0.46014652014652013,2.9913553113553113
4.1708839510029065,0.7172161172161172,0.46014652014652013,2.9913553113553113
4.176228484000603,0.7172161172161172,0.46014652014652013,2.9913553113553113
4.179197146004299,0.7172161172161172,0.46014652014652013,2.9913553113553113
4.182179907998943,0.7172161172161172,0.46014652014652013,2.9913553113553113
4.184744874000899,0.7172161172161172,0.46014652014652013,2.9913553113553113
4.190197588002775,0.7172161172161172,0.46014652014652013,2.9913553113553113
4.1924968649982475,0.0,0.15472527472527473,1.7938461538461536
4.192690925003262,0.0,0.15472527472527473,1.7938461538461536
4.200507326000661,0.0,0.15472527472527473,1.7938461538461536
4.205140326004766,0.0,0.15472527472527473,1.7938461538461536
4.205434846000571,0.834065934065934,0.6172893772893773,1.6834432234432233
4.209984831002657,0.834065934065934,0.6172893772893773,1.6834432234432233
4.212616231001448,0.834065934065934,0.6172893772893773,1.6834432234432233
4.216766573001223,0.834065934065934,0.6172893772893773,1.6834432234432233
4.219118115004676,0.834065934065934,0.6172893772893773,1.6834432234432233
4.2200541620040894,0.834065934065934,0.6172893772893773,1.6834432234432233
4.220907034999982,0.834065934065934,0.6172893772893773,1.6834432234432233
4.221908990999509,0.834065934065934,0.6172893772893773,1.6834432234432233
4.222883428003115,1.2063736263736262,0.7083516483516483,0.850989010989011
4.223775129001297,1.2063736263736262,0.7083516483516483,0.850989010989011
4.225465900002746,1.2063736263736262,0.7083516483516483,0.850989010989011
4.232562351004162,0.5141391941391941,0.4891575091575091,1.747106227106227
4.237262016002205,0.33926739926739924,0.23853479853479853,1.80996336996337
4.2416853649992845,0.33926739926739924,0.23853479853479853,1.80996336996337
4.243272708001314,0.33926739926739924,0.23853479853479853,1.80996336996337
4.2502720699994825,0.33926739926739924,0.23853479853479853,1.80996336996337
4.2541426829993725,0.33926739926739924,0.23853479853479853,1.80996336996337
4.258677178004291,0.0,0.10395604395604395,1.008131868131868
4.258945658002631,0.0,0.10395604395604395,1.008131868131868
4.265401835000375,0.0,0.10395604395604395,1.008131868131868
4.268750554001599,0.0,0.10395604395604395,1.008131868131868
4.269026922003832,0.0,0.10395604395604395,1.008131868131868
4.274713185004657,0.0,0.10395604395604395,1.008131868131868
4.274945025004854,0.0,0.10395604395604395,1.008131868131868
4.281574004999129,0.0,0.10395604395604395,1.008131868131868
4.285269419000542,0.0,0.10395604395604395,1.008131868131868
4.290566777002823,0.8630769230769231,0.5995604395604395,1.3667399267399267
4.292824743002711,0.8630769230769231,0.5995604395604395,1.3667399267399267
4.293180221000512,0.8630769230769231,0.5995604395604395,1.3667399267399267
4.300187451000966,0.8630769230769231,0.5995604395604395,1.3667399267399267
4.30418684000324,0.8630769230769231,0.5995604395604395,1.3667399267399267
4.307970555004431,0.8630769230769231,0.5995604395604395,1.3667399267399267
4.3133624870024505,0.8630769230769231,0.5995604395604395,1.3667399267399267
4.314351177999924,0.8630769230769231,0.5995604395604395,1.3667399267399267
4.315303046001645,0.8630769230769231,0.5995604395604395,1.3667399267399267
4.316926740000781,0.8630769230769231,0.5995604395604395,1.3667399267399267
4.321103923997725,0.8630769230769231,0.5995604395604395,1.3667399267399267
4.325527533997956,0.8630769230769231,0.5995604395604395,1.3667399267399267
4.326432061003288,0.8405128205128204,0.622124542124542,1.5641758241758241
4.328302171001269,0.8405128205128204,0.622124542124542,1.5641758241758241
4.330651379998017,0.8405128205128204,0.622124542124542,1.5641758241758241
4.330792555003427,0.8405128205128204,0.622124542124542,1.5641758241758241
4.335668309999164,0.8405128205128204,0.622124542124542,1.5641758241758241
4.340837955001916,0.8405128205128204,0.622124542124542,1.5641758241758241
4.343611292002606,0.8405128205128204,0.622124542124542,1.5641758241758241
4.3489337589999195,0.8405128205128204,0.622124542124542,1.5641758241758241
4.349923524001497,1.7463003663003662,0.8775824175824175,2.8366300366300368
4.351617498003179,1.7463003663003662,0.8775824175824175,2.8366300366300368
4.356203314004233,1.7463003663003662,0.8775824175824175,2.8366300366300368
4.356482854003843,1.7463003663003662,0.8775824175824175,2.8366300366300368
4.361048083999776,1.7463003663003662,0.8775824175824175,2.8366300366300368
4.361340082999959,1.7463003663003662,0.8775824175824175,2.8366300366300368
4.366964983004436,1.7463003663003662,0.8775824175824175,2.8366300366300368
4.3672577629986336,0.5334798534798535,0.5109157509157509,1.6931135531135528
4.372005876997719,0.5334798534798535,0.5109157509157509,1.6931135531135528
4.372199785000703,0.5334798534798535,0.5109157509157509,1.6931135531135528
4.377466962003382,0.5334798534798535,0.5109157509157509,1.6931135531135528
4.382007845000771,0.5939194139194138,0.2909157509157509,2.3216849816849816
4.387533601999166,0.5939194139194138,0.2909157509157509,2.3216849816849816
4.390447641002538,0.03062271062271062,0.195018315018315,1.8172161172161172
4.392894294003781,1.9147252747252748,0.8630769230769231,3.154945054945055
4.3997424990011496,0.0,0.07252747252747253,1.070989010989011
4.40380485499918,0.0,0.07252747252747253,1.070989010989011
4.406171757000266,0.0,0.07252747252747253,1.070989010989011
4.406476222000492,0.0,0.07252747252747253,1.070989010989011
4.4111947620040155,0.0,0.07252747252747253,1.070989010989011
4.411362860002555,1.1394871794871795,0.5632967032967032,2.007399267399267
4.417051187003381,0.0,0.05802197802197802,1.008131868131868
4.41722988300171,0.0,0.05802197802197802,1.008131868131868
4.4225086139995256,0.4029304029304029,0.1829304029304029,2.9220512820512816
4.424911173999135,0.4029304029304029,0.1829304029304029,2.9220512820512816
4.425212572001328,0.4029304029304029,0.1829304029304029,2.9220512820512816
4.430679839002551,0.4029304029304029,0.1829304029304029,2.9220512820512816
4.431775185003062,1.8333333333333333,0.9098168498168498,3.103369963369963
4.431997532999958,1.8333333333333333,0.9098168498168498,3.103369963369963
4.437720572997932,1.8333333333333333,0.9098168498168498,3.103369963369963
4.4378481509993435,1.8333333333333333,0.9098168498168498,3.103369963369963
4.446115231003205,1.8333333333333333,0.9098168498168498,3.103369963369963
4.452493836004578,1.8333333333333333,0.9098168498168498,3.103369963369963
4.457395110002835,1.8333333333333333,0.9098168498168498,3.103369963369963
4.461588301004667,1.8333333333333333,0.9098168498168498,3.103369963369963
4.462813349004136,1.8333333333333333,0.9098168498168498,3.103369963369963
4.462992214997939,1.8333333333333333,0.9098168498168498,3.103369963369963
4.471365206998598,1.8333333333333333,0.9098168498168498,3.103369963369963
4.47771441200166,1.8333333333333333,0.9098168498168498,3.103369963369963
4.4837626939988695,1.8333333333333333,0.9098168498168498,3.103369963369963
4.489431567002612,1.8333333333333333,0.9098168498168498,3.103369963369963
4.498248096999305,1.8333333333333333,0.9098168498168498,3.103369963369963
4.504814234998776,1.8333333333333333,0.9098168498168498,3.103369963369963
4.508661881998705,0.8775824175824175,0.6350183150183151,1.6383150183150184
4.5165337290018215,0.8775824175824175,0.6350183150183151,1.6383150183150184
4.522204148997844,0.8775824175824175,0.6350183150183151,1.6383150183150184
4.532505103001313,0.8775824175824175,0.6350183150183151,1.6383150183150184
4.539493608004705,0.1378021978021978,0.253040293040293,1.863150183150183
4.544330265001918,1.8317216117216117,0.9178754578754579,3.1968498168498165
4.552229594999517,1.8317216117216117,0.9178754578754579,3.1968498168498165
4.55793897100375,1.8317216117216117,0.9178754578754579,3.1968498168498165
4.558137753003393,1.8317216117216117,0.9178754578754579,3.1968498168498165
4.567429153001285,1.8317216117216117,0.9178754578754579,3.1968498168498165
4.5745093380028266,1.8317216117216117,0.9178754578754579,3.1968498168498165
4.580760586999531,0.0,0.10717948717948718,1.1926739926739927
4.585241300999769,0.0,0.10717948717948718,1.1926739926739927
4.5855797920012265,0.5181684981684981,0.4045421245421245,1.5730402930402931
4.590880522999214,0.4504761904761904,0.45369963369963373,1.7535531135531135
4.593126220002887,0.4504761904761904,0.45369963369963373,1.7535531135531135
4.593522574003146,0.4504761904761904,0.45369963369963373,1.7535531135531135
4.600132692998159,0.4504761904761904,0.45369963369963373,1.7535531135531135
4.604061053003534,0.4504761904761904,0.45369963369963373,1.7535531135531135
4.607868011000392,0.4504761904761904,0.45369963369963373,1.7535531135531135
4.615864348998002,0.4504761904761904,0.45369963369963373,1.7535531135531135
4.620633432998147,0.4504761904761904,0.45369963369963373,1.7535531135531135
4.6283793469992816,0.4504761904761904,0.45369963369963373,1.7535531135531135
4.632632537999598,0.0,0.048351648351648346,1.1676923076923076
4.633547548000934,1.8945787545787542,0.9605860805860806,3.224249084249084
4.6345204200042645,1.8945787545787542,0.9605860805860806,3.224249084249084
4.635487444000319,1.8945787545787542,0.9605860805860806,3.224249084249084
4.637311398000747,1.8945787545787542,0.9605860805860806,3.224249084249084
4.6396240960020805,1.8945787545787542,0.9605860805860806,3.224249084249084
4.639791925001191,1.8945787545787542,0.9605860805860806,3.224249084249084
4.6459396130012465,1.8945787545787542,0.9605860805860806,3.224249084249084
4.650786320002226,1.8945787545787542,0.9605860805860806,3.224249084249084
4.6556730160009465,1.3619047619047617,0.6326007326007326,2.241098901098901
4.6612968999979785,0.9968498168498168,0.7462271062271062,3.0888644688644686
4.663141862001794,0.7059340659340658,0.4504761904761904,3.0534065934065935
4.664306106998993,0.7059340659340658,0.4504761904761904,3.0534065934065935
4.664555078001285,0.7059340659340658,0.4504761904761904,3.0534065934065935
4.669214392997674,0.7059340659340658,0.4504761904761904,3.0534065934065935
4.670132717998058,0.2909157509157509,0.19340659340659339,1.6649084249084247
4.67042749900429,0.2909157509157509,0.19340659340659339,1.6649084249084247
4.676153141997929,0.2909157509157509,0.19340659340659339,1.6649084249084247
4.676377812000283,0.2909157509157509,0.19340659340659339,1.6649084249084247
4.683331113003078,0.2909157509157509,0.19340659340659339,1.6649084249084247
4.687292708003952,0.2909157509157509,0.19340659340659339,1.6649084249084247
4.690432249997684,0.2909157509157509,0.19340659340659339,1.6649084249084247
4.692204365004727,0.2909157509157509,0.19340659340659339,1.6649084249084247
4.6961268710001605,0.2909157509157509,0.19340659340659339,1.6649084249084247
4.700134122998861,0.2909157509157509,0.19340659340659339,1.6649084249084247
4.702402887000062,0.2909157509157509,0.19340659340659339,1.6649084249084247
4.702624603000004,0.2909157509157509,0.19340659340659339,1.6649084249084247
4.708633294001629,0.2909157509157509,0.19340659340659339,1.6649084249084247
4.7147033930014,0.2909157509157509,0.19340659340659339,1.6649084249084247
4.717879782001546,0.2909157509157509,0.19340659340659339,1.6649084249084247
4.719536427997809,1.0935531135531134,0.7663736263736264,3.1227106227106223
4.723401868999645,1.0935531135531134,0.7663736263736264,3.1227106227106223
4.72719706800126,1.0935531135531134,0.7663736263736264,3.1227106227106223
4.733506065000256,1.0935531135531134,0.7663736263736264,3.1227106227106223
4.73771011899953,1.0935531135531134,0.7663736263736264,3.1227106227106223
4.739991676004138,1.0935531135531134,0.7663736263736264,3.1227106227106223
4.740273695999349,1.68021978021978,0.8558241758241758,2.9953846153846153
4.745234219997656,1.68021978021978,0.8558241758241758,2.9953846153846153
4.750176941997779,1.68021978021978,0.8558241758241758,2.9953846153846153
4.754526288001216,1.68021978021978,0.8558241758241758,2.9953846153846153
4.755388552002842,1.68021978021978,0.8558241758241758,2.9953846153846153
4.75695793399791,1.68021978021978,0.8558241758241758,2.9953846153846153
4.760994821001077,1.68021978021978,0.8558241758241758,2.9953846153846153
4.765813554004126,1.4497435897435897,0.8695238095238095,0.5423443223443223
4.769568167997932,1.4497435897435897,0.8695238095238095,0.5423443223443223
4.77520139599801,1.4586080586080585,0.6736996336996337,2.328131868131868
4.775483258999884,1.4586080586080585,0.6736996336996337,2.328131868131868
4.78224746700289,1.4706959706959708,0.9783150183150182,3.2403663003663
4.786244640003133,1.6076923076923075,0.8147252747252747,2.8938461538461535
4.79086385499977,0.26754578754578756,0.3553846153846154,1.5246886446886447
4.790962272003526,0.26754578754578756,0.3553846153846154,1.5246886446886447
4.799158957997861,0.26754578754578756,0.3553846153846154,1.5246886446886447
4.803401442004542,0.26754578754578756,0.3553846153846154,1.5246886446886447
4.805669294997642,0.26754578754578756,0.3553846153846154,1.5246886446886447
4.806014337998931,0.26754578754578756,0.3553846153846154,1.5246886446886447
4.811698459998297,0.26754578754578756,0.3553846153846154,1.5246886446886447
4.812826933004544,0.26754578754578756,0.3553846153846154,1.5246886446886447
4.813039100001333,0.26754578754578756,0.3553846153846154,1.5246886446886447
4.819019456997921,0.26754578754578756,0.3553846153846154,1.5246886446886447
4.823707624003873,0.26754578754578756,0.3553846153846154,1.5246886446886447
4.82389660699846,1.3852747252747253,0.6567765567765567,2.07992673992674
4.831581379999989,1.3852747252747253,0.6567765567765567,2.07992673992674
4.835236635000911,0.16842490842490843,0.2191941391941392,1.8075457875457877
4.840658949004137,0.16842490842490843,0.2191941391941392,1.8075457875457877
4.842269628003123,0.16842490842490843,0.2191941391941392,1.8075457875457877
4.849135962998844,0.16842490842490843,0.2191941391941392,1.8075457875457877
4.853761721999035,0.0,0.09912087912087912,1.1765567765567766
4.853989666000416,0.0,0.09912087912087912,1.1765567765567766
4.859717120001733,0.0,0.09912087912087912,1.1765567765567766
4.859854667003674,0.0,0.09912087912087912,1.1765567765567766
4.866346772003453,0.0,0.09912087912087912,1.1765567765567766
4.870124227003544,0.0,0.09912087912087912,1.1765567765567766
4.875278204002825,0.0,0.09912087912087912,1.1765567765567766
4.880124832998263,0.0,0.09912087912087912,1.1765567765567766
4.8876221419996,0.0,0.09912087912087912,1.1765567765567766
4.8914444020047085,0.0,0.09912087912087912,1.1765567765567766
4.891544247002457,0.0,0.09912087912087912,1.1765567765567766
4.899484063003911,0.0,0.09912087912087912,1.1765567765567766
4.903247043999727,1.6294505494505493,1.1056410256410254,2.7906959706959706
4.908530113003508,1.6294505494505493,1.1056410256410254,2.7906959706959706
4.9136778870015405,1.6294505494505493,1.1056410256410254,2.7906959706959706
4.915934010001365,1.6294505494505493,1.1056410256410254,2.7906959706959706
4.916136758001812,1.6294505494505493,1.1056410256410254,2.7906959706959706
4.920760398999846,1.6294505494505493,1.1056410256410254,2.7906959706959706
4.920964315002493,1.6294505494505493,1.1056410256410254,2.7906959706959706
4.926808588999847,1.6294505494505493,1.1056410256410254,2.7906959706959706
4.927020838003955,1.6294505494505493,1.1056410256410254,2.7906959706959706
4.934334875004424,1.6294505494505493,1.1056410256410254,2.7906959706959706
4.939017636002973,1.6294505494505493,1.1056410256410254,2.7906959706959706
4.939211691998935,1.6294505494505493,1.1056410256410254,2.7906959706959706
4.94510203700338,1.6294505494505493,1.1056410256410254,2.7906959706959706
4.952250326001376,1.6294505494505493,1.1056410256410254,2.7906959706959706
4.956754083003034,0.0,0.13135531135531134,1.212014652014652
4.957114158001787,0.0,0.13135531135531134,1.212014652014652
4.965306883001176,0.0,0.13135531135531134,1.212014652014652
4.969129698998586,0.0,0.13135531135531134,1.212014652014652
4.97471346599923,0.0,0.13135531135531134,1.212014652014652
4.974982375999389,0.008058608058608058,0.12249084249084248,1.1797802197802196
4.981987971004855,0.008058608058608058,0.12249084249084248,1.1797802197802196
4.985939906000567,0.008058608058608058,0.12249084249084248,1.1797802197802196
4.989752539004257,0.008058608058608058,0.12249084249084248,1.1797802197802196
4.995459345002018,0.008058608058608058,0.12249084249084248,1.1797802197802196
4.995777153002564,0.008058608058608058,0.12249084249084248,1.1797802197802196
5.001725082998746,0.008058608058608058,0.12249084249084248,1.1797802197802196
5.00676791400474,0.008058608058608058,0.12249084249084248,1.1797802197802196
5.011397668000427,0.9146520146520146,0.5834432234432234,1.0782417582417583
5.011707691999618,0.7986080586080586,0.40937728937728934,1.9840293040293038
5.017344125000818,0.7986080586080586,0.40937728937728934,1.9840293040293038
5.017481328002759,0.7986080586080586,0.40937728937728934,1.9840293040293038
5.022745938003936,0.7986080586080586,0.40937728937728934,1.9840293040293038
5.025095910001255,0.7986080586080586,0.40937728937728934,1.9840293040293038
5.025424339000892,0.7986080586080586,0.40937728937728934,1.9840293040293038
5.033110456999566,0.7986080586080586,0.40937728937728934,1.9840293040293038
5.0376934919986525,0.7986080586080586,0.40937728937728934,1.9840293040293038
5.037907047000772,0.5729670329670329,0.36827838827838827,2.8857875457875455
5.0434290890043485,0.5729670329670329,0.36827838827838827,2.8857875457875455
5.046293441999296,0.963003663003663,0.8679120879120878,1.44007326007326
5.050028137004119,0.963003663003663,0.8679120879120878,1.44007326007326
5.054741865998949,0.963003663003663,0.8679120879120878,1.44007326007326
5.060192629003723,0.0,0.07413919413919413,0.9928205128205128
5.062413739004114,0.0,0.07413919413919413,0.9928205128205128
5.062559170000895,0.0,0.07413919413919413,0.9928205128205128
5.067462521001289,1.1362637362637362,0.5769963369963369,1.6616849816849815
5.073015991001739,0.10315018315018315,0.12732600732600732,1.3627106227106225
5.073308970000653,0.10315018315018315,0.12732600732600732,1.3627106227106225
5.078460240998538,0.10315018315018315,0.12732600732600732,1.3627106227106225
5.081406270001025,0.10315018315018315,0.12732600732600732,1.3627106227106225
5.084438457997749,0.10315018315018315,0.12732600732600732,1.3627106227106225
5.087276065998594,0.10315018315018315,0.12732600732600732,1.3627106227106225
5.090740687002835,0.24014652014652016,0.15633699633699633,1.3151648351648353
5.091000674001407,0.24014652014652016,0.15633699633699633,1.3151648351648353
5.095837956003379,0.24014652014652016,0.15633699633699633,1.3151648351648353
5.096127883000008,1.1362637362637362,1.1112820512820514,1.9195604395604395
5.101141004997771,1.1362637362637362,1.1112820512820514,1.9195604395604395
5.104674052003247,1.9719413919413917,0.9388278388278387,0.8276190476190476
5.104922507998708,1.6165567765567763,0.7244688644688644,0.5866666666666667
5.1134504709989415,0.14908424908424908,0.46498168498168496,1.3425641025641024
5.120157400000608,2.045274725274725,0.7389743589743589,3.04051282051282
5.124241584999254,2.045274725274725,0.7389743589743589,3.04051282051282
5.125916595003218,2.045274725274725,0.7389743589743589,3.04051282051282
5.132592219000799,2.045274725274725,0.7389743589743589,3.04051282051282
5.135660576997907,0.008058608058608058,0.10395604395604395,0.8840293040293039
5.138110692998453,0.008058608058608058,0.10395604395604395,0.8840293040293039
5.138388293002208,0.008058608058608058,0.10395604395604395,0.8840293040293039
5.14405415100191,0.7776556776556776,0.614065934065934,2.2233699633699633
5.145676886000729,1.5367765567765568,0.7502564102564102,0.5471794871794872
5.149659562004672,1.5367765567765568,0.7502564102564102,0.5471794871794872
5.151223419001326,1.5367765567765568,0.7502564102564102,0.5471794871794872
5.1561375230012345,1.5367765567765568,0.7502564102564102,0.5471794871794872
5.162496450000617,1.5367765567765568,0.7502564102564102,0.5471794871794872
5.1660967050047475,1.5367765567765568,0.7502564102564102,0.5471794871794872
5.166322896999191,1.5367765567765568,0.7502564102564102,0.5471794871794872
5.170903432001069,1.5367765567765568,0.7502564102564102,0.5471794871794872
5.171184646998881,1.5367765567765568,0.7502564102564102,0.5471794871794872
5.175826798003982,1.5367765567765568,0.7502564102564102,0.5471794871794872
5.176176770000893,1.5367765567765568,0.7502564102564102,0.5471794871794872
5.1814805419999175,1.5367765567765568,0.7502564102564102,0.5471794871794872
5.184292218000337,1.5367765567765568,0.7502564102564102,0.5471794871794872
5.1879244270021445,0.5028571428571429,0.4851282051282051,1.6568498168498167
5.188025985000422,0.5028571428571429,0.4851282051282051,1.6568498168498167
5.193274675999419,1.012967032967033,0.8389010989010988,2.0589743589743588
5.195501048001461,1.012967032967033,0.8389010989010988,2.0589743589743588
5.1958213039979455,1.012967032967033,0.8389010989010988,2.0589743589743588
5.200004878002801,1.012967032967033,0.8389010989010988,2.0589743589743588
5.203413087998342,1.012967032967033,0.8389010989010988,2.0589743589743588
5.20365768600459,1.012967032967033,0.8389010989010988,2.0589743589743588
5.2083914399991045,1.012967032967033,0.8389010989010988,2.0589743589743588
5.208649566004169,0.7454212454212454,0.4657875457875458,1.9356776556776556
5.214591666997876,0.7454212454212454,0.4657875457875458,1.9356776556776556
5.219746041002509,0.7454212454212454,0.4657875457875458,1.9356776556776556
5.2235481520037865,1.3949450549450548,1.1338461538461537,1.3038827838827838
5.2280048669999815,1.3949450549450548,1.1338461538461537,1.3038827838827838
5.228868651000084,1.3949450549450548,1.1338461538461537,1.3038827838827838
5.229857473997981,1.3949450549450548,1.1338461538461537,1.3038827838827838
5.230777001001115,1.3949450549450548,1.1338461538461537,1.3038827838827838
5.232342043003882,1.3949450549450548,1.1338461538461537,1.3038827838827838
5.2367429779988015,1.3949450549450548,1.1338461538461537,1.3038827838827838
5.237754344998393,0.0,0.12732600732600732,0.9372161172161171
5.238184400004684,0.0,0.12732600732600732,0.9372161172161171
5.247188713001378,0.0,0.12732600732600732,0.9372161172161171
5.253516666998621,1.3079120879120878,1.0613186813186812,0.9613919413919414
5.2591063720028615,1.3079120879120878,1.0613186813186812,0.9613919413919414
5.269097509997664,1.3079120879120878,1.0613186813186812,0.9613919413919414
5.280030412002816,1.4916483516483516,1.0661538461538462,0.5383150183150183
5.289506567998615,1.4916483516483516,1.0661538461538462,0.5383150183150183
5.297435628002859,1.4916483516483516,1.0661538461538462,0.5383150183150183
5.30384641099954,0.0,0.0273992673992674,0.8582417582417583
5.308283329002734,0.0,0.0273992673992674,0.8582417582417583
5.308652783998696,0.34813186813186814,0.044322344322344324,1.556117216117216
5.319038683999679,0.34813186813186814,0.044322344322344324,1.556117216117216
5.323595895002654,0.49157509157509155,0.25142857142857145,2.756849816849817
5.324472567997873,0.49157509157509155,0.25142857142857145,2.756849816849817
5.32609580999997,0.49157509157509155,0.25142857142857145,2.756849816849817
5.329886033003277,0.49157509157509155,0.25142857142857145,2.756849816849817
5.335327124004834,0.49157509157509155,0.25142857142857145,2.756849816849817
5.3377028520044405,0.49157509157509155,0.25142857142857145,2.756849816849817
5.337925589999941,1.3973626373626373,0.48754578754578753,3.187985347985348
5.342495755001437,1.3973626373626373,0.48754578754578753,3.187985347985348
5.342825471001561,2.028351648351648,1.1177289377289377,0.8711355311355311
5.347420129997772,2.028351648351648,1.1177289377289377,0.8711355311355311
5.348259195001447,2.028351648351648,1.1177289377289377,0.8711355311355311
5.349839870003052,2.028351648351648,1.1177289377289377,0.8711355311355311
5.353656099003274,2.028351648351648,1.1177289377289377,0.8711355311355311
5.358404425998742,0.033846153846153845,0.10637362637362638,1.0073260073260073
5.358521770001971,0.033846153846153845,0.10637362637362638,1.0073260073260073
5.364029198004573,0.033846153846153845,0.10637362637362638,1.0073260073260073
5.364913901001273,0.033846153846153845,0.10637362637362638,1.0073260073260073
5.366027540003415,0.033846153846153845,0.10637362637362638,1.0073260073260073
5.366891065001255,0.033846153846153845,0.10637362637362638,1.0073260073260073
5.368432856004802,0.6068131868131869,0.49802197802197795,1.771282051282051
5.373901956001646,0.6068131868131869,0.49802197802197795,1.771282051282051
5.375625715998467,0.6068131868131869,0.49802197802197795,1.771282051282051
5.381338236002193,0.6068131868131869,0.49802197802197795,1.771282051282051
5.389656643004855,1.6979487179487176,0.929157509157509,0.6591941391941392
5.398708068001724,1.7172893772893774,0.7663736263736264,2.8471062271062273
5.405003819003468,1.7172893772893774,0.7663736263736264,2.8471062271062273
5.409098317002645,1.7172893772893774,0.7663736263736264,2.8471062271062273
5.415281581001182,1.7172893772893774,0.7663736263736264,2.8471062271062273
5.418862828002602,1.7172893772893774,0.7663736263736264,2.8471062271062273
5.424383276003937,1.7172893772893774,0.7663736263736264,2.8471062271062273
5.425947722003912,0.2328937728937729,0.5552380952380952,2.0146520146520146
5.432975518000603,0.2328937728937729,0.5552380952380952,2.0146520146520146
5.436280822999834,0.2328937728937729,0.5552380952380952,2.0146520146520146
5.437850898000761,0.2328937728937729,0.5552380952380952,2.0146520146520146
5.44199254400155,0.6116483516483516,0.2369230769230769,2.46996336996337
5.445994251000229,0.6116483516483516,0.2369230769230769,2.46996336996337
5.449451043998124,0.047545787545787546,0.24659340659340656,1.444102564102564
5.457481964003819,0.047545787545787546,0.24659340659340656,1.444102564102564
5.466192993000732,0.047545787545787546,0.24659340659340656,1.444102564102564
5.471936278998328,0.9823443223443222,0.7131868131868132,1.1523809523809523
5.479454418004025,0.9823443223443222,0.7131868131868132,1.1523809523809523
5.485278434003703,0.9823443223443222,0.7131868131868132,1.1523809523809523
5.4917885460017715,0.9823443223443222,0.7131868131868132,1.1523809523809523
5.4991865109986975,0.9823443223443222,0.7131868131868132,1.1523809523809523
5.5027262500007055,0.9823443223443222,0.7131868131868132,1.1523809523809523
5.508106157001748,0.9823443223443222,0.7131868131868132,1.1523809523809523
5.512254667999514,0.9823443223443222,0.7131868131868132,1.1523809523809523
5.514649796998128,0.9823443223443222,0.7131868131868132,1.1523809523809523
5.520015148998937,0.9823443223443222,0.7131868131868132,1.1523809523809523
5.522292480003671,0.9823443223443222,0.7131868131868132,1.1523809523809523
5.52254241600167,0.9823443223443222,0.7131868131868132,1.1523809523809523
5.527701038001396,0.9823443223443222,0.7131868131868132,1.1523809523809523
5.5317943550035125,0.9823443223443222,0.7131868131868132,1.1523809523809523
5.534893852003734,0.9823443223443222,0.7131868131868132,1.1523809523809523
5.536626537999837,0.0,0.09025641025641025,0.9493040293040291
5.540389376001258,0.0,0.09025641025641025,0.9493040293040291
5.548278341004334,0.0,0.09025641025641025,0.9493040293040291
5.554204084997764,0.0,0.09025641025641025,0.9493040293040291
5.557594204998168,0.0,0.09025641025641025,0.9493040293040291
5.557895541998732,0.0,0.09025641025641025,0.9493040293040291
5.56554576200142,0.0,0.09025641025641025,0.9493040293040291
5.569756884004164,1.3498168498168497,0.8872527472527472,1.2676190476190476
5.572037179998006,1.3498168498168497,0.8872527472527472,1.2676190476190476
5.572271771001397,1.3498168498168497,0.8872527472527472,1.2676190476190476
5.577165488000901,1.3498168498168497,0.8872527472527472,1.2676190476190476
5.587483153001813,0.06366300366300366,0.0,0.8445421245421244
5.597597560998111,0.06366300366300366,0.0,0.8445421245421244
5.604631027003052,0.46739926739926735,0.1676190476190476,2.9268864468864466
5.608400573000836,0.46739926739926735,0.1676190476190476,2.9268864468864466
5.608525862000533,0.2917216117216117,0.2063003663003663,1.9936996336996335
5.618347723000625,1.3264468864468864,0.8558241758241758,2.3128205128205126
5.628465596004389,1.3264468864468864,0.8558241758241758,2.3128205128205126
5.634810383999138,1.3264468864468864,0.8558241758241758,2.3128205128205126
5.638764143004664,1.3264468864468864,0.8558241758241758,2.3128205128205126
5.6429720770029235,1.3264468864468864,0.8558241758241758,2.3128205128205126
5.645929702004651,1.3264468864468864,0.8558241758241758,2.3128205128205126
5.64873845600232,1.3264468864468864,0.8558241758241758,2.3128205128205126
5.652717215001758,1.3264468864468864,0.8558241758241758,2.3128205128205126
5.656058717999258,1.3264468864468864,0.8558241758241758,2.3128205128205126
5.656360815002699,1.3264468864468864,0.8558241758241758,2.3128205128205126
5.663717791001545,1.3264468864468864,0.8558241758241758,2.3128205128205126
5.669596562998777,1.3264468864468864,0.8558241758241758,2.3128205128205126
5.676984042998811,1.676190476190476,0.8767765567765567,3.034065934065934
5.682764279998082,1.6995604395604393,1.2095970695970695,2.382124542124542
5.687290515001223,1.6995604395604393,1.2095970695970695,2.382124542124542
5.688146159001917,0.0,0.31750915750915754,1.7495238095238095
5.690433194999059,0.0,0.31750915750915754,1.7495238095238095
5.690724050000426,2.186300366300366,1.1628571428571428,3.054212454212454
5.6963045349984895,2.186300366300366,1.1628571428571428,3.054212454212454
5.6983192449988564,0.0,0.12813186813186814,1.0967765567765566
5.698688739001227,0.0,0.12813186813186814,1.0967765567765566
5.706304136998369,0.0,0.12813186813186814,1.0967765567765566
5.7108755619992735,0.17084249084249084,0.083003663003663,1.6342857142857143
5.711112008000782,0.17084249084249084,0.083003663003663,1.6342857142857143
5.719171262004238,0.17084249084249084,0.083003663003663,1.6342857142857143
5.7255468770017615,1.5174358974358972,1.1644688644688646,3.3
5.732598957998562,1.5174358974358972,1.1644688644688646,3.3
5.737619633000577,0.36344322344322344,0.00967032967032967,2.3418315018315017
5.741364854999119,0.7051282051282051,0.5689377289377289,3.2266666666666666
5.746364644997811,0.7051282051282051,0.5689377289377289,3.2266666666666666
5.750089974004368,0.7051282051282051,0.5689377289377289,3.2266666666666666
5.7545967969999765,0.7051282051282051,0.5689377289377289,3.2266666666666666
5.755456300998048,0.7051282051282051,0.5689377289377289,3.2266666666666666
5.7573862970020855,0.7051282051282051,0.5689377289377289,3.2266666666666666
5.759715063999465,0.7051282051282051,0.5689377289377289,3.2266666666666666
5.759907024003041,1.216849816849817,0.7373626373626374,2.540879120879121
5.7668534080003155,1.216849816849817,0.7373626373626374,2.540879120879121
5.770637622998038,0.16036630036630037,0.2909157509157509,1.2958241758241758
5.776325983002607,0.16036630036630037,0.2909157509157509,1.2958241758241758
5.777251993000391,0.16036630036630037,0.2909157509157509,1.2958241758241758
5.778781806002371,0.16036630036630037,0.2909157509157509,1.2958241758241758
5.783566598998732,0.16036630036630037,0.2909157509157509,1.2958241758241758
5.788898364000488,1.3457875457875457,1.4610256410256408,0.42952380952380953
5.79058131200145,1.3457875457875457,1.4610256410256408,0.42952380952380953
5.795214882004075,1.3457875457875457,1.4610256410256408,0.42952380952380953
5.804106966999825,1.3457875457875457,1.4610256410256408,0.42952380952380953
5.811609123004018,1.3457875457875457,1.4610256410256408,0.42952380952380953
5.817213112997706,1.983223443223443,1.4223443223443224,3.3
5.8173886650038185,1.983223443223443,1.4223443223443224,3.3
5.8219267669992405,1.983223443223443,1.4223443223443224,3.3
5.822252261998074,1.983223443223443,1.4223443223443224,3.3
5.8277456350042485,1.983223443223443,1.4223443223443224,3.3
5.829392678002478,1.983223443223443,1.4223443223443224,3.3
5.833519116000389,1.983223443223443,1.4223443223443224,3.3
5.835126573001617,1.983223443223443,1.4223443223443224,3.3
5.83919547899859,1.983223443223443,1.4223443223443224,3.3
5.843038890998287,1.983223443223443,1.4223443223443224,3.3
5.84818688499945,1.983223443223443,1.4223443223443224,3.3
5.849940444000822,0.024175824175824173,0.2506227106227106,1.7172893772893774
5.852893618000962,0.024175824175824173,0.2506227106227106,1.7172893772893774
5.855173087002186,0.024175824175824173,0.2506227106227106,1.7172893772893774
5.856037780002225,0.024175824175824173,0.2506227106227106,1.7172893772893774
5.8578097370045725,0.024175824175824173,0.2506227106227106,1.7172893772893774
5.861423230002401,0.024175824175824173,0.2506227106227106,1.7172893772893774
5.8706189560034545,0.311062271062271,0.5600732600732601,2.718168498168498
5.876238413002284,0.311062271062271,0.5600732600732601,2.718168498168498
5.877813124003296,0.311062271062271,0.5600732600732601,2.718168498168498
5.8834167390014045,0.311062271062271,0.5600732600732601,2.718168498168498
5.883567410004616,1.7011721611721609,0.9702564102564102,2.5336263736263738
5.88813325400406,1.7011721611721609,0.9702564102564102,2.5336263736263738
5.888454911000736,1.7011721611721609,0.9702564102564102,2.5336263736263738
5.8932636590034235,1.7011721611721609,0.9702564102564102,2.5336263736263738
5.8933826930006035,2.133113553113553,1.062930402930403,3.2814652014652013
5.900920747000782,2.133113553113553,1.062930402930403,3.2814652014652013
5.905413102998864,0.8131135531135532,0.6358241758241758,1.3006593406593405
5.906353022997791,0.8131135531135532,0.6358241758241758,1.3006593406593405
5.907938807999017,0.8131135531135532,0.6358241758241758,1.3006593406593405
5.91510806199949,0.8131135531135532,0.6358241758241758,1.3006593406593405
5.918584434002696,0.8131135531135532,0.6358241758241758,1.3006593406593405
5.918877775002329,0.8131135531135532,0.6358241758241758,1.3006593406593405
5.923717875004513,0.8131135531135532,0.6358241758241758,1.3006593406593405
5.923863039002754,1.855091575091575,1.0927472527472526,3.3
5.930253022997931,1.855091575091575,1.0927472527472526,3.3
5.934157495998079,1.855091575091575,1.0927472527472526,3.3
5.937733058999584,1.855091575091575,1.0927472527472526,3.3
5.944349946999864,1.855091575091575,1.0927472527472526,3.3
5.948763355998381,1.855091575091575,1.0927472527472526,3.3
5.948934662003012,0.03142857142857143,0.17245421245421244,1.7946520146520144
5.955250391998561,0.03142857142857143,0.17245421245421244,1.7946520146520144
5.961683788002119,0.03142857142857143,0.17245421245421244,1.7946520146520144
5.96612297899992,0.03142857142857143,0.17245421245421244,1.7946520146520144
5.966310463998525,0.03142857142857143,0.17245421245421244,1.7946520146520144
5.974511813998106,0.03142857142857143,0.17245421245421244,1.7946520146520144
5.983108154003276,1.93003663003663,1.473113553113553,3.295970695970696
5.987296608000179,0.47062271062271055,0.4472527472527472,2.34021978021978
5.989814913002192,0.0,0.05963369963369963,1.5867399267399267
5.997012617997825,0.0,0.05963369963369963,1.5867399267399267
6.0028423449984984,0.044322344322344324,0.07252747252747253,1.1048351648351646
6.009062261000508,0.044322344322344324,0.07252747252747253,1.1048351648351646
6.016594198998064,0.044322344322344324,0.07252747252747253,1.1048351648351646
6.020917285997712,0.0,0.1523076923076923,1.0975824175824174
6.021231323000393,0.0,0.1523076923076923,1.0975824175824174
6.027092497999547,0.0,0.1523076923076923,1.0975824175824174
6.0363855399991735,0.0,0.1523076923076923,1.0975824175824174
6.04282663900085,0.03062271062271062,0.1926007326007326,0.5149450549450549
6.049492065998493,0.03062271062271062,0.1926007326007326,0.5149450549450549
6.053583642002195,0.03062271062271062,0.1926007326007326,0.5149450549450549
