time,emg1,emg2,emg3
0.006779183000617195,1.1878388278388277,0.5786080586080585,2.2765567765567765
0.013734496998949908,1.1878388278388277,0.5786080586080585,2.2765567765567765
0.022204551998584066,1.1878388278388277,0.5786080586080585,2.2765567765567765
0.03665625299618114,1.1878388278388277,0.5786080586080585,2.2765567765567765
0.053471188999537844,0.0,0.03142857142857143,0.9186813186813186
0.0741996159995324,0.7276923076923076,0.3416849816849817,1.5408058608058608
0.07456260899925837,0.7276923076923076,0.3416849816849817,1.5408058608058608
0.08749610499944538,0.7276923076923076,0.3416849816849817,1.5408058608058608
0.09815372299635783,0.7276923076923076,0.3416849816849817,1.5408058608058608
0.11213354500068817,0.7276923076923076,0.3416849816849817,1.5408058608058608
0.12531805600156076,0.7276923076923076,0.3416849816849817,1.5408058608058608
0.13286192800296703,0.7276923076923076,0.3416849816849817,1.5408058608058608
0.1383751659959671,0.5528205128205127,0.1805128205128205,2.492527472527472
0.13937015499686822,0.805054945054945,0.38358974358974357,1.5569230769230769
0.14036425200174563,0.805054945054945,0.38358974358974357,1.5569230769230769
0.14069565299723763,0.805054945054945,0.38358974358974357,1.5569230769230769
0.1458484530012356,1.3175824175824176,0.4851282051282051,2.585201465201465
0.14993027199670905,0.048351648351648346,0.07897435897435898,0.917069597069597
0.15312902699952247,1.804322344322344,0.6736996336996337,2.8422710622710623
0.15405561799707357,1.804322344322344,0.6736996336996337,2.8422710622710623
0.15573143599613104,1.804322344322344,0.6736996336996337,2.8422710622710623
0.15999448399816174,1.804322344322344,0.6736996336996337,2.8422710622710623
0.16300451900315238,1.804322344322344,0.6736996336996337,2.8422710622710623
0.16774713600170799,1.804322344322344,0.6736996336996337,2.8422710622710623
0.17228396800055634,1.804322344322344,0.6736996336996337,2.8422710622710623
0.18057280199718662,1.804322344322344,0.6736996336996337,2.8422710622710623
0.1874751900031697,1.804322344322344,0.6736996336996337,2.8422710622710623
0.19313033900107257,1.804322344322344,0.6736996336996337,2.8422710622710623
0.20287179300066782,1.804322344322344,0.6736996336996337,2.8422710622710623
0.2101413069976843,1.804322344322344,0.6736996336996337,2.8422710622710623
0.2157674389964086,2.157289377289377,0.9323809523809523,3.239560439560439
0.21599709899601294,2.157289377289377,0.9323809523809523,3.239560439560439
0.22119828699942445,2.157289377289377,0.9323809523809523,3.239560439560439
0.22403183999995235,1.24021978021978,0.5874725274725274,2.2564102564102564
0.22735994999675313,1.24021978021978,0.5874725274725274,2.2564102564102564
0.22868463399936445,0.14263736263736262,0.08542124542124542,0.7961904761904761
0.2365757660008967,0.14263736263736262,0.08542124542124542,0.7961904761904761
0.2471563419967424,0.14263736263736262,0.08542124542124542,0.7961904761904761
0.25594910299696494,0.30058608058608055,0.15311355311355312,1.4231501831501832
0.2638764720031759,0.30058608058608055,0.15311355311355312,1.4231501831501832
0.2713178479971248,0.30058608058608055,0.15311355311355312,1.4231501831501832
0.28001812900038203,2.0476923076923077,0.8542124542124543,2.7334798534798534
0.28708470499987016,2.0476923076923077,0.8542124542124543,2.7334798534798534
0.29441314799623797,0.09106227106227105,0.08945054945054945,1.1225641025641024
0.3001320420007687,1.9332600732600733,0.767985347985348,2.6754578754578753
0.3101584760006517,1.9332600732600733,0.767985347985348,2.6754578754578753
0.31872229000146035,0.3876190476190476,0.21999999999999997,1.796263736263736
0.33034108499850845,1.8687912087912086,0.8227838827838827,0.6664468864468864
0.3382403779978631,0.045128205128205125,0.083003663003663,1.1273992673992674
0.34681270299915923,0.045128205128205125,0.083003663003663,1.1273992673992674
0.35224327300238656,2.0484981684981682,0.9235164835164835,2.2604395604395604
0.35410940799920354,2.0484981684981682,0.9235164835164835,2.2604395604395604
0.35841891600284725,2.0484981684981682,0.9235164835164835,2.2604395604395604
0.3587076129988418,2.0484981684981682,0.9235164835164835,2.2604395604395604
0.363408151002659,2.0484981684981682,0.9235164835164835,2.2604395604395604
0.3697125140024582,0.6680586080586081,0.311062271062271,1.5907692307692307
0.37755947499681497,0.6680586080586081,0.311062271062271,1.5907692307692307
0.3838242299971171,0.6680586080586081,0.311062271062271,1.5907692307692307
0.38949511499959044,0.6680586080586081,0.311062271062271,1.5907692307692307
0.39989952399628237,0.6680586080586081,0.311062271062271,1.5907692307692307
0.4108865309972316,0.6680586080586081,0.311062271062271,1.5907692307692307
0.4189859580001212,0.6680586080586081,0.311062271062271,1.5907692307692307
0.4256557510016137,1.751135531135531,0.776043956043956,0.3287912087912088
0.4293492930009961,0.0,0.04593406593406593,1.1120879120879121
0.4348515210003825,2.103296703296703,0.9968498168498168,3.3
0.43578514399996493,2.103296703296703,0.9968498168498168,3.3
0.4368072939978447,2.103296703296703,0.9968498168498168,3.3
0.4372726959991269,2.103296703296703,0.9968498168498168,3.3
0.4445258330015349,2.103296703296703,0.9968498168498168,3.3
0.4481285369984107,2.103296703296703,0.9968498168498168,3.3
0.4572041220017127,1.8687912087912086,0.8598534798534798,2.1524542124542125
0.4627627509980812,0.9057875457875458,0.32073260073260074,2.262051282051282
0.46302101299806964,0.6406593406593406,0.3731135531135531,1.4247619047619047
0.4686990620029974,0.6406593406593406,0.3731135531135531,1.4247619047619047
0.4696339270012686,0.6406593406593406,0.3731135531135531,1.4247619047619047
0.47060818300087703,0.6261538461538461,0.2377289377289377,2.5763369963369964
0.47201725900231395,0.6261538461538461,0.2377289377289377,2.5763369963369964
0.4793179870030144,0.6261538461538461,0.2377289377289377,2.5763369963369964
0.4861549979978008,1.2047619047619047,0.5391208791208791,1.0008791208791208
0.49370939700020244,1.2047619047619047,0.5391208791208791,1.0008791208791208
0.4988164590031374,1.2047619047619047,0.5391208791208791,1.0008791208791208
0.5020195440010866,1.2047619047619047,0.5391208791208791,1.0008791208791208
0.502282050998474,1.7769230769230768,0.6696703296703297,3.219413919413919
0.5107451470030355,1.7769230769230768,0.6696703296703297,3.219413919413919
0.5190635979961371,1.7769230769230768,0.6696703296703297,3.219413919413919
0.528230206000444,1.7769230769230768,0.6696703296703297,3.219413919413919
0.5359347760022501,1.7769230769230768,0.6696703296703297,3.219413919413919
0.5440537839967874,1.7769230769230768,0.6696703296703297,3.219413919413919
0.5497776109987171,0.18695970695970696,0.19904761904761903,1.41992673992674
0.5565871560029336,0.0,0.04915750915750916,0.8977289377289376
0.561279403998924,0.0,0.04915750915750916,0.8977289377289376
0.5665588219999336,0.0,0.04915750915750916,0.8977289377289376
0.5683282710015192,0.0,0.04915750915750916,0.8977289377289376
0.5726985020010034,0.0,0.04915750915750916,0.8977289377289376
0.5729644820021349,1.4207326007326007,0.5753846153846153,3.1138461538461537
0.5794386269990355,1.4207326007326007,0.5753846153846153,3.1138461538461537
0.5839324990010937,1.4207326007326007,0.5753846153846153,3.1138461538461537
0.5841450320003787,1.4207326007326007,0.5753846153846153,3.1138461538461537
0.5900589899974875,1.4207326007326007,0.5753846153846153,3.1138461538461537
0.596958561000065,1.4207326007326007,0.5753846153846153,3.1138461538461537
0.6014577579990146,1.4207326007326007,0.5753846153846153,3.1138461538461537
0.6023945740016643,0.8517948717948718,0.39809523809523806,1.8824908424908422
0.6033883709969814,0.8517948717948718,0.39809523809523806,1.8824908424908422
0.6045932609995361,0.8517948717948718,0.39809523809523806,1.8824908424908422
0.6052243259982788,0.8517948717948718,0.39809523809523806,1.8824908424908422
0.6096088280028198,0.8517948717948718,0.39809523809523806,1.8824908424908422
0.6192255380010465,0.8517948717948718,0.39809523809523806,1.8824908424908422
0.6293026439961977,0.8517948717948718,0.39809523809523806,1.8824908424908422
0.6388047709988314,0.0,0.08058608058608058,1.2523076923076921
0.6482639579990064,0.0,0.08058608058608058,1.2523076923076921
0.6565061569999671,0.0,0.08058608058608058,1.2523076923076921
0.6640503219969105,0.0,0.08058608058608058,1.2523076923076921
0.6709544059995096,0.28285714285714286,0.2232234432234432,1.4247619047619047
0.6767908109977725,0.28285714285714286,0.2232234432234432,1.4247619047619047
0.6822972320005647,0.28285714285714286,0.2232234432234432,1.4247619047619047
0.682626233996416,0.28285714285714286,0.2232234432234432,1.4247619047619047
0.6928540430017165,0.28285714285714286,0.2232234432234432,1.4247619047619047
0.7002182509968407,1.5303296703296703,0.8098901098901098,2.6367765567765566
0.706750496996392,1.3659340659340657,0.6632234432234432,0.32556776556776557
0.7121362539983238,0.0,0.0273992673992674,1.2047619047619047
0.7123591939962353,1.647985347985348,0.78007326007326,3.3
0.7218866319963126,1.647985347985348,0.78007326007326,3.3
0.7284453469983418,1.647985347985348,0.78007326007326,3.3
0.7342156000013347,1.647985347985348,0.78007326007326,3.3
0.7449093769973842,1.2273260073260073,0.5737728937728938,0.6374358974358975
0.7512038229979225,1.2273260073260073,0.5737728937728938,0.6374358974358975
0.7548673869969207,1.2273260073260073,0.5737728937728938,0.6374358974358975
0.7631440219993237,1.2273260073260073,0.5737728937728938,0.6374358974358975
0.7704397900015465,0.18937728937728937,0.1652014652014652,1.257142857142857
0.7753392930026166,0.2063003663003663,0.20146520146520144,0.9017582417582416
0.7817579769980512,1.2015384615384614,0.4496703296703296,2.4304761904761905
0.7876139270010754,1.2015384615384614,0.4496703296703296,2.4304761904761905
0.7950226239991025,1.2015384615384614,0.4496703296703296,2.4304761904761905
0.8006781430012779,1.2015384615384614,0.4496703296703296,2.4304761904761905
0.8009070240004803,0.2635164835164835,0.19824175824175824,1.4118681318681316
0.8107196350028971,0.2635164835164835,0.19824175824175824,1.4118681318681316
0.818261000997154,0.2635164835164835,0.19824175824175824,1.4118681318681316
0.827788305003196,1.4916483516483516,0.7204395604395604,0.5004395604395604
0.835412661996088,0.1249084249084249,0.13054945054945052,1.3602930402930402
0.8432787529964116,1.7898168498168496,0.8928937728937728,3.1726739926739924
0.8499709879979491,1.7898168498168496,0.8928937728937728,3.1726739926739924
0.8535567090002587,1.7898168498168496,0.8928937728937728,3.1726739926739924
0.8536972150031943,1.7898168498168496,0.8928937728937728,3.1726739926739924
0.8655112900014501,1.7898168498168496,0.8928937728937728,3.1726739926739924
0.8756185120000737,0.9356043956043956,0.5213919413919413,1.32
0.8819400029969984,0.9726739926739927,0.5036630036630036,1.1894505494505494
0.8862270919998991,0.9726739926739927,0.5036630036630036,1.1894505494505494
0.8899429029988823,0.9726739926739927,0.5036630036630036,1.1894505494505494
0.8939790069998708,0.9726739926739927,0.5036630036630036,1.1894505494505494
0.8966750249965116,0.9726739926739927,0.5036630036630036,1.1894505494505494
0.9017326870016404,0.9726739926739927,0.5036630036630036,1.1894505494505494
0.9058269930028473,0.9726739926739927,0.5036630036630036,1.1894505494505494
0.9107496400029049,0.9726739926739927,0.5036630036630036,1.1894505494505494
0.9168075220004539,0.9726739926739927,0.5036630036630036,1.1894505494505494
0.9205182290024823,0.9726739926739927,0.5036630036630036,1.1894505494505494
0.929341299997759,0.9726739926739927,0.5036630036630036,1.1894505494505494
0.9379412240014062,0.9726739926739927,0.5036630036630036,1.1894505494505494
0.9483406840008684,1.3433699633699634,0.6213186813186813,0.5375091575091575
0.9536310889961896,1.3433699633699634,0.6213186813186813,0.5375091575091575
0.956989236001391,1.4231501831501832,0.6680586080586081,0.23531135531135527
0.9642246369985514,0.4182417582417582,0.21194139194139192,1.2313553113553113
0.9696571109961951,0.4182417582417582,0.21194139194139192,1.2313553113553113
0.9721299180018832,1.5875457875457875,0.7478388278388278,2.5054212454212452
0.9786949819972506,1.5875457875457875,0.7478388278388278,2.5054212454212452
0.9833680520023336,1.5875457875457875,0.7478388278388278,2.5054212454212452
0.9835913209972205,1.5875457875457875,0.7478388278388278,2.5054212454212452
0.9893670649980777,1.5875457875457875,0.7478388278388278,2.5054212454212452
0.9968116239979281,1.5875457875457875,0.7478388278388278,2.5054212454212452
1.0020879939984297,1.3482051282051282,0.6229304029304029,3.25003663003663
1.006595965998713,1.3482051282051282,0.6229304029304029,3.25003663003663
1.0067238549963804,1.3482051282051282,0.6229304029304029,3.25003663003663
1.0134368270009873,1.3482051282051282,0.6229304029304029,3.25003663003663
1.017988453997532,0.5520146520146519,0.20307692307692307,2.0686446886446883
1.0182295909980894,0.6986813186813187,0.3191208791208791,1.2764835164835164
1.0253887849976309,0.6986813186813187,0.3191208791208791,1.2764835164835164
1.0297810880001634,0.6986813186813187,0.3191208791208791,1.2764835164835164
1.0307844240014674,0.6986813186813187,0.3191208791208791,1.2764835164835164
1.0320312219992047,0.6986813186813187,0.3191208791208791,1.2764835164835164
1.0321700349959428,0.6986813186813187,0.3191208791208791,1.2764835164835164
1.0377023280016147,0.6986813186813187,0.3191208791208791,1.2764835164835164
1.0414231629983988,0.05721611721611722,0.07816849816849816,1.0057142857142858
1.0445009600007324,0.05721611721611722,0.07816849816849816,1.0057142857142858
1.0464068239962216,0.05721611721611722,0.07816849816849816,1.0057142857142858
1.0492787490002229,0.05721611721611722,0.07816849816849816,1.0057142857142858
1.0519895929974155,1.9332600732600733,0.8711355311355311,3.2589010989010987
1.0593602410008316,1.9332600732600733,0.8711355311355311,3.2589010989010987
1.0637944199988851,0.3223443223443223,0.2224175824175824,1.248278388278388
1.0653260339968256,0.3223443223443223,0.2224175824175824,1.248278388278388
1.0732413029982126,0.3223443223443223,0.2224175824175824,1.248278388278388
1.0800048579985742,0.3223443223443223,0.2224175824175824,1.248278388278388
1.0858000529988203,0.3223443223443223,0.2224175824175824,1.248278388278388
1.093302526001935,0.0,0.0821978021978022,1.2450549450549449
1.0983304069959559,0.0,0.0821978021978022,1.2450549450549449
1.1028289750029217,0.0,0.0821978021978022,1.2450549450549449
1.103021296003135,0.0,0.0821978021978022,1.2450549450549449
1.1108028849994298,0.0,0.0821978021978022,1.2450549450549449
1.1180940049962373,0.0,0.0821978021978022,1.2450549450549449
1.1259597570024198,0.7824908424908424,0.469010989010989,1.544029304029304
1.1316626780026127,1.6415384615384614,0.5898901098901098,2.901098901098901
1.1317733510004473,1.6415384615384614,0.5898901098901098,2.901098901098901
1.1381019210020895,1.6415384615384614,0.5898901098901098,2.901098901098901
1.142532083002152,1.6415384615384614,0.5898901098901098,2.901098901098901
1.1428772020008182,0.0,0.03304029304029304,0.9509157509157508
1.1484644500014838,0.0,0.03304029304029304,0.9509157509157508
1.1485653790005017,0.0,0.03304029304029304,0.9509157509157508
1.1559598519961582,1.00007326007326,0.42065934065934063,2.763296703296703
1.1604980659976718,1.00007326007326,0.42065934065934063,2.763296703296703
1.1607657220010879,1.00007326007326,0.42065934065934063,2.763296703296703
1.167292603997339,1.00007326007326,0.42065934065934063,2.763296703296703
1.1735036769969156,0.014505494505494505,0.09509157509157509,0.8864468864468864
1.17672354500246,1.684249084249084,0.7317216117216117,0.24336996336996336
1.1776522790023591,1.684249084249084,0.7317216117216117,0.24336996336996336
1.1786601819985663,0.24498168498168496,0.14827838827838827,1.1177289377289377
1.1795678839989705,0.24498168498168496,0.14827838827838827,1.1177289377289377
1.1823059629969066,0.24498168498168496,0.14827838827838827,1.1177289377289377
1.1865634839996346,1.8413919413919413,0.6406593406593406,3.062271062271062
1.1880501609994099,1.8413919413919413,0.6406593406593406,3.062271062271062
1.1982098529988434,1.8413919413919413,0.6406593406593406,3.062271062271062
1.2072809129967936,1.8857142857142855,0.9082051282051282,3.204102564102564
1.2145024510027724,0.0,0.07252747252747253,1.0516483516483515
1.2200633710017428,1.506153846153846,0.6366300366300366,3.133186813186813
1.2202991619997192,1.506153846153846,0.6366300366300366,3.133186813186813
1.229033409996191,0.0016117216117216117,0.045128205128205125,1.1596336996336996
1.2362815059968852,0.0016117216117216117,0.045128205128205125,1.1596336996336996
1.2412016989983385,0.0016117216117216117,0.045128205128205125,1.1596336996336996
1.2471669200022006,0.0016117216117216117,0.045128205128205125,1.1596336996336996
1.2527184279970243,0.0016117216117216117,0.045128205128205125,1.1596336996336996
1.2529093699995428,0.0016117216117216117,0.045128205128205125,1.1596336996336996
1.2600972739965073,0.0016117216117216117,0.045128205128205125,1.1596336996336996
1.2670169709963375,0.0016117216117216117,0.045128205128205125,1.1596336996336996
1.2713385460010613,0.0016117216117216117,0.045128205128205125,1.1596336996336996
1.27288842699636,0.0016117216117216117,0.045128205128205125,1.1596336996336996
1.2793892889967537,1.7688644688644688,0.7244688644688644,0.35135531135531134
1.2844948409983772,1.7688644688644688,0.7244688644688644,0.35135531135531134
1.2865360299983877,0.14344322344322344,0.13538461538461538,1.2805128205128204
1.2877572950019385,0.14344322344322344,0.13538461538461538,1.2805128205128204
1.2878935699991416,0.14344322344322344,0.13538461538461538,1.2805128205128204
1.2942372929974226,0.14344322344322344,0.13538461538461538,1.2805128205128204
1.2973265249966062,0.14344322344322344,0.13538461538461538,1.2805128205128204
1.3004390650021378,0.6809523809523809,0.24175824175824176,0.9992673992673992
1.3027492449982674,0.6809523809523809,0.24175824175824176,0.9992673992673992
1.3030271329989773,0.6809523809523809,0.24175824175824176,0.9992673992673992
1.3082554880020325,0.6809523809523809,0.24175824175824176,0.9992673992673992
1.311303249996854,0.6809523809523809,0.24175824175824176,0.9992673992673992
1.3137346029980108,0.6809523809523809,0.24175824175824176,0.9992673992673992
1.3139095869992161,0.6809523809523809,0.24175824175824176,0.9992673992673992
1.3184523129966692,0.6809523809523809,0.24175824175824176,0.9992673992673992
1.3187402229959844,0.6809523809523809,0.24175824175824176,0.9992673992673992
1.3248508550022962,0.6809523809523809,0.24175824175824176,0.9992673992673992
1.330673292002757,0.6809523809523809,0.24175824175824176,0.9992673992673992
1.3393092760015861,0.6809523809523809,0.24175824175824176,0.9992673992673992
1.3463556679998874,0.6809523809523809,0.24175824175824176,0.9992673992673992
1.350982871997985,0.6809523809523809,0.24175824175824176,0.9992673992673992
1.3511479009976028,0.224029304029304,0.09509157509157509,2.166153846153846
1.3564973890024703,0.224029304029304,0.09509157509157509,2.166153846153846
1.3584749579968047,1.46021978021978,0.5689377289377289,0.850989010989011
1.3603844749959535,1.46021978021978,0.5689377289377289,0.850989010989011
1.3620741209961125,0.7824908424908424,0.3908424908424908,1.506153846153846
1.366007577002165,0.7824908424908424,0.3908424908424908,1.506153846153846
1.3698338260001037,0.0,0.05318681318681319,1.0363369963369962
1.3745142789994134,0.0,0.05318681318681319,1.0363369963369962
1.3746851949981647,0.0,0.05318681318681319,1.0363369963369962
1.3805783040006645,0.0,0.05318681318681319,1.0363369963369962
1.3863856440002564,0.0,0.05318681318681319,1.0363369963369962
1.3918056600014097,0.0,0.05318681318681319,1.0363369963369962
1.392694294998364,0.0,0.05318681318681319,1.0363369963369962
1.3943228700009058,0.0,0.05318681318681319,1.0363369963369962
1.3988562209997326,0.0,0.05318681318681319,1.0363369963369962
1.3990858039978775,0.0,0.05318681318681319,1.0363369963369962
1.4044419679994462,0.0,0.05318681318681319,1.0363369963369962
1.4081247200010694,0.17809523809523808,0.09831501831501832,1.274871794871795
1.4135842699979548,0.0,0.04996336996336996,0.9259340659340659
1.4139197650001734,0.0,0.04996336996336996,0.9259340659340659
1.4202341880009044,0.0,0.04996336996336996,0.9259340659340659
1.423448068999278,0.0,0.04996336996336996,0.9259340659340659
1.4250682130004861,0.0,0.04996336996336996,0.9259340659340659
1.42996898599813,0.0,0.04996336996336996,0.9259340659340659
1.4341856370010646,0.0,0.04996336996336996,0.9259340659340659
1.4358113240014063,1.8027106227106224,0.7188278388278388,0.4126007326007326
1.4403694130014628,1.8027106227106224,0.7188278388278388,0.4126007326007326
1.44057178300136,1.8027106227106224,0.7188278388278388,0.4126007326007326
1.4472280449990649,1.8027106227106224,0.7188278388278388,0.4126007326007326
1.4505433239974082,1.8027106227106224,0.7188278388278388,0.4126007326007326
1.4520103550021304,1.8027106227106224,0.7188278388278388,0.4126007326007326
1.4586001880015829,1.8027106227106224,0.7188278388278388,0.4126007326007326
1.464452173000609,1.8027106227106224,0.7188278388278388,0.4126007326007326
1.4720308809992275,1.8027106227106224,0.7188278388278388,0.4126007326007326
1.4781608949997462,1.8027106227106224,0.7188278388278388,0.4126007326007326
1.4824609990027966,1.2893772893772892,0.5036630036630036,0.9178754578754579
1.4833635079994565,1.2893772893772892,0.5036630036630036,0.9178754578754579
1.4844121060014004,1.2893772893772892,0.5036630036630036,0.9178754578754579
1.4859479959995952,1.2893772893772892,0.5036630036630036,0.9178754578754579
1.490484142996138,1.2893772893772892,0.5036630036630036,0.9178754578754579
1.4907096509996336,1.2893772893772892,0.5036630036630036,0.9178754578754579
1.495308224002656,1.2893772893772892,0.5036630036630036,0.9178754578754579
1.4955847289966187,1.2893772893772892,0.5036630036630036,0.9178754578754579
1.5001691259967629,1.2893772893772892,0.5036630036630036,0.9178754578754579
1.5004091200025869,1.2893772893772892,0.5036630036630036,0.9178754578754579
1.5062089479979477,1.2893772893772892,0.5036630036630036,0.9178754578754579
1.5135855760017876,0.0,0.04351648351648352,0.946080586080586
1.5184010399971157,1.4932600732600732,0.585054945054945,3.1106227106227102
1.5249553890025709,0.9452747252747251,0.43113553113553116,1.4465201465201465
1.5288191009967704,0.9452747252747251,0.43113553113553116,1.4465201465201465
1.5326173869980266,0.9452747252747251,0.43113553113553116,1.4465201465201465
1.5380813099982333,0.9452747252747251,0.43113553113553116,1.4465201465201465
1.538980099001492,1.4553846153846153,0.747032967032967,1.3602930402930402
1.5414118359985878,1.4553846153846153,0.747032967032967,1.3602930402930402
1.5416184479981894,1.4553846153846153,0.747032967032967,1.3602930402930402
1.5462183589988854,1.4553846153846153,0.747032967032967,1.3602930402930402
1.5465343870018842,1.4553846153846153,0.747032967032967,1.3602930402930402
1.5510959530001855,1.4553846153846153,0.747032967032967,1.3602930402930402
1.5513511370008928,1.4553846153846153,0.747032967032967,1.3602930402930402
1.556011918000877,1.4553846153846153,0.747032967032967,1.3602930402930402
1.5562390990016866,1.4553846153846153,0.747032967032967,1.3602930402930402
1.5615373870023177,1.4553846153846153,0.747032967032967,1.3602930402930402
1.5648034339974402,1.4553846153846153,0.747032967032967,1.3602930402930402
1.5650889559983625,0.0709157509157509,0.1652014652014652,1.2434432234432233
1.5703358609971474,0.0709157509157509,0.1652014652014652,1.2434432234432233
1.5740879730001325,0.0709157509157509,0.1652014652014652,1.2434432234432233
1.5794196229981026,0.0709157509157509,0.1652014652014652,1.2434432234432233
1.5824639119964559,0.0709157509157509,0.1652014652014652,1.2434432234432233
1.585475863001193,0.0709157509157509,0.1652014652014652,1.2434432234432233
1.5884633539972128,0.0709157509157509,0.1652014652014652,1.2434432234432233
1.591608101996826,1.4432967032967032,0.7567032967032966,2.8027838827838827
1.5938831829989795,1.4432967032967032,0.7567032967032966,2.8027838827838827
1.5941605859989068,1.4432967032967032,0.7567032967032966,2.8027838827838827
1.5995189440000104,1.4432967032967032,0.7567032967032966,2.8027838827838827
1.6027563999959966,0.28849816849816845,0.25384615384615383,0.9493040293040291
1.6036504430012428,0.28849816849816845,0.25384615384615383,0.9493040293040291
1.6053334259995609,0.28849816849816845,0.25384615384615383,0.9493040293040291
1.6092155079968506,0.28849816849816845,0.25384615384615383,0.9493040293040291
1.613743166999484,0.28849816849816845,0.25384615384615383,0.9493040293040291
1.6146575949969701,0.28849816849816845,0.25384615384615383,0.9493040293040291
1.6163227729994105,0.28849816849816845,0.25384615384615383,0.9493040293040291
1.6201413989983848,0.28849816849816845,0.25384615384615383,0.9493040293040291
1.6254940569997416,0.28849816849816845,0.25384615384615383,0.9493040293040291
1.629204140001093,0.0,0.07978021978021978,1.0726007326007325
1.6338505710009485,0.0,0.07978021978021978,1.0726007326007325
1.6340254199967603,0.0,0.07978021978021978,1.0726007326007325
1.6393294329973287,0.0,0.07978021978021978,1.0726007326007325
1.6410284469966427,0.0,0.07978021978021978,1.0726007326007325
1.644863476001774,0.1241025641025641,0.12974358974358974,1.083076923076923
1.650396548997378,1.527912087912088,0.5439560439560439,2.7495970695970695
1.6513108829967678,0.0,0.06849816849816849,0.7373626373626374
1.6529198330026702,0.0,0.06849816849816849,0.7373626373626374
1.6567349120014114,1.3578754578754577,0.5665201465201465,3.0574358974358975
1.6620895610030857,0.759120879120879,0.4005128205128205,1.1523809523809523
1.6660162350017345,0.759120879120879,0.4005128205128205,1.1523809523809523
1.6697579879983095,0.759120879120879,0.4005128205128205,1.1523809523809523
1.6752510759979486,0.759120879120879,0.4005128205128205,1.1523809523809523
1.6771682879989385,0.759120879120879,0.4005128205128205,1.1523809523809523
1.6796859609967214,0.759120879120879,0.4005128205128205,1.1523809523809523
1.6797998949987232,0.759120879120879,0.4005128205128205,1.1523809523809523
1.685173999001563,0.759120879120879,0.4005128205128205,1.1523809523809523
1.6874579080031253,0.0,0.17406593406593407,1.3393406593406594
1.6876703730013105,0.0,0.17406593406593407,1.3393406593406594
1.6929995070022414,0.0,0.17406593406593407,1.3393406593406594
1.695324446001905,0.0,0.17406593406593407,1.3393406593406594
1.6955171169975074,1.4046153846153846,0.6809523809523809,0.31347985347985347
1.7007303279970074,1.4046153846153846,0.6809523809523809,0.31347985347985347
1.7038162039971212,0.25706959706959703,0.16842490842490843,1.162051282051282
1.7061985309992451,0.25706959706959703,0.16842490842490843,1.162051282051282
1.7063830249971943,0.25706959706959703,0.16842490842490843,1.162051282051282
1.711737149998953,0.25706959706959703,0.16842490842490843,1.162051282051282
1.7140496080028242,0.25706959706959703,0.16842490842490843,1.162051282051282
1.7143543679994764,0.25706959706959703,0.16842490842490843,1.162051282051282
1.718971230002353,0.25706959706959703,0.16842490842490843,1.162051282051282
1.719247301996802,0.25706959706959703,0.16842490842490843,1.162051282051282
1.7251301270007389,0.25706959706959703,0.16842490842490843,1.162051282051282
1.7307455129994196,0.0,0.07494505494505493,0.9847619047619047
1.7316296060016612,1.61010989010989,0.8324542124542124,3.1057875457875457
1.732516026000667,1.61010989010989,0.8324542124542124,3.1057875457875457
1.734133878002467,1.61010989010989,0.8324542124542124,3.1057875457875457
1.7380163929992705,1.61010989010989,0.8324542124542124,3.1057875457875457
1.7425054609993822,1.61010989010989,0.8324542124542124,3.1057875457875457
1.7428298980012187,1.61010989010989,0.8324542124542124,3.1057875457875457
1.7473545929969987,1.61010989010989,0.8324542124542124,3.1057875457875457
1.7482646290009143,1.61010989010989,0.8324542124542124,3.1057875457875457
1.749203359002422,1.61010989010989,0.8324542124542124,3.1057875457875457
1.7507821239996701,1.61010989010989,0.8324542124542124,3.1057875457875457
1.7546126579982229,1.61010989010989,0.8324542124542124,3.1057875457875457
1.7591648449961212,1.61010989010989,0.8324542124542124,3.1057875457875457
1.759486281000136,1.61010989010989,0.8324542124542124,3.1057875457875457
1.7641347300013877,1.61010989010989,0.8324542124542124,3.1057875457875457
1.7643684099966777,1.61010989010989,0.8324542124542124,3.1057875457875457
1.7696858279959997,1.61010989010989,0.8324542124542124,3.1057875457875457
1.7720198759998311,1.61010989010989,0.8324542124542124,3.1057875457875457
1.7722978189995047,1.61010989010989,0.8324542124542124,3.1057875457875457
1.7769108369975584,1.61010989010989,0.8324542124542124,3.1057875457875457
1.7771488759972272,0.7438095238095238,0.4657875457875458,1.365128205128205
1.782375927999965,0.7438095238095238,0.4657875457875458,1.365128205128205
1.7861428830001387,0.7438095238095238,0.4657875457875458,1.365128205128205
1.7914538600016385,0.7438095238095238,0.4657875457875458,1.365128205128205
1.7945498129993211,0.7438095238095238,0.4657875457875458,1.365128205128205
1.796953614000813,1.1999267399267397,0.6374358974358975,0.6301831501831501
1.7971635200010496,0.850989010989011,0.5592673992673992,1.386080586080586
1.8024213329990744,0.850989010989011,0.5592673992673992,1.386080586080586
1.8064948530009133,0.850989010989011,0.5592673992673992,1.386080586080586
1.8096145160016022,0.850989010989011,0.5592673992673992,1.386080586080586
1.811997049000638,1.1918681318681317,0.6301831501831501,1.892161172161172
1.8121545920002973,1.1918681318681317,0.6301831501831501,1.892161172161172
1.8179862309989403,1.2394139194139193,0.5939194139194138,3.191208791208791
1.8181067100013024,1.2394139194139193,0.5939194139194138,3.191208791208791
1.8226553810018231,0.14827838827838827,0.18454212454212454,0.9726739926739927
1.824308415001724,0.14827838827838827,0.18454212454212454,0.9726739926739927
1.8282994359979057,0.14827838827838827,0.18454212454212454,0.9726739926739927
1.832188168002176,0.0,0.13538461538461538,0.8348717948717947
1.836691113996494,0.0,0.13538461538461538,0.8348717948717947
1.837565285000892,0.0,0.13538461538461538,0.8348717948717947
1.8391107869974803,0.0,0.13538461538461538,0.8348717948717947
1.8436044260015478,0.0,0.13538461538461538,0.8348717948717947
1.8444769039997482,0.0,0.13538461538461538,0.8348717948717947
1.846045090998814,0.0,0.13538461538461538,0.8348717948717947
1.850774441001704,0.0,0.13538461538461538,0.8348717948717947
1.850962527001684,0.43032967032967034,0.24578754578754577,2.5787545787545785
1.8555858620020445,0.43032967032967034,0.24578754578754577,2.5787545787545785
1.8558435430022655,0.43032967032967034,0.24578754578754577,2.5787545787545785
1.861215169999923,0.43032967032967034,0.24578754578754577,2.5787545787545785
1.8635828159967787,0.43032967032967034,0.24578754578754577,2.5787545787545785
1.863780298997881,0.43032967032967034,0.24578754578754577,2.5787545787545785
1.8690391580021242,0.43032967032967034,0.24578754578754577,2.5787545787545785
1.8728063289963757,0.0,0.0556043956043956,0.9517216117216116
1.8773352759963018,0.3304029304029304,0.22886446886446887,2.7334798534798534
1.877674144001503,0.6567765567765567,0.3876190476190476,1.1781684981684981
1.8823017609975068,0.6567765567765567,0.3876190476190476,1.1781684981684981
1.8826815360007458,1.2176556776556777,0.49560439560439556,2.0098168498168496
1.8872342579998076,1.2176556776556777,0.49560439560439556,2.0098168498168496
1.8875512989980052,1.2176556776556777,0.49560439560439556,2.0098168498168496
1.8921270179998828,1.498095238095238,0.838095238095238,2.3756776556776553
1.8930208349993336,0.381978021978022,0.1772893772893773,2.5070329670329667
1.8946856280017528,0.381978021978022,0.1772893772893773,2.5070329670329667
1.8985290109994821,0.381978021978022,0.1772893772893773,2.5070329670329667
1.9031157249992248,0.381978021978022,0.1772893772893773,2.5070329670329667
1.9039816239965148,0.381978021978022,0.1772893772893773,2.5070329670329667
1.9056200909981271,0.381978021978022,0.1772893772893773,2.5070329670329667
1.9101379630010342,0.381978021978022,0.1772893772893773,2.5070329670329667
1.910409060998063,0.381978021978022,0.1772893772893773,2.5070329670329667
1.9159831520009902,0.3755311355311355,0.13538461538461538,2.4087179487179484
1.9170457159998477,1.0387545787545787,0.5794139194139193,0.8840293040293039
1.917266014002962,1.0387545787545787,0.5794139194139193,0.8840293040293039
1.9227559279970592,1.0387545787545787,0.5794139194139193,0.8840293040293039
1.9246376590017462,1.0387545787545787,0.5794139194139193,0.8840293040293039
1.9272222310028155,1.0387545787545787,0.5794139194139193,0.8840293040293039
1.9324644779990194,0.0,0.048351648351648346,1.021025641025641
1.936045987997204,0.26190476190476186,0.2063003663003663,1.7479120879120877
1.9361838460026775,0.26190476190476186,0.2063003663003663,1.7479120879120877
1.9438019809967955,0.26190476190476186,0.2063003663003663,1.7479120879120877
1.9473298879966023,0.23934065934065935,0.2377289377289377,1.477142857142857
1.9476448619971052,0.23934065934065935,0.2377289377289377,1.477142857142857
1.9543189010000788,0.23934065934065935,0.2377289377289377,1.477142857142857
1.9585435269982554,0.23934065934065935,0.2377289377289377,1.477142857142857
1.9611065019998932,0.23934065934065935,0.2377289377289377,1.477142857142857
1.9668672749976395,0.0,0.06849816849816849,0.9678388278388278
1.9677236209972762,0.0,0.04351648351648352,1.0282783882783881
1.9693196799998987,0.0,0.04351648351648352,1.0282783882783881
1.9738201840009424,0.0,0.04351648351648352,1.0282783882783881
1.974669499999436,1.4207326007326007,0.6035897435897435,3.008278388278388
1.9763260489999084,1.4207326007326007,0.6035897435897435,3.008278388278388
1.9802275909969467,0.8993406593406592,0.5737728937728938,1.3844688644688645
1.9848324229969876,0.8993406593406592,0.5737728937728938,1.3844688644688645
1.9851054679966182,0.8993406593406592,0.5737728937728938,1.3844688644688645
1.990316041999904,0.8993406593406592,0.5737728937728938,1.3844688644688645
1.993322841997724,0.2377289377289377,0.11443223443223444,2.0726739926739923
1.9957823860022472,0.2377289377289377,0.11443223443223444,2.0726739926739923
1.9959720999977435,0.2377289377289377,0.11443223443223444,2.0726739926739923
2.001281495002331,0.2377289377289377,0.11443223443223444,2.0726739926739923
2.0028974969973206,0.2377289377289377,0.11443223443223444,2.0726739926739923
2.0074293720026617,1.5448351648351648,0.5971428571428571,2.9945787545787543
2.0083480730027077,1.5448351648351648,0.5971428571428571,2.9945787545787543
2.009290747002524,1.5448351648351648,0.5971428571428571,2.9945787545787543
2.010945134999929,1.5448351648351648,0.5971428571428571,2.9945787545787543
2.0147543150014826,1.5448351648351648,0.5971428571428571,2.9945787545787543
2.0197754109976813,1.5448351648351648,0.5971428571428571,2.9945787545787543
2.0235834380000597,0.614065934065934,0.4762637362637362,1.5045421245421244
2.0274065600024187,0.614065934065934,0.4762637362637362,1.5045421245421244
2.0319956140010618,0.614065934065934,0.4762637362637362,1.5045421245421244
2.032297732999723,0.614065934065934,0.4762637362637362,1.5045421245421244
2.037645224998414,0.614065934065934,0.4762637362637362,1.5045421245421244
2.0406390429998282,0.614065934065934,0.4762637362637362,1.5045421245421244
2.042322315995989,0.614065934065934,0.4762637362637362,1.5045421245421244
2.0461675959959393,0.614065934065934,0.4762637362637362,1.5045421245421244
2.051624592997541,0.614065934065934,0.4762637362637362,1.5045421245421244
2.0539609900006326,0.614065934065934,0.4762637362637362,1.5045421245421244
2.054216634001932,1.3369230769230769,0.6342124542124542,1.1016117216117214
2.058821311002248,1.290989010989011,0.6414652014652015,0.8372893772893772
2.059036874001322,1.0556776556776555,0.5455677655677655,0.9581684981684981
2.0637150170005043,1.0556776556776555,0.5455677655677655,0.9581684981684981
2.064042858000903,1.0556776556776555,0.5455677655677655,0.9581684981684981
2.0687547769994126,1.0556776556776555,0.5455677655677655,0.9581684981684981
2.0688908290030668,1.0556776556776555,0.5455677655677655,0.9581684981684981
2.073486592002155,1.0556776556776555,0.5455677655677655,0.9581684981684981
2.0743976430021576,1.2232967032967033,0.49721611721611714,2.6230769230769226
2.0759964250028133,1.2232967032967033,0.49721611721611714,2.6230769230769226
2.080595619001542,1.2232967032967033,0.49721611721611714,2.6230769230769226
2.080912454999634,0.253040293040293,0.17648351648351646,1.4529670329670328
2.0854467899989686,0.253040293040293,0.17648351648351646,1.4529670329670328
2.0869854030024726,0.253040293040293,0.17648351648351646,1.4529670329670328
2.0920656899979804,0.0,0.06124542124542124,0.8928937728937728
2.0962915400014026,0.0,0.06124542124542124,0.8928937728937728
2.0979941280020284,0.8703296703296703,0.43113553113553116,1.1733333333333333
2.1012944460017025,0.8703296703296703,0.43113553113553116,1.1733333333333333
2.1015814109996427,0.8703296703296703,0.43113553113553116,1.1733333333333333
2.107033225001942,0.8703296703296703,0.43113553113553116,1.1733333333333333
2.108185354998568,0.8703296703296703,0.43113553113553116,1.1733333333333333
2.108449018000101,0.8703296703296703,0.43113553113553116,1.1733333333333333
2.114406232001784,0.8703296703296703,0.43113553113553116,1.1733333333333333
2.1197265309965587,0.8703296703296703,0.43113553113553116,1.1733333333333333
2.1223617529976764,0.8703296703296703,0.43113553113553116,1.1733333333333333
2.126547683001263,0.8703296703296703,0.43113553113553116,1.1733333333333333
2.128462109998509,0.8703296703296703,0.43113553113553116,1.1733333333333333
2.1309759840005427,0.8703296703296703,0.43113553113553116,1.1733333333333333
2.135569594000117,0.8703296703296703,0.43113553113553116,1.1733333333333333
2.1358293750017765,0.8703296703296703,0.43113553113553116,1.1733333333333333
2.141155591001734,0.8703296703296703,0.43113553113553116,1.1733333333333333
2.142745830002241,0.8703296703296703,0.43113553113553116,1.1733333333333333
2.147316413997032,0.8703296703296703,0.43113553113553116,1.1733333333333333
2.1476200800025254,0.8703296703296703,0.43113553113553116,1.1733333333333333
2.1522109779980383,0.8703296703296703,0.43113553113553116,1.1733333333333333
2.15258044499933,0.8703296703296703,0.43113553113553116,1.1733333333333333
2.1579108020014246,0.8703296703296703,0.43113553113553116,1.1733333333333333
2.1595183169993106,0.8703296703296703,0.43113553113553116,1.1733333333333333
2.1643751969968434,0.8703296703296703,0.43113553113553116,1.1733333333333333
2.1691246339978534,0.0,0.04996336996336996,1.0782417582417583
2.1693392029992538,0.11684981684981684,0.1104029304029304,0.8945054945054944
2.173952493998513,1.7261538461538461,0.8268131868131867,3.1646153846153844
2.174908961998881,1.3723809523809525,0.5745787545787545,3.1009523809523807
2.176487354001438,1.3723809523809525,0.5745787545787545,3.1009523809523807
2.180365369997162,1.3723809523809525,0.5745787545787545,3.1009523809523807
2.184274615996401,1.3723809523809525,0.5745787545787545,3.1009523809523807
2.18810522199783,1.3723809523809525,0.5745787545787545,3.1009523809523807
2.1926299670012668,1.3723809523809525,0.5745787545787545,3.1009523809523807
2.1928962239981047,1.3723809523809525,0.5745787545787545,3.1009523809523807
2.1974911029974464,1.3723809523809525,0.5745787545787545,3.1009523809523807
2.1977747839991935,1.5786813186813187,0.6688644688644688,0.4722344322344322
2.202369024998916,1.5786813186813187,0.6688644688644688,0.4722344322344322
2.203292505997524,1.5786813186813187,0.6688644688644688,0.4722344322344322
2.2049195989966393,1.5786813186813187,0.6688644688644688,0.4722344322344322
2.209436805002042,1.5786813186813187,0.6688644688644688,0.4722344322344322
2.209744061001402,1.5786813186813187,0.6688644688644688,0.4722344322344322
2.2151256739962264,1.5786813186813187,0.6688644688644688,0.4722344322344322
2.216008547002275,1.5786813186813187,0.6688644688644688,0.4722344322344322
2.217676398999174,1.5786813186813187,0.6688644688644688,0.4722344322344322
2.2215586399979657,1.5786813186813187,0.6688644688644688,0.4722344322344322
2.2254243709976436,1.5786813186813187,0.6688644688644688,0.4722344322344322
2.229960796001251,1.5786813186813187,0.6688644688644688,0.4722344322344322
2.230178928002715,1.5786813186813187,0.6688644688644688,0.4722344322344322
2.2354995049972786,1.5786813186813187,0.6688644688644688,0.4722344322344322
2.237874598999042,1.5786813186813187,0.6688644688644688,0.4722344322344322
2.238076187997649,1.5786813186813187,0.6688644688644688,0.4722344322344322
2.2426800149987685,1.5786813186813187,0.6688644688644688,0.4722344322344322
2.242958554001234,1.826886446886447,0.6293772893772893,3.1146520146520142
2.248350581001432,1.826886446886447,0.6293772893772893,3.1146520146520142
2.250316334000672,1.826886446886447,0.6293772893772893,3.1146520146520142
2.252182094998716,1.826886446886447,0.6293772893772893,3.1146520146520142
2.254757802002132,1.826886446886447,0.6293772893772893,3.1146520146520142
2.2607069779987796,1.826886446886447,0.6293772893772893,3.1146520146520142
2.269027239002753,1.826886446886447,0.6293772893772893,3.1146520146520142
2.2752765260011074,1.826886446886447,0.6293772893772893,3.1146520146520142
2.280082024000876,1.826886446886447,0.6293772893772893,3.1146520146520142
2.286401653997018,0.12329670329670328,0.09267399267399268,0.9863736263736262
2.29115482600173,0.12329670329670328,0.09267399267399268,0.9863736263736262
2.2979882979998365,0.12329670329670328,0.09267399267399268,0.9863736263736262
2.3034924609964946,0.12329670329670328,0.09267399267399268,0.9863736263736262
2.3037289310013875,0.12329670329670328,0.09267399267399268,0.9863736263736262
2.3127538920016377,0.12329670329670328,0.09267399267399268,0.9863736263736262
2.3191126469973824,2.0509157509157507,0.8679120879120878,3.2677655677655677
2.3236719549968257,2.0509157509157507,0.8679120879120878,3.2677655677655677
2.323791518996586,2.0509157509157507,0.8679120879120878,3.2677655677655677
2.332061977002013,2.0509157509157507,0.8679120879120878,3.2677655677655677
2.3372962529974757,1.5569230769230769,0.6035897435897435,3.032454212454212
2.3397856349984067,1.5569230769230769,0.6035897435897435,3.032454212454212
2.339959603996249,1.5569230769230769,0.6035897435897435,3.032454212454212
2.3445679970027413,1.5569230769230769,0.6035897435897435,3.032454212454212
2.345422505000897,0.13699633699633698,0.07897435897435898,1.4255677655677657
2.347006260002672,0.0,0.03223443223443223,1.05003663003663
2.351464658000623,0.0,0.03223443223443223,1.05003663003663
2.352366211001936,0.0,0.03223443223443223,1.05003663003663
2.3539481080006226,0.0,0.03223443223443223,1.05003663003663
2.3577239610021934,0.0,0.03223443223443223,1.05003663003663
2.3623139769988484,0.0,0.03223443223443223,1.05003663003663
2.3624185389999184,0.0,0.03223443223443223,1.05003663003663
2.368709813003079,0.0,0.03223443223443223,1.05003663003663
2.373119668001891,0.0,0.04593406593406593,1.0774358974358973
2.3734159570012707,1.008937728937729,0.3618315018315018,2.2217582417582418
2.3807021559987334,1.008937728937729,0.3618315018315018,2.2217582417582418
2.387567712001328,0.5149450549450549,0.28930402930402926,1.1789743589743589
2.393012346001342,0.5149450549450549,0.28930402930402926,1.1789743589743589
2.393393346996163,2.0557509157509157,0.8872527472527472,2.6069597069597066
2.4022292959998595,2.0557509157509157,0.8872527472527472,2.6069597069597066
2.4088666349998675,1.4997069597069597,0.5890842490842491,0.7865201465201466
2.41372648000106,1.4997069597069597,0.5890842490842491,0.7865201465201466
2.4187421739989077,1.4997069597069597,0.5890842490842491,0.7865201465201466
2.4231079059973126,1.4997069597069597,0.5890842490842491,0.7865201465201466
2.423381029002485,1.4997069597069597,0.5890842490842491,0.7865201465201466
2.431773003001581,1.4997069597069597,0.5890842490842491,0.7865201465201466
2.4377904049979406,1.4997069597069597,0.5890842490842491,0.7865201465201466
2.4421476330026053,1.4997069597069597,0.5890842490842491,0.7865201465201466
2.442499012002372,1.2716483516483517,0.5141391941391941,2.3257142857142856
2.451545242998691,1.2716483516483517,0.5141391941391941,2.3257142857142856
2.4578619280000567,1.2716483516483517,0.5141391941391941,2.3257142857142856
2.4623283239998273,1.2716483516483517,0.5141391941391941,2.3257142857142856
2.4626103379996493,1.2716483516483517,0.5141391941391941,2.3257142857142856
2.471660643001087,1.2716483516483517,0.5141391941391941,2.3257142857142856
2.477801424996869,1.2716483516483517,0.5141391941391941,2.3257142857142856
2.481611226001405,1.2716483516483517,0.5141391941391941,2.3257142857142856
2.4875581989981583,0.5028571428571429,0.2594871794871795,1.3441758241758242
2.4969535729978816,0.17245421245421244,0.17567765567765567,1.344981684981685
2.5047769689990673,0.17245421245421244,0.17567765567765567,1.344981684981685
2.5121652579982765,0.17245421245421244,0.17567765567765567,1.344981684981685
2.517601963998459,0.17245421245421244,0.17567765567765567,1.344981684981685
2.5179479669968714,0.17245421245421244,0.17567765567765567,1.344981684981685
2.5263658210024005,0.17245421245421244,0.17567765567765567,1.344981684981685
2.533220427998458,1.4255677655677657,0.5987545787545787,3.107399267399267
2.538646458000585,0.1692307692307692,0.09670329670329669,2.013040293040293
2.5389995009973063,0.45369963369963373,0.2868864468864469,1.1838095238095236
2.547364241996547,0.45369963369963373,0.2868864468864469,1.1838095238095236
2.5541323779980303,0.45369963369963373,0.2868864468864469,1.1838095238095236
2.5592697449974366,0.45369963369963373,0.2868864468864469,1.1838095238095236
2.563168262000545,1.0999999999999999,0.4931868131868131,1.137069597069597
2.56855994000216,1.0999999999999999,0.4931868131868131,1.137069597069597
2.5700771100018756,1.0999999999999999,0.4931868131868131,1.137069597069597
2.5757583570011775,1.0999999999999999,0.4931868131868131,1.137069597069597
2.584117755002808,1.0999999999999999,0.4931868131868131,1.137069597069597
2.589246748997539,1.0999999999999999,0.4931868131868131,1.137069597069597
2.593472569998994,1.0999999999999999,0.4931868131868131,1.137069597069597
2.5947790479985997,1.0999999999999999,0.4931868131868131,1.137069597069597
2.5948964089984656,1.0999999999999999,0.4931868131868131,1.137069597069597
2.602165739001066,1.0999999999999999,0.4931868131868131,1.137069597069597
2.606304913002532,1.0999999999999999,0.4931868131868131,1.137069597069597
2.6103479570010677,1.0999999999999999,0.4931868131868131,1.137069597069597
2.6134898340023938,1.0999999999999999,0.4931868131868131,1.137069597069597
2.6146688090011594,1.0999999999999999,0.4931868131868131,1.137069597069597
2.614890210003068,1.0999999999999999,0.4931868131868131,1.137069597069597
2.6220248009994975,1.0999999999999999,0.4931868131868131,1.137069597069597
2.62602804099879,1.0999999999999999,0.4931868131868131,1.137069597069597
2.630768110997451,1.0999999999999999,0.4931868131868131,1.137069597069597
2.6359518190001836,1.6286446886446886,0.8252014652014652,2.760879120879121
2.639080932996876,1.6286446886446886,0.8252014652014652,2.760879120879121
2.6402908680029213,0.42952380952380953,0.31186813186813184,1.2305494505494505
2.6405985599994892,0.42952380952380953,0.31186813186813184,1.2305494505494505
2.6473528549977345,0.42952380952380953,0.31186813186813184,1.2305494505494505
2.651329549997172,0.0,0.10556776556776555,1.1161172161172161
2.6553972359979525,0.0,0.10556776556776555,1.1161172161172161
2.6583250830008183,0.0,0.10556776556776555,1.1161172161172161
2.661468969999987,0.0,0.10556776556776555,1.1161172161172161
2.663519087996974,0.0,0.10556776556776555,1.1161172161172161
2.664855973998783,0.0,0.10556776556776555,1.1161172161172161
2.671942412001954,0.0,0.10556776556776555,1.1161172161172161
2.676328442998056,0.0,0.10556776556776555,1.1161172161172161
2.677570540996385,0.0,0.10556776556776555,1.1161172161172161
2.6777210459986236,0.0,0.10556776556776555,1.1161172161172161
2.6853748119974625,0.0,0.10556776556776555,1.1161172161172161
2.6909059539975715,0.6422710622710622,0.4383882783882784,1.452161172161172
2.6912583189987345,0.44402930402930396,0.25223443223443226,2.6657875457875457
2.7012004799980787,0.44402930402930396,0.25223443223443226,2.6657875457875457
2.7097993759962264,0.44402930402930396,0.25223443223443226,2.6657875457875457
2.7171641289969557,1.4529670329670328,0.4964102564102564,2.992161172161172
2.7226904409981216,1.153186813186813,0.5802197802197803,0.7228571428571429
2.7228109310017317,1.153186813186813,0.5802197802197803,0.7228571428571429
2.7286902199994074,1.153186813186813,0.5802197802197803,0.7228571428571429
2.734975528997893,1.153186813186813,0.5802197802197803,0.7228571428571429
2.7389982780005084,1.153186813186813,0.5802197802197803,0.7228571428571429
2.7420601720004925,1.153186813186813,0.5802197802197803,0.7228571428571429
2.744895698997425,1.153186813186813,0.5802197802197803,0.7228571428571429
2.7475659260016982,1.153186813186813,0.5802197802197803,0.7228571428571429
2.7521339939994505,1.153186813186813,0.5802197802197803,0.7228571428571429
2.752359416001127,0.5133333333333333,0.2191941391941392,2.5594139194139194
2.7598760670007323,0.5133333333333333,0.2191941391941392,2.5594139194139194
2.76756050199765,1.3014652014652013,0.66,0.5915018315018314
2.773312671997701,1.3014652014652013,0.66,0.5915018315018314
2.7790948339970782,1.3014652014652013,0.66,0.5915018315018314
2.779203325000708,1.3014652014652013,0.66,0.5915018315018314
2.784393424000882,0.4545054945054945,0.3578021978021978,1.3683516483516485
2.787839835997147,0.0,0.10073260073260072,1.2893772893772892
2.7880226369961747,0.0,0.10073260073260072,1.2893772893772892
2.796406654997554,0.0,0.10073260073260072,1.2893772893772892
2.80490517099679,1.3619047619047617,0.7317216117216117,3.046153846153846
2.8132274279996636,0.0,0.045128205128205125,0.954945054945055
2.818234703001508,1.436043956043956,0.7212454212454212,0.49882783882783877
2.82203144000232,1.436043956043956,0.7212454212454212,0.49882783882783877
2.8276293680028175,1.436043956043956,0.7212454212454212,0.49882783882783877
2.828597016996355,1.436043956043956,0.7212454212454212,0.49882783882783877
2.829497104001348,1.436043956043956,0.7212454212454212,0.49882783882783877
2.831113843996718,1.436043956043956,0.7212454212454212,0.49882783882783877
2.8357853970010183,1.436043956043956,0.7212454212454212,0.49882783882783877
2.836018157999206,1.286959706959707,0.5624908424908425,3.1235164835164833
2.8406692249991465,1.286959706959707,0.5624908424908425,3.1235164835164833
2.8408595689979848,1.286959706959707,0.5624908424908425,3.1235164835164833
2.8456141490023583,1.286959706959707,0.5624908424908425,3.1235164835164833
2.845851395999489,1.286959706959707,0.5624908424908425,3.1235164835164833
2.8512516979972133,1.286959706959707,0.5624908424908425,3.1235164835164833
2.85292782200122,1.286959706959707,0.5624908424908425,3.1235164835164833
2.8574638339996454,1.286959706959707,0.5624908424908425,3.1235164835164833
2.857676801002526,1.286959706959707,0.5624908424908425,3.1235164835164833
2.863675891996536,1.286959706959707,0.5624908424908425,3.1235164835164833
2.8734491750001325,0.0,0.07816849816849816,1.1499633699633698
2.880533073999686,0.0,0.07816849816849816,1.1499633699633698
2.8863646120007616,0.05882783882783882,0.0975091575091575,1.1918681318681317
2.8944151169998804,1.622197802197802,0.5915018315018314,3.094505494505494
2.901444951996382,1.622197802197802,0.5915018315018314,3.094505494505494
2.907275395002216,1.622197802197802,0.5915018315018314,3.094505494505494
2.9138136399997165,1.622197802197802,0.5915018315018314,3.094505494505494
2.9177145560024655,1.622197802197802,0.5915018315018314,3.094505494505494
2.923301654998795,0.3287912087912088,0.26996336996336995,1.2410256410256408
2.923609284996928,0.3287912087912088,0.26996336996336995,1.2410256410256408
2.928407428000355,0.3287912087912088,0.26996336996336995,1.2410256410256408
2.9286835370003246,0.3287912087912088,0.26996336996336995,1.2410256410256408
2.9342851089968462,0.3287912087912088,0.26996336996336995,1.2410256410256408
2.9344339879971812,0.3287912087912088,0.26996336996336995,1.2410256410256408
2.940506141996593,1.3312820512820513,0.6454945054945055,0.26593406593406593
2.945195784996031,0.1241025641025641,0.1829304029304029,0.9678388278388278
2.949783160001971,0.1241025641025641,0.1829304029304029,0.9678388278388278
2.9506565900010173,0.1241025641025641,0.1829304029304029,0.9678388278388278
2.9523883310030214,0.1241025641025641,0.1829304029304029,0.9678388278388278
2.958957016002387,0.8977289377289376,0.33604395604395604,2.2967032967032965
2.962595789998886,0.8977289377289376,0.33604395604395604,2.2967032967032965
2.967330273000698,0.8977289377289376,0.33604395604395604,2.2967032967032965
2.96762682699773,0.8977289377289376,0.33604395604395604,2.2967032967032965
2.973952788001043,0.8977289377289376,0.33604395604395604,2.2967032967032965
2.9775846080010524,0.8977289377289376,0.33604395604395604,2.2967032967032965
2.983242034999421,0.8977289377289376,0.33604395604395604,2.2967032967032965
2.983441042000777,0.8977289377289376,0.33604395604395604,2.2967032967032965
2.990700984999421,0.8977289377289376,0.33604395604395604,2.2967032967032965
2.994981668998662,0.8977289377289376,0.33604395604395604,2.2967032967032965
2.996578749996843,1.398168498168498,0.701098901098901,0.3352380952380952
3.000387881002098,1.398168498168498,0.701098901098901,0.3352380952380952
3.006016562001605,1.398168498168498,0.701098901098901,0.3352380952380952
3.016596178000327,1.398168498168498,0.701098901098901,0.3352380952380952
3.0266686670001945,0.4657875457875458,0.29655677655677654,2.7375091575091575
3.03422502399917,0.7534798534798535,0.361025641025641,1.6584615384615384
3.0422323750026408,0.7534798534798535,0.361025641025641,1.6584615384615384
3.0470175119990017,0.7534798534798535,0.361025641025641,1.6584615384615384
3.052657205000287,0.7534798534798535,0.361025641025641,1.6584615384615384
3.0535767990004388,0.3924542124542124,0.1652014652014652,2.4433699633699635
3.0566248999966774,0.3924542124542124,0.1652014652014652,2.4433699633699635
3.0576705760031473,1.3417582417582417,0.6704761904761904,0.33604395604395604
3.0579341539996676,1.3417582417582417,0.6704761904761904,0.33604395604395604
3.06283242200152,1.3417582417582417,0.6704761904761904,0.33604395604395604
3.068282622996776,0.0273992673992674,0.14263736263736262,1.303076923076923
3.070699572999729,0.0273992673992674,0.14263736263736262,1.303076923076923
3.070871099997021,0.0273992673992674,0.14263736263736262,1.303076923076923
3.0762199020027765,0.0273992673992674,0.14263736263736262,1.303076923076923
3.0785657660017023,1.3095238095238093,0.5334798534798535,2.901098901098901
3.0787549289962044,1.3095238095238093,0.5334798534798535,2.901098901098901
3.084201266996388,1.3095238095238093,0.5334798534798535,2.901098901098901
3.08629605799797,1.3095238095238093,0.5334798534798535,2.901098901098901
3.0866854100022465,1.3095238095238093,0.5334798534798535,2.901098901098901
3.093161267999676,1.3095238095238093,0.5334798534798535,2.901098901098901
3.097041121996881,0.2498168498168498,0.2191941391941392,0.9065934065934066
3.101640333996329,0.2498168498168498,0.2191941391941392,0.9065934065934066
3.1025608190029743,0.008058608058608058,0.04673992673992674,1.0742124542124543
3.1051990159976413,0.008058608058608058,0.04673992673992674,1.0742124542124543
3.1094491429976188,0.008058608058608058,0.04673992673992674,1.0742124542124543
3.1107870819978416,0.008058608058608058,0.04673992673992674,1.0742124542124543
3.116726574997301,0.008058608058608058,0.04673992673992674,1.0742124542124543
3.1249208520021057,0.008058608058608058,0.04673992673992674,1.0742124542124543
3.129644050000934,0.008058608058608058,0.04673992673992674,1.0742124542124543
3.129750335996505,0.008058608058608058,0.04673992673992674,1.0742124542124543
3.1350012550028623,0.008058608058608058,0.04673992673992674,1.0742124542124543
3.1392208539982676,1.4126739926739926,0.5713553113553113,2.984908424908425
3.1396393009999883,1.4126739926739926,0.5713553113553113,2.984908424908425
3.145310113002779,1.4126739926739926,0.5713553113553113,2.984908424908425
3.145533073999104,1.4126739926739926,0.5713553113553113,2.984908424908425
3.150189744999807,1.4126739926739926,0.5713553113553113,2.984908424908425
3.151075971996761,1.4126739926739926,0.5713553113553113,2.984908424908425
3.152642326997011,1.4126739926739926,0.5713553113553113,2.984908424908425
3.159047435998218,1.4126739926739926,0.5713553113553113,2.984908424908425
3.1622670169963385,1.4126739926739926,0.5713553113553113,2.984908424908425
3.1631386980006937,1.4126739926739926,0.5713553113553113,2.984908424908425
3.1647720690016286,1.614139194139194,0.6946520146520146,3.2347252747252746
3.168695749998733,1.614139194139194,0.6946520146520146,3.2347252747252746
3.1769721140008187,0.0,0.06366300366300366,0.8896703296703296
3.1812437580010737,0.0,0.06366300366300366,0.8896703296703296
3.1837115390007966,0.0,0.06366300366300366,0.8896703296703296
3.1915597170009278,0.0,0.06366300366300366,0.8896703296703296
3.19578747000196,0.0,0.08622710622710622,1.0975824175824174
3.1974022069989587,1.4884249084249084,0.6761172161172161,1.0443956043956042
3.201361284998711,1.4884249084249084,0.6761172161172161,1.0443956043956042
3.2070285090012476,1.4884249084249084,0.6761172161172161,1.0443956043956042
3.2127388040025835,0.022564102564102562,0.10476190476190475,1.0927472527472526
3.2136169130026246,0.022564102564102562,0.10476190476190475,1.0927472527472526
3.215450215000601,0.022564102564102562,0.10476190476190475,1.0927472527472526
3.2187972940009786,0.022564102564102562,0.10476190476190475,1.0927472527472526
3.219107630997314,0.618095238095238,0.3038095238095238,1.2732600732600732
3.226572532003047,0.618095238095238,0.3038095238095238,1.2732600732600732
3.2314085559992236,0.618095238095238,0.3038095238095238,1.2732600732600732
3.2370116929960204,0.618095238095238,0.3038095238095238,1.2732600732600732
3.237310880002042,1.4763369963369963,0.6438827838827839,0.6301831501831501
3.243207788997097,1.4763369963369963,0.6438827838827839,0.6301831501831501
3.248606278000807,0.0,0.05882783882783882,0.9243223443223443
3.2502375499971095,0.0,0.05882783882783882,0.9243223443223443
3.2551578389975475,1.7656410256410255,0.8098901098901098,3.0654945054945055
3.25995757200144,1.7656410256410255,0.8098901098901098,3.0654945054945055
3.264538199000526,1.7656410256410255,0.8098901098901098,3.0654945054945055
3.2648133440015954,1.7656410256410255,0.8098901098901098,3.0654945054945055
3.269774125001277,1.7656410256410255,0.8098901098901098,3.0654945054945055
3.276616016999469,1.7656410256410255,0.8098901098901098,3.0654945054945055
3.2804960579960607,0.2594871794871795,0.17567765567765567,1.7567765567765568
3.2854570010022144,0.2594871794871795,0.17567765567765567,1.7567765567765568
3.292286880001484,0.8856410256410255,0.3964835164835165,1.7873992673992671
3.296364424000785,0.8856410256410255,0.3964835164835165,1.7873992673992671
3.300253850997251,1.6044688644688643,0.6084249084249085,3.046959706959707
3.304280235002807,1.6044688644688643,0.6084249084249085,3.046959706959707
3.310411471997213,0.0,0.051575091575091575,0.9557509157509158
3.313779231000808,0.3594139194139194,0.22967032967032966,0.8928937728937728
3.3146343729968066,0.3594139194139194,0.22967032967032966,0.8928937728937728
3.316243775996554,0.3594139194139194,0.22967032967032966,0.8928937728937728
3.32011013799638,0.3594139194139194,0.22967032967032966,0.8928937728937728
3.3249798249962623,0.3594139194139194,0.22967032967032966,0.8928937728937728
3.3296596569998655,0.3594139194139194,0.22967032967032966,0.8928937728937728
3.3299850089970278,0.3594139194139194,0.22967032967032966,0.8928937728937728
3.335274406003009,0.3594139194139194,0.22967032967032966,0.8928937728937728
3.337968057996477,1.5335531135531135,0.6205128205128204,3.12029304029304
3.344353628002864,1.5335531135531135,0.6205128205128204,3.12029304029304
3.3484051749983337,1.5335531135531135,0.6205128205128204,3.12029304029304
3.3523339239982306,1.5335531135531135,0.6205128205128204,3.12029304029304
3.356778082998062,1.5335531135531135,0.6205128205128204,3.12029304029304
3.3570333820025553,1.635091575091575,0.6785347985347985,0.5552380952380952
3.362548842000251,1.635091575091575,0.6785347985347985,0.5552380952380952
3.3634069109975826,1.635091575091575,0.6785347985347985,0.5552380952380952
3.3650458569973125,1.635091575091575,0.6785347985347985,0.5552380952380952
3.3698642250019475,0.018534798534798533,0.08058608058608058,1.3095238095238093
3.3789180050007417,0.018534798534798533,0.08058608058608058,1.3095238095238093
3.3790957140008686,0.018534798534798533,0.08058608058608058,1.3095238095238093
3.384558894998918,1.2531135531135529,0.5052747252747253,0.9928205128205128
3.3854840269996203,1.2531135531135529,0.5052747252747253,0.9928205128205128
3.38656379099848,1.2531135531135529,0.5052747252747253,0.9928205128205128
3.388155683001969,1.2531135531135529,0.5052747252747253,0.9928205128205128
3.3937650849984493,1.2531135531135529,0.5052747252747253,0.9928205128205128
3.403791627002647,1.2531135531135529,0.5052747252747253,0.9928205128205128
3.4112426939973375,1.2531135531135529,0.5052747252747253,0.9928205128205128
3.4165597179962788,1.2531135531135529,0.5052747252747253,0.9928205128205128
3.4195562879976933,1.2531135531135529,0.5052747252747253,0.9928205128205128
3.4233948170003714,1.2531135531135529,0.5052747252747253,0.9928205128205128
3.4269477459965856,1.2531135531135529,0.5052747252747253,0.9928205128205128
3.4325591349988827,1.2531135531135529,0.5052747252747253,0.9928205128205128
3.4335787410018384,0.6704761904761904,0.24014652014652016,2.5505494505494504
3.4346203890017932,0.6704761904761904,0.24014652014652016,2.5505494505494504
3.4349272969993763,0.6704761904761904,0.24014652014652016,2.5505494505494504
3.442351662000874,0.6704761904761904,0.24014652014652016,2.5505494505494504
3.446271439002885,1.224102564102564,0.5197802197802197,0.9831501831501831
3.4504174620014965,1.224102564102564,0.5197802197802197,0.9831501831501831
3.4531761679972988,1.224102564102564,0.5197802197802197,0.9831501831501831
3.4588884670010884,1.224102564102564,0.5197802197802197,0.9831501831501831
3.4643221459991764,1.224102564102564,0.5197802197802197,0.9831501831501831
3.466742611999507,1.224102564102564,0.5197802197802197,0.9831501831501831
3.4668809979993966,1.224102564102564,0.5197802197802197,0.9831501831501831
3.472883381000429,1.224102564102564,0.5197802197802197,0.9831501831501831
3.478462599996419,1.224102564102564,0.5197802197802197,0.9831501831501831
3.4786760459974175,1.216043956043956,0.5681318681318681,1.3715750915750915
3.4835217150030076,1.216043956043956,0.5681318681318681,1.3715750915750915
3.4894807009986835,0.2747985347985348,0.1386080586080586,1.2426373626373626
3.4962030009992304,0.2747985347985348,0.1386080586080586,1.2426373626373626
3.500797426000645,0.2747985347985348,0.1386080586080586,1.2426373626373626
3.5012529419982457,0.2747985347985348,0.1386080586080586,1.2426373626373626
3.5071018829985405,0.2747985347985348,0.1386080586080586,1.2426373626373626
3.5116348219962674,0.2747985347985348,0.1386080586080586,1.2426373626373626
3.5118490500026383,0.2747985347985348,0.1386080586080586,1.2426373626373626
3.5173199670025497,0.2747985347985348,0.1386080586080586,1.2426373626373626
3.5191800120010157,0.581025641025641,0.28930402930402926,1.3522344322344322
3.5222556040025665,0.581025641025641,0.28930402930402926,1.3522344322344322
3.5246998939983314,0.581025641025641,0.28930402930402926,1.3522344322344322
3.5248217760017724,0.581025641025641,0.28930402930402926,1.3522344322344322
3.529482732003089,0.581025641025641,0.28930402930402926,1.3522344322344322
3.5296660129970405,0.581025641025641,0.28930402930402926,1.3522344322344322
3.5352274129982106,0.581025641025641,0.28930402930402926,1.3522344322344322
3.5355767509972793,1.544029304029304,0.7905494505494506,0.5600732600732601
3.5424724990007235,1.544029304029304,0.7905494505494506,0.5600732600732601
3.5464022439991822,1.544029304029304,0.7905494505494506,0.5600732600732601
3.5510271370003466,1.544029304029304,0.7905494505494506,0.5600732600732601
3.551209568999184,1.544029304029304,0.7905494505494506,0.5600732600732601
3.5580474570015213,1.544029304029304,0.7905494505494506,0.5600732600732601
3.56188423599815,1.4723076923076923,0.6857875457875457,0.5318681318681319
3.5670119330025045,1.4723076923076923,0.6857875457875457,0.5318681318681319
3.571605361001275,1.4723076923076923,0.6857875457875457,0.5318681318681319
3.572007269001915,1.4723076923076923,0.6857875457875457,0.5318681318681319
3.576263946000836,1.4723076923076923,0.6857875457875457,0.5318681318681319
3.5778738590015564,1.4723076923076923,0.6857875457875457,0.5318681318681319
3.5824477529968135,1.4723076923076923,0.6857875457875457,0.5318681318681319
3.5833163380011683,1.4723076923076923,0.6857875457875457,0.5318681318681319
3.5853024250027374,1.4723076923076923,0.6857875457875457,0.5318681318681319
3.586945746996207,1.4723076923076923,0.6857875457875457,0.5318681318681319
3.5930719030002365,1.4723076923076923,0.6857875457875457,0.5318681318681319
3.596674599000835,1.4723076923076923,0.6857875457875457,0.5318681318681319
3.5968027700000675,1.631062271062271,0.8308424908424907,0.6479120879120879
3.6025479230011115,1.631062271062271,0.8308424908424907,0.6479120879120879
3.6027246129960986,1.631062271062271,0.8308424908424907,0.6479120879120879
3.609222068997042,1.631062271062271,0.8308424908424907,0.6479120879120879
3.613052503998915,0.0,0.0693040293040293,1.120952380952381
3.618419856997207,0.0,0.0693040293040293,1.120952380952381
3.621433034000802,0.0,0.0693040293040293,1.120952380952381
3.6252256380030303,0.0,0.0693040293040293,1.120952380952381
3.6285057670029346,0.0,0.09589743589743589,1.3095238095238093
3.6293902170000365,0.0,0.033846153846153845,0.9364102564102563
3.630281167002977,0.0,0.033846153846153845,0.9364102564102563
3.6318525030001183,0.0,0.033846153846153845,0.9364102564102563
3.6371302400002605,0.0,0.033846153846153845,0.9364102564102563
3.639576929002942,0.0,0.033846153846153845,0.9364102564102563
3.6446511230024043,0.0,0.033846153846153845,0.9364102564102563
3.647914656001376,0.0,0.033846153846153845,0.9364102564102563
3.6488407860015286,0.0,0.033846153846153845,0.9364102564102563
3.649757059996773,1.6753846153846153,0.8663003663003663,2.6246886446886446
3.651491921998968,1.6753846153846153,0.8663003663003663,2.6246886446886446
3.6565197599993553,1.6753846153846153,0.8663003663003663,2.6246886446886446
3.659544704001746,1.6753846153846153,0.8663003663003663,2.6246886446886446
3.6614058380000643,1.6753846153846153,0.8663003663003663,2.6246886446886446
3.6637319950023084,1.6753846153846153,0.8663003663003663,2.6246886446886446
3.6638866150024114,1.6753846153846153,0.8663003663003663,2.6246886446886446
3.668566626998654,0.0,0.08622710622710622,1.3667399267399267
3.668834953001351,0.0,0.08622710622710622,1.3667399267399267
3.676055286996416,0.0,0.08622710622710622,1.3667399267399267
3.680093091999879,0.0,0.08622710622710622,1.3667399267399267
3.683191835996695,0.0,0.08622710622710622,1.3667399267399267
3.6855409130002954,0.35216117216117215,0.2361172161172161,1.2273260073260073
3.6857722330023535,0.35216117216117215,0.2361172161172161,1.2273260073260073
3.693567697002436,0.35216117216117215,0.2361172161172161,1.2273260073260073
3.6981414909969317,0.2208058608058608,0.13296703296703297,1.9743589743589742
3.699039890001586,0.224029304029304,0.17567765567765567,1.216849816849817
3.7006669210022665,0.224029304029304,0.17567765567765567,1.216849816849817
3.7062700989990844,0.224029304029304,0.17567765567765567,1.216849816849817
3.706441526002891,0.224029304029304,0.17567765567765567,1.216849816849817
3.711954988000798,0.224029304029304,0.17567765567765567,1.216849816849817
3.7142792849990656,0.224029304029304,0.17567765567765567,1.216849816849817
3.7144483770025545,0.224029304029304,0.17567765567765567,1.216849816849817
3.7198864099991624,0.224029304029304,0.17567765567765567,1.216849816849817
3.722315762999642,0.224029304029304,0.17567765567765567,1.216849816849817
3.7284915179989184,0.0,0.14344322344322344,1.1684981684981686
3.7323304699966684,0.0,0.14344322344322344,1.1684981684981686
3.7371667650004383,0.0,0.14344322344322344,1.1684981684981686
3.744964981000521,0.0,0.14344322344322344,1.1684981684981686
3.749605534001603,0.0,0.05963369963369963,1.1636630036630036
3.7498314550030045,0.0,0.05963369963369963,1.1636630036630036
3.7579493800003547,0.0,0.05963369963369963,1.1636630036630036
3.761913864997041,1.3804395604395605,0.6938461538461538,0.3811721611721612
3.7657559540020884,1.3804395604395605,0.6938461538461538,0.3811721611721612
3.769626683999377,1.3804395604395605,0.6938461538461538,0.3811721611721612
3.7777664280001773,1.3804395604395605,0.6938461538461538,0.3811721611721612
3.782398639996245,1.3804395604395605,0.6938461538461538,0.3811721611721612
3.782665699996869,1.3804395604395605,0.6938461538461538,0.3811721611721612
3.78865752099955,1.3804395604395605,0.6938461538461538,0.3811721611721612
3.7946695999999065,1.3804395604395605,0.6938461538461538,0.3811721611721612
3.7987670060028904,1.3804395604395605,0.6938461538461538,0.3811721611721612
3.801889444999688,1.0395604395604394,0.6253479853479853,1.2692307692307692
3.8039919180009747,0.0,0.048351648351648346,1.0105494505494506
3.804359674002626,0.0,0.048351648351648346,1.0105494505494506
3.8116494659989257,0.0,0.048351648351648346,1.0105494505494506
3.8163023800007068,0.0,0.07736263736263736,0.896117216117216
3.816527153001516,1.3038827838827838,0.6769230769230768,0.45772893772893775
3.8236335960027645,1.3038827838827838,0.6769230769230768,0.45772893772893775
3.8270530700028758,1.3038827838827838,0.6769230769230768,0.45772893772893775
3.8271840550005436,1.3038827838827838,0.6769230769230768,0.45772893772893775
3.8329504400026053,1.3038827838827838,0.6769230769230768,0.45772893772893775
3.833186880001449,1.3038827838827838,0.6769230769230768,0.45772893772893775
3.8422401130010257,1.4594139194139193,0.5931135531135531,3.005860805860806
3.8486856189992977,1.4594139194139193,0.5931135531135531,3.005860805860806
3.8525007810021634,0.0,0.10315018315018315,1.2652014652014651
3.859330642000714,1.3191941391941393,0.5745787545787545,2.9655677655677657
3.8633423349965597,0.3811721611721612,0.25465201465201465,1.236996336996337
3.8678250279990607,0.3811721611721612,0.25465201465201465,1.236996336996337
3.86815068499709,0.0,0.11523809523809524,1.2926007326007325
3.8757859659963287,0.0,0.11523809523809524,1.2926007326007325
3.879633611999452,0.0,0.11523809523809524,1.2926007326007325
3.8855021749986918,0.0,0.11523809523809524,1.2926007326007325
3.8938175849980325,0.0,0.11523809523809524,1.2926007326007325
3.898645866996958,0.0,0.11523809523809524,1.2926007326007325
3.898750909997034,0.6495238095238095,0.3690842490842491,1.1161172161172161
3.9062960439987364,0.6495238095238095,0.3690842490842491,1.1161172161172161
3.910264254998765,0.0,0.06769230769230769,0.8864468864468864
3.913557314997888,0.0,0.06769230769230769,0.8864468864468864
3.914481622996391,0.0,0.06769230769230769,0.8864468864468864
3.915502830997866,0.0,0.06769230769230769,0.8864468864468864
3.9163771530002123,0.0,0.06769230769230769,0.8864468864468864
3.9181778260026476,1.0532600732600732,0.5600732600732601,0.8123076923076923
3.922310889000073,1.0532600732600732,0.5600732600732601,0.8123076923076923
3.923713468997448,1.0532600732600732,0.5600732600732601,0.8123076923076923
3.932566527000745,1.0532600732600732,0.5600732600732601,0.8123076923076923
3.9382930419960758,1.0532600732600732,0.5600732600732601,0.8123076923076923
3.938537059999362,1.0532600732600732,0.5600732600732601,0.8123076923076923
3.9440077539984486,1.0532600732600732,0.5600732600732601,0.8123076923076923
3.944860174000496,0.20227106227106226,0.20307692307692307,1.36996336996337
3.9465920139991795,0.20227106227106226,0.20307692307692307,1.36996336996337
3.9489700729973265,0.20227106227106226,0.20307692307692307,1.36996336996337
3.949129857996013,0.20227106227106226,0.20307692307692307,1.36996336996337
3.955480646000069,0.20227106227106226,0.20307692307692307,1.36996336996337
3.9588043149997247,0.2651282051282051,0.1813186813186813,1.676190476190476
3.959747460001381,0.2651282051282051,0.1813186813186813,1.676190476190476
3.961422731001221,0.0,0.0846153846153846,0.9315750915750916
3.965366370997799,0.0,0.0846153846153846,0.9315750915750916
3.968595127000299,0.0,0.1523076923076923,1.220879120879121
3.9709169089983334,0.0,0.1523076923076923,1.220879120879121
3.9710618309982237,0.0,0.1523076923076923,1.220879120879121
3.9769374870011234,0.0,0.1523076923076923,1.220879120879121
3.9866179189994,0.0,0.1523076923076923,1.220879120879121
3.993454711002414,0.0,0.1523076923076923,1.220879120879121
3.9976049059987417,0.0,0.1523076923076923,1.220879120879121
4.000053607000154,0.0,0.1523076923076923,1.220879120879121
4.007431040998199,0.0,0.1523076923076923,1.220879120879121
4.0124401270004455,0.5463736263736263,0.3376556776556776,1.4666666666666666
4.016340340996976,0.5463736263736263,0.3376556776556776,1.4666666666666666
4.021676206997654,0.5463736263736263,0.3376556776556776,1.4666666666666666
4.024602099998447,0.5463736263736263,0.3376556776556776,1.4666666666666666
4.0279042390029645,0.5463736263736263,0.3376556776556776,1.4666666666666666
4.028115959001298,0.0,0.04915750915750916,0.9694505494505494
4.033765931002563,0.0,0.04915750915750916,0.9694505494505494
4.033990101001109,0.0,0.04915750915750916,0.9694505494505494
4.04186018499604,0.0,0.04915750915750916,0.9694505494505494
4.047128136000538,0.0,0.03465201465201465,0.9823443223443222
4.048258891998557,0.0,0.03465201465201465,0.9823443223443222
4.048433454998303,0.0,0.03465201465201465,0.9823443223443222
4.056272310001077,0.0,0.03465201465201465,0.9823443223443222
4.05981921700004,0.9041758241758242,0.3449084249084249,2.2064468864468862
4.065304506002576,0.9041758241758242,0.3449084249084249,2.2064468864468862
4.067740026002866,0.9041758241758242,0.3449084249084249,2.2064468864468862
4.075560807999864,0.9041758241758242,0.3449084249084249,2.2064468864468862
4.079514815995935,0.9041758241758242,0.3449084249084249,2.2064468864468862
4.083624455997779,0.9041758241758242,0.3449084249084249,2.2064468864468862
4.086953585996525,0.9041758241758242,0.3449084249084249,2.2064468864468862
4.088075501000276,0.0,0.0838095238095238,1.232161172161172
4.088342271999863,0.0,0.0838095238095238,1.232161172161172
4.093253471000935,0.0,0.0838095238095238,1.232161172161172
4.097991570000886,0.0,0.0838095238095238,1.232161172161172
4.098122039998998,0.0,0.0838095238095238,1.232161172161172
4.10422700199706,0.0,0.0838095238095238,1.232161172161172
4.110688273998676,0.0,0.0838095238095238,1.232161172161172
4.114571600999625,0.0,0.03868131868131868,0.8139194139194139
4.119417041998531,0.0,0.03868131868131868,0.8139194139194139
4.126973721002287,0.5963369963369963,0.3497435897435897,1.3328937728937729
4.131966180997551,0.06608058608058608,0.09670329670329669,1.1362637362637362
4.139004623000801,0.06608058608058608,0.09670329670329669,1.1362637362637362
4.144837571999233,0.08139194139194139,0.1402197802197802,0.9098168498168498
4.149579958000686,1.0266666666666666,0.43113553113553116,2.402271062271062
4.159525811999629,0.12168498168498168,0.1418315018315018,0.8042490842490841
4.165711462999752,1.3884981684981685,0.630989010989011,3.204102564102564
4.169839215996035,1.3884981684981685,0.630989010989011,3.204102564102564
4.174567134003155,1.3884981684981685,0.630989010989011,3.204102564102564
4.183110291996854,1.3884981684981685,0.630989010989011,3.204102564102564
4.191248937000637,1.3884981684981685,0.630989010989011,3.204102564102564
4.195888267997361,1.174139194139194,0.5858608058608058,1.6415384615384614
4.196776773002057,1.3747985347985348,0.61003663003663,3.2629304029304027
4.1993271019964595,1.3747985347985348,0.61003663003663,3.2629304029304027
4.206674995999492,1.3747985347985348,0.61003663003663,3.2629304029304027
4.210578020996763,1.6342857142857143,0.697069597069597,3.3
4.215152008997393,1.6342857142857143,0.697069597069597,3.3
4.215527943997586,1.7487179487179487,0.7953846153846154,0.7059340659340658
4.221640933996241,1.7487179487179487,0.7953846153846154,0.7059340659340658
4.225660440999491,1.7487179487179487,0.7953846153846154,0.7059340659340658
4.229788265001844,1.7487179487179487,0.7953846153846154,0.7059340659340658
4.232802612001251,1.7487179487179487,0.7953846153846154,0.7059340659340658
4.235278815001948,1.7487179487179487,0.7953846153846154,0.7059340659340658
4.235385157997371,1.7487179487179487,0.7953846153846154,0.7059340659340658
4.2416646819983725,1.7487179487179487,0.7953846153846154,0.7059340659340658
4.245628985001531,1.7487179487179487,0.7953846153846154,0.7059340659340658
4.2487717870026245,1.7487179487179487,0.7953846153846154,0.7059340659340658
4.250521854002727,0.518974358974359,0.3142857142857142,1.1185347985347984
4.25462602799962,0.518974358974359,0.3142857142857142,1.1185347985347984
4.257279470002686,0.518974358974359,0.3142857142857142,1.1185347985347984
4.26199366900255,0.518974358974359,0.3142857142857142,1.1185347985347984
4.2621793180005625,0.518974358974359,0.3142857142857142,1.1185347985347984
4.267565905000083,0.518974358974359,0.3142857142857142,1.1185347985347984
4.269967423002527,0.518974358974359,0.3142857142857142,1.1185347985347984
4.270202651998261,0.518974358974359,0.3142857142857142,1.1185347985347984
4.275971203001973,0.518974358974359,0.3142857142857142,1.1185347985347984
4.276126040997042,0.518974358974359,0.3142857142857142,1.1185347985347984
4.281492483998591,0.518974358974359,0.3142857142857142,1.1185347985347984
4.283302128002106,0.518974358974359,0.3142857142857142,1.1185347985347984
4.285826751998684,0.518974358974359,0.3142857142857142,1.1185347985347984
4.293503499997314,0.518974358974359,0.3142857142857142,1.1185347985347984
4.298419095001009,0.518974358974359,0.3142857142857142,1.1185347985347984
4.303074802002811,0.518974358974359,0.3142857142857142,1.1185347985347984
4.303345535998233,0.518974358974359,0.3142857142857142,1.1185347985347984
4.3099610790013685,1.6431501831501831,0.6148717948717949,2.7786080586080586
4.313958596001612,1.6431501831501831,0.6148717948717949,2.7786080586080586
4.317908078999608,1.4594139194139193,0.6132600732600733,3.1259340659340658
4.3228408159993705,0.7575091575091575,0.3852014652014652,1.2652014652014651
4.32932146100211,0.7575091575091575,0.3852014652014652,1.2652014652014651
4.3332344369991915,0.7575091575091575,0.3852014652014652,1.2652014652014651
4.338547776998894,0.9984615384615383,0.40615384615384614,2.298315018315018
4.342597267997917,0.9984615384615383,0.40615384615384614,2.298315018315018
4.343549429002451,0.0,0.09347985347985348,0.9718681318681318
4.344606881997606,0.0,0.09347985347985348,0.9718681318681318
4.345712274996913,1.3175824175824176,0.4835164835164835,2.4675457875457876
4.346007162996102,0.0,0.03465201465201465,1.0355311355311354
4.350791691998893,0.0,0.03465201465201465,1.0355311355311354
4.35103787999833,1.838168498168498,0.7978021978021977,3.1267399267399263
4.358560367996688,1.838168498168498,0.7978021978021977,3.1267399267399263
4.364247343000898,1.838168498168498,0.7978021978021977,3.1267399267399263
4.364529361999303,1.838168498168498,0.7978021978021977,3.1267399267399263
4.3683667840014095,1.838168498168498,0.7978021978021977,3.1267399267399263
4.374845719001314,1.838168498168498,0.7978021978021977,3.1267399267399263
4.378223571999115,1.838168498168498,0.7978021978021977,3.1267399267399263
4.378569635999156,1.838168498168498,0.7978021978021977,3.1267399267399263
4.38323610900261,1.838168498168498,0.7978021978021977,3.1267399267399263
4.383363886998268,1.838168498168498,0.7978021978021977,3.1267399267399263
4.391035091000958,1.838168498168498,0.7978021978021977,3.1267399267399263
4.394919095997466,1.838168498168498,0.7978021978021977,3.1267399267399263
4.399519792001229,0.2224175824175824,0.1926007326007326,1.7285714285714286
4.400374336997629,0.2224175824175824,0.1926007326007326,1.7285714285714286
4.4023816929984605,0.2224175824175824,0.1926007326007326,1.7285714285714286
4.404563744996267,0.2224175824175824,0.1926007326007326,1.7285714285714286
4.4057501339993905,0.2224175824175824,0.1926007326007326,1.7285714285714286
4.406002383999294,0.2224175824175824,0.1926007326007326,1.7285714285714286
4.409903351996036,0.2224175824175824,0.1926007326007326,1.7285714285714286
4.415326032001758,0.4013186813186813,0.24175824175824176,0.9605860805860806
4.4170826979971025,0.4013186813186813,0.24175824175824176,0.9605860805860806
4.421506747996318,1.3393406593406594,0.5697435897435897,0.8131135531135532
4.423316367996449,1.3393406593406594,0.5697435897435897,0.8131135531135532
4.425992299002246,1.3393406593406594,0.5697435897435897,0.8131135531135532
4.430586142996617,1.3393406593406594,0.5697435897435897,0.8131135531135532
4.430918944002769,1.3393406593406594,0.5697435897435897,0.8131135531135532
4.435697164000885,1.3393406593406594,0.5697435897435897,0.8131135531135532
4.443566451001971,1.0758241758241758,0.39567765567765567,2.2273992673992673
4.448574920003011,1.0758241758241758,0.39567765567765567,2.2273992673992673
4.454526620000252,1.0758241758241758,0.39567765567765567,2.2273992673992673
4.460211311001331,1.0758241758241758,0.39567765567765567,2.2273992673992673
4.4656150989976595,1.0758241758241758,0.39567765567765567,2.2273992673992673
4.4672813750003115,1.0758241758241758,0.39567765567765567,2.2273992673992673
4.472942423002678,1.0758241758241758,0.39567765567765567,2.2273992673992673
4.478789055996458,1.6544322344322344,0.7792673992673992,2.92043956043956
4.48413885699847,1.6544322344322344,0.7792673992673992,2.92043956043956
4.486556336996728,1.6544322344322344,0.7792673992673992,2.92043956043956
4.486692124999536,1.6544322344322344,0.7792673992673992,2.92043956043956
4.49298070200166,1.6544322344322344,0.7792673992673992,2.92043956043956
4.497148531998391,1.6544322344322344,0.7792673992673992,2.92043956043956
4.499676984996768,1.6367032967032966,0.6543589743589743,3.1976556776556775
4.507208786002593,0.3795604395604395,0.25545787545787546,0.9847619047619047
4.511160180998559,0.07816849816849816,0.12974358974358974,1.3151648351648353
4.515957980998792,0.26190476190476186,0.10073260073260072,2.0315750915750916
4.521416379000584,0.2482051282051282,0.190989010989011,1.6874725274725273
4.522715897001035,0.423076923076923,0.24014652014652016,1.203150183150183
4.52849369100295,0.423076923076923,0.24014652014652016,1.203150183150183
4.528661600998021,0.423076923076923,0.24014652014652016,1.203150183150183
4.534466564000468,0.423076923076923,0.24014652014652016,1.203150183150183
4.534667437997996,0.21274725274725276,0.12168498168498168,1.9429304029304029
4.544283303002885,0.21274725274725276,0.12168498168498168,1.9429304029304029
4.549630554000032,0.7534798534798535,0.42710622710622714,1.3957509157509156
4.55348220399901,0.7534798534798535,0.42710622710622714,1.3957509157509156
4.559636673999194,0.5238095238095237,0.21597069597069596,2.581172161172161
4.563494130001345,0.07333333333333333,0.09670329670329669,0.9847619047619047
4.5691228860014235,0.07333333333333333,0.09670329670329669,0.9847619047619047
4.569441466999706,0.07333333333333333,0.09670329670329669,0.9847619047619047
4.576089510999736,0.07333333333333333,0.09670329670329669,0.9847619047619047
4.579968537997047,1.627032967032967,0.7075457875457875,0.2772161172161172
4.584671696000441,1.627032967032967,0.7075457875457875,0.2772161172161172
4.584800678996544,1.627032967032967,0.7075457875457875,0.2772161172161172
4.592470859002788,1.627032967032967,0.7075457875457875,0.2772161172161172
4.597159605000343,0.5931135531135531,0.20146520146520144,2.6577289377289377
4.5974066679991665,0.5931135531135531,0.20146520146520144,2.6577289377289377
4.602832288997888,0.5931135531135531,0.20146520146520144,2.6577289377289377
4.60636305299704,0.5931135531135531,0.20146520146520144,2.6577289377289377
4.612311406999652,0.5931135531135531,0.20146520146520144,2.6577289377289377
4.618996710996726,0.5931135531135531,0.20146520146520144,2.6577289377289377
4.625534225997399,1.523076923076923,0.6712820512820512,0.3497435897435897
4.631075213001168,0.020146520146520144,0.14989010989010987,1.4167032967032966
4.637252371998329,1.627032967032967,0.7873260073260073,2.0702564102564103
4.641256773997156,0.2715750915750916,0.20388278388278389,1.6818315018315015
4.644245556002716,0.2715750915750916,0.20388278388278389,1.6818315018315015
4.647450352000305,0.2715750915750916,0.20388278388278389,1.6818315018315015
4.6492659709983855,0.2715750915750916,0.20388278388278389,1.6818315018315015
4.651667992999137,0.2715750915750916,0.20388278388278389,1.6818315018315015
4.651901097000518,0.2715750915750916,0.20388278388278389,1.6818315018315015
4.661655274001532,0.2715750915750916,0.20388278388278389,1.6818315018315015
4.669313373997284,0.2715750915750916,0.20388278388278389,1.6818315018315015
4.674297646997729,0.2715750915750916,0.20388278388278389,1.6818315018315015
4.677389322001545,0.2715750915750916,0.20388278388278389,1.6818315018315015
4.681252246002259,1.5126007326007325,0.7244688644688644,0.2482051282051282
4.684637254002155,0.18776556776556774,0.14263736263736262,1.3127472527472526
4.6855318300004,0.18776556776556774,0.14263736263736262,1.3127472527472526
4.687312349997228,0.18776556776556774,0.14263736263736262,1.3127472527472526
4.691019596000842,0.18776556776556774,0.14263736263736262,1.3127472527472526
4.694914621002681,0.18776556776556774,0.14263736263736262,1.3127472527472526
4.699384175997693,0.18776556776556774,0.14263736263736262,1.3127472527472526
4.700304847996449,0.18776556776556774,0.14263736263736262,1.3127472527472526
4.702039424999384,0.18776556776556774,0.14263736263736262,1.3127472527472526
4.70647473000281,0.18776556776556774,0.14263736263736262,1.3127472527472526
4.706747648000601,0.18776556776556774,0.14263736263736262,1.3127472527472526
4.712124464000226,0.18776556776556774,0.14263736263736262,1.3127472527472526
4.715713626996148,1.514212454212454,0.7784615384615384,2.5803663003663004
4.724268409001525,1.514212454212454,0.7784615384615384,2.5803663003663004
4.728410862997407,1.514212454212454,0.7784615384615384,2.5803663003663004
4.731732781001483,1.514212454212454,0.7784615384615384,2.5803663003663004
4.73200402999646,1.514212454212454,0.7784615384615384,2.5803663003663004
4.737533548999636,1.514212454212454,0.7784615384615384,2.5803663003663004
4.738880958000664,1.514212454212454,0.7784615384615384,2.5803663003663004
4.7436700990001555,1.514212454212454,0.7784615384615384,2.5803663003663004
4.743892637998215,1.514212454212454,0.7784615384615384,2.5803663003663004
4.7519782800009125,1.514212454212454,0.7784615384615384,2.5803663003663004
4.7589110959961545,1.514212454212454,0.7784615384615384,2.5803663003663004
4.76479854399804,1.514212454212454,0.7784615384615384,2.5803663003663004
4.772642978001386,1.514212454212454,0.7784615384615384,2.5803663003663004
4.776888403997873,0.0,0.03626373626373627,1.0331135531135531
4.779891949001467,0.0,0.03626373626373627,1.0331135531135531
4.782458125999256,0.0,0.03626373626373627,1.0331135531135531
4.789416874999006,0.0,0.03626373626373627,1.0331135531135531
4.793113416999404,0.0,0.03626373626373627,1.0331135531135531
4.798114261997398,1.4038095238095236,0.7494505494505495,2.8140659340659337
4.802726403999259,1.4038095238095236,0.7494505494505495,2.8140659340659337
4.803331014001742,1.4038095238095236,0.7494505494505495,2.8140659340659337
4.80834446100198,1.4038095238095236,0.7494505494505495,2.8140659340659337
4.809425316998386,1.4038095238095236,0.7494505494505495,2.8140659340659337
4.810769217001507,1.4038095238095236,0.7494505494505495,2.8140659340659337
4.815437846998975,1.4038095238095236,0.7494505494505495,2.8140659340659337
4.815692953998223,1.5013186813186812,0.7430036630036629,0.4464468864468864
4.822762534000503,1.5013186813186812,0.7430036630036629,0.4464468864468864
4.826963637002336,1.5013186813186812,0.7430036630036629,0.4464468864468864
4.828613587997097,1.5013186813186812,0.7430036630036629,0.4464468864468864
4.8335181459988235,1.5013186813186812,0.7430036630036629,0.4464468864468864
4.842941406997852,0.2377289377289377,0.20065934065934066,1.7865934065934064
4.848938832001295,1.4207326007326007,0.7083516483516483,0.22886446886446887
4.852202654001303,1.4207326007326007,0.7083516483516483,0.22886446886446887
4.853867760000867,1.4207326007326007,0.7083516483516483,0.22886446886446887
4.859128825999505,1.4207326007326007,0.7083516483516483,0.22886446886446887
4.859499541998957,1.0024908424908423,0.4778754578754579,1.5464468864468863
4.86720836799941,1.0024908424908423,0.4778754578754579,1.5464468864468863
4.874997083003109,1.0024908424908423,0.4778754578754579,1.5464468864468863
4.880374449996452,1.4046153846153846,0.7131868131868132,3.0389010989010985
4.880783816995972,1.4046153846153846,0.7131868131868132,3.0389010989010985
4.889752105002117,1.4046153846153846,0.7131868131868132,3.0389010989010985
4.897279327000433,1.4046153846153846,0.7131868131868132,3.0389010989010985
4.904447585999151,1.4046153846153846,0.7131868131868132,3.0389010989010985
4.908020426999428,1.4046153846153846,0.7131868131868132,3.0389010989010985
4.913441780998255,1.4046153846153846,0.7131868131868132,3.0389010989010985
4.916438708998612,1.4046153846153846,0.7131868131868132,3.0389010989010985
4.919419806996302,1.4046153846153846,0.7131868131868132,3.0389010989010985
4.923437735000334,1.4046153846153846,0.7131868131868132,3.0389010989010985
4.926586034998763,1.4046153846153846,0.7131868131868132,3.0389010989010985
4.927503737002553,1.4046153846153846,0.7131868131868132,3.0389010989010985
4.930351107002934,1.4046153846153846,0.7131868131868132,3.0389010989010985
4.9322118740019505,1.4046153846153846,0.7131868131868132,3.0389010989010985
4.934702794002078,1.4046153846153846,0.7131868131868132,3.0389010989010985
4.934892234996369,1.4046153846153846,0.7131868131868132,3.0389010989010985
4.94282722799835,1.4046153846153846,0.7131868131868132,3.0389010989010985
4.950334626999393,1.4046153846153846,0.7131868131868132,3.0389010989010985
4.956541437997657,1.4046153846153846,0.7131868131868132,3.0389010989010985
4.962514154998644,1.4046153846153846,0.7131868131868132,3.0389010989010985
4.966949880996253,1.4046153846153846,0.7131868131868132,3.0389010989010985
4.967291118999128,1.4046153846153846,0.7131868131868132,3.0389010989010985
4.97512652399746,1.4046153846153846,0.7131868131868132,3.0389010989010985
4.979969947002246,1.4046153846153846,0.7131868131868132,3.0389010989010985
4.98731113300164,1.4046153846153846,0.7131868131868132,3.0389010989010985
4.992466900999716,1.4046153846153846,0.7131868131868132,3.0389010989010985
4.994800724001834,1.4046153846153846,0.7131868131868132,3.0389010989010985
4.995039720000932,1.4046153846153846,0.7131868131868132,3.0389010989010985
5.004410822002683,1.4046153846153846,0.7131868131868132,3.0389010989010985
5.011986372002866,1.4046153846153846,0.7131868131868132,3.0389010989010985
5.016757224002504,0.004835164835164835,0.10717948717948718,1.3377289377289376
5.024796443998639,1.4432967032967032,0.7051282051282051,0.4142124542124542
5.02895080899907,0.4698168498168498,0.32798534798534795,1.3635164835164835
5.031967278002412,0.0,0.03545787545787545,1.141098901098901
5.034340124002483,1.4586080586080585,0.6962637362637363,2.860805860805861
5.034611604001839,1.4586080586080585,0.6962637362637363,2.860805860805861
5.041014611000719,1.4586080586080585,0.6962637362637363,2.860805860805861
5.044212214001163,1.4586080586080585,0.6962637362637363,2.860805860805861
5.045865608000895,1.4586080586080585,0.6962637362637363,2.860805860805861
5.049715148998075,1.4586080586080585,0.6962637362637363,2.860805860805861
5.053761356997711,1.5754578754578754,0.8106959706959707,2.6964102564102563
5.057054111995967,1.5754578754578754,0.8106959706959707,2.6964102564102563
5.057369597001525,1.5754578754578754,0.8106959706959707,2.6964102564102563
5.064672278997023,1.5754578754578754,0.8106959706959707,2.6964102564102563
5.069595704000676,0.0,0.06124542124542124,0.9452747252747251
5.073431443997833,0.0,0.06124542124542124,0.9452747252747251
5.078741627999989,0.0,0.06124542124542124,0.9452747252747251
5.081119927002874,0.0,0.06124542124542124,0.9452747252747251
5.086922772003163,0.0,0.06124542124542124,0.9452747252747251
5.087063658997067,0.0,0.06124542124542124,0.9452747252747251
5.092873547997442,0.0,0.026593406593406595,0.9468864468864467
5.098133731997223,0.0,0.048351648351648346,0.8098901098901098
5.101372955003171,0.0,0.048351648351648346,0.8098901098901098
5.102244681002048,0.0,0.04351648351648352,0.8477655677655677
5.103149324000697,0.0,0.04351648351648352,0.8477655677655677
5.105072033999022,0.0,0.04351648351648352,0.8477655677655677
5.107269727996027,0.31750915750915754,0.2562637362637363,1.4715018315018316
5.107542208999803,0.31750915750915754,0.2562637362637363,1.4715018315018316
5.112437390998821,0.31750915750915754,0.2562637362637363,1.4715018315018316
5.117533716002072,0.31750915750915754,0.2562637362637363,1.4715018315018316
5.122449310001684,0.31750915750915754,0.2562637362637363,1.4715018315018316
5.127296047001437,0.31750915750915754,0.2562637362637363,1.4715018315018316
5.133136981996358,0.0,0.11362637362637362,1.3602930402930402
5.140764322000905,0.0,0.11362637362637362,1.3602930402930402
5.145296333997976,1.1999267399267397,0.5632967032967032,0.8517948717948718
5.145577379997121,0.12732600732600732,0.1095970695970696,1.2426373626373626
5.151882077996561,0.12732600732600732,0.1095970695970696,1.2426373626373626
5.157468133002112,0.12732600732600732,0.1095970695970696,1.2426373626373626
5.157705696001358,0.12732600732600732,0.1095970695970696,1.2426373626373626
5.161705669001094,0.12732600732600732,0.1095970695970696,1.2426373626373626
5.1655799509971985,0.12732600732600732,0.1095970695970696,1.2426373626373626
5.170713319996139,0.017728937728937726,0.08542124542124542,1.3336996336996336
5.174642357000266,0.017728937728937726,0.08542124542124542,1.3336996336996336
5.178139433002798,1.3627106227106225,0.5834432234432234,3.224249084249084
5.1783132040000055,1.3627106227106225,0.5834432234432234,3.224249084249084
5.183472466000239,1.3627106227106225,0.5834432234432234,3.224249084249084
5.18697762699594,1.3627106227106225,0.5834432234432234,3.224249084249084
5.18714172700129,1.3627106227106225,0.5834432234432234,3.224249084249084
5.191670202999376,1.3627106227106225,0.5834432234432234,3.224249084249084
5.192575312998088,0.5125274725274725,0.2063003663003663,2.501391941391941
5.194225733997882,0.5125274725274725,0.2063003663003663,2.501391941391941
5.198091427999316,0.5125274725274725,0.2063003663003663,2.501391941391941
5.202987174001464,0.5125274725274725,0.2063003663003663,2.501391941391941
5.207987233996391,0.5125274725274725,0.2063003663003663,2.501391941391941
5.2131204289980815,0.5125274725274725,0.2063003663003663,2.501391941391941
5.217326773003151,1.2466666666666666,0.6156776556776556,1.950989010989011
5.218947848996322,1.2466666666666666,0.6156776556776556,1.950989010989011
5.223476034996565,1.2466666666666666,0.6156776556776556,1.950989010989011
5.224337314997683,0.11926739926739927,0.18534798534798536,1.141098901098901
5.22598416999972,0.11926739926739927,0.18534798534798536,1.141098901098901
5.229738224996254,0.11926739926739927,0.18534798534798536,1.141098901098901
5.234966477000853,0.02901098901098901,0.112014652014652,0.7389743589743589
5.237458235998929,1.506153846153846,0.6197069597069597,3.083223443223443
5.242950414001825,1.506153846153846,0.6197069597069597,3.083223443223443
5.244620710996969,1.506153846153846,0.6197069597069597,3.083223443223443
5.248676502000308,1.506153846153846,0.6197069597069597,3.083223443223443
5.25178438200237,1.506153846153846,0.6197069597069597,3.083223443223443
5.253341130002809,1.6205860805860803,0.8276190476190476,2.5432967032967033
5.258103237996693,1.6205860805860803,0.8276190476190476,2.5432967032967033
5.263680698000826,1.6205860805860803,0.8276190476190476,2.5432967032967033
5.265168152000115,1.6205860805860803,0.8276190476190476,2.5432967032967033
5.269185480996384,1.6205860805860803,0.8276190476190476,2.5432967032967033
5.27242491600191,1.6205860805860803,0.8276190476190476,2.5432967032967033
5.274040222997428,2.0702564102564103,0.6454945054945055,3.1307692307692303
5.27832804100035,0.7542857142857142,0.32153846153846155,2.0194871794871796
5.28001645400218,1.598021978021978,0.3553846153846154,0.361025641025641
5.283914473999175,1.598021978021978,0.3553846153846154,0.361025641025641
5.288500691000081,1.598021978021978,0.3553846153846154,0.361025641025641
5.288767051002651,1.598021978021978,0.3553846153846154,0.361025641025641
5.293582753001829,0.17326007326007326,0.5761904761904761,0.9219047619047619
5.29377870499593,0.17326007326007326,0.5761904761904761,0.9219047619047619
5.2985555909981485,0.17326007326007326,0.5761904761904761,0.9219047619047619
5.304230278998148,1.6463736263736264,0.6720879120879121,0.26109890109890105
5.304394049999246,1.6463736263736264,0.6720879120879121,0.26109890109890105
5.309741744000348,1.6463736263736264,0.6720879120879121,0.26109890109890105
5.312027945001319,1.2740659340659342,0.606007326007326,1.6616849816849815
5.312302343998454,1.2740659340659342,0.606007326007326,1.6616849816849815
5.317257142000017,1.2740659340659342,0.606007326007326,1.6616849816849815
5.325067421996209,1.456190476190476,0.6358241758241758,0.6035897435897435
5.329640659998404,1.456190476190476,0.6358241758241758,0.6035897435897435
5.330513829001575,1.456190476190476,0.6358241758241758,0.6035897435897435
5.332152686001791,1.456190476190476,0.6358241758241758,0.6035897435897435
5.3366014279963565,0.3779487179487179,0.13457875457875457,2.278974358974359
5.337504764996993,0.3779487179487179,0.13457875457875457,2.278974358974359
5.33922031900147,0.3779487179487179,0.13457875457875457,2.278974358974359
5.342423424001026,0.3779487179487179,0.13457875457875457,2.278974358974359
5.344771031996061,0.3779487179487179,0.13457875457875457,2.278974358974359
5.344902056000137,0.3779487179487179,0.13457875457875457,2.278974358974359
5.350301821003086,0.3779487179487179,0.13457875457875457,2.278974358974359
5.352028815999802,0.0,0.04271062271062271,0.7865201465201466
5.35597559499729,0.0,0.04271062271062271,0.7865201465201466
5.360717650000879,1.668131868131868,0.7276923076923076,0.7607326007326007
5.366449619003106,0.3747252747252747,0.21032967032967032,1.2265201465201465
5.367448755998339,0.06688644688644689,0.09347985347985348,1.1032234432234431
5.3683617889983,0.06688644688644689,0.09347985347985348,1.1032234432234431
5.3692949609976495,0.06688644688644689,0.09347985347985348,1.1032234432234431
5.370935143000679,1.5972161172161172,0.8630769230769231,2.3635897435897433
5.3759594459988875,1.5972161172161172,0.8630769230769231,2.3635897435897433
5.381596293002076,1.5972161172161172,0.8630769230769231,2.3635897435897433
5.388665696998942,1.5972161172161172,0.8630769230769231,2.3635897435897433
5.397097166001913,1.5972161172161172,0.8630769230769231,2.3635897435897433
5.40117364100297,1.5972161172161172,0.8630769230769231,2.3635897435897433
5.40865771999961,1.5972161172161172,0.8630769230769231,2.3635897435897433
5.412837007002963,1.5972161172161172,0.8630769230769231,2.3635897435897433
5.414459981002437,1.5972161172161172,0.8630769230769231,2.3635897435897433
5.419036797997251,1.5972161172161172,0.8630769230769231,2.3635897435897433
5.419351005999488,0.30622710622710625,0.19663003663003664,1.4489377289377288
5.425393429002725,0.30622710622710625,0.19663003663003664,1.4489377289377288
5.429229654997471,0.30622710622710625,0.19663003663003664,1.4489377289377288
5.433724401998916,0.30622710622710625,0.19663003663003664,1.4489377289377288
5.435335729998769,0.30622710622710625,0.19663003663003664,1.4489377289377288
5.44155884799693,1.6737728937728935,0.6454945054945055,0.32798534798534795
5.44512220100296,1.6737728937728935,0.6454945054945055,0.32798534798534795
5.445296174999385,1.6737728937728935,0.6454945054945055,0.32798534798534795
5.450086796998221,1.6737728937728935,0.6454945054945055,0.32798534798534795
5.450242787999741,1.6737728937728935,0.6454945054945055,0.32798534798534795
5.456891458998143,1.6737728937728935,0.6454945054945055,0.32798534798534795
5.460288622001826,1.6737728937728935,0.6454945054945055,0.32798534798534795
5.460591916998965,0.618095238095238,0.1668131868131868,0.8284249084249083
5.4652286380005535,0.618095238095238,0.1668131868131868,0.8284249084249083
5.465475892000541,0.618095238095238,0.1668131868131868,0.8284249084249083
5.473329410000588,0.618095238095238,0.1668131868131868,0.8284249084249083
5.47747876199719,1.9106959706959707,1.2426373626373626,2.9389743589743587
5.480695963000471,1.9106959706959707,1.2426373626373626,2.9389743589743587
5.481706717000634,1.9106959706959707,1.2426373626373626,2.9389743589743587
5.4826060039995355,1.9106959706959707,1.2426373626373626,2.9389743589743587
5.484256623996771,1.9106959706959707,1.2426373626373626,2.9389743589743587
5.4909952219968545,1.9106959706959707,1.2426373626373626,2.9389743589743587
5.496445365999534,1.8615384615384614,0.7728205128205128,2.6246886446886446
5.496849508002924,1.4916483516483516,0.6269597069597069,0.33604395604395604
5.5035559559983085,1.4916483516483516,0.6269597069597069,0.33604395604395604
5.50919742899714,1.4916483516483516,0.6269597069597069,0.33604395604395604
5.51801540699671,1.4916483516483516,0.6269597069597069,0.33604395604395604
5.529326588002732,1.4916483516483516,0.6269597069597069,0.33604395604395604
5.538588950999838,1.4916483516483516,0.6269597069597069,0.33604395604395604
5.544626987997617,1.4916483516483516,0.6269597069597069,0.33604395604395604
5.549301197999739,1.4916483516483516,0.6269597069597069,0.33604395604395604
5.556656198001292,1.4916483516483516,0.6269597069597069,0.33604395604395604
5.560798776998126,1.6624908424908424,0.7655677655677655,0.5632967032967032
5.563459436998528,1.6624908424908424,0.7655677655677655,0.5632967032967032
5.563566022996383,1.6624908424908424,0.7655677655677655,0.5632967032967032
5.568957103001594,1.6624908424908424,0.7655677655677655,0.5632967032967032
5.572866112001066,1.6624908424908424,0.7655677655677655,0.5632967032967032
5.575789192000229,1.7221245421245421,0.7776556776556776,2.747985347985348
5.578921328000433,1.7221245421245421,0.7776556776556776,2.747985347985348
5.580555904998619,1.7221245421245421,0.7776556776556776,2.747985347985348
5.584315403997607,1.7221245421245421,0.7776556776556776,2.747985347985348
5.590638538997155,1.7221245421245421,0.7776556776556776,2.747985347985348
5.593872628000099,1.6624908424908424,0.767985347985348,2.8994871794871795
5.5948404259979725,1.6624908424908424,0.767985347985348,2.8994871794871795
5.595765436002694,1.6624908424908424,0.767985347985348,2.8994871794871795
5.597423687002447,1.6624908424908424,0.767985347985348,2.8994871794871795
5.601612751997891,1.6624908424908424,0.767985347985348,2.8994871794871795
5.605014064996794,1.6624908424908424,0.767985347985348,2.8994871794871795
5.605108846997609,0.07575091575091575,0.04673992673992674,0.6809523809523809
5.611266009000246,0.07575091575091575,0.04673992673992674,0.6809523809523809
5.61521157000243,0.07575091575091575,0.04673992673992674,0.6809523809523809
5.619655600996339,0.07575091575091575,0.04673992673992674,0.6809523809523809
5.621333538001636,0.07575091575091575,0.04673992673992674,0.6809523809523809
5.62473274399963,0.09992673992673992,0.02901098901098901,0.7728205128205128
5.625104498998553,0.09992673992673992,0.02901098901098901,0.7728205128205128
5.629361138002423,0.9082051282051282,0.1515018315018315,1.3191941391941393
5.6310812149968115,0.2643223443223443,0.05802197802197802,1.0186080586080586
5.635812692002219,1.726959706959707,0.8582417582417583,2.5432967032967033
5.635962414002279,1.726959706959707,0.8582417582417583,2.5432967032967033
5.6426274870027555,1.5456410256410256,0.7075457875457875,0.29978021978021974
5.646469753002748,0.7567032967032966,0.38358974358974357,1.696336996336996
5.651149623001402,0.7567032967032966,0.38358974358974357,1.696336996336996
5.651307979002013,0.7567032967032966,0.38358974358974357,1.696336996336996
5.657599434998701,0.7567032967032966,0.38358974358974357,1.696336996336996
5.661630100999901,0.20307692307692307,0.09670329670329669,1.9920879120879118
5.665593694000563,0.3158974358974359,0.23208791208791207,0.9186813186813186
5.66899331699824,0.3158974358974359,0.23208791208791207,0.9186813186813186
5.670119609996618,0.3158974358974359,0.23208791208791207,0.9186813186813186
5.670499788000598,0.3158974358974359,0.23208791208791207,0.9186813186813186
5.675445023996872,0.3158974358974359,0.23208791208791207,0.9186813186813186
5.680065931999707,1.1048351648351646,0.4126007326007326,2.291062271062271
5.680281041000853,0.4625641025641025,0.08864468864468865,1.133040293040293
5.686097487996449,0.4625641025641025,0.08864468864468865,1.133040293040293
5.694258581002941,0.4625641025641025,0.08864468864468865,1.133040293040293
5.7024673630003235,0.0,0.09509157509157509,0.95010989010989
5.70849587200064,0.0,0.09509157509157509,0.95010989010989
5.713053836996551,0.0,0.09509157509157509,0.95010989010989
5.713269528998353,0.0,0.09509157509157509,0.95010989010989
5.719312554996577,0.0,0.09509157509157509,0.95010989010989
5.727928307002003,0.0,0.09509157509157509,0.95010989010989
5.734918319001736,0.0,0.09509157509157509,0.95010989010989
5.742526952002663,0.0,0.09509157509157509,0.95010989010989
5.747904593001294,0.9372161172161171,0.3908424908424908,1.2152380952380952
5.748194715000864,0.7567032967032966,0.11926739926739927,1.5077655677655677
5.753722868998011,0.7567032967032966,0.11926739926739927,1.5077655677655677
5.756467770996096,0.2772161172161172,0.24336996336996336,2.1468131868131866
5.761900928002433,1.4078388278388276,0.4778754578754579,3.2452014652014647
5.762193087000924,1.4078388278388276,0.4778754578754579,3.2452014652014647
5.771164644997043,1.4078388278388276,0.4778754578754579,3.2452014652014647
5.777501760996529,1.4078388278388276,0.4778754578754579,3.2452014652014647
5.781578821995936,1.4078388278388276,0.4778754578754579,3.2452014652014647
5.7847595650018775,1.1483516483516483,0.30542124542124544,1.3538461538461537
5.786983974998293,1.1483516483516483,0.30542124542124544,1.3538461538461537
5.7871434850021615,1.1483516483516483,0.30542124542124544,1.3538461538461537
5.793325521997758,1.1483516483516483,0.30542124542124544,1.3538461538461537
5.799735371998395,1.1483516483516483,0.30542124542124544,1.3538461538461537
5.804803428000014,1.1483516483516483,0.30542124542124544,1.3538461538461537
5.8099657369966735,1.1483516483516483,0.30542124542124544,1.3538461538461537
5.811654766002903,1.1483516483516483,0.30542124542124544,1.3538461538461537
5.815699935999874,1.1483516483516483,0.30542124542124544,1.3538461538461537
5.8207602460024646,1.1483516483516483,0.30542124542124544,1.3538461538461537
5.825381018999906,1.1483516483516483,0.30542124542124544,1.3538461538461537
5.830070867996255,1.1483516483516483,0.30542124542124544,1.3538461538461537
5.830294268002035,1.1483516483516483,0.30542124542124544,1.3538461538461537
5.835382812001626,1.1483516483516483,0.30542124542124544,1.3538461538461537
5.843210639002791,0.9364102564102563,0.751062271062271,3.150915750915751
5.847600228000374,0.9364102564102563,0.751062271062271,3.150915750915751
5.848823565997009,0.9364102564102563,0.751062271062271,3.150915750915751
5.848979770998994,0.9364102564102563,0.751062271062271,3.150915750915751
5.85532017499645,0.9364102564102563,0.751062271062271,3.150915750915751
5.859021140997356,0.9364102564102563,0.751062271062271,3.150915750915751
5.864418375997047,0.9364102564102563,0.751062271062271,3.150915750915751
5.867539004000719,0.9364102564102563,0.751062271062271,3.150915750915751
5.871975219997694,0.27238095238095233,0.17487179487179486,1.5085714285714285
5.87920701999974,0.27238095238095233,0.17487179487179486,1.5085714285714285
5.883790214997134,0.8767765567765567,0.6817582417582417,0.27076923076923076
5.884044188998814,0.8767765567765567,0.6817582417582417,0.27076923076923076
5.893011252999713,1.2756776556776557,0.7494505494505495,3.3
5.900622253997426,1.2756776556776557,0.7494505494505495,3.3
5.909563804001664,1.2756776556776557,0.7494505494505495,3.3
5.913919468999666,0.006446886446886447,0.20227106227106226,1.2732600732600732
5.915530261998356,0.006446886446886447,0.20227106227106226,1.2732600732600732
5.9219346230020165,0.006446886446886447,0.20227106227106226,1.2732600732600732
5.928202716997475,0.5455677655677655,0.3295970695970696,1.062930402930403
5.9316507059993455,0.5455677655677655,0.3295970695970696,1.062930402930403
5.931985433999216,0.5455677655677655,0.3295970695970696,1.062930402930403
5.939096456000698,0.5455677655677655,0.3295970695970696,1.062930402930403
5.942847614001948,0.5455677655677655,0.3295970695970696,1.062930402930403
5.947425680999004,0.5455677655677655,0.3295970695970696,1.062930402930403
5.94825926500198,1.523882783882784,0.5536263736263736,3.071135531135531
5.9499472660027095,1.523882783882784,0.5536263736263736,3.071135531135531
5.955134882002312,1.523882783882784,0.5536263736263736,3.071135531135531
5.958308642999327,1.523882783882784,0.5536263736263736,3.071135531135531
5.958583034000185,1.523882783882784,0.5536263736263736,3.071135531135531
5.96322680299636,1.523882783882784,0.5536263736263736,3.071135531135531
5.963629644000321,1.523882783882784,0.5536263736263736,3.071135531135531
5.968296120001469,1.523882783882784,0.5536263736263736,3.071135531135531
5.9685406270000385,1.523882783882784,0.5536263736263736,3.071135531135531
5.97681270299654,1.523882783882784,0.5536263736263736,3.071135531135531
5.984319786999549,0.42630036630036633,0.5842490842490843,1.0363369963369962
5.991343021996727,0.42630036630036633,0.5842490842490843,1.0363369963369962
5.994649820997438,0.42630036630036633,0.5842490842490843,1.0363369963369962
5.996286396002688,0.42630036630036633,0.5842490842490843,1.0363369963369962
6.000114734997624,0.42630036630036633,0.5842490842490843,1.0363369963369962
6.007898033996753,0.3916483516483516,0.06608058608058608,1.1467399267399265
6.011844004999148,1.627032967032967,0.5487912087912087,3.0397069597069595
6.015706193000369,1.627032967032967,0.5487912087912087,3.0397069597069595
6.020114362996537,1.627032967032967,0.5487912087912087,3.0397069597069595
6.020637071997044,1.627032967032967,0.5487912087912087,3.0397069597069595
6.026332852998166,1.627032967032967,0.5487912087912087,3.0397069597069595
6.031167822002317,0.21999999999999997,0.12329670329670328,1.340952380952381
6.0312900060016545,0.21999999999999997,0.12329670329670328,1.340952380952381
6.036513001003186,0.21999999999999997,0.12329670329670328,1.340952380952381
6.042235875000188,1.3401465201465201,0.17245421245421244,0.7413919413919414
6.047843013002421,0.19179487179487179,0.4738461538461538,1.4005860805860806
6.048679726998671,0.19179487179487179,0.4738461538461538,1.4005860805860806
6.050318046996836,0.19179487179487179,0.4738461538461538,1.4005860805860806
6.055604558998311,0.19179487179487179,0.4738461538461538,1.4005860805860806
6.059311890996469,0.19179487179487179,0.4738461538461538,1.4005860805860806
6.063884192997648,0.19179487179487179,0.4738461538461538,1.4005860805860806
6.064078607996635,0.5600732600732601,0.04271062271062271,1.3095238095238093
6.071274324000115,0.5600732600732601,0.04271062271062271,1.3095238095238093
6.075072015002661,0.5600732600732601,0.04271062271062271,1.3095238095238093
6.079894064998371,0.5600732600732601,0.04271062271062271,1.3095238095238093
6.087199529996724,0.5600732600732601,0.04271062271062271,1.3095238095238093
6.093666562002909,0.5600732600732601,0.04271062271062271,1.3095238095238093
6.09831010200287,0.5600732600732601,0.04271062271062271,1.3095238095238093
6.108419965996291,0.5600732600732601,0.04271062271062271,1.3095238095238093
6.113463690002391,0.4778754578754579,0.47142857142857136,1.2232967032967033
6.117731878999621,0.4778754578754579,0.47142857142857136,1.2232967032967033
6.120366046001436,0.4778754578754579,0.47142857142857136,1.2232967032967033
6.125548274998437,0.4778754578754579,0.47142857142857136,1.2232967032967033
6.127178823997383,0.20468864468864467,0.06849816849816849,0.8429304029304028
6.130517495999811,0.07736263736263736,0.06446886446886446,0.6986813186813187
6.1315569520011195,0.07736263736263736,0.06446886446886446,0.6986813186813187
6.131899293999595,0.07736263736263736,0.06446886446886446,0.6986813186813187
6.139769494002394,0.07736263736263736,0.06446886446886446,0.6986813186813187
6.144217134002247,1.3707692307692307,0.3078388278388278,0.5584615384615385
6.144452337000985,1.3707692307692307,0.3078388278388278,0.5584615384615385
6.150271487000282,1.3707692307692307,0.3078388278388278,0.5584615384615385
6.150427205000597,1.3707692307692307,0.3078388278388278,0.5584615384615385
6.158277445996646,1.3707692307692307,0.3078388278388278,0.5584615384615385
6.163324604000081,1.4634432234432233,0.6068131868131869,2.6746520146520147
6.165836457003024,0.7083516483516483,0.2957509157509157,1.095164835164835
6.166025473001355,0.7083516483516483,0.2957509157509157,1.095164835164835
6.174562938002055,0.7083516483516483,0.2957509157509157,1.095164835164835
6.179064422998636,0.7373626373626374,0.08703296703296703,0.8638827838827838
6.179206471002544,0.7373626373626374,0.08703296703296703,0.8638827838827838
6.18461517799733,0.7373626373626374,0.08703296703296703,0.8638827838827838
6.185893230998772,0.7373626373626374,0.08703296703296703,0.8638827838827838
6.18613524200191,0.7373626373626374,0.08703296703296703,0.8638827838827838
6.191043885999534,0.7373626373626374,0.08703296703296703,0.8638827838827838
6.1955500620024395,0.7373626373626374,0.08703296703296703,0.8638827838827838
6.19640971699846,0.5520146520146519,0.1821245421245421,2.2193406593406593
6.198211249997257,0.5520146520146519,0.1821245421245421,2.2193406593406593
6.200630646002537,0.5520146520146519,0.1821245421245421,2.2193406593406593
6.200809588000993,0.0,0.32073260073260074,0.4754578754578754
6.20639320799819,0.0,0.32073260073260074,0.4754578754578754
6.207364107998728,0.0,0.32073260073260074,0.4754578754578754
6.207670866999251,0.0,0.32073260073260074,0.4754578754578754
6.213319296999543,0.0,0.32073260073260074,0.4754578754578754
6.213512228998297,0.0,0.32073260073260074,0.4754578754578754
6.219121328998881,0.0,0.32073260073260074,0.4754578754578754
6.219289266002306,0.0,0.32073260073260074,0.4754578754578754
6.225003763996938,0.0,0.32073260073260074,0.4754578754578754
6.225171286001569,0.0,0.32073260073260074,0.4754578754578754
6.230581181996968,0.0,0.32073260073260074,0.4754578754578754
6.232915294996928,0.0,0.051575091575091575,1.2764835164835164
6.238414790997922,0.8324542124542124,0.29736263736263735,2.021904761904762
6.24080794499605,2.706886446886447,0.7671794871794871,1.1805860805860806
6.240977645000385,0.9186813186813186,0.24901098901098898,1.4578021978021978
6.245669042000372,0.9186813186813186,0.24901098901098898,1.4578021978021978
6.245904948002135,0.307032967032967,0.17567765567765567,1.3256410256410256
6.256032274999598,0.03868131868131868,0.17084249084249084,1.2587545787545786
6.262693397002295,0.0,0.1386080586080586,1.0701831501831502
6.2667262199975085,0.46659340659340653,0.29010989010989013,1.0282783882783881
6.2721114739979384,0.46659340659340653,0.29010989010989013,1.0282783882783881
6.272327491999022,0.46659340659340653,0.29010989010989013,1.0282783882783881
6.278065683996829,0.46659340659340653,0.29010989010989013,1.0282783882783881
6.278302061997238,0.46659340659340653,0.29010989010989013,1.0282783882783881
6.284131940999941,0.46659340659340653,0.29010989010989013,1.0282783882783881
6.284376110001176,1.9477655677655676,0.7808791208791208,2.681904761904762
6.291877882998961,1.9477655677655676,0.7808791208791208,2.681904761904762
6.295812463999027,1.9477655677655676,0.7808791208791208,2.681904761904762
6.300435625998944,1.8284981684981685,0.4005128205128205,2.189523809523809
6.300577301997691,0.6978754578754578,0.22564102564102564,1.1813919413919414
6.306937467001262,0.6978754578754578,0.22564102564102564,1.1813919413919414
6.310056510003051,0.083003663003663,0.10153846153846154,1.614139194139194
6.311667073001445,0.083003663003663,0.10153846153846154,1.614139194139194
6.315471274996526,0.083003663003663,0.10153846153846154,1.614139194139194
6.320803893002449,0.083003663003663,0.10153846153846154,1.614139194139194
6.322348743000475,0.083003663003663,0.10153846153846154,1.614139194139194
6.326684997999109,0.14344322344322344,0.5084981684981685,0.7575091575091575
6.328893409001466,1.2498901098901098,0.3811721611721612,2.0855677655677654
6.329699199995957,0.1095970695970696,0.026593406593406595,0.9017582417582416
6.331856379998499,0.1095970695970696,0.026593406593406595,0.9017582417582416
6.332140391001303,0.1095970695970696,0.026593406593406595,0.9017582417582416
6.3370770100009395,0.1095970695970696,0.026593406593406595,0.9017582417582416
6.337171524995938,0.1095970695970696,0.026593406593406595,0.9017582417582416
6.34209259400086,1.6286446886446886,0.4794871794871795,1.46021978021978
6.34707815299771,0.03545787545787545,0.08058608058608058,1.1394871794871795
6.351290421000158,0.03545787545787545,0.08058608058608058,1.1394871794871795
6.3541966900011175,0.03545787545787545,0.08058608058608058,1.1394871794871795
6.357809875000385,1.7543589743589743,0.5358974358974359,2.888205128205128
6.358026299996709,1.7543589743589743,0.5358974358974359,2.888205128205128
6.362924209002813,1.7543589743589743,0.5358974358974359,2.888205128205128
6.367939814001147,1.7543589743589743,0.5358974358974359,2.888205128205128
6.372313016996486,1.7543589743589743,0.5358974358974359,2.888205128205128
6.373200210000505,0.6277655677655677,0.7478388278388278,2.193553113553113
6.37470830300299,0.6277655677655677,0.7478388278388278,2.193553113553113
6.379589917996782,0.6277655677655677,0.7478388278388278,2.193553113553113
6.384549383998092,0.6277655677655677,0.7478388278388278,2.193553113553113
6.384704461997899,0.6277655677655677,0.7478388278388278,2.193553113553113
6.389704319000884,0.6277655677655677,0.7478388278388278,2.193553113553113
6.393935899999633,0.0,0.29978021978021974,1.4473260073260072
6.396105904997967,0.0,0.29978021978021974,1.4473260073260072
6.396901533997152,0.0,0.29978021978021974,1.4473260073260072
6.399321046003024,2.1057142857142854,1.091135531135531,0.5173626373626373
6.39953138599958,2.1057142857142854,1.091135531135531,0.5173626373626373
6.405723253999895,2.1057142857142854,1.091135531135531,0.5173626373626373
6.408844373996544,2.1057142857142854,1.091135531135531,0.5173626373626373
6.410458327001834,2.1057142857142854,1.091135531135531,0.5173626373626373
6.414316110996879,2.1057142857142854,1.091135531135531,0.5173626373626373
6.418378952002968,2.1057142857142854,1.091135531135531,0.5173626373626373
6.421663061999425,2.1057142857142854,1.091135531135531,0.5173626373626373
6.422537170998112,0.3698901098901099,0.11282051282051282,1.3191941391941393
6.4234592049979256,0.3698901098901099,0.11282051282051282,1.3191941391941393
6.42527556099958,0.3698901098901099,0.11282051282051282,1.3191941391941393
6.427767160996154,0.3698901098901099,0.11282051282051282,1.3191941391941393
6.427969967997342,0.3698901098901099,0.11282051282051282,1.3191941391941393
6.4328007610019995,0.3698901098901099,0.11282051282051282,1.3191941391941393
6.438327443000162,0.3698901098901099,0.11282051282051282,1.3191941391941393
6.439988616002665,0.3698901098901099,0.11282051282051282,1.3191941391941393
6.4440481170022395,0.3698901098901099,0.11282051282051282,1.3191941391941393
6.447223023002152,0.3698901098901099,0.11282051282051282,1.3191941391941393
6.448891047999496,1.6286446886446886,0.4859340659340659,1.896190476190476
