time,emg1,emg2,emg3
0.00821881900083099,1.8204395604395605,0.5818315018315018,0.8856410256410255
0.021469571000125143,2.673040293040293,0.7051282051282051,1.3731868131868132
0.0379698050001025,2.748791208791209,0.07252747252747253,0.1942124542124542
0.04957584099975065,2.748791208791209,0.07252747252747253,0.1942124542124542
0.05671143000108714,2.748791208791209,0.07252747252747253,0.1942124542124542
0.06116303199996764,2.748791208791209,0.07252747252747253,0.1942124542124542
0.06150389300091774,2.748791208791209,0.07252747252747253,0.1942124542124542
0.06687684899952728,2.748791208791209,0.07252747252747253,0.1942124542124542
0.06944856300106039,2.748791208791209,0.07252747252747253,0.1942124542124542
0.07477283200023521,2.748791208791209,0.07252747252747253,0.1942124542124542
0.07664703000045847,2.7117216117216114,0.9823443223443222,1.6906959706959706
0.08006148999993457,2.6794871794871793,0.27802197802197803,0.47706959706959706
0.08019736099959118,2.6794871794871793,0.27802197802197803,0.47706959706959706
0.0851380229996721,2.6794871794871793,0.27802197802197803,0.47706959706959706
0.09013484400020388,2.6794871794871793,0.27802197802197803,0.47706959706959706
0.10131367800022417,2.6794871794871793,0.27802197802197803,0.47706959706959706
0.1093877050006995,2.6794871794871793,0.27802197802197803,0.47706959706959706
0.1156806430008146,2.6794871794871793,0.27802197802197803,0.47706959706959706
0.12000215900116018,2.6794871794871793,0.27802197802197803,0.47706959706959706
0.12092998700063617,2.6794871794871793,0.27802197802197803,0.47706959706959706
0.12362350799958222,2.6794871794871793,0.27802197802197803,0.47706959706959706
0.12933834199975536,2.6794871794871793,0.27802197802197803,0.47706959706959706
0.13749906200064288,2.6875457875457873,0.07816849816849816,0.3658608058608058
0.14670644600118976,2.6875457875457873,0.07816849816849816,0.3658608058608058
0.15039608600091015,2.6875457875457873,0.07816849816849816,0.3658608058608058
0.1597643170007359,2.6875457875457873,0.07816849816849816,0.3658608058608058
0.1685863340007927,2.7375091575091575,0.8953113553113552,1.7446886446886447
0.17583926800034533,2.7375091575091575,0.8953113553113552,1.7446886446886447
0.1815760000008595,2.7375091575091575,0.8953113553113552,1.7446886446886447
0.18677726300120412,3.3,0.8791941391941391,0.8969230769230768
0.18973289799941995,3.3,0.8791941391941391,0.8969230769230768
0.1926937040007033,3.3,0.8791941391941391,0.8969230769230768
0.19604909500048961,3.3,0.8791941391941391,0.8969230769230768
0.19635208399995463,3.3,0.8791941391941391,0.8969230769230768
0.2010765619997983,3.3,0.8791941391941391,0.8969230769230768
0.20118162899962044,3.3,0.6809523809523809,1.2523076923076921
0.20644809900113614,3.3,0.6809523809523809,1.2523076923076921
0.2097569260004093,3.3,0.6809523809523809,1.2523076923076921
0.21110379499987175,3.3,0.6809523809523809,1.2523076923076921
0.21623734999957378,2.767326007326007,0.0136996336996337,0.24175824175824176
0.22122340600071766,2.767326007326007,0.0136996336996337,0.24175824175824176
0.23072587200113048,2.767326007326007,0.0136996336996337,0.24175824175824176
0.23565887000040675,2.767326007326007,0.0136996336996337,0.24175824175824176
0.23899252900082502,2.767326007326007,0.0136996336996337,0.24175824175824176
0.24108767799953057,2.767326007326007,0.0136996336996337,0.24175824175824176
0.2414161859996966,2.767326007326007,0.0136996336996337,0.24175824175824176
0.25064582000049995,2.767326007326007,0.0136996336996337,0.24175824175824176
0.25764678999985335,2.767326007326007,0.0136996336996337,0.24175824175824176
0.26418487100090715,2.767326007326007,0.0136996336996337,0.24175824175824176
0.2701122470007249,2.6714285714285713,0.6946520146520146,1.0234432234432234
0.2783049009995011,3.3,0.6543589743589743,0.5286446886446886
0.2837538029998541,3.3,0.6543589743589743,0.5286446886446886
0.2840430970009038,3.3,0.6543589743589743,0.5286446886446886
0.28981879800085153,3.3,0.6543589743589743,0.5286446886446886
0.28992557099991245,3.3,0.6543589743589743,0.5286446886446886
0.2974426130003849,3.3,0.6543589743589743,0.5286446886446886
0.301992964999954,2.7375091575091575,0.5133333333333333,0.8953113553113552
0.3022898710005393,2.7375091575091575,0.5133333333333333,0.8953113553113552
0.3071245209994231,2.7375091575091575,0.5133333333333333,0.8953113553113552
0.3168242640003882,2.7375091575091575,0.5133333333333333,0.8953113553113552
0.324640738999733,3.167838827838828,0.02175824175824176,0.28205128205128205
0.33105587600039144,3.167838827838828,0.02175824175824176,0.28205128205128205
0.33426716400026635,3.167838827838828,0.02175824175824176,0.28205128205128205
0.3360541620004369,3.167838827838828,0.02175824175824176,0.28205128205128205
0.33980490599969926,3.167838827838828,0.02175824175824176,0.28205128205128205
0.3467030430001614,3.167838827838828,0.02175824175824176,0.28205128205128205
0.3505269830002362,2.655311355311355,0.4013186813186813,0.6454945054945055
0.3564336430008552,2.655311355311355,0.4013186813186813,0.6454945054945055
0.35662884900011704,2.655311355311355,0.4013186813186813,0.6454945054945055
0.36286681899946416,2.655311355311355,0.4013186813186813,0.6454945054945055
0.36682121100056975,2.655311355311355,0.4013186813186813,0.6454945054945055
0.370614397999816,2.655311355311355,0.4013186813186813,0.6454945054945055
0.37725579899961303,2.655311355311355,0.4013186813186813,0.6454945054945055
0.38055918700047187,2.655311355311355,0.4013186813186813,0.6454945054945055
0.3821675899998809,2.655311355311355,0.4013186813186813,0.6454945054945055
0.3860502589996031,2.6625641025641027,0.5084981684981685,0.8082783882783882
0.3922427060006157,2.6625641025641027,0.5084981684981685,0.8082783882783882
0.39632063200042467,2.996996336996337,0.0032234432234432234,0.24417582417582417
0.398861752000812,2.996996336996337,0.0032234432234432234,0.24417582417582417
0.40426068600027065,2.5062271062271058,0.7091575091575092,1.1072527472527471
0.406292306000978,2.5062271062271058,0.7091575091575092,1.1072527472527471
0.409319663000133,2.5062271062271058,0.7091575091575092,1.1072527472527471
0.4105207890006568,2.652087912087912,0.15875457875457877,0.33684981684981685
0.41074164000019664,3.3,0.08139194139194139,0.3191208791208791
0.4162154549994739,3.3,0.08139194139194139,0.3191208791208791
0.4171561710008973,2.6585347985347987,0.7776556776556776,1.3119413919413918
0.4181166359994677,2.2797802197802195,0.1402197802197802,0.3594139194139194
0.4198140480002621,2.2797802197802195,0.1402197802197802,0.3594139194139194
0.4245063470007153,2.2797802197802195,0.1402197802197802,0.3594139194139194
0.43111506100103725,2.685934065934066,0.419047619047619,0.7413919413919414
0.4351116460002231,2.685934065934066,0.419047619047619,0.7413919413919414
0.4381376060009643,2.685934065934066,0.419047619047619,0.7413919413919414
0.4421737299999222,2.685934065934066,0.419047619047619,0.7413919413919414
0.4453599469998153,2.6673992673992672,0.5729670329670329,0.9065934065934066
0.4462962609995884,2.6673992673992672,0.5729670329670329,0.9065934065934066
0.4472443750000821,2.6673992673992672,0.5729670329670329,0.9065934065934066
0.4481512380007189,2.6673992673992672,0.5729670329670329,0.9065934065934066
0.44974998100042285,2.6673992673992672,0.5729670329670329,0.9065934065934066
0.45432725499995286,2.6673992673992672,0.5729670329670329,0.9065934065934066
0.45454857500044454,2.6673992673992672,0.5729670329670329,0.9065934065934066
0.4615173260008305,2.6673992673992672,0.5729670329670329,0.9065934065934066
0.46544562599956407,2.6673992673992672,0.5729670329670329,0.9065934065934066
0.46935806200053776,2.6706227106227107,0.5649084249084249,0.9283516483516483
0.47405717199944775,2.6706227106227107,0.5649084249084249,0.9283516483516483
0.4817580689996248,2.6706227106227107,0.5649084249084249,0.9283516483516483
0.4881856699994387,2.681098901098901,0.7567032967032966,1.411062271062271
0.4942777779997414,2.681098901098901,0.7567032967032966,1.411062271062271
0.49830173299960734,2.681098901098901,0.7567032967032966,1.411062271062271
0.50070810500074,2.681098901098901,0.7567032967032966,1.411062271062271
0.500953214999754,2.681098901098901,0.7567032967032966,1.411062271062271
0.505566292000367,2.681098901098901,0.7567032967032966,1.411062271062271
0.5058509549999144,2.681098901098901,0.7567032967032966,1.411062271062271
0.5134932569999364,2.681098901098901,0.7567032967032966,1.411062271062271
0.5180990770004428,3.3,0.9775091575091575,0.5568498168498168
0.5183682839997346,3.3,0.9775091575091575,0.5568498168498168
0.5249402339995868,3.3,0.9775091575091575,0.5568498168498168
0.5288880050011358,3.3,0.9775091575091575,0.5568498168498168
0.5320562100005191,3.3,0.9775091575091575,0.5568498168498168
0.5337287849997665,3.3,0.9775091575091575,0.5568498168498168
0.5374722300002759,3.3,0.9775091575091575,0.5568498168498168
0.5444121090004046,3.3,0.9775091575091575,0.5568498168498168
0.5475730250000197,3.3,0.9775091575091575,0.5568498168498168
0.5498475109998253,3.3,0.9775091575091575,0.5568498168498168
0.5506823249997979,3.3,0.9775091575091575,0.5568498168498168
0.5522290210010397,3.3,0.9775091575091575,0.5568498168498168
0.5565187049996894,3.3,0.9775091575091575,0.5568498168498168
0.5599926690010761,3.3,0.9775091575091575,0.5568498168498168
0.5649086909998005,3.3,0.9775091575091575,0.5568498168498168
0.5687030179997237,3.3,0.9775091575091575,0.5568498168498168
0.5741796820002492,3.3,0.9775091575091575,0.5568498168498168
0.5753853240003082,3.3,0.9775091575091575,0.5568498168498168
0.5757021379995422,3.3,0.9775091575091575,0.5568498168498168
0.5805978789994697,3.3,0.9775091575091575,0.5568498168498168
0.5836897410008532,3.3,0.9775091575091575,0.5568498168498168
0.586083090000102,3.3,0.9775091575091575,0.5568498168498168
0.5938876769996568,3.3,0.9775091575091575,0.5568498168498168
0.5981946989995777,3.3,0.9775091575091575,0.5568498168498168
0.5990934020010172,3.3,0.9275457875457875,0.8566300366300367
0.6006868540007417,3.3,0.9275457875457875,0.8566300366300367
0.6057021540000278,3.3,0.9275457875457875,0.8566300366300367
0.6123579739996785,3.3,0.9275457875457875,0.8566300366300367
0.6162881500004005,3.3,0.9275457875457875,0.8566300366300367
0.6200764330005768,3.3,0.9275457875457875,0.8566300366300367
0.6271487350004463,2.690769230769231,0.7333333333333333,1.3764102564102565
0.6310037920011382,2.690769230769231,0.7333333333333333,1.3764102564102565
0.6355675110007724,3.3,0.006446886446886447,0.28930402930402926
0.635801469999933,3.3,0.006446886446886447,0.28930402930402926
0.6427890850009135,3.3,0.006446886446886447,0.28930402930402926
0.6474267659996258,3.3,0.006446886446886447,0.28930402930402926
0.6533455839999078,3.3,0.006446886446886447,0.28930402930402926
0.6635059720010759,3.3,0.006446886446886447,0.28930402930402926
0.6679911999999604,3.3,0.006446886446886447,0.28930402930402926
0.6688001410002471,3.3,0.006446886446886447,0.28930402930402926
0.6710483540009591,3.3,0.006446886446886447,0.28930402930402926
0.6713336320008239,3.3,0.006446886446886447,0.28930402930402926
0.6784312119998503,3.3,0.006446886446886447,0.28930402930402926
0.6824393490005605,2.706886446886447,0.5931135531135531,1.0717948717948718
0.6854661039997154,2.706886446886447,0.5931135531135531,1.0717948717948718
0.688653653000074,2.706886446886447,0.5931135531135531,1.0717948717948718
0.6901092090010934,1.6431501831501831,0.11765567765567764,0.21516483516483517
0.6962743750009395,1.6431501831501831,0.11765567765567764,0.21516483516483517
0.70023075500103,2.751208791208791,0.9823443223443222,1.6544322344322344
0.7039285009996092,2.685934065934066,0.767985347985348,1.39010989010989
0.7136203760001081,2.685934065934066,0.767985347985348,1.39010989010989
0.7211681620010495,2.685934065934066,0.767985347985348,1.39010989010989
0.7277850020000187,2.685934065934066,0.767985347985348,1.39010989010989
0.7312139120003849,2.685934065934066,0.767985347985348,1.39010989010989
0.7315475590003189,2.685934065934066,0.767985347985348,1.39010989010989
0.7360871830005635,2.685934065934066,0.767985347985348,1.39010989010989
0.7371071670004312,2.685934065934066,0.767985347985348,1.39010989010989
0.7380278100008582,2.685934065934066,0.767985347985348,1.39010989010989
0.7403632799996558,2.685934065934066,0.767985347985348,1.39010989010989
0.7474417009998433,2.685934065934066,0.767985347985348,1.39010989010989
0.7519775599994318,2.685934065934066,0.767985347985348,1.39010989010989
0.7522802510011388,2.685934065934066,0.767985347985348,1.39010989010989
0.7604602520004846,2.685934065934066,0.767985347985348,1.39010989010989
0.7675847579994297,2.685934065934066,0.767985347985348,1.39010989010989
0.7714740110004641,2.685934065934066,0.767985347985348,1.39010989010989
0.7783288400005404,2.685934065934066,0.767985347985348,1.39010989010989
0.7815278300004138,2.685934065934066,0.767985347985348,1.39010989010989
0.7832686220008327,2.685934065934066,0.767985347985348,1.39010989010989
0.7856429860003118,2.685934065934066,0.767985347985348,1.39010989010989
0.7864640339994367,2.1242490842490844,0.25384615384615383,0.21274725274725276
0.7886348860010912,2.1242490842490844,0.25384615384615383,0.21274725274725276
0.7902339970005414,2.1242490842490844,0.25384615384615383,0.21274725274725276
0.7941431100007321,2.1242490842490844,0.25384615384615383,0.21274725274725276
0.7987534740004776,2.7044688644688644,0.9928205128205128,1.7890109890109889
0.7989156630010257,2.7044688644688644,0.9928205128205128,1.7890109890109889
0.8034234560000186,2.7044688644688644,0.9928205128205128,1.7890109890109889
0.8043307730004017,2.7044688644688644,0.9928205128205128,1.7890109890109889
0.8052977420011302,2.7044688644688644,0.9928205128205128,1.7890109890109889
0.8068895079995855,2.7044688644688644,0.9928205128205128,1.7890109890109889
0.8118199840009765,2.7044688644688644,0.9928205128205128,1.7890109890109889
0.8175612869999895,3.3,0.03465201465201465,0.3449084249084249
0.818381295999643,3.3,0.03465201465201465,0.3449084249084249
0.8199405100003787,3.3,0.03465201465201465,0.3449084249084249
0.8258469970005535,3.3,0.03465201465201465,0.3449084249084249
0.8317771279998851,3.3,0.03465201465201465,0.3449084249084249
0.837124974001199,3.3,0.03465201465201465,0.3449084249084249
0.8412443060005899,3.3,0.03465201465201465,0.3449084249084249
0.8451455340000393,3.3,0.03465201465201465,0.3449084249084249
0.8492708379999385,3.3,0.03465201465201465,0.3449084249084249
0.8518116140003258,3.3,0.03465201465201465,0.3449084249084249
0.8642993930006924,3.3,0.04593406593406593,0.28124542124542123
0.8712849380008265,3.3,0.04593406593406593,0.28124542124542123
0.8795048730007693,3.1613919413919414,0.2345054945054945,0.30139194139194136
0.886676059999445,2.7616849816849816,0.45692307692307693,0.664029304029304
0.8938163740003802,2.7616849816849816,0.45692307692307693,0.664029304029304
0.8990032239998982,2.7616849816849816,0.45692307692307693,0.664029304029304
0.9005618730006972,2.7616849816849816,0.45692307692307693,0.664029304029304
0.9057850700010022,2.7616849816849816,0.45692307692307693,0.664029304029304
0.9089421759999823,2.7616849816849816,0.45692307692307693,0.664029304029304
0.9093415830011509,2.834212454212454,0.4851282051282051,0.5721611721611721
0.9150651250001829,2.834212454212454,0.4851282051282051,0.5721611721611721
0.9151786969996465,2.6746520146520147,0.8622710622710623,1.4352380952380952
0.9197353060008027,2.6746520146520147,0.8622710622710623,1.4352380952380952
0.9201008039999579,2.6746520146520147,0.8622710622710623,1.4352380952380952
0.9284178600009909,2.6746520146520147,0.8622710622710623,1.4352380952380952
0.934840804000487,2.6746520146520147,0.8622710622710623,1.4352380952380952
0.9379006840008515,2.6682051282051282,0.7502564102564102,1.3723809523809525
0.9416451020006207,2.6682051282051282,0.7502564102564102,1.3723809523809525
0.9478114240009745,2.6682051282051282,0.7502564102564102,1.3723809523809525
0.9510797260008985,2.6682051282051282,0.7502564102564102,1.3723809523809525
0.9519739690003917,2.6682051282051282,0.7502564102564102,1.3723809523809525
0.953675791999558,2.6682051282051282,0.7502564102564102,1.3723809523809525
0.9601122510011919,2.6682051282051282,0.7502564102564102,1.3723809523809525
0.9638960699994641,2.6682051282051282,0.7502564102564102,1.3723809523809525
0.9676289910003106,2.6682051282051282,0.7502564102564102,1.3723809523809525
0.9736366130000533,2.6682051282051282,0.7502564102564102,1.3723809523809525
0.9792507229994953,2.655311355311355,0.18373626373626373,0.28849816849816845
0.9794914890007931,2.655311355311355,0.18373626373626373,0.28849816849816845
0.9847458389995154,2.655311355311355,0.18373626373626373,0.28849816849816845
0.9869596000007732,2.6714285714285713,0.6229304029304029,1.079047619047619
0.9872594810003648,2.6714285714285713,0.6229304029304029,1.079047619047619
0.9926404420002655,2.6714285714285713,0.6229304029304029,1.079047619047619
0.9950576860010187,2.6714285714285713,0.6229304029304029,1.079047619047619
1.0005801639999845,2.706886446886447,1.0879120879120878,1.8357509157509158
1.0021813210005348,2.706886446886447,1.0879120879120878,1.8357509157509158
1.006738280000718,2.706886446886447,1.0879120879120878,1.8357509157509158
1.0069592620002368,2.706886446886447,1.0879120879120878,1.8357509157509158
1.012227368000822,2.706886446886447,1.0879120879120878,1.8357509157509158
1.013862097999663,2.706886446886447,1.0879120879120878,1.8357509157509158
1.018183071000749,2.706886446886447,1.0879120879120878,1.8357509157509158
1.0190723089999665,2.706886446886447,1.0879120879120878,1.8357509157509158
1.0206319080007233,2.706886446886447,1.0879120879120878,1.8357509157509158
1.0271557600008236,2.706886446886447,1.0879120879120878,1.8357509157509158
1.0305058030007785,1.5295238095238095,0.17003663003663003,0.16197802197802197
1.0320729920003942,1.5295238095238095,0.17003663003663003,0.16197802197802197
1.03576665699984,1.5295238095238095,0.17003663003663003,0.16197802197802197
1.035925373000282,1.5295238095238095,0.17003663003663003,0.16197802197802197
1.0420984150005097,2.6673992673992672,0.2772161172161172,0.42065934065934063
1.0456010070010961,3.3,0.9646153846153847,0.8469597069597068
1.0458095409994712,3.3,0.9646153846153847,0.8469597069597068
1.0507728299999144,1.4884249084249084,0.04351648351648352,0.22967032967032966
1.0544757509996998,1.4884249084249084,0.04351648351648352,0.22967032967032966
1.0546345639995707,1.4884249084249084,0.04351648351648352,0.22967032967032966
1.0618701490002422,1.4884249084249084,0.04351648351648352,0.22967032967032966
1.066312425000433,1.4884249084249084,0.04351648351648352,0.22967032967032966
1.06723651700122,1.4884249084249084,0.04351648351648352,0.22967032967032966
1.0688026450006873,1.4884249084249084,0.04351648351648352,0.22967032967032966
1.0733665719999408,1.4884249084249084,0.04351648351648352,0.22967032967032966
1.0736798359994282,1.4884249084249084,0.04351648351648352,0.22967032967032966
1.0801422349995846,1.4884249084249084,0.04351648351648352,0.22967032967032966
1.084623062000901,1.4884249084249084,0.04351648351648352,0.22967032967032966
1.0848692700001266,2.693992673992674,0.805054945054945,1.3369230769230769
1.0893827350009815,2.693992673992674,0.805054945054945,1.3369230769230769
1.0904782670004352,2.693992673992674,0.805054945054945,1.3369230769230769
1.0908133610009827,2.693992673992674,0.805054945054945,1.3369230769230769
1.0954203060009604,2.693992673992674,0.805054945054945,1.3369230769230769
1.095623778001027,2.693992673992674,0.805054945054945,1.3369230769230769
1.1011767830004828,2.693992673992674,0.805054945054945,1.3369230769230769
1.1026544779997494,2.7383150183150184,0.7196336996336996,1.2450549450549449
1.1079847260007227,2.7383150183150184,0.7196336996336996,1.2450549450549449
1.109569817999727,2.7383150183150184,0.7196336996336996,1.2450549450549449
1.1140065680010593,2.7383150183150184,0.7196336996336996,1.2450549450549449
1.1155215119997592,2.7383150183150184,0.7196336996336996,1.2450549450549449
1.1200017700011813,2.7383150183150184,0.7196336996336996,1.2450549450549449
1.1208085920006852,2.7383150183150184,0.7196336996336996,1.2450549450549449
1.1224038990003464,2.7383150183150184,0.7196336996336996,1.2450549450549449
1.1270840510005655,2.7383150183150184,0.7196336996336996,1.2450549450549449
1.1323729739997361,2.7383150183150184,0.7196336996336996,1.2450549450549449
1.13546993700038,2.7383150183150184,0.7196336996336996,1.2450549450549449
1.1377740709995123,2.6665934065934067,0.9686446886446887,1.6189743589743588
1.1379503759999352,2.6665934065934067,0.9686446886446887,1.6189743589743588
1.1426131219996023,2.6665934065934067,0.9686446886446887,1.6189743589743588
1.142958095000722,2.6665934065934067,0.9686446886446887,1.6189743589743588
1.1474218830007885,2.6665934065934067,0.9686446886446887,1.6189743589743588
1.1482927480010403,1.3812454212454213,0.083003663003663,0.2594871794871795
1.1498805669998546,1.3812454212454213,0.083003663003663,0.2594871794871795
1.1572463339998649,1.3812454212454213,0.083003663003663,0.2594871794871795
1.1621148039994296,1.3812454212454213,0.083003663003663,0.2594871794871795
1.1664549580000312,2.6746520146520147,0.6680586080586081,1.079047619047619
1.1679992620011035,3.3,0.36344322344322344,0.39567765567765567
1.1723853060011606,3.3,0.36344322344322344,0.39567765567765567
1.175062723999872,2.9873260073260073,0.02095238095238095,0.13135531135531134
1.1788994899998215,2.7326739926739925,0.5737728937728938,1.0049084249084248
1.1832770130004064,3.3,0.9323809523809523,0.8767765567765567
1.1843399429999408,3.3,0.9323809523809523,0.8767765567765567
1.1846571290006978,3.3,0.9323809523809523,0.8767765567765567
1.1896569479995378,3.3,0.9323809523809523,0.8767765567765567
1.1947884620003606,3.3,0.9323809523809523,0.8767765567765567
1.1972081200001412,3.3,0.9323809523809523,0.8767765567765567
1.1973281999999017,3.3,0.9323809523809523,0.8767765567765567
1.2029465329997038,3.3,0.9323809523809523,0.8767765567765567
1.2032261630010908,3.3,0.9323809523809523,0.8767765567765567
1.2076654989996314,3.3,0.9323809523809523,0.8767765567765567
1.2091730230004032,3.3,0.9323809523809523,0.8767765567765567
1.213230311001098,3.3,0.9323809523809523,0.8767765567765567
1.216085658999873,3.3,0.9323809523809523,0.8767765567765567
1.2195465759996296,3.3,0.9323809523809523,0.8767765567765567
1.220432931000687,3.3,0.9323809523809523,0.8767765567765567
1.2225182479996874,3.3,0.9323809523809523,0.8767765567765567
1.2233876240006794,3.3,0.9323809523809523,0.8767765567765567
1.2248437590005778,3.3,0.9323809523809523,0.8767765567765567
1.2292655680012103,3.3,0.9323809523809523,0.8767765567765567
1.2307415650011535,2.9196336996336996,0.25787545787545785,0.27399267399267396
1.2354546850001498,2.9196336996336996,0.25787545787545785,0.27399267399267396
1.2362366899997141,2.9196336996336996,0.25787545787545785,0.27399267399267396
1.2383952519994637,2.9196336996336996,0.25787545787545785,0.27399267399267396
1.239270961999864,1.688278388278388,0.6809523809523809,1.0145787545787546
1.2408566800004337,1.688278388278388,0.6809523809523809,1.0145787545787546
1.2449131450011919,2.6682051282051282,0.7397802197802198,1.3925274725274726
1.2477142580009968,2.6682051282051282,0.7397802197802198,1.3925274725274726
1.251822729000196,2.6682051282051282,0.7397802197802198,1.3925274725274726
1.2545971809995535,2.6682051282051282,0.7397802197802198,1.3925274725274726
1.2580849130008573,2.6682051282051282,0.7397802197802198,1.3925274725274726
1.2583420789997035,2.6682051282051282,0.7397802197802198,1.3925274725274726
1.2631029730000591,3.3,0.7131868131868132,1.2418315018315018
1.2633482270011882,3.3,0.7131868131868132,1.2418315018315018
1.2680854320005892,3.3,0.7131868131868132,1.2418315018315018
1.268291948001206,3.3,0.7131868131868132,1.2418315018315018
1.2730203129995061,3.3,0.7131868131868132,1.2418315018315018
1.273217936999572,3.3,0.7131868131868132,1.2418315018315018
1.2782373490008467,3.3,0.7131868131868132,1.2418315018315018
1.2824347030000354,3.3,0.7131868131868132,1.2418315018315018
1.2858022270011134,3.3,0.7131868131868132,1.2418315018315018
1.2865943180004251,3.3,0.7131868131868132,1.2418315018315018
1.2890363290007372,3.3,0.7131868131868132,1.2418315018315018
1.294344285999614,3.3,0.7131868131868132,1.2418315018315018
1.298206368001047,2.6682051282051282,0.9605860805860806,1.6004395604395603
1.302031024999451,2.6682051282051282,0.9605860805860806,1.6004395604395603
1.3057295489998069,2.6682051282051282,0.9605860805860806,1.6004395604395603
1.3058886510007142,2.6722344322344322,0.42952380952380953,0.7567032967032966
1.311101917999622,2.6722344322344322,0.42952380952380953,0.7567032967032966
1.3148758099996485,2.6722344322344322,0.42952380952380953,0.7567032967032966
1.3201053970005887,2.6722344322344322,0.42952380952380953,0.7567032967032966
1.3231822850011667,2.6722344322344322,0.42952380952380953,0.7567032967032966
1.3249026670000603,2.6722344322344322,0.42952380952380953,0.7567032967032966
1.3285001349995582,2.6722344322344322,0.42952380952380953,0.7567032967032966
1.3287116219999007,2.6722344322344322,0.42952380952380953,0.7567032967032966
1.3337662339999952,2.6722344322344322,0.42952380952380953,0.7567032967032966
1.3375647020002361,2.706886446886447,1.0524542124542122,1.9106959706959707
1.3428111779994651,2.706886446886447,1.0524542124542122,1.9106959706959707
1.3457383220011252,2.706886446886447,1.0524542124542122,1.9106959706959707
1.3481349459998455,2.706886446886447,1.0524542124542122,1.9106959706959707
1.3482782890005183,2.706886446886447,1.0524542124542122,1.9106959706959707
1.352929184000459,2.706886446886447,1.0524542124542122,1.9106959706959707
1.3531421890002093,2.706886446886447,1.0524542124542122,1.9106959706959707
1.3575764060005895,2.706886446886447,1.0524542124542122,1.9106959706959707
1.3591134739999688,2.71010989010989,0.9114285714285715,1.7213186813186814
1.363559327000985,2.71010989010989,0.9114285714285715,1.7213186813186814
1.364392145000238,2.71010989010989,0.9114285714285715,1.7213186813186814
1.3659894120009994,2.71010989010989,0.9114285714285715,1.7213186813186814
1.369673495000825,2.71010989010989,0.9114285714285715,1.7213186813186814
1.374865617000978,2.71010989010989,0.9114285714285715,1.7213186813186814
1.3784969309999724,2.9196336996336996,0.0410989010989011,0.29010989010989013
1.3787651790007658,2.9196336996336996,0.0410989010989011,0.29010989010989013
1.3832882839997183,2.9196336996336996,0.0410989010989011,0.29010989010989013
1.3835318189994723,2.9196336996336996,0.0410989010989011,0.29010989010989013
1.3888272830008646,2.9196336996336996,0.0410989010989011,0.29010989010989013
1.3910347990004084,2.5505494505494504,0.21194139194139192,0.25465201465201465
1.391843778999828,2.5505494505494504,0.21194139194139192,0.25465201465201465
1.3940747270007705,2.5505494505494504,0.21194139194139192,0.25465201465201465
1.3948937950008258,2.5505494505494504,0.21194139194139192,0.25465201465201465
1.3970704799994564,2.5505494505494504,0.21194139194139192,0.25465201465201465
1.3978955330003373,2.5505494505494504,0.21194139194139192,0.25465201465201465
1.4000944809995417,2.5505494505494504,0.21194139194139192,0.25465201465201465
1.4010945940008241,2.5505494505494504,0.21194139194139192,0.25465201465201465
1.401981490000253,2.5505494505494504,0.21194139194139192,0.25465201465201465
1.4035460409995721,2.5505494505494504,0.21194139194139192,0.25465201465201465
1.4079312020003272,2.5505494505494504,0.21194139194139192,0.25465201465201465
1.4094992589998583,2.5505494505494504,0.21194139194139192,0.25465201465201465
1.4139543140008755,2.5505494505494504,0.21194139194139192,0.25465201465201465
1.4154586469994683,2.709304029304029,1.012161172161172,1.7656410256410255
1.4205878070006293,2.709304029304029,1.012161172161172,1.7656410256410255
1.4243621320001694,3.005054945054945,0.112014652014652,0.21032967032967032
1.4297094640005525,3.005054945054945,0.112014652014652,0.21032967032967032
1.4320156970006792,3.005054945054945,0.112014652014652,0.21032967032967032
1.4321392639994883,3.005054945054945,0.112014652014652,0.21032967032967032
1.4374270150001394,3.005054945054945,0.112014652014652,0.21032967032967032
1.4396909520000918,3.005054945054945,0.112014652014652,0.21032967032967032
1.439971814999808,3.005054945054945,0.112014652014652,0.21032967032967032
1.4449815549996856,3.005054945054945,0.112014652014652,0.21032967032967032
1.4495537689999765,2.652087912087912,0.3892307692307692,0.6366300366300366
1.4498362530011946,2.652087912087912,0.3892307692307692,0.6366300366300366
1.4551652450008987,2.652087912087912,0.3892307692307692,0.6366300366300366
1.4578078949998599,2.71010989010989,0.6035897435897435,1.070989010989011
1.4631111720009358,3.3,0.9775091575091575,0.8566300366300367
1.4653122760009865,3.3,0.9775091575091575,0.8566300366300367
1.4656103850011277,3.3,0.9775091575091575,0.8566300366300367
1.4700094920008269,3.3,0.307032967032967,0.43355311355311354
1.471589782000592,3.3,0.307032967032967,0.43355311355311354
1.4759899790005875,3.3,0.307032967032967,0.43355311355311354
1.4776981699997123,3.3,0.307032967032967,0.43355311355311354
1.4814870539994445,3.3,0.307032967032967,0.43355311355311354
1.486030980000578,3.3,0.307032967032967,0.43355311355311354
1.4862617340004363,3.3,0.307032967032967,0.43355311355311354
1.491656612000952,3.3,0.307032967032967,0.43355311355311354
1.4942066269995848,3.3,0.307032967032967,0.43355311355311354
1.4987436370010983,3.3,0.307032967032967,0.43355311355311354
1.4995926850006072,3.3,0.307032967032967,0.43355311355311354
1.5018832620007743,3.3,0.307032967032967,0.43355311355311354
1.50214367999979,2.698021978021978,0.776043956043956,1.4102564102564101
1.5072826979994716,2.698021978021978,0.776043956043956,1.4102564102564101
1.510935280999547,2.698021978021978,0.776043956043956,1.4102564102564101
1.516138430000865,2.698021978021978,0.776043956043956,1.4102564102564101
1.5198297170009027,2.698021978021978,0.776043956043956,1.4102564102564101
1.5250515900006576,3.3,0.7333333333333333,1.2104029304029302
1.5280553520005924,2.6746520146520147,0.6527472527472526,1.120952380952381
1.5303374960003566,2.6746520146520147,0.6527472527472526,1.120952380952381
1.531192665999697,2.6746520146520147,0.6527472527472526,1.120952380952381
1.5327325600010226,2.6746520146520147,0.6527472527472526,1.120952380952381
1.5371845949994167,2.709304029304029,0.0709157509157509,0.28205128205128205
1.5375333909996698,2.709304029304029,0.0709157509157509,0.28205128205128205
1.542866359000982,2.709304029304029,0.0709157509157509,0.28205128205128205
1.5451308370011247,2.709304029304029,0.0709157509157509,0.28205128205128205
1.5453459330001351,2.709304029304029,0.0709157509157509,0.28205128205128205
1.5506342540011246,2.709304029304029,0.0709157509157509,0.28205128205128205
1.5530595489999541,3.3,0.6567765567765567,0.6326007326007326
1.5531695310000941,3.3,0.6567765567765567,0.6326007326007326
1.558621903999665,3.3,0.6567765567765567,0.6326007326007326
1.5603481640009704,3.3,0.6567765567765567,0.6326007326007326
1.5639575180011889,3.3,0.6567765567765567,0.6326007326007326
1.5641429879997304,2.6577289377289377,0.4835164835164835,0.7252747252747253
1.5694509469994955,2.6577289377289377,0.4835164835164835,0.7252747252747253
1.572335725000812,2.6536996336996337,0.1418315018315018,0.28124542124542123
1.575330241001211,2.6536996336996337,0.1418315018315018,0.28124542124542123
1.5785687200004759,2.6536996336996337,0.1418315018315018,0.28124542124542123
1.5794573330003914,2.6536996336996337,0.1418315018315018,0.28124542124542123
1.5812053099998593,2.6536996336996337,0.1418315018315018,0.28124542124542123
1.5841822260008485,2.6536996336996337,0.1418315018315018,0.28124542124542123
1.5871552730004623,2.7084981684981684,0.6817582417582417,1.2643956043956044
1.590222241000447,2.7084981684981684,0.6817582417582417,1.2643956043956044
1.5932457340004476,2.7084981684981684,0.6817582417582417,1.2643956043956044
1.595669786000144,2.7084981684981684,0.6817582417582417,1.2643956043956044
1.595789988999968,2.7084981684981684,0.6817582417582417,1.2643956043956044
1.6010891990008531,2.7084981684981684,0.6817582417582417,1.2643956043956044
1.604295209999691,2.7084981684981684,0.6817582417582417,1.2643956043956044
1.6059030300002632,2.7084981684981684,0.6817582417582417,1.2643956043956044
1.610369467000055,2.7084981684981684,0.6817582417582417,1.2643956043956044
1.611248950001027,2.7084981684981684,0.6817582417582417,1.2643956043956044
1.6121970980002516,2.7084981684981684,0.6817582417582417,1.2643956043956044
1.613755296000818,2.7084981684981684,0.6817582417582417,1.2643956043956044
1.6180892150005093,2.7084981684981684,0.6817582417582417,1.2643956043956044
1.6196737379996193,2.6746520146520147,0.3336263736263736,0.5769963369963369
1.6235111500009225,2.6585347985347987,0.701098901098901,1.3022710622710623
1.6286496989996522,2.6585347985347987,0.701098901098901,1.3022710622710623
1.6322399540003971,2.6585347985347987,0.701098901098901,1.3022710622710623
1.6323370740010432,2.706080586080586,0.0,0.2111355311355311
1.637414617000104,2.706080586080586,0.0,0.2111355311355311
1.6411767730005522,2.706080586080586,0.0,0.2111355311355311
1.6462189789999684,2.706080586080586,0.0,0.2111355311355311
1.64991659000043,2.6577289377289377,0.43597069597069593,0.7921611721611721
1.6500176099998498,2.6577289377289377,0.43597069597069593,0.7921611721611721
1.6550999589999265,2.6577289377289377,0.43597069597069593,0.7921611721611721
1.6581724589996156,2.6577289377289377,0.43597069597069593,0.7921611721611721
1.6611243440002,2.6577289377289377,0.43597069597069593,0.7921611721611721
1.6647544219995325,2.6577289377289377,0.43597069597069593,0.7921611721611721
1.6648795540004357,2.6577289377289377,0.43597069597069593,0.7921611721611721
1.6699239629997464,2.6577289377289377,0.43597069597069593,0.7921611721611721
1.6736196519996156,2.6577289377289377,0.43597069597069593,0.7921611721611721
1.6788973929997155,2.6577289377289377,0.43597069597069593,0.7921611721611721
1.6811887780004326,2.673040293040293,0.14424908424908423,0.29978021978021974
1.6813940490010282,2.673040293040293,0.14424908424908423,0.29978021978021974
1.6865601480003534,2.673040293040293,0.14424908424908423,0.29978021978021974
1.6900470559994574,2.673040293040293,0.14424908424908423,0.29978021978021974
1.6901773900008266,3.3,0.0846153846153846,0.303003663003663
1.696251380000831,3.3,0.0846153846153846,0.303003663003663
1.7008227050009737,3.3,0.0846153846153846,0.303003663003663
1.7010758510004962,3.3,0.9178754578754579,0.8848351648351648
1.7057072690004134,3.3,0.9178754578754579,0.8848351648351648
1.705968350999683,3.3,0.9178754578754579,0.8848351648351648
1.7112544700012222,3.3,0.9178754578754579,0.8848351648351648
1.7129672370010667,3.3,0.9178754578754579,0.8848351648351648
1.7160640380006953,3.3,0.9178754578754579,0.8848351648351648
1.7177932650010916,3.3,0.9178754578754579,0.8848351648351648
1.7210472059996391,3.3,0.9178754578754579,0.8848351648351648
1.7226220560005459,3.3,0.9178754578754579,0.8848351648351648
1.7270913900010783,3.3,0.9178754578754579,0.8848351648351648
1.7272978620003414,3.051794871794872,0.41098901098901097,0.6197069597069597
1.7319763939995028,3.051794871794872,0.41098901098901097,0.6197069597069597
1.7322457680002117,2.6488644688644687,0.1805128205128205,0.31509157509157504
1.7382944180008053,2.6488644688644687,0.1805128205128205,0.31509157509157504
1.7427329040001496,2.6488644688644687,0.1805128205128205,0.31509157509157504
1.7436169299999165,2.706886446886447,0.66,1.1564102564102563
1.7452832359995227,2.726227106227106,0.2772161172161172,0.30058608058608055
1.7493964830009645,2.726227106227106,0.2772161172161172,0.30058608058608055
1.7527120390004711,2.726227106227106,0.2772161172161172,0.30058608058608055
1.7529590009999083,2.726227106227106,0.2772161172161172,0.30058608058608055
1.758584893999796,2.726227106227106,0.2772161172161172,0.30058608058608055
1.7594499520000682,3.3,0.8816117216117215,0.83003663003663
1.7610909920003905,3.3,0.8816117216117215,0.83003663003663
1.7648510910003097,3.3,0.8816117216117215,0.83003663003663
1.7693582980009523,3.3,0.8816117216117215,0.83003663003663
1.7702447829997254,3.3,0.8816117216117215,0.83003663003663
1.771118179000041,3.3,0.8816117216117215,0.83003663003663
1.7726833520009677,3.3,0.8816117216117215,0.83003663003663
1.777067678000094,3.3,0.8816117216117215,0.83003663003663
1.7789334070002951,3.3,0.8816117216117215,0.83003663003663
1.7811380969997117,3.3,0.8816117216117215,0.83003663003663
1.7814096750007593,3.3,0.8816117216117215,0.83003663003663
1.786518550999972,3.3,0.8816117216117215,0.83003663003663
1.7903869620004116,3.3,0.8816117216117215,0.83003663003663
1.7953045800004475,3.3,0.8816117216117215,0.83003663003663
1.7992758569998841,3.3,0.8816117216117215,0.83003663003663
1.8029912149995653,3.3,0.8816117216117215,0.83003663003663
1.803099247001228,3.3,0.8816117216117215,0.83003663003663
1.8077410549994966,3.3,0.8816117216117215,0.83003663003663
1.8079541040006006,3.3,0.8816117216117215,0.83003663003663
1.8124417300005007,3.3,0.8816117216117215,0.83003663003663
1.8141026690009312,3.3,0.8816117216117215,0.83003663003663
1.8170565889995487,3.3,0.8816117216117215,0.83003663003663
1.819968327999959,3.3,0.8816117216117215,0.83003663003663
1.8229796409996197,3.3,0.8816117216117215,0.83003663003663
1.825227002000247,3.3,0.43435897435897436,0.49157509157509155
1.8260363250010414,3.2089377289377286,0.39487179487179486,0.6446886446886446
1.8276128729994525,3.2089377289377286,0.39487179487179486,0.6446886446886446
1.8320741160005127,3.2089377289377286,0.39487179487179486,0.6446886446886446
1.832948925000892,3.2089377289377286,0.39487179487179486,0.6446886446886446
1.8351537880007527,3.2089377289377286,0.39487179487179486,0.6446886446886446
1.835951811999621,3.2089377289377286,0.39487179487179486,0.6446886446886446
1.8382827440000256,3.2089377289377286,0.39487179487179486,0.6446886446886446
1.8385367030005,3.2089377289377286,0.39487179487179486,0.6446886446886446
1.8437710130001506,3.2089377289377286,0.39487179487179486,0.6446886446886446
1.8461861960004171,3.2089377289377286,0.39487179487179486,0.6446886446886446
1.8464089419994707,3.2089377289377286,0.39487179487179486,0.6446886446886446
1.85191303800093,3.2089377289377286,0.39487179487179486,0.6446886446886446
1.8535219080004026,3.2089377289377286,0.39487179487179486,0.6446886446886446
1.8574441290002142,3.2089377289377286,0.39487179487179486,0.6446886446886446
1.8612747490005859,2.1959706959706957,0.19824175824175824,0.3706959706959707
1.8664889150004456,2.1959706959706957,0.19824175824175824,0.3706959706959707
1.8701553379996767,3.2935531135531133,0.4810989010989011,0.5415384615384615
1.870328867000353,3.2935531135531133,0.4810989010989011,0.5415384615384615
1.8747531219996745,3.2935531135531133,0.4810989010989011,0.5415384615384615
1.8763832839995302,3.2935531135531133,0.4810989010989011,0.5415384615384615
1.8809621710006468,3.2935531135531133,0.4810989010989011,0.5415384615384615
1.8812091090003378,3.2935531135531133,0.4810989010989011,0.5415384615384615
1.886457970000265,3.2935531135531133,0.4810989010989011,0.5415384615384615
1.8894164690009347,3.2935531135531133,0.4810989010989011,0.5415384615384615
1.8923789740001666,3.2935531135531133,0.4810989010989011,0.5415384615384615
1.8954876299994794,3.2935531135531133,0.4810989010989011,0.5415384615384615
1.8977396150003187,3.2935531135531133,0.4810989010989011,0.5415384615384615
1.8980340939997404,3.2935531135531133,0.4810989010989011,0.5415384615384615
1.903269401000216,3.2935531135531133,0.4810989010989011,0.5415384615384615
1.9062978330002807,3.2935531135531133,0.4810989010989011,0.5415384615384615
1.9087990680000075,3.2935531135531133,0.4810989010989011,0.5415384615384615
1.914105842999561,2.6424175824175826,0.4126007326007326,0.5729670329670329
1.9161534619997838,2.7117216117216114,0.9259340659340659,1.7704761904761903
1.917598160000125,2.7117216117216114,0.9259340659340659,1.7704761904761903
1.922265368000808,2.7117216117216114,0.9259340659340659,1.7704761904761903
1.9224890300010884,2.7117216117216114,0.9259340659340659,1.7704761904761903
1.9271325120007532,2.7117216117216114,0.9259340659340659,1.7704761904761903
1.9273524020009063,2.7117216117216114,0.9259340659340659,1.7704761904761903
1.932055819001107,2.7117216117216114,0.9259340659340659,1.7704761904761903
1.9322241909994773,2.7117216117216114,0.9259340659340659,1.7704761904761903
1.9368807999999262,2.7117216117216114,0.9259340659340659,1.7704761904761903
1.9371314960008021,2.6649816849816848,0.2369230769230769,0.3231501831501831
1.9418138430010004,3.3,0.9202930402930403,0.8098901098901098
1.942596216000311,3.3,0.9202930402930403,0.8098901098901098
1.9447003200002655,2.66014652014652,0.4867399267399267,0.83003663003663
1.9455039149997901,2.66014652014652,0.4867399267399267,0.83003663003663
1.947609173001183,2.66014652014652,0.4867399267399267,0.83003663003663
1.9483944490002614,2.66014652014652,0.4867399267399267,0.83003663003663
1.9504873549994954,2.66014652014652,0.4867399267399267,0.83003663003663
1.9518739200011623,2.66014652014652,0.4867399267399267,0.83003663003663
1.956563511999775,2.178241758241758,0.011282051282051281,0.2216117216117216
1.9568302669995319,2.735897435897436,1.05003663003663,1.9203663003663003
1.961448415000632,2.735897435897436,1.05003663003663,1.9203663003663003
1.9617076180002186,2.735897435897436,1.05003663003663,1.9203663003663003
1.966386522999528,2.735897435897436,1.05003663003663,1.9203663003663003
1.966590649999489,2.735897435897436,1.05003663003663,1.9203663003663003
1.9712167289999343,2.735897435897436,1.05003663003663,1.9203663003663003
1.9714928980010882,2.735897435897436,1.05003663003663,1.9203663003663003
1.9769191150007828,2.735897435897436,1.05003663003663,1.9203663003663003
1.9785052410006756,2.735897435897436,1.05003663003663,1.9203663003663003
1.9828065809997497,2.735897435897436,1.05003663003663,1.9203663003663003
1.9843563550002727,2.735897435897436,1.05003663003663,1.9203663003663003
1.9887418279995472,2.735897435897436,1.05003663003663,1.9203663003663003
1.9895519130004686,2.789084249084249,0.33604395604395604,0.4827106227106227
1.9911716839997098,2.789084249084249,0.33604395604395604,0.4827106227106227
1.9954616390004958,2.789084249084249,0.33604395604395604,0.4827106227106227
1.9971974849995604,2.789084249084249,0.33604395604395604,0.4827106227106227
2.0001873940000223,2.784249084249084,0.4819047619047619,0.6664468864468864
2.0031889510009933,2.784249084249084,0.4819047619047619,0.6664468864468864
2.0062545350010623,2.784249084249084,0.4819047619047619,0.6664468864468864
2.008619673000794,2.784249084249084,0.4819047619047619,0.6664468864468864
2.008913833000406,2.784249084249084,0.4819047619047619,0.6664468864468864
2.014078418000281,2.784249084249084,0.4819047619047619,0.6664468864468864
2.018006909000178,3.3,0.4819047619047619,0.9307692307692307
2.0223845220007206,3.3,0.6688644688644688,0.6116483516483516
2.0239372680007364,2.6746520146520147,0.7317216117216117,1.3506227106227104
2.0275994860003266,2.6746520146520147,0.7317216117216117,1.3506227106227104
2.0277535719997104,2.6682051282051282,0.4029304029304029,0.6205128205128204
2.032970108999507,2.6682051282051282,0.4029304029304029,0.6205128205128204
2.0367562550000002,3.3,0.010476190476190476,0.26593406593406593
2.042017069999929,3.3,0.010476190476190476,0.26593406593406593
2.045073801000399,2.706886446886447,0.6922344322344323,1.2692307692307692
2.047443788000237,1.8768498168498167,0.22886446886446887,0.14505494505494507
2.0476455000007263,1.8768498168498167,0.22886446886446887,0.14505494505494507
2.052810713999861,1.8768498168498167,0.22886446886446887,0.14505494505494507
2.0565481140001793,1.8768498168498167,0.22886446886446887,0.14505494505494507
2.0611982499995065,1.8768498168498167,0.22886446886446887,0.14505494505494507
2.0615368359995045,1.8768498168498167,0.22886446886446887,0.14505494505494507
2.066531615000713,1.8768498168498167,0.22886446886446887,0.14505494505494507
2.0711304640008166,1.8768498168498167,0.22886446886446887,0.14505494505494507
2.0713713269997243,1.8768498168498167,0.22886446886446887,0.14505494505494507
2.0767411180004274,1.8768498168498167,0.22886446886446887,0.14505494505494507
2.0791473600002064,1.8768498168498167,0.22886446886446887,0.14505494505494507
2.079292432999864,1.8768498168498167,0.22886446886446887,0.14505494505494507
2.0845820699996693,1.8768498168498167,0.22886446886446887,0.14505494505494507
2.087523221000083,2.6746520146520147,0.5302564102564102,0.8413186813186813
2.0899358410006244,2.6746520146520147,0.5302564102564102,0.8413186813186813
2.0900986600008764,2.6746520146520147,0.5302564102564102,0.8413186813186813
2.095248958999946,2.6746520146520147,0.5302564102564102,0.8413186813186813
2.099888030999864,2.71010989010989,0.8211721611721612,1.4062271062271061
2.100140515000021,2.8213186813186812,0.4802930402930403,0.6688644688644688
2.1052731290001248,2.8213186813186812,0.4802930402930403,0.6688644688644688
2.108511038999495,2.6617582417582417,0.448058608058608,0.8292307692307692
2.110062869000103,2.6617582417582417,0.448058608058608,0.8292307692307692
2.1145413560007,3.3,0.026593406593406595,0.2804395604395604
2.1153372139997373,3.1347985347985343,0.1249084249084249,0.35619047619047617
2.116931521999504,3.1347985347985343,0.1249084249084249,0.35619047619047617
2.1207418980011425,3.1347985347985343,0.1249084249084249,0.35619047619047617
2.1259848780009634,3.1347985347985343,0.1249084249084249,0.35619047619047617
2.128461211001195,3.1347985347985343,0.1249084249084249,0.35619047619047617
2.128622099000495,3.1347985347985343,0.1249084249084249,0.35619047619047617
2.133865620000506,3.1347985347985343,0.1249084249084249,0.35619047619047617
2.137501453000368,3.1347985347985343,0.1249084249084249,0.35619047619047617
2.1429660789999616,3.1347985347985343,0.1249084249084249,0.35619047619047617
2.1446446890004154,3.1347985347985343,0.1249084249084249,0.35619047619047617
2.1477388000002975,3.1347985347985343,0.1249084249084249,0.35619047619047617
2.1499408180006867,3.1347985347985343,0.1249084249084249,0.35619047619047617
2.1509328499996627,3.1347985347985343,0.1249084249084249,0.35619047619047617
2.151805946999957,3.1347985347985343,0.1249084249084249,0.35619047619047617
2.1533975199999986,3.1347985347985343,0.1249084249084249,0.35619047619047617
2.1580669909999415,3.1347985347985343,0.1249084249084249,0.35619047619047617
2.1583514169997216,3.3,0.6277655677655677,0.7921611721611721
2.1630444940001325,3.3,0.6277655677655677,0.7921611721611721
2.1684527569996135,3.3,0.6277655677655677,0.7921611721611721
2.171415896000326,3.3,0.6277655677655677,0.7921611721611721
2.1744183219998376,3.3,0.6277655677655677,0.7921611721611721
2.1767213580005773,2.7326739926739925,1.0838827838827838,1.9171428571428573
2.1769522840004356,2.7326739926739925,1.0838827838827838,1.9171428571428573
2.181317676000617,2.7326739926739925,1.0838827838827838,1.9171428571428573
2.1828009689998,2.7326739926739925,1.0838827838827838,1.9171428571428573
2.1869581419996393,2.7326739926739925,1.0838827838827838,1.9171428571428573
2.1897309430005407,2.7326739926739925,1.0838827838827838,1.9171428571428573
2.19317266500002,2.7326739926739925,1.0838827838827838,1.9171428571428573
2.194704826000816,2.7326739926739925,1.0838827838827838,1.9171428571428573
2.199254238999856,2.7326739926739925,1.0838827838827838,1.9171428571428573
2.199548163000145,2.7326739926739925,1.0838827838827838,1.9171428571428573
2.2042774870005815,2.7326739926739925,1.0838827838827838,1.9171428571428573
2.2043860089997906,2.7326739926739925,1.0838827838827838,1.9171428571428573
2.2098658550003165,2.7326739926739925,1.0838827838827838,1.9171428571428573
2.2114627770006337,2.7326739926739925,1.0838827838827838,1.9171428571428573
2.215848428000754,2.7326739926739925,1.0838827838827838,1.9171428571428573
2.2173794339996675,2.7326739926739925,1.0838827838827838,1.9171428571428573
2.221718860000692,2.7326739926739925,1.0838827838827838,1.9171428571428573
2.222608370000671,2.7326739926739925,1.0838827838827838,1.9171428571428573
2.2241594050010463,2.7326739926739925,1.0838827838827838,1.9171428571428573
2.227853803000471,2.7326739926739925,1.0838827838827838,1.9171428571428573
2.233000849000746,2.7326739926739925,1.0838827838827838,1.9171428571428573
2.237486080000963,2.7326739926739925,1.0838827838827838,1.9171428571428573
2.2382954679997056,2.7326739926739925,1.0838827838827838,1.9171428571428573
2.239986474000034,2.7326739926739925,1.0838827838827838,1.9171428571428573
2.2440712799998437,2.6649816849816848,0.7438095238095238,1.3256410256410256
2.245661695000308,2.6649816849816848,0.7438095238095238,1.3256410256410256
2.2509915940008796,2.6794871794871793,0.4005128205128205,0.7615384615384615
2.2532571499996266,2.6794871794871793,0.4005128205128205,0.7615384615384615
2.2535385099999985,2.6794871794871793,0.4005128205128205,0.7615384615384615
2.2586447539997607,2.6794871794871793,0.4005128205128205,0.7615384615384615
2.2616011800000706,2.6617582417582417,0.2208058608058608,0.28608058608058606
2.2645554190003168,2.6617582417582417,0.2208058608058608,0.28608058608058606
2.2675804419995984,2.6617582417582417,0.2208058608058608,0.28608058608058606
2.2698466279998684,2.6617582417582417,0.2208058608058608,0.28608058608058606
2.2700674400002754,2.6617582417582417,0.2208058608058608,0.28608058608058606
2.2760980849998305,2.6617582417582417,0.2208058608058608,0.28608058608058606
2.281525104999673,2.731062271062271,1.0331135531135531,1.938095238095238
2.282417976999568,3.211355311355311,0.7051282051282051,0.8219780219780219
2.284086494000803,3.211355311355311,0.7051282051282051,0.8219780219780219
2.2877534970011766,3.211355311355311,0.7051282051282051,0.8219780219780219
2.2931698619995586,3.3,0.6003663003663003,0.6164835164835165
2.2954328609994263,3.3,0.02175824175824176,0.28205128205128205
2.296285173000797,3.3,0.02175824175824176,0.28205128205128205
2.297930406000887,3.3,0.02175824175824176,0.28205128205128205
2.302424276000238,3.3,0.02175824175824176,0.28205128205128205
2.303353650000645,3.3,0.02175824175824176,0.28205128205128205
2.3049882730010722,3.3,0.02175824175824176,0.28205128205128205
2.309542106000663,3.3,0.02175824175824176,0.28205128205128205
2.31046118499944,3.3,1.0508424908424907,0.5391208791208791
2.311390504000883,3.3,1.0508424908424907,0.5391208791208791
2.312925541000368,3.247619047619047,0.03062271062271062,0.2747985347985348
2.3171994000003906,3.247619047619047,0.03062271062271062,0.2747985347985348
2.3196110339995357,3.247619047619047,0.03062271062271062,0.2747985347985348
2.319778215000042,3.247619047619047,0.03062271062271062,0.2747985347985348
2.325069524000355,3.247619047619047,0.03062271062271062,0.2747985347985348
2.327955851000297,3.247619047619047,0.03062271062271062,0.2747985347985348
2.3316116980004153,3.3,0.971062271062271,0.5600732600732601
2.331734929999584,3.3,0.971062271062271,0.5600732600732601
2.3368186540010356,3.3,0.971062271062271,0.5600732600732601
2.3406851230010943,3.3,0.971062271062271,0.5600732600732601
2.3443595259996073,2.6802930402930403,0.6567765567765567,0.9920146520146519
2.3444906000004266,2.6802930402930403,0.6567765567765567,0.9920146520146519
2.349559902000692,2.6802930402930403,0.6567765567765567,0.9920146520146519
2.3533132430002297,2.6802930402930403,0.6567765567765567,0.9920146520146519
2.357681262999904,2.6802930402930403,0.6567765567765567,0.9920146520146519
2.359936914001082,3.167838827838828,0.5495970695970696,0.7188278388278388
2.3607961159996194,3.167838827838828,0.5495970695970696,0.7188278388278388
2.362981870999647,3.167838827838828,0.5495970695970696,0.7188278388278388
2.3638004010008444,3.167838827838828,0.5495970695970696,0.7188278388278388
2.3660312760002853,3.167838827838828,0.5495970695970696,0.7188278388278388
2.36685692500032,3.167838827838828,0.5495970695970696,0.7188278388278388
2.3683934250002494,3.167838827838828,0.5495970695970696,0.7188278388278388
2.37271981000049,3.167838827838828,0.5495970695970696,0.7188278388278388
2.375168532000316,2.848717948717949,0.02336996336996337,0.23047619047619047
2.3804677780008205,2.848717948717949,0.02336996336996337,0.23047619047619047
2.3834050730001763,2.697216117216117,0.6873992673992674,1.2539194139194139
2.3863201010008197,2.697216117216117,0.6873992673992674,1.2539194139194139
2.3893403130005026,2.697216117216117,0.6873992673992674,1.2539194139194139
2.3922834940003668,2.697216117216117,0.6873992673992674,1.2539194139194139
2.394577275001211,3.3,0.4754578754578754,0.9235164835164835
2.3948672149999766,3.3,0.4754578754578754,0.9235164835164835
2.3994163160004973,3.3,0.4754578754578754,0.9235164835164835
2.4011342280009558,3.3,0.4754578754578754,0.9235164835164835
2.4041532770006597,3.3,0.4754578754578754,0.9235164835164835
2.4064552720010397,3.3,0.4754578754578754,0.9235164835164835
2.4073015579997445,3.3,0.4754578754578754,0.9235164835164835
2.408243116000449,3.3,0.4754578754578754,0.9235164835164835
2.409775518999595,3.3,0.4754578754578754,0.9235164835164835
2.414404013999956,3.3,0.4754578754578754,0.9235164835164835
2.414679846000581,3.3,0.4754578754578754,0.9235164835164835
2.4192414860008284,3.3,0.4754578754578754,0.9235164835164835
2.4195432090000395,3.3,0.4754578754578754,0.9235164835164835
2.424992997001027,2.6698168498168497,0.7212454212454212,1.3643223443223442
2.4258602560003055,2.6698168498168497,0.7212454212454212,1.3643223443223442
2.4274179599997296,2.6698168498168497,0.7212454212454212,1.3643223443223442
2.431833098000425,2.6698168498168497,0.7212454212454212,1.3643223443223442
2.4333510899996327,2.6698168498168497,0.7212454212454212,1.3643223443223442
2.4380172479995963,2.6698168498168497,0.7212454212454212,1.3643223443223442
2.438280799000495,2.6698168498168497,0.7212454212454212,1.3643223443223442
2.442809064999892,2.6698168498168497,0.7212454212454212,1.3643223443223442
2.4430686200012133,2.6698168498168497,0.7212454212454212,1.3643223443223442
2.448229118999734,2.6698168498168497,0.7212454212454212,1.3643223443223442
2.451502320000145,2.6698168498168497,0.7212454212454212,1.3643223443223442
2.4530762510003115,3.3,0.037875457875457874,0.3432967032967033
2.45711923700037,3.3,0.037875457875457874,0.3432967032967033
2.4608831260011357,3.3,0.037875457875457874,0.3432967032967033
2.465961032999985,3.3,0.037875457875457874,0.3432967032967033
2.4705282710001484,3.3,0.037875457875457874,0.3432967032967033
2.4713661540008616,2.6488644688644687,0.15069597069597068,0.3384615384615384
2.4735786559995177,2.6488644688644687,0.15069597069597068,0.3384615384615384
2.474387682001179,2.6488644688644687,0.15069597069597068,0.3384615384615384
2.4765725170000223,2.6488644688644687,0.15069597069597068,0.3384615384615384
2.477676161999625,2.6488644688644687,0.15069597069597068,0.3384615384615384
2.4779397300007986,2.6488644688644687,0.15069597069597068,0.3384615384615384
2.4832302590002655,2.6488644688644687,0.15069597069597068,0.3384615384615384
2.4855708360009885,2.6488644688644687,0.15069597069597068,0.3384615384615384
2.4858937530007097,2.6665934065934067,0.4126007326007326,0.7575091575091575
2.4911285560010583,2.6665934065934067,0.4126007326007326,0.7575091575091575
2.494106403999467,2.6665934065934067,0.4126007326007326,0.7575091575091575
2.497160912000254,2.6665934065934067,0.4126007326007326,0.7575091575091575
2.499440429999595,2.6665934065934067,0.4126007326007326,0.7575091575091575
2.4997358380005608,2.6665934065934067,0.4126007326007326,0.7575091575091575
2.5048725199994806,2.6665934065934067,0.4126007326007326,0.7575091575091575
2.508680191000167,2.6665934065934067,0.4126007326007326,0.7575091575091575
2.5130221430008532,2.655311355311355,0.3932600732600733,0.6446886446886446
2.514612721000958,2.655311355311355,0.3932600732600733,0.6446886446886446
2.519065899999987,2.655311355311355,0.3932600732600733,0.6446886446886446
2.5199570000004314,2.655311355311355,0.3932600732600733,0.6446886446886446
2.521707084000809,2.655311355311355,0.3932600732600733,0.6446886446886446
2.5253507620000164,2.655311355311355,0.3932600732600733,0.6446886446886446
2.5255362130010326,2.655311355311355,0.3932600732600733,0.6446886446886446
2.53076074800083,2.655311355311355,0.3932600732600733,0.6446886446886446
2.533941372001209,2.655311355311355,0.3932600732600733,0.6446886446886446
2.5354618300007132,2.655311355311355,0.3932600732600733,0.6446886446886446
2.5399200410010963,2.655311355311355,0.3932600732600733,0.6446886446886446
2.5409336400007305,2.655311355311355,0.3932600732600733,0.6446886446886446
2.541772687000048,2.655311355311355,0.3932600732600733,0.6446886446886446
2.5433364450000226,2.655311355311355,0.3932600732600733,0.6446886446886446
2.5473143580002215,2.655311355311355,0.3932600732600733,0.6446886446886446
2.55114798500108,3.3,1.0323076923076921,0.5028571428571429
2.5548019480011135,3.3,1.0323076923076921,0.5028571428571429
2.554969107000943,3.3,1.0323076923076921,0.5028571428571429
2.5601011620001373,3.3,1.0323076923076921,0.5028571428571429
2.563716820999616,3.3,1.0323076923076921,0.5028571428571429
2.5638428630009003,3.3,1.0323076923076921,0.5028571428571429
2.568942555000831,3.3,1.0323076923076921,0.5028571428571429
2.572584300000017,3.3,1.0323076923076921,0.5028571428571429
2.577741490000335,3.3,1.0323076923076921,0.5028571428571429
2.581564576999881,3.3,1.0323076923076921,0.5028571428571429
2.5858855839996977,3.3,1.0323076923076921,0.5028571428571429
2.587456385999758,3.3,1.0323076923076921,0.5028571428571429
2.591299837000406,3.3,1.0323076923076921,0.5028571428571429
2.595893771000192,3.3,1.0323076923076921,0.5028571428571429
2.5961179549994995,3.3,1.0323076923076921,0.5028571428571429
2.601507367000522,3.3,1.0323076923076921,0.5028571428571429
2.6039937300010934,3.3,1.0323076923076921,0.5028571428571429
2.6090979460004746,3.3,1.0323076923076921,0.5028571428571429
2.6122720389994356,3.3,1.0323076923076921,0.5028571428571429
2.6138918550004746,3.3,1.0323076923076921,0.5028571428571429
2.6183073520005564,3.3,1.0323076923076921,0.5028571428571429
2.619192848000239,2.71010989010989,0.7067399267399267,1.2434432234432233
2.620890013000462,2.71010989010989,0.7067399267399267,1.2434432234432233
2.623883656000544,2.6682051282051282,0.7349450549450549,1.357069597069597
2.6268754249995254,2.7117216117216114,0.6463003663003662,1.216043956043956
2.6292287230007787,3.3,0.7083516483516483,0.5520146520146519
2.6294904469996254,3.3,0.7083516483516483,0.5520146520146519
2.6345382150011574,3.3,0.7083516483516483,0.5520146520146519
2.6388697020011023,3.3,0.7083516483516483,0.5520146520146519
2.6411294610006735,3.3,0.9017582417582416,0.9025641025641026
2.6413819959998364,2.936556776556776,0.718021978021978,1.3135531135531133
2.646487046000402,2.936556776556776,0.718021978021978,1.3135531135531133
2.650152263000564,2.936556776556776,0.718021978021978,1.3135531135531133
2.655345925999427,2.936556776556776,0.718021978021978,1.3135531135531133
2.65933879899967,2.936556776556776,0.718021978021978,1.3135531135531133
2.6624814959996,2.936556776556776,0.718021978021978,1.3135531135531133
2.664121817000705,2.723003663003663,0.4214652014652014,0.5882783882783883
2.667830993001189,3.3,0.3344322344322344,0.4488644688644688
2.667940035000356,2.2846153846153845,0.2063003663003663,0.2377289377289377
2.6732344669999293,2.2846153846153845,0.2063003663003663,0.2377289377289377
2.6761749659999623,2.339413919413919,0.05882783882783882,0.2232234432234432
2.6792146820007474,2.339413919413919,0.05882783882783882,0.2232234432234432
2.6816597590004676,2.339413919413919,0.05882783882783882,0.2232234432234432
2.6819167240009847,2.681098901098901,0.6648351648351648,1.2378021978021978
2.687085315999866,2.681098901098901,0.6648351648351648,1.2378021978021978
2.690827309999804,2.664175824175824,0.43999999999999995,0.8268131868131867
2.6961376670005848,3.3,0.9372161172161171,0.4754578754578754
2.699936515000445,3.3,0.9372161172161171,0.4754578754578754
2.705149307999818,3.3,0.9372161172161171,0.4754578754578754
2.708099850000508,3.3,0.28769230769230764,0.4174358974358974
2.711077498001032,3.0356776556776555,0.6148717948717949,0.5931135531135531
2.7140276730006008,2.6665934065934067,0.166007326007326,0.3602197802197802
2.716332916999818,2.706886446886447,0.9718681318681318,1.8083516483516484
2.7166367009995156,2.706886446886447,0.9718681318681318,1.8083516483516484
2.721214286000759,2.706886446886447,0.9718681318681318,1.8083516483516484
2.7215475989996776,2.706886446886447,0.9718681318681318,1.8083516483516484
2.7263470020006935,2.706886446886447,0.9718681318681318,1.8083516483516484
2.7322904900011054,2.706886446886447,0.9718681318681318,1.8083516483516484
2.736747380000452,2.706886446886447,0.9718681318681318,1.8083516483516484
2.7383467010004097,2.706886446886447,0.9718681318681318,1.8083516483516484
2.742068081999605,3.3,0.7558974358974359,0.8066666666666666
2.7472624910005834,3.3,0.7558974358974359,0.8066666666666666
2.7503099360001215,3.3,0.7558974358974359,0.8066666666666666
2.75265907100038,3.3,0.7558974358974359,0.8066666666666666
2.752951865999421,3.3,0.7558974358974359,0.8066666666666666
2.757366705000095,3.3,0.7558974358974359,0.8066666666666666
2.7595964499996626,3.3,0.7558974358974359,0.8066666666666666
2.760465188001035,3.3,0.7558974358974359,0.8066666666666666
2.7620793170008255,3.3,0.7558974358974359,0.8066666666666666
2.7664628029997402,3.3,0.7558974358974359,0.8066666666666666
2.7673575860007986,3.3,0.7558974358974359,0.8066666666666666
2.768949565999719,3.3,0.7558974358974359,0.8066666666666666
2.773445251999874,3.3,0.7558974358974359,0.8066666666666666
2.7751448359995265,3.3,0.7558974358974359,0.8066666666666666
2.7816467720003857,3.3,0.7558974358974359,0.8066666666666666
2.7858123109999724,3.3,0.7558974358974359,0.8066666666666666
2.787282605000655,1.7769230769230768,0.21677655677655677,0.18937728937728937
2.7946289740011707,1.7769230769230768,0.21677655677655677,0.18937728937728937
2.8005107600001793,3.3,0.18937728937728937,0.5213919413919413
2.8076463130000775,3.3,0.18937728937728937,0.5213919413919413
2.814825171000848,3.3,0.18937728937728937,0.5213919413919413
2.820988474999467,3.3,0.18937728937728937,0.5213919413919413
2.8264217200012354,2.71010989010989,0.630989010989011,1.070989010989011
2.8279049070006295,2.71010989010989,0.630989010989011,1.070989010989011
2.834455890000754,2.71010989010989,0.630989010989011,1.070989010989011
2.838772680001057,3.3,0.37875457875457874,0.7945787545787546
2.8391497890006576,3.3,0.37875457875457874,0.7945787545787546
2.846572593000019,3.3,0.37875457875457874,0.7945787545787546
2.8508686120003404,3.3,0.3432967032967033,0.4488644688644688
2.8517833330006397,2.655311355311355,0.13054945054945052,0.35216117216117215
2.85337615500066,2.655311355311355,0.13054945054945052,0.35216117216117215
2.8639751099999557,2.655311355311355,0.13054945054945052,0.35216117216117215
2.875004904000889,2.655311355311355,0.13054945054945052,0.35216117216117215
2.8850479579996318,2.655311355311355,0.13054945054945052,0.35216117216117215
2.8921895309995307,2.655311355311355,0.13054945054945052,0.35216117216117215
2.895281958000851,2.5392673992673993,0.05802197802197802,0.26109890109890105
2.898300635999476,2.5392673992673993,0.05802197802197802,0.26109890109890105
2.901191082000878,2.5392673992673993,0.05802197802197802,0.26109890109890105
2.9055954569994356,2.5392673992673993,0.05802197802197802,0.26109890109890105
2.906680392999988,2.5392673992673993,0.05802197802197802,0.26109890109890105
2.9070539160002227,2.5392673992673993,0.05802197802197802,0.26109890109890105
2.9137974650002434,2.5392673992673993,0.05802197802197802,0.26109890109890105
2.917416807000336,3.3,0.047545787545787546,0.2925274725274725
2.91762460100108,3.3,0.047545787545787546,0.2925274725274725
2.924636396999631,3.3,1.003296703296703,0.8348717948717947
2.9296961649997684,3.3,1.003296703296703,0.8348717948717947
2.932793435000349,3.3,1.003296703296703,0.8348717948717947
2.9360121480003727,3.3,1.003296703296703,0.8348717948717947
2.936335869000686,3.3,1.003296703296703,0.8348717948717947
2.9452306279999902,3.3,1.003296703296703,0.8348717948717947
2.950082041999849,3.3,1.003296703296703,0.8348717948717947
2.9561670570001297,3.3,1.003296703296703,0.8348717948717947
2.9597583209997538,3.3,1.003296703296703,0.8348717948717947
2.9599758420008584,3.3,1.003296703296703,0.8348717948717947
2.9637817430011637,2.686739926739927,0.7583150183150182,1.4134798534798534
2.9683591060002072,2.686739926739927,0.7583150183150182,1.4134798534798534
2.969249456000398,2.686739926739927,0.7583150183150182,1.4134798534798534
2.9710369340009493,2.686739926739927,0.7583150183150182,1.4134798534798534
2.9766705929996533,2.686739926739927,0.7583150183150182,1.4134798534798534
2.982703968000351,2.686739926739927,0.7583150183150182,1.4134798534798534
2.9871178710000095,2.686739926739927,0.7583150183150182,1.4134798534798534
2.9880552680006076,2.686739926739927,0.7583150183150182,1.4134798534798534
2.990007914000671,2.686739926739927,0.7583150183150182,1.4134798534798534
2.9925979750005354,2.686739926739927,0.7583150183150182,1.4134798534798534
2.9965676169995277,3.3,0.03142857142857143,0.30139194139194136
3.000513277000209,3.3,0.03142857142857143,0.30139194139194136
3.0042415799998707,3.3,0.03142857142857143,0.30139194139194136
3.0137293830011913,3.3,0.03142857142857143,0.30139194139194136
3.0188755889994354,3.3,0.03142857142857143,0.30139194139194136
3.0256153299997095,3.3,0.03142857142857143,0.30139194139194136
3.028756114999851,3.3,0.03142857142857143,0.30139194139194136
3.0303647149994504,3.3,0.03142857142857143,0.30139194139194136
3.034929565001221,3.3,0.03142857142857143,0.30139194139194136
3.035933680999733,3.3,0.38278388278388276,0.7945787545787546
3.0368093979996047,3.3,0.38278388278388276,0.7945787545787546
3.039573776000907,3.3,0.38278388278388276,0.7945787545787546
3.0440044259994465,3.3,0.6076190476190476,0.8405128205128204
3.0442588229998364,2.7697435897435896,0.5141391941391941,0.5842490842490843
3.0493207550007355,2.7697435897435896,0.5141391941391941,0.5842490842490843
3.0530546539994248,2.7697435897435896,0.5141391941391941,0.5842490842490843
3.0592513930005225,3.1356043956043953,0.03868131868131868,0.307032967032967
3.0628268149994256,2.7117216117216114,0.9315750915750916,1.7108424908424908
3.068325222000567,2.7117216117216114,0.9315750915750916,1.7108424908424908
3.0698578510000516,2.7117216117216114,0.9315750915750916,1.7108424908424908
3.077211496000018,2.7117216117216114,0.9315750915750916,1.7108424908424908
3.082863059000374,2.7117216117216114,0.9315750915750916,1.7108424908424908
3.088615077000213,2.681098901098901,0.763956043956044,1.2490842490842489
3.0889569980008673,2.681098901098901,0.763956043956044,1.2490842490842489
3.095332409000548,2.681098901098901,0.763956043956044,1.2490842490842489
3.1008816650009976,2.681098901098901,0.763956043956044,1.2490842490842489
3.1010947819995636,2.681098901098901,0.763956043956044,1.2490842490842489
3.1082580069996766,2.681098901098901,0.763956043956044,1.2490842490842489
3.1125191480005014,2.681098901098901,0.763956043956044,1.2490842490842489
3.114783757000623,3.3,0.09589743589743589,0.36827838827838827
3.1150168309995934,3.3,0.09589743589743589,0.36827838827838827
3.120198505001099,3.3,0.09589743589743589,0.36827838827838827
3.1253736930011655,3.3,0.09589743589743589,0.36827838827838827
3.129974610001227,2.6682051282051282,0.4005128205128205,0.6777289377289377
3.1344268480006576,2.6488644688644687,0.17326007326007326,0.3489377289377289
3.135288278999724,2.6488644688644687,0.17326007326007326,0.3489377289377289
3.1368967760008672,2.6488644688644687,0.17326007326007326,0.3489377289377289
3.144122581999909,2.6488644688644687,0.17326007326007326,0.3489377289377289
3.1480371609995927,2.6488644688644687,0.17326007326007326,0.3489377289377289
3.152557851999518,2.6488644688644687,0.17326007326007326,0.3489377289377289
3.1534935740000947,2.6488644688644687,0.17326007326007326,0.3489377289377289
3.15608114799943,2.6488644688644687,0.17326007326007326,0.3489377289377289
3.160200251000788,2.6746520146520147,0.4625641025641025,0.7317216117216117
3.163404722999985,2.6746520146520147,0.4625641025641025,0.7317216117216117
3.1642324189997453,2.6746520146520147,0.4625641025641025,0.7317216117216117
3.1657410839998192,2.6746520146520147,0.4625641025641025,0.7317216117216117
3.170853588000682,2.6746520146520147,0.4625641025641025,0.7317216117216117
3.175699199000519,2.323296703296703,0.3223443223443223,0.4754578754578754
3.179864877,2.323296703296703,0.3223443223443223,0.4754578754578754
3.1815137220000906,2.323296703296703,0.3223443223443223,0.4754578754578754
3.185981972001173,2.323296703296703,0.3223443223443223,0.4754578754578754
3.1868060260003404,2.323296703296703,0.3223443223443223,0.4754578754578754
3.188703040999826,2.323296703296703,0.3223443223443223,0.4754578754578754
3.1923802140008775,2.323296703296703,0.3223443223443223,0.4754578754578754
3.195447817999593,2.689157509157509,0.020146520146520144,0.2208058608058608
3.1977187920001597,2.689157509157509,0.020146520146520144,0.2208058608058608
3.1985289080002985,3.3,0.6841758241758242,0.8163369963369963
3.2007472599998437,3.3,0.6841758241758242,0.8163369963369963
3.2010190159999183,3.3,0.6841758241758242,0.8163369963369963
3.2079074659995968,3.3,0.6841758241758242,0.8163369963369963
3.2135184470007516,2.6609523809523807,0.39003663003663,0.5117216117216117
3.213624534000701,2.9712087912087912,0.008864468864468863,0.2594871794871795
3.2188686290010082,2.9712087912087912,0.008864468864468863,0.2594871794871795
3.2225987570000143,2.9712087912087912,0.008864468864468863,0.2594871794871795
3.227655570999559,2.6682051282051282,0.5834432234432234,0.8687179487179487
3.2306495440006984,2.6682051282051282,0.5834432234432234,0.8687179487179487
3.2335970399999496,2.6682051282051282,0.5834432234432234,0.8687179487179487
3.2371930120007164,2.6682051282051282,0.5834432234432234,0.8687179487179487
3.2432351000006747,2.1282783882783884,0.14666666666666667,0.26915750915750913
3.2477724780001154,2.1282783882783884,0.14666666666666667,0.26915750915750913
3.248041078000824,2.6585347985347987,0.43999999999999995,0.7913553113553113
3.253461137001068,2.6585347985347987,0.43999999999999995,0.7913553113553113
3.2558242560007784,2.6585347985347987,0.43999999999999995,0.7913553113553113
3.2561094739994587,2.6585347985347987,0.43999999999999995,0.7913553113553113
3.2603748929996073,2.6585347985347987,0.43999999999999995,0.7913553113553113
3.2626318290003837,2.6585347985347987,0.43999999999999995,0.7913553113553113
3.2628589409996493,2.6585347985347987,0.43999999999999995,0.7913553113553113
3.2679089890007162,3.3,0.42952380952380953,0.6076190476190476
3.272964941999817,3.3,1.0798534798534798,0.5278388278388277
3.277411877999839,3.3,1.0798534798534798,0.5278388278388277
3.277654628000164,3.3,1.0798534798534798,0.5278388278388277
3.2826915320001717,3.3,1.0798534798534798,0.5278388278388277
3.286298897000961,3.3,1.0798534798534798,0.5278388278388277
3.2932144810001773,2.9260805860805856,0.24175824175824176,0.31186813186813184
3.296998424000776,1.8937728937728935,0.03223443223443223,0.14747252747252745
3.3014363020010933,3.248424908424908,0.5600732600732601,0.7446153846153846
3.3037079790010466,2.9760439560439558,0.7212454212454212,1.3014652014652013
3.303891638001005,2.9760439560439558,0.7212454212454212,1.3014652014652013
3.3114448260002973,2.9760439560439558,0.7212454212454212,1.3014652014652013
3.316059298000255,2.9760439560439558,0.7212454212454212,1.3014652014652013
3.316333355000097,2.9760439560439558,0.7212454212454212,1.3014652014652013
3.3223225940000702,2.9760439560439558,0.7212454212454212,1.3014652014652013
3.328457564000928,2.702051282051282,0.6390476190476191,1.2095970695970695
3.3322911790000944,2.702051282051282,0.6390476190476191,1.2095970695970695
3.3370707520007272,3.3,0.07575091575091575,0.3158974358974359
3.337212370000998,3.3,0.07575091575091575,0.3158974358974359
3.34499698000036,3.3,0.07575091575091575,0.3158974358974359
3.349458157999834,2.6682051282051282,0.7164102564102564,1.282930402930403
3.350522460999855,2.6682051282051282,0.7164102564102564,1.282930402930403
3.3508416570002737,2.6682051282051282,0.7164102564102564,1.282930402930403
3.3573669970010087,2.6682051282051282,0.7164102564102564,1.282930402930403
3.3628261190006015,2.6682051282051282,0.7164102564102564,1.282930402930403
3.3631278180000663,2.6682051282051282,0.7164102564102564,1.282930402930403
3.3675767719996657,2.6682051282051282,0.7164102564102564,1.282930402930403
3.368449548001081,2.6682051282051282,0.7164102564102564,1.282930402930403
3.370042619000742,2.6682051282051282,0.7164102564102564,1.282930402930403
3.3757928390004963,2.6682051282051282,0.7164102564102564,1.282930402930403
3.375915876000363,2.709304029304029,0.9235164835164835,1.7890109890109889
3.380585525001152,2.709304029304029,0.9235164835164835,1.7890109890109889
3.3808217120003974,3.3,0.6591941391941392,0.9243223443223443
3.385339546000978,3.3,0.6591941391941392,0.9243223443223443
3.386948110000958,3.3,0.6591941391941392,0.9243223443223443
3.393396131999907,3.3,0.6591941391941392,0.9243223443223443
3.3964777370001684,3.3,0.008058608058608058,0.307032967032967
3.3996511540008214,2.706886446886447,0.8751648351648351,1.7084249084249086
3.400544269999955,2.706886446886447,0.8751648351648351,1.7084249084249086
3.4020733830002428,2.706886446886447,0.8751648351648351,1.7084249084249086
3.4074358199995913,2.706886446886447,0.8751648351648351,1.7084249084249086
3.410500347999914,2.66014652014652,0.44080586080586076,0.8195604395604396
3.4113606219998474,2.66014652014652,0.44080586080586076,0.8195604395604396
3.412903603999439,2.66014652014652,0.44080586080586076,0.8195604395604396
3.4201278489999822,2.66014652014652,0.44080586080586076,0.8195604395604396
3.426221677000285,2.66014652014652,0.44080586080586076,0.8195604395604396
3.429498184001204,2.66014652014652,0.44080586080586076,0.8195604395604396
3.430699430000459,2.66014652014652,0.44080586080586076,0.8195604395604396
3.430995967999479,2.66014652014652,0.44080586080586076,0.8195604395604396
3.436509663000834,2.66014652014652,0.44080586080586076,0.8195604395604396
3.4377894589997595,2.476410256410256,0.07172161172161172,0.24336996336996336
3.4379454720001377,2.476410256410256,0.07172161172161172,0.24336996336996336
3.44558550200054,2.476410256410256,0.07172161172161172,0.24336996336996336
3.4499888490008743,2.476410256410256,0.07172161172161172,0.24336996336996336
3.4516997470000206,2.476410256410256,0.07172161172161172,0.24336996336996336
3.456058789999588,2.476410256410256,0.07172161172161172,0.24336996336996336
3.4576729550008167,2.476410256410256,0.07172161172161172,0.24336996336996336
3.46188164600062,2.476410256410256,0.07172161172161172,0.24336996336996336
3.4627326210011233,2.476410256410256,0.07172161172161172,0.24336996336996336
3.4644233330000134,2.476410256410256,0.07172161172161172,0.24336996336996336
3.4680808480006817,2.476410256410256,0.07172161172161172,0.24336996336996336
3.475240722000308,2.476410256410256,0.07172161172161172,0.24336996336996336
3.478346383000826,2.476410256410256,0.07172161172161172,0.24336996336996336
3.4799737539997295,2.476410256410256,0.07172161172161172,0.24336996336996336
3.4851181710000674,2.476410256410256,0.07172161172161172,0.24336996336996336
3.4887517600000137,2.476410256410256,0.07172161172161172,0.24336996336996336
3.4889532779998262,2.476410256410256,0.07172161172161172,0.24336996336996336
3.495488861000922,2.6545054945054947,0.14908424908424908,0.3384615384615384
3.499193531999481,2.6545054945054947,0.14908424908424908,0.3384615384615384
3.503680477000671,2.6545054945054947,0.14908424908424908,0.3384615384615384
3.50478406000002,2.6545054945054947,0.14908424908424908,0.3384615384615384
3.5050192609996884,2.6665934065934067,0.40937728937728934,0.7534798534798535
3.511122317000627,2.6665934065934067,0.40937728937728934,0.7534798534798535
3.514769040999454,2.6665934065934067,0.40937728937728934,0.7534798534798535
3.514914568000677,2.736703296703297,0.9597802197802198,1.6616849816849815
3.519598369999585,2.736703296703297,0.9597802197802198,1.6616849816849815
3.519798262999757,2.736703296703297,0.9597802197802198,1.6616849816849815
3.5271436189996166,2.736703296703297,0.9597802197802198,1.6616849816849815
3.5301404040001216,2.736703296703297,0.9597802197802198,1.6616849816849815
3.533162296000228,2.736703296703297,0.9597802197802198,1.6616849816849815
3.535419150000962,2.736703296703297,0.9597802197802198,1.6616849816849815
3.536242811000193,2.736703296703297,0.9597802197802198,1.6616849816849815
3.5383398060002946,2.736703296703297,0.9597802197802198,1.6616849816849815
3.5394619859998784,2.736703296703297,0.9597802197802198,1.6616849816849815
3.5396932160001597,2.736703296703297,0.9597802197802198,1.6616849816849815
3.5479129779996583,2.736703296703297,0.9597802197802198,1.6616849816849815
3.5523220480008604,2.736703296703297,0.9597802197802198,1.6616849816849815
3.5540527989996917,2.66014652014652,0.006446886446886447,0.224029304029304
3.5581674260010914,2.66014652014652,0.006446886446886447,0.224029304029304
3.5608571379998466,2.66014652014652,0.006446886446886447,0.224029304029304
3.5647459989995696,2.6746520146520147,0.7115750915750916,1.3175824175824176
3.569245561000571,2.681098901098901,0.4512820512820513,0.6882051282051282
3.570052969000244,2.681098901098901,0.4512820512820513,0.6882051282051282
3.5724111609997635,2.681098901098901,0.4512820512820513,0.6882051282051282
3.5725996020009916,2.681098901098901,0.4512820512820513,0.6882051282051282
3.5797905800009175,2.681098901098901,0.4512820512820513,0.6882051282051282
3.5842532820006454,2.681098901098901,0.4512820512820513,0.6882051282051282
3.585765469000762,2.681098901098901,0.4512820512820513,0.6882051282051282
3.592563861000599,2.681098901098901,0.4512820512820513,0.6882051282051282
3.5959320880010637,3.3,0.3263736263736263,0.7309157509157509
3.596171127999696,3.3,0.3263736263736263,0.7309157509157509
3.6013729740006966,3.3,0.3263736263736263,0.7309157509157509
3.604577355999936,3.3,0.3263736263736263,0.7309157509157509
3.606304662000184,2.652087912087912,0.3932600732600733,0.7333333333333333
3.6107505519994447,2.652087912087912,0.3932600732600733,0.7333333333333333
3.6109666350002954,2.652087912087912,0.3932600732600733,0.7333333333333333
3.6164834310002334,2.652087912087912,0.3932600732600733,0.7333333333333333
3.617330409000715,2.6649816849816848,0.24095238095238095,0.40615384615384614
3.618241305999618,2.6649816849816848,0.24095238095238095,0.40615384615384614
3.619785650000267,2.6649816849816848,0.24095238095238095,0.40615384615384614
3.6264574569995602,2.6649816849816848,0.24095238095238095,0.40615384615384614
3.6302381040004548,2.6649816849816848,0.24095238095238095,0.40615384615384614
3.6358504350009753,3.3,0.051575091575091575,0.2949450549450549
3.6367168689994287,3.3,0.051575091575091575,0.2949450549450549
3.6391530470009457,3.3,0.051575091575091575,0.2949450549450549
3.6456352220011468,3.3,0.051575091575091575,0.2949450549450549
3.64929058800044,3.3,0.051575091575091575,0.2949450549450549
3.649480862000928,3.3,0.051575091575091575,0.2949450549450549
3.654535338000642,3.3,0.051575091575091575,0.2949450549450549
3.660194436000893,3.3,0.051575091575091575,0.2949450549450549
3.660482998000589,3.3,0.051575091575091575,0.2949450549450549
3.665638255999511,3.3,0.051575091575091575,0.2949450549450549
3.6686364990000584,2.6738461538461538,0.4279120879120879,0.8098901098901098
3.670915091999632,2.652087912087912,0.19824175824175824,0.3497435897435897
3.671205025000745,3.3,0.09509157509157509,0.3449084249084249
3.6783440230010456,3.3,0.09509157509157509,0.3449084249084249
3.6828378410009464,3.3,0.09509157509157509,0.3449084249084249
3.6831250230006845,2.6682051282051282,0.7252747252747253,1.3304761904761904
3.688958251999793,2.6682051282051282,0.7252747252747253,1.3304761904761904
3.69591957800003,2.988937728937729,1.0371428571428571,0.5246153846153846
3.7006232050007384,2.307179487179487,0.016117216117216115,0.17164835164835165
3.7009259410006052,2.307179487179487,0.016117216117216115,0.17164835164835165
3.7069860419996985,2.6665934065934067,0.6076190476190476,1.0556776556776555
3.71406974599995,2.6665934065934067,0.6076190476190476,1.0556776556776555
3.7194800979996216,2.6665934065934067,0.6076190476190476,1.0556776556776555
3.7197470949995477,2.7084981684981684,0.8139194139194139,1.514212454212454
3.729767394001101,2.7084981684981684,0.8139194139194139,1.514212454212454
3.7392359620007483,2.7084981684981684,0.8139194139194139,1.514212454212454
3.7473027569994883,3.3,0.39809523809523806,0.8018315018315018
3.7554996399994707,3.3,1.00007326007326,0.48432234432234433
3.763756194999587,3.3,1.00007326007326,0.48432234432234433
3.767762393999874,3.3,1.00007326007326,0.48432234432234433
3.7711002489995735,3.3,1.00007326007326,0.48432234432234433
3.7727613910010405,3.3,1.00007326007326,0.48432234432234433
3.7774430280005618,3.3,1.00007326007326,0.48432234432234433
3.78315755299991,2.706886446886447,1.0403663003663002,1.8639560439560439
3.7833037300006254,2.706886446886447,1.0403663003663002,1.8639560439560439
3.7885350880005717,2.440952380952381,0.29010989010989013,0.32556776556776557
3.793732676000218,2.440952380952381,0.29010989010989013,0.32556776556776557
3.7947273509998922,2.440952380952381,0.29010989010989013,0.32556776556776557
3.79567693700119,2.440952380952381,0.29010989010989013,0.32556776556776557
3.796654445000968,2.440952380952381,0.29010989010989013,0.32556776556776557
3.7976556710000295,2.440952380952381,0.29010989010989013,0.32556776556776557
3.798536137001065,2.440952380952381,0.29010989010989013,0.32556776556776557
3.800115842001105,2.440952380952381,0.29010989010989013,0.32556776556776557
3.805075931999454,2.440952380952381,0.29010989010989013,0.32556776556776557
3.809905666999839,2.440952380952381,0.29010989010989013,0.32556776556776557
3.814420873999552,2.440952380952381,0.29010989010989013,0.32556776556776557
3.814683951999541,2.7117216117216114,0.9775091575091575,1.8784615384615382
3.8192248989998916,2.7117216117216114,0.9775091575091575,1.8784615384615382
3.8195562250002695,2.7117216117216114,0.9775091575091575,1.8784615384615382
3.8264533689998643,2.7117216117216114,0.9775091575091575,1.8784615384615382
3.8306277040010173,2.7117216117216114,0.9775091575091575,1.8784615384615382
3.8322419230007654,2.7117216117216114,0.9775091575091575,1.8784615384615382
3.8359461950003606,3.3,0.5681318681318681,1.1378754578754577
3.836047962000521,3.3,0.5681318681318681,1.1378754578754577
3.8432230689995777,3.3,0.5681318681318681,1.1378754578754577
3.8469699890010816,3.3,0.5923076923076923,0.7937728937728937
3.8470683340001415,3.216190476190476,0.2989743589743589,0.3690842490842491
3.8528298109995376,3.216190476190476,0.2989743589743589,0.3690842490842491
3.852931544000967,3.3,0.033846153846153845,0.253040293040293
3.8605581100000563,3.3,0.033846153846153845,0.253040293040293
3.8651395569995657,3.3,0.033846153846153845,0.253040293040293
3.8655372989996977,3.3,0.033846153846153845,0.253040293040293
3.8699605720012187,3.3,0.033846153846153845,0.253040293040293
3.8722945869994874,3.3,0.033846153846153845,0.253040293040293
3.8726779419994273,3.3,0.033846153846153845,0.253040293040293
3.8773194509994937,3.3,0.033846153846153845,0.253040293040293
3.877491661000022,3.3,0.033846153846153845,0.253040293040293
3.885276074999638,3.3,0.033846153846153845,0.253040293040293
3.891299914999763,3.3,0.36747252747252745,0.43597069597069593
3.898970621999979,3.3,0.36747252747252745,0.43597069597069593
3.904335433000597,3.3,0.4738461538461538,0.9944322344322343
3.9046795869999187,3.3,0.4738461538461538,0.9944322344322343
3.909679550000874,3.3,0.4738461538461538,0.9944322344322343
3.9135421330011013,3.3,0.4738461538461538,0.9944322344322343
3.9182633710006485,3.3,0.4738461538461538,0.9944322344322343
3.9249556200011284,3.3,0.4738461538461538,0.9944322344322343
3.930635529999563,2.689157509157509,0.6777289377289377,1.3095238095238093
3.9388268519996927,2.689157509157509,0.6777289377289377,1.3095238095238093
3.944243906000338,2.689157509157509,0.6777289377289377,1.3095238095238093
3.945755659000497,2.689157509157509,0.6777289377289377,1.3095238095238093
3.9505754390011134,2.689157509157509,0.6777289377289377,1.3095238095238093
3.9563993560004747,2.652087912087912,0.1805128205128205,0.3747252747252747
3.9567777310003294,2.652087912087912,0.1805128205128205,0.3747252747252747
3.9640631370002666,2.652087912087912,0.1805128205128205,0.3747252747252747
3.9681024929996056,2.652087912087912,0.1805128205128205,0.3747252747252747
3.973476891000246,2.652087912087912,0.1805128205128205,0.3747252747252747
3.975728068000535,2.6585347985347987,0.8663003663003663,1.4118681318681316
3.9759894590006297,2.6585347985347987,0.8663003663003663,1.4118681318681316
3.9808737380008097,2.673040293040293,0.3771428571428571,0.7236630036630036
3.985959540001204,2.673040293040293,0.3771428571428571,0.7236630036630036
3.993050791001224,2.673040293040293,0.3771428571428571,0.7236630036630036
3.9962010979998013,2.673040293040293,0.3771428571428571,0.7236630036630036
3.9978172070004803,2.673040293040293,0.3771428571428571,0.7236630036630036
4.001621412000532,2.673040293040293,0.3771428571428571,0.7236630036630036
4.010627506000674,2.673040293040293,0.3771428571428571,0.7236630036630036
4.015558274000796,2.6585347985347987,0.37875457875457874,0.6374358974358975
4.019265762000941,2.6585347985347987,0.37875457875457874,0.6374358974358975
4.0285454240001854,2.6585347985347987,0.37875457875457874,0.6374358974358975
4.034863277000113,2.6585347985347987,0.37875457875457874,0.6374358974358975
4.040712420001,2.6585347985347987,0.37875457875457874,0.6374358974358975
4.044544698001118,3.00989010989011,0.7268864468864469,1.1878388278388277
4.048905748000834,3.00989010989011,0.7268864468864469,1.1878388278388277
4.050492210999437,3.3,0.7043223443223443,0.5528205128205127
4.055111592000685,3.3,0.7043223443223443,0.5528205128205127
4.055503112000224,2.6682051282051282,0.7986080586080586,1.4134798534798534
4.059810134000145,2.6682051282051282,0.7986080586080586,1.4134798534798534
4.0614306240004225,2.6682051282051282,0.7986080586080586,1.4134798534798534
4.065094368001155,2.6682051282051282,0.7986080586080586,1.4134798534798534
4.0702881130000605,2.6682051282051282,0.7986080586080586,1.4134798534798534
4.076292147999993,2.6682051282051282,0.7986080586080586,1.4134798534798534
4.08015244499984,2.6682051282051282,0.7986080586080586,1.4134798534798534
4.08450989999983,2.6682051282051282,0.7986080586080586,1.4134798534798534
4.0861081020011625,2.6682051282051282,0.7986080586080586,1.4134798534798534
4.0953649200000655,2.6682051282051282,0.7986080586080586,1.4134798534798534
4.100591454000096,2.706080586080586,0.6962637362637363,1.2506959706959706
4.103369874999771,2.706080586080586,0.6962637362637363,1.2506959706959706
4.112540898000589,2.706080586080586,0.6962637362637363,1.2506959706959706
4.117994456000815,2.706080586080586,0.6962637362637363,1.2506959706959706
4.1196247010011575,2.706080586080586,0.6962637362637363,1.2506959706959706
4.125985484000921,2.706080586080586,0.6962637362637363,1.2506959706959706
4.129287433001082,2.7326739926739925,0.7526739926739926,1.423956043956044
4.130204166000112,2.7326739926739925,0.7526739926739926,1.423956043956044
4.131131914000434,2.7326739926739925,0.7526739926739926,1.423956043956044
4.1326867879997735,2.7326739926739925,0.7526739926739926,1.423956043956044
4.136359006999555,2.7326739926739925,0.7526739926739926,1.423956043956044
4.136491373999888,2.7326739926739925,0.7526739926739926,1.423956043956044
4.14515206500073,2.7326739926739925,0.7526739926739926,1.423956043956044
4.149636295000164,2.7326739926739925,0.7526739926739926,1.423956043956044
4.15112906000104,2.7326739926739925,0.7526739926739926,1.423956043956044
4.155589174000852,2.7326739926739925,0.7526739926739926,1.423956043956044
4.155966645999797,3.3,0.27802197802197803,0.6688644688644688
4.161829847000263,3.3,0.27802197802197803,0.6688644688644688
4.167469792000702,2.6657875457875457,0.5600732600732601,0.9742857142857142
4.167847586000789,2.6657875457875457,0.5600732600732601,0.9742857142857142
4.176927941000031,2.6657875457875457,0.5600732600732601,0.9742857142857142
4.181350193000981,2.6657875457875457,0.5600732600732601,0.9742857142857142
4.182441455999651,2.6657875457875457,0.5600732600732601,0.9742857142857142
4.1833355050002865,2.6657875457875457,0.5600732600732601,0.9742857142857142
4.185080266999648,2.6657875457875457,0.5600732600732601,0.9742857142857142
4.187649796000187,2.6649816849816848,0.37875457875457874,0.7663736263736264
4.195490059999429,3.3,0.3078388278388278,0.5205860805860806
4.200718998999946,3.3,0.3078388278388278,0.5205860805860806
4.205557270999634,3.3,0.3078388278388278,0.5205860805860806
4.213927251001223,3.3,0.3078388278388278,0.5205860805860806
4.221093374000702,2.6545054945054947,0.17809523809523808,0.27882783882783885
4.2274496919999365,2.6762637362637363,0.4174358974358974,0.7897435897435897
4.2313358030005475,2.6762637362637363,0.4174358974358974,0.7897435897435897
4.235683185001108,2.6762637362637363,0.4174358974358974,0.7897435897435897
4.237483054999757,2.681098901098901,0.42468864468864465,0.7712087912087912
4.243046577001223,2.681098901098901,0.42468864468864465,0.7712087912087912
4.243201044000671,2.681098901098901,0.42468864468864465,0.7712087912087912
4.248596542000087,2.681098901098901,0.42468864468864465,0.7712087912087912
4.250901322000573,2.681098901098901,0.42468864468864465,0.7712087912087912
4.251121041999795,2.6536996336996337,0.17406593406593407,0.2957509157509157
4.25878707099946,2.6536996336996337,0.17406593406593407,0.2957509157509157
4.264293289999841,2.6536996336996337,0.17406593406593407,0.2957509157509157
4.264562418000423,2.6536996336996337,0.17406593406593407,0.2957509157509157
4.273234854001203,2.6536996336996337,0.17406593406593407,0.2957509157509157
4.280593757999668,2.706886446886447,1.012967032967033,1.779340659340659
4.284434056000464,3.012307692307692,0.6326007326007326,0.7808791208791208
4.2924648099997285,3.012307692307692,0.6326007326007326,0.7808791208791208
4.296337792000486,3.3,0.21516483516483517,0.5729670329670329
4.3020584040004906,2.706886446886447,1.0073260073260073,1.7535531135531135
4.313332775000163,2.706886446886447,1.0073260073260073,1.7535531135531135
4.322238394999658,2.706886446886447,1.0073260073260073,1.7535531135531135
4.328363274000367,2.706886446886447,1.0073260073260073,1.7535531135531135
4.333497178000471,2.706886446886447,1.0073260073260073,1.7535531135531135
4.337191332000657,2.706886446886447,1.0073260073260073,1.7535531135531135
4.343448802999774,2.706886446886447,1.0073260073260073,1.7535531135531135
4.347175070000958,2.66014652014652,0.44080586080586076,0.7188278388278388
4.352230796001095,2.66014652014652,0.44080586080586076,0.7188278388278388
4.358091067000714,2.66014652014652,0.44080586080586076,0.7188278388278388
4.36361166000097,2.66014652014652,0.44080586080586076,0.7188278388278388
4.364483972000016,2.66014652014652,0.44080586080586076,0.7188278388278388
4.366083327000524,2.66014652014652,0.44080586080586076,0.7188278388278388
4.3699907019999955,2.66014652014652,0.44080586080586076,0.7188278388278388
4.376906079000037,2.66014652014652,0.44080586080586076,0.7188278388278388
4.380637383001158,2.66014652014652,0.44080586080586076,0.7188278388278388
4.385838538000826,2.66014652014652,0.44080586080586076,0.7188278388278388
4.389682803999676,2.66014652014652,0.44080586080586076,0.7188278388278388
4.395364788000734,2.66014652014652,0.44080586080586076,0.7188278388278388
4.3955069620005816,2.66014652014652,0.44080586080586076,0.7188278388278388
4.4003835980001895,2.66014652014652,0.44080586080586076,0.7188278388278388
4.4004933390006045,2.66014652014652,0.44080586080586076,0.7188278388278388
4.408840281999801,2.66014652014652,0.44080586080586076,0.7188278388278388
4.414889054000014,2.66014652014652,0.44080586080586076,0.7188278388278388
4.419463727999755,2.66014652014652,0.44080586080586076,0.7188278388278388
4.419655118999799,2.66014652014652,0.44080586080586076,0.7188278388278388
4.430387639000401,2.66014652014652,0.44080586080586076,0.7188278388278388
4.440336118001142,2.66014652014652,0.44080586080586076,0.7188278388278388
4.45013417500013,2.705274725274725,0.8743589743589744,1.6431501831501831
4.459547186001146,3.3,0.016923076923076923,0.31750915750915754
4.464590981000583,3.3,0.44080586080586076,1.0186080586080586
4.470884317001037,3.3,0.44080586080586076,1.0186080586080586
4.478180190000785,3.3,0.44080586080586076,1.0186080586080586
4.483323251000911,3.3,0.44080586080586076,1.0186080586080586
4.48544919699998,2.6649816849816848,0.7405860805860806,1.3425641025641024
4.487046055999599,2.6649816849816848,0.7405860805860806,1.3425641025641024
4.492182645999492,2.6649816849816848,0.7405860805860806,1.3425641025641024
4.494051391000539,2.6649816849816848,0.7405860805860806,1.3425641025641024
4.49564244999965,2.6649816849816848,0.7405860805860806,1.3425641025641024
4.500178427000719,2.6649816849816848,0.7405860805860806,1.3425641025641024
4.500979614000244,3.3,0.7115750915750916,1.187032967032967
4.502465141000357,3.3,0.7115750915750916,1.187032967032967
4.510710749000282,3.3,0.7115750915750916,1.187032967032967
4.515927324000586,3.3,0.7115750915750916,1.187032967032967
4.517513382001198,3.3,0.7115750915750916,1.187032967032967
4.522513211000842,3.3,0.7115750915750916,1.187032967032967
4.528322219000984,2.747985347985348,0.4222710622710622,0.697069597069597
4.532098613000926,2.747985347985348,0.4222710622710622,0.697069597069597
4.536513467999612,2.747985347985348,0.4222710622710622,0.697069597069597
4.539052543999787,2.747985347985348,0.4222710622710622,0.697069597069597
4.5443820860000415,2.747985347985348,0.4222710622710622,0.697069597069597
4.546877079999831,2.747985347985348,0.4222710622710622,0.697069597069597
4.5469939859995065,2.747985347985348,0.4222710622710622,0.697069597069597
4.552144770999803,2.747985347985348,0.4222710622710622,0.697069597069597
4.556243803001053,2.747985347985348,0.4222710622710622,0.697069597069597
4.560549613999683,2.747985347985348,0.4222710622710622,0.697069597069597
4.561456785000701,2.747985347985348,0.4222710622710622,0.697069597069597
4.562345778000235,2.747985347985348,0.4222710622710622,0.697069597069597
4.563949016999686,2.747985347985348,0.4222710622710622,0.697069597069597
4.567706335999901,2.747985347985348,0.4222710622710622,0.697069597069597
4.575185916000919,3.3,0.913040293040293,0.5479853479853479
4.580634624000595,3.3,0.913040293040293,0.5479853479853479
4.58094036500006,3.3,0.913040293040293,0.5479853479853479
4.585246951999579,3.3,0.913040293040293,0.5479853479853479
4.586928464001176,2.6665934065934067,0.46417582417582415,0.7905494505494506
4.594177896000474,3.3,0.7494505494505495,0.6043956043956044
4.598489277999761,3.3,0.7494505494505495,0.6043956043956044
4.600187956999434,3.3,0.7494505494505495,0.6043956043956044
4.603927195999859,3.3,0.7494505494505495,0.6043956043956044
4.611921912999605,2.250769230769231,0.3199267399267399,0.2594871794871795
4.616276144000949,2.6536996336996337,0.38358974358974357,0.726080586080586
4.618576363000102,2.6536996336996337,0.38358974358974357,0.726080586080586
4.619442287999846,2.6536996336996337,0.38358974358974357,0.726080586080586
4.623276923000958,2.6536996336996337,0.38358974358974357,0.726080586080586
4.627669616000276,2.6536996336996337,0.38358974358974357,0.726080586080586
4.6278769910004485,2.6536996336996337,0.38358974358974357,0.726080586080586
4.632841697999538,3.3,1.0516483516483515,0.5173626373626373
4.637351565999779,3.3,1.0516483516483515,0.5173626373626373
4.63836881700081,3.3,0.07897435897435898,0.1265201465201465
4.639439996000874,3.3,0.07897435897435898,0.1265201465201465
4.639800988999923,3.3,0.07897435897435898,0.1265201465201465
4.646520942000279,3.3,0.07897435897435898,0.1265201465201465
4.650156374000289,3.3,0.07897435897435898,0.1265201465201465
4.656706716999906,3.3,0.8356776556776556,0.5745787545787545
4.662736833000963,3.3,0.8356776556776556,0.5745787545787545
4.66622261700104,3.3,0.9936263736263735,0.8542124542124543
4.666451566999967,3.3,0.9936263736263735,0.8542124542124543
4.672630746001232,3.3,0.9936263736263735,0.8542124542124543
4.675995376001083,3.3,0.9936263736263735,0.8542124542124543
4.676162351999665,3.3,0.9936263736263735,0.8542124542124543
4.680725721000272,3.3,0.9936263736263735,0.8542124542124543
4.682320877000166,3.3,0.9936263736263735,0.8542124542124543
4.685981189999438,3.3,0.9936263736263735,0.8542124542124543
4.693682110000736,3.3,0.9936263736263735,0.8542124542124543
4.698184024000511,3.3,0.9936263736263735,0.8542124542124543
4.699035981000634,3.3,0.9936263736263735,0.8542124542124543
4.700579112999549,3.3,0.9936263736263735,0.8542124542124543
4.70582929900047,3.3,0.9936263736263735,0.8542124542124543
4.708246676000272,3.3,0.9936263736263735,0.8542124542124543
4.715384352999536,3.3,0.9936263736263735,0.8542124542124543
4.719799630000125,3.3,0.9936263736263735,0.8542124542124543
4.721121460001086,3.3,0.9936263736263735,0.8542124542124543
4.721571927000696,3.3,0.9936263736263735,0.8542124542124543
4.72534691600049,3.3,0.9936263736263735,0.8542124542124543
4.728462015000332,3.3,0.9936263736263735,0.8542124542124543
4.730768823001199,3.3,0.9936263736263735,0.8542124542124543
4.731003058001079,3.3,0.9936263736263735,0.8542124542124543
4.735575312999572,3.3,0.9936263736263735,0.8542124542124543
4.735869957999967,3.3,0.9936263736263735,0.8542124542124543
4.742380089999642,3.3,0.9936263736263735,0.8542124542124543
4.745395256999473,3.3,0.9936263736263735,0.8542124542124543
4.748363751999932,3.3,0.9936263736263735,0.8542124542124543
4.7513953400011815,3.3,0.9936263736263735,0.8542124542124543
4.753691539999636,3.3,0.9936263736263735,0.8542124542124543
4.753923907999706,3.3,0.9936263736263735,0.8542124542124543
4.7604288080001425,3.3,0.9936263736263735,0.8542124542124543
4.7645207090008626,3.3,0.9057875457875458,0.838095238095238
4.767632822000451,2.6802930402930403,0.4553113553113553,0.7792673992673992
4.769904908000171,2.6802930402930403,0.4553113553113553,0.7792673992673992
4.771093594999911,2.6802930402930403,0.4553113553113553,0.7792673992673992
4.778217713999766,2.6802930402930403,0.4553113553113553,0.7792673992673992
4.782775821000541,2.6802930402930403,0.4553113553113553,0.7792673992673992
4.783717557000273,2.6802930402930403,0.4553113553113553,0.7792673992673992
4.784621179000169,2.6802930402930403,0.4553113553113553,0.7792673992673992
4.786144271000012,2.6802930402930403,0.4553113553113553,0.7792673992673992
4.792392493000079,2.6802930402930403,0.4553113553113553,0.7792673992673992
4.795450114001142,2.6585347985347987,0.1386080586080586,0.38036630036630037
4.79768047700054,2.6585347985347987,0.1386080586080586,0.38036630036630037
4.797991458000979,2.6585347985347987,0.1386080586080586,0.38036630036630037
4.80325788600021,2.6585347985347987,0.1386080586080586,0.38036630036630037
4.8062505460002285,2.6585347985347987,0.1386080586080586,0.38036630036630037
4.809765490001155,2.6585347985347987,0.1386080586080586,0.38036630036630037
4.80991412900039,3.3,0.09670329670329669,0.35135531135531134
4.81506261100003,3.3,0.09670329670329669,0.35135531135531134
4.818439902001046,3.3,0.09670329670329669,0.35135531135531134
4.819237222000083,3.3,0.09670329670329669,0.35135531135531134
4.821709611000188,3.3,0.09670329670329669,0.35135531135531134
4.822053981000863,3.3,0.09670329670329669,0.35135531135531134
4.826650113000142,3.3,0.09670329670329669,0.35135531135531134
4.826840621999509,3.3,0.3449084249084249,0.6084249084249085
4.831929578000199,3.3,0.3449084249084249,0.6084249084249085
4.835596152001017,3.3,0.3449084249084249,0.6084249084249085
4.835763553001016,3.3,0.3449084249084249,0.6084249084249085
4.843806738999774,2.6746520146520147,0.32395604395604394,0.5794139194139193
4.84881223100092,3.3,0.6728937728937728,0.8332600732600732
4.852536127000349,3.3,1.0194139194139193,0.49721611721611714
4.864264063000519,3.3,1.0194139194139193,0.49721611721611714
4.874147123000512,2.71010989010989,0.7873260073260073,1.5424175824175823
4.880013052999857,2.71010989010989,0.7873260073260073,1.5424175824175823
4.887480471999879,3.075970695970696,0.6922344322344323,1.1636630036630036
4.892580510000698,3.075970695970696,0.6922344322344323,1.1636630036630036
4.894938371000535,3.075970695970696,0.6922344322344323,1.1636630036630036
4.895119879000049,2.6714285714285713,0.9533333333333331,1.6109157509157508
4.899599774000308,2.6714285714285713,0.9533333333333331,1.6109157509157508
4.8999337580007705,1.6238095238095236,0.5745787545787545,0.8953113553113552
4.907594170001175,1.6238095238095236,0.5745787545787545,0.8953113553113552
4.9132402510003885,1.6238095238095236,0.5745787545787545,0.8953113553113552
4.921708724999917,2.614212454212454,0.045128205128205125,0.27641025641025635
4.927645382000264,2.614212454212454,0.045128205128205125,0.27641025641025635
4.933667163000791,2.614212454212454,0.045128205128205125,0.27641025641025635
4.938052196001081,2.614212454212454,0.045128205128205125,0.27641025641025635
4.939645885000573,2.748791208791209,0.4512820512820513,0.6777289377289377
4.944541126000331,2.748791208791209,0.4512820512820513,0.6777289377289377
4.949004165000588,2.748791208791209,0.4512820512820513,0.6777289377289377
4.949907299000188,2.748791208791209,0.4512820512820513,0.6777289377289377
4.951415274001192,2.748791208791209,0.4512820512820513,0.6777289377289377
4.957849595999505,2.748791208791209,0.4512820512820513,0.6777289377289377
4.963470279999456,3.3,0.20227106227106226,0.5657142857142857
4.968892438000694,3.3,0.20227106227106226,0.5657142857142857
4.972810327000843,3.3,0.20227106227106226,0.5657142857142857
4.9770076500008145,3.3,0.20227106227106226,0.5657142857142857
4.977952258001096,3.3,0.20227106227106226,0.5657142857142857
4.978857905000041,3.3,0.20227106227106226,0.5657142857142857
4.979782462000003,3.3,0.20227106227106226,0.5657142857142857
4.981953231001171,3.3,0.20227106227106226,0.5657142857142857
4.98316205500123,3.3,0.20227106227106226,0.5657142857142857
4.983341438000934,3.3,0.20227106227106226,0.5657142857142857
4.991585764000774,3.3,0.20227106227106226,0.5657142857142857
4.99911837199943,3.3,0.20227106227106226,0.5657142857142857
5.003470813000604,3.2854945054945053,0.0547985347985348,0.12974358974358974
5.005822434999573,3.3,0.4198534798534798,0.6398534798534798
5.006024528000125,3.3,0.4198534798534798,0.6398534798534798
5.011710783999661,3.3,0.4198534798534798,0.6398534798534798
5.011883309000041,3.3,0.4198534798534798,0.6398534798534798
5.017276186999879,1.9477655677655676,0.033846153846153845,0.1378021978021978
5.019457694001176,1.9477655677655676,0.033846153846153845,0.1378021978021978
5.020980954999686,1.9477655677655676,0.033846153846153845,0.1378021978021978
5.024697566001123,1.9477655677655676,0.033846153846153845,0.1378021978021978
5.024855046000084,1.9477655677655676,0.033846153846153845,0.1378021978021978
5.029910601000665,1.9477655677655676,0.033846153846153845,0.1378021978021978
5.034927980001157,1.9477655677655676,0.033846153846153845,0.1378021978021978
5.039290118000281,1.9477655677655676,0.033846153846153845,0.1378021978021978
5.041084345999479,1.9477655677655676,0.033846153846153845,0.1378021978021978
5.044243443000596,1.9477655677655676,0.033846153846153845,0.1378021978021978
5.0464958470001875,1.9477655677655676,0.033846153846153845,0.1378021978021978
5.0473015349998605,1.9477655677655676,0.033846153846153845,0.1378021978021978
5.048783831000037,1.9477655677655676,0.033846153846153845,0.1378021978021978
5.054053103000115,1.9477655677655676,0.033846153846153845,0.1378021978021978
5.056387910000922,1.9477655677655676,0.033846153846153845,0.1378021978021978
5.056557415000498,1.9477655677655676,0.033846153846153845,0.1378021978021978
5.061799048000466,1.9477655677655676,0.033846153846153845,0.1378021978021978
5.064737122000224,1.9477655677655676,0.033846153846153845,0.1378021978021978
5.068307167000967,1.9477655677655676,0.033846153846153845,0.1378021978021978
5.068481297001199,1.9477655677655676,0.033846153846153845,0.1378021978021978
5.073524818000806,1.9477655677655676,0.033846153846153845,0.1378021978021978
5.077891517999888,1.9477655677655676,0.033846153846153845,0.1378021978021978
5.080121225000767,1.9477655677655676,0.033846153846153845,0.1378021978021978
5.080483236000873,1.9477655677655676,0.033846153846153845,0.1378021978021978
5.0858975800001645,1.9477655677655676,0.033846153846153845,0.1378021978021978
5.088840103000621,1.9477655677655676,0.033846153846153845,0.1378021978021978
5.091022950000479,1.9477655677655676,0.033846153846153845,0.1378021978021978
5.091865672000495,1.9477655677655676,0.033846153846153845,0.1378021978021978
5.093741859000147,1.9477655677655676,0.033846153846153845,0.1378021978021978
5.096665346000009,1.9477655677655676,0.033846153846153845,0.1378021978021978
5.09982684500028,1.9477655677655676,0.033846153846153845,0.1378021978021978
5.102129363000131,1.9477655677655676,0.033846153846153845,0.1378021978021978
5.102345825000157,1.9477655677655676,0.033846153846153845,0.1378021978021978
5.1104138900009275,1.9477655677655676,0.033846153846153845,0.1378021978021978
5.115109387999837,3.3,0.3158974358974359,0.5326739926739926
5.115249693999431,3.3,0.3158974358974359,0.5326739926739926
5.12063056900115,3.3,0.3158974358974359,0.5326739926739926
5.126269520000278,3.3,0.3158974358974359,0.5326739926739926
5.131085388000429,3.3,0.3158974358974359,0.5326739926739926
5.138998067001012,3.3,0.3158974358974359,0.5326739926739926
5.14323887700084,2.6327472527472526,0.08622710622710622,0.4021245421245421
5.1448820309997245,2.6327472527472526,0.08622710622710622,0.4021245421245421
5.148583103000419,2.6327472527472526,0.08622710622710622,0.4021245421245421
5.148761561000356,2.6327472527472526,0.08622710622710622,0.4021245421245421
5.153961112000616,2.6327472527472526,0.08622710622710622,0.4021245421245421
5.1572056290006,2.6327472527472526,0.08622710622710622,0.4021245421245421
5.158075886000006,2.6327472527472526,0.08622710622710622,0.4021245421245421
5.159635997000805,2.6327472527472526,0.08622710622710622,0.4021245421245421
5.164389723000568,2.6327472527472526,0.08622710622710622,0.4021245421245421
5.164595350999662,2.6327472527472526,0.08622710622710622,0.4021245421245421
5.169128853000075,3.042124542124542,0.3739194139194139,0.6704761904761904
5.169397363000826,3.042124542124542,0.3739194139194139,0.6704761904761904
5.174728759000573,3.042124542124542,0.3739194139194139,0.6704761904761904
5.177349883000716,3.042124542124542,0.3739194139194139,0.6704761904761904
5.1835857719997875,3.042124542124542,0.3739194139194139,0.6704761904761904
5.189380199999505,3.042124542124542,0.3739194139194139,0.6704761904761904
5.198103443000946,2.6536996336996337,0.16117216117216115,0.3312087912087912
5.206314748000295,2.6536996336996337,0.16117216117216115,0.3312087912087912
5.2135919949996605,2.6536996336996337,0.16117216117216115,0.3312087912087912
5.217808015000628,2.6996336996336994,0.8985347985347985,0.5044688644688645
5.220345222000105,2.664175824175824,0.21032967032967032,0.4029304029304029
5.228978651999569,2.6698168498168497,0.7599267399267399,1.4046153846153846
5.2352229860007355,2.6698168498168497,0.7599267399267399,1.4046153846153846
5.241332441999475,3.3,0.03304029304029304,0.2635164835164835
5.245538684001076,3.3,0.03304029304029304,0.2635164835164835
5.2470842950006045,3.3,0.03304029304029304,0.2635164835164835
5.254359242000646,3.3,0.03304029304029304,0.2635164835164835
5.258861779000654,2.465128205128205,0.02901098901098901,0.2232234432234432
5.259060571999726,2.465128205128205,0.02901098901098901,0.2232234432234432
5.267901402999996,2.465128205128205,0.02901098901098901,0.2232234432234432
5.273375374999887,2.465128205128205,0.02901098901098901,0.2232234432234432
5.274831751999955,2.465128205128205,0.02901098901098901,0.2232234432234432
5.28358349500013,2.465128205128205,0.02901098901098901,0.2232234432234432
5.288913528000194,2.465128205128205,0.02901098901098901,0.2232234432234432
5.290906733000156,2.655311355311355,0.3586080586080586,0.66
5.293891965000512,2.655311355311355,0.3586080586080586,0.66
5.295419603000482,2.655311355311355,0.3586080586080586,0.66
5.299798275000285,2.655311355311355,0.3586080586080586,0.66
5.30065538800045,2.655311355311355,0.3586080586080586,0.66
5.302183309000611,2.655311355311355,0.3586080586080586,0.66
5.306669816000067,2.6609523809523807,0.5109157509157509,0.9033699633699634
5.308330527999715,3.3,0.3199267399267399,0.5246153846153846
5.311318594000113,3.3,0.3199267399267399,0.5246153846153846
5.314367581000624,3.3,0.3199267399267399,0.5246153846153846
5.3166190320007445,3.3,0.3199267399267399,0.5246153846153846
5.3168615470003715,3.3,0.0701098901098901,0.11926739926739927
5.322063830999468,3.3,0.0701098901098901,0.11926739926739927
5.325933484000416,2.6682051282051282,0.43999999999999995,0.7462271062271062
5.330317850000938,2.697216117216117,0.36747252747252745,0.7059340659340658
5.3312846290009475,2.697216117216117,0.36747252747252745,0.7059340659340658
5.3322343720010394,2.697216117216117,0.36747252747252745,0.7059340659340658
5.33379996900112,2.697216117216117,0.36747252747252745,0.7059340659340658
5.338983124000151,2.697216117216117,0.36747252747252745,0.7059340659340658
5.343065500001103,2.697216117216117,0.36747252747252745,0.7059340659340658
5.347771263999675,2.697216117216117,0.36747252747252745,0.7059340659340658
5.352766992000397,2.697216117216117,0.36747252747252745,0.7059340659340658
5.358724611000071,2.697216117216117,0.36747252747252745,0.7059340659340658
5.365881720999823,2.111355311355311,0.09267399267399268,0.2715750915750916
5.372184223000659,2.111355311355311,0.09267399267399268,0.2715750915750916
5.377206000999649,3.3,0.8775824175824175,0.5713553113553113
5.380838123001013,2.7084981684981684,0.9299633699633699,1.6568498168498167
5.386736935000954,2.7084981684981684,0.9299633699633699,1.6568498168498167
5.392784888001188,2.7084981684981684,0.9299633699633699,1.6568498168498167
5.395854364000115,2.7084981684981684,0.9299633699633699,1.6568498168498167
5.398421705000146,2.7084981684981684,0.9299633699633699,1.6568498168498167
5.403785477999918,2.7084981684981684,0.9299633699633699,1.6568498168498167
5.407383773001129,2.7084981684981684,0.9299633699633699,1.6568498168498167
5.41223920000084,2.66014652014652,0.4383882783882784,0.8252014652014652
5.4193453950010735,2.66014652014652,0.4383882783882784,0.8252014652014652
5.427023784000994,2.66014652014652,0.4383882783882784,0.8252014652014652
5.4320205969997915,2.66014652014652,0.4383882783882784,0.8252014652014652
5.434951743000056,2.66014652014652,0.4383882783882784,0.8252014652014652
5.4403943970010005,2.66014652014652,0.4383882783882784,0.8252014652014652
5.4406773959999555,2.66014652014652,0.4383882783882784,0.8252014652014652
5.445304369999576,2.66014652014652,0.4383882783882784,0.8252014652014652
5.445503173999896,2.66014652014652,0.4383882783882784,0.8252014652014652
5.450197337000645,2.66014652014652,0.4383882783882784,0.8252014652014652
5.455879058999926,2.66014652014652,0.4383882783882784,0.8252014652014652
5.457852944000479,2.718168498168498,0.4585347985347985,0.9339926739926739
5.459525076001228,2.718168498168498,0.4585347985347985,0.9339926739926739
5.4620360620010615,2.718168498168498,0.4585347985347985,0.9339926739926739
5.4673363260008045,2.718168498168498,0.4585347985347985,0.9339926739926739
5.469993431999683,2.718168498168498,0.4585347985347985,0.9339926739926739
5.477361068000391,2.6504761904761907,0.1813186813186813,0.32798534798534795
5.4822949310000695,2.6504761904761907,0.1813186813186813,0.32798534798534795
5.489830640000946,2.6504761904761907,0.1813186813186813,0.32798534798534795
5.493554460999803,2.6504761904761907,0.1813186813186813,0.32798534798534795
5.49857265799983,2.6504761904761907,0.1813186813186813,0.32798534798534795
5.502474996999808,2.6504761904761907,0.1813186813186813,0.32798534798534795
5.510550115001024,2.6504761904761907,0.1813186813186813,0.32798534798534795
5.515514201000769,3.3,1.0097435897435898,0.518974358974359
5.521572490000835,3.3,1.0097435897435898,0.518974358974359
5.525185501999658,2.698827838827839,0.7083516483516483,1.3482051282051282
5.529643895000845,2.698827838827839,0.7083516483516483,1.3482051282051282
5.530602525999711,2.698827838827839,0.7083516483516483,1.3482051282051282
5.5309576479994575,2.698827838827839,0.7083516483516483,1.3482051282051282
5.535388431000683,2.698827838827839,0.7083516483516483,1.3482051282051282
5.537515318001169,2.710915750915751,0.9839560439560439,1.843003663003663
5.5389606339995225,2.710915750915751,0.9839560439560439,1.843003663003663
5.544191643999511,2.710915750915751,0.9839560439560439,1.843003663003663
5.546695027000169,1.5956043956043955,0.19904761904761903,0.1813186813186813
5.552081490001001,1.5956043956043955,0.19904761904761903,0.1813186813186813
5.555207117000464,1.5956043956043955,0.19904761904761903,0.1813186813186813
5.555716011000186,1.5956043956043955,0.19904761904761903,0.1813186813186813
5.561534628999652,1.5956043956043955,0.19904761904761903,0.1813186813186813
5.569180426000457,1.5956043956043955,0.19904761904761903,0.1813186813186813
5.576906389000214,1.5956043956043955,0.19904761904761903,0.1813186813186813
5.579965491000621,2.71010989010989,1.016996336996337,1.863150183150183
5.582283895000728,2.71010989010989,1.016996336996337,1.863150183150183
5.582552881000083,2.71010989010989,1.016996336996337,1.863150183150183
5.5879557309999655,2.71010989010989,1.016996336996337,1.863150183150183
5.590472420999504,2.71010989010989,1.016996336996337,1.863150183150183
5.595269265000752,3.3,0.9758974358974358,0.5350915750915751
5.599748925000313,3.3,0.9758974358974358,0.5350915750915751
5.601275291001002,3.3,0.9758974358974358,0.5350915750915751
5.6078767710005195,3.3,0.9758974358974358,0.5350915750915751
5.6114726600008,3.3,0.942051282051282,0.4762637362637362
5.6167202340002405,3.3,0.942051282051282,0.4762637362637362
5.619219076999798,1.9493772893772894,0.22564102564102564,0.46417582417582415
5.630492676000358,1.9493772893772894,0.22564102564102564,0.46417582417582415
5.635711746001107,3.3,0.303003663003663,0.5117216117216117
5.640175063001152,3.3,0.303003663003663,0.5117216117216117
5.64051878600003,3.3,0.303003663003663,0.5117216117216117
5.645253423001122,3.3,0.303003663003663,0.5117216117216117
5.650503655000648,3.3,0.303003663003663,0.5117216117216117
5.65567660600027,3.3,0.303003663003663,0.5117216117216117
5.6586537700004556,3.3,0.303003663003663,0.5117216117216117
5.660262282000986,3.3,0.303003663003663,0.5117216117216117
5.664928960999532,3.3,0.303003663003663,0.5117216117216117
5.665037815000687,3.3,0.303003663003663,0.5117216117216117
5.670548985001005,3.3,0.303003663003663,0.5117216117216117
5.67243622299975,3.3,0.303003663003663,0.5117216117216117
5.677364428000146,3.3,0.303003663003663,0.5117216117216117
5.679702112000086,3.3,0.303003663003663,0.5117216117216117
5.679927957000473,3.3,0.303003663003663,0.5117216117216117
5.688058010000532,3.3,0.303003663003663,0.5117216117216117
5.6964428370010864,2.709304029304029,0.7309157509157509,1.411062271062271
5.704243653999583,2.706886446886447,1.0387545787545787,1.9034432234432233
5.7132028870000795,2.706886446886447,1.0387545787545787,1.9034432234432233
5.7196977180010435,1.5617582417582416,0.09025641025641025,0.20227106227106226
5.725882786000511,1.9348717948717948,0.25545787545787546,0.5600732600732601
5.728990014000374,3.3,0.29010989010989013,0.4657875457875458
5.730627622000611,3.3,0.29010989010989013,0.4657875457875458
5.735012930999801,3.3,0.11604395604395604,0.3545787545787546
5.736608471999716,2.6682051282051282,0.7776556776556776,1.3578754578754577
5.741691489000004,2.6682051282051282,0.7776556776556776,1.3578754578754577
5.745339229999445,2.86,0.47465201465201456,0.772014652014652
5.753809292000369,2.86,0.47465201465201456,0.772014652014652
5.760648671999661,3.3,0.1241025641025641,0.3706959706959707
5.766148537000845,3.3,0.1241025641025641,0.3706959706959707
5.766389952001191,3.3,0.1241025641025641,0.3706959706959707
5.775562107000951,3.3,0.1241025641025641,0.3706959706959707
5.780052641001021,3.3,0.1241025641025641,0.3706959706959707
5.781205564000629,3.3,0.1241025641025641,0.3706959706959707
5.786671874000604,3.3,0.1241025641025641,0.3706959706959707
5.79168944400044,2.6609523809523807,0.3997069597069597,0.8123076923076923
5.793953955000688,3.1968498168498165,0.006446886446886447,0.28527472527472525
5.79431523600033,3.1968498168498165,0.006446886446886447,0.28527472527472525
5.7998272990007536,3.1968498168498165,0.006446886446886447,0.28527472527472525
5.800370094000755,2.739120879120879,0.4545054945054945,0.9033699633699634
5.8048194570001215,2.739120879120879,0.4545054945054945,0.9033699633699634
5.80502982300095,2.6706227106227107,0.6132600732600733,1.1676923076923076
5.811121623000872,2.6706227106227107,0.6132600732600733,1.1676923076923076
5.814852563000386,3.0485714285714285,0.18615384615384614,0.4810989010989011
5.820154999999431,3.0485714285714285,0.18615384615384614,0.4810989010989011
5.824064377000468,2.6633699633699632,0.73010989010989,1.3336996336996336
5.827081071000066,1.5851282051282052,0.20468864468864467,0.1652014652014652
5.8300399700001435,1.5851282051282052,0.20468864468864467,0.1652014652014652
5.832918539001184,3.3,1.0685714285714285,0.5286446886446886
5.836938845999612,3.3,1.0685714285714285,0.5286446886446886
5.840961232001064,3.3,1.0685714285714285,0.5286446886446886
5.84342413900049,3.3,1.0685714285714285,0.5286446886446886
5.848667792000924,2.731062271062271,0.7438095238095238,1.3538461538461537
5.851658023000709,3.3,0.2756043956043956,0.40937728937728934
5.855439548000504,3.3,0.2756043956043956,0.40937728937728934
5.860995070001081,3.3,0.2756043956043956,0.40937728937728934
5.861142249001205,3.3,0.2756043956043956,0.40937728937728934
5.8663511449994985,3.3,0.2756043956043956,0.40937728937728934
5.8693108090010355,3.3,0.2756043956043956,0.40937728937728934
5.874212463000731,3.3,0.2756043956043956,0.40937728937728934
5.877324088000023,3.3,0.2756043956043956,0.40937728937728934
5.879661983000915,3.3,0.2756043956043956,0.40937728937728934
5.879855864999627,3.3,0.2756043956043956,0.40937728937728934
5.885071921000417,3.3,0.2756043956043956,0.40937728937728934
5.88877833100014,3.3,0.2756043956043956,0.40937728937728934
5.895002717999887,3.3,0.2756043956043956,0.40937728937728934
5.898916056999951,3.3,0.2756043956043956,0.40937728937728934
5.904181686000811,3.3,0.2756043956043956,0.40937728937728934
5.908166975999848,2.6617582417582417,0.49802197802197795,0.8719413919413919
5.911277148999943,2.6617582417582417,0.49802197802197795,0.8719413919413919
5.91347511999993,2.6617582417582417,0.49802197802197795,0.8719413919413919
5.914282429001105,2.6617582417582417,0.49802197802197795,0.8719413919413919
5.915918419001173,2.6617582417582417,0.49802197802197795,0.8719413919413919
5.920563184999992,2.6617582417582417,0.49802197802197795,0.8719413919413919
5.921021956000914,2.6617582417582417,0.49802197802197795,0.8719413919413919
5.928283045999706,2.6617582417582417,0.49802197802197795,0.8719413919413919
5.932110269000987,2.6617582417582417,0.49802197802197795,0.8719413919413919
5.936581773999933,2.6617582417582417,0.49802197802197795,0.8719413919413919
5.938122563000434,2.6617582417582417,0.49802197802197795,0.8719413919413919
5.944597294999767,2.6617582417582417,0.49802197802197795,0.8719413919413919
5.948238281000158,2.6617582417582417,0.49802197802197795,0.8719413919413919
5.953639252000357,2.6617582417582417,0.49802197802197795,0.8719413919413919
5.957674863000648,2.7383150183150184,0.8292307692307692,1.843003663003663
5.959528043000319,2.7383150183150184,0.8292307692307692,1.843003663003663
5.96178319899991,2.6673992673992672,0.5294505494505495,1.1435164835164835
5.962068638000346,2.6673992673992672,0.5294505494505495,1.1435164835164835
5.96719478399973,2.6673992673992672,0.5294505494505495,1.1435164835164835
