time,emg1,emg2,emg3
0.0008039160002226708,2.709304029304029,0.6043956043956044,1.6254212454212453
0.0037663040002371417,2.709304029304029,0.6043956043956044,1.6254212454212453
0.007147887999963132,2.709304029304029,0.6043956043956044,1.6254212454212453
0.027986393000901444,1.5448351648351648,0.23208791208791207,0.19663003663003664
0.040286176999870804,1.5448351648351648,0.23208791208791207,0.19663003663003664
0.04876389800119796,1.5448351648351648,0.23208791208791207,0.19663003663003664
0.054436045000329614,1.5448351648351648,0.23208791208791207,0.19663003663003664
0.05541257100048824,2.6585347985347987,0.24256410256410255,0.42630036630036633
0.05587112600005639,2.6585347985347987,0.24256410256410255,0.42630036630036633
0.06094411400044919,2.6585347985347987,0.24256410256410255,0.42630036630036633
0.06433663600000727,2.6585347985347987,0.24256410256410255,0.42630036630036633
0.06446174200027599,2.6585347985347987,0.24256410256410255,0.42630036630036633
0.06961261000105878,2.6585347985347987,0.24256410256410255,0.42630036630036633
0.07379644499997084,2.6585347985347987,0.24256410256410255,0.42630036630036633
0.07559586600109469,2.6585347985347987,0.24256410256410255,0.42630036630036633
0.07838121300119383,2.6673992673992672,1.3038827838827838,1.7414652014652015
0.08401134199993976,2.6673992673992672,1.3038827838827838,1.7414652014652015
0.0842955450007139,3.2548717948717947,1.0347252747252746,1.3893040293040293
0.09183810300055484,3.2548717948717947,1.0347252747252746,1.3893040293040293
0.09952617300041311,2.6956043956043954,1.365128205128205,0.6962637362637363
0.10465328700047394,2.66014652014652,0.224029304029304,0.4391941391941392
0.10684807500001625,2.66014652014652,0.224029304029304,0.4391941391941392
0.10712257200066233,2.66014652014652,0.224029304029304,0.4391941391941392
0.11465573799978301,2.66014652014652,0.224029304029304,0.4391941391941392
0.12206169000091904,3.3,1.5303296703296703,0.6882051282051282
0.12727561500105367,3.3,1.5303296703296703,0.6882051282051282
0.12886448400058725,3.3,1.5303296703296703,0.6882051282051282
0.13808001300094475,3.3,1.5303296703296703,0.6882051282051282
0.1450395740012027,3.3,1.5303296703296703,0.6882051282051282
0.15049535500111233,3.3,1.5303296703296703,0.6882051282051282
0.15076424200015026,3.3,1.5303296703296703,0.6882051282051282
0.15978383400033636,3.3,1.5303296703296703,0.6882051282051282
0.16732728600072733,2.713333333333333,1.0403663003663002,1.6576556776556775
0.1731971879999037,2.4385347985347985,0.2747985347985348,0.26593406593406593
0.17984586500097066,2.125860805860806,0.06688644688644689,0.17648351648351646
0.18434298200008925,2.125860805860806,0.06688644688644689,0.17648351648351646
0.18955425199965248,2.125860805860806,0.06688644688644689,0.17648351648351646
0.19347879599990847,2.6585347985347987,0.5447619047619047,0.6833699633699634
0.20038276800005406,2.8616117216117214,0.14344322344322344,0.33604395604395604
0.20804280800075503,2.8616117216117214,0.14344322344322344,0.33604395604395604
0.2124023530013801,2.673040293040293,1.0057142857142858,1.415091575091575
0.21264386599978025,2.673040293040293,1.0057142857142858,1.415091575091575
0.21836489000088477,2.673040293040293,1.0057142857142858,1.415091575091575
0.21853097200073535,2.7342857142857144,0.8590476190476191,1.473113553113553
0.22458253399963723,2.7342857142857144,0.8590476190476191,1.473113553113553
0.2281437490000826,2.7342857142857144,0.8590476190476191,1.473113553113553
0.22830940800122335,3.3,0.4698168498168498,0.5947252747252747
0.23333984700002475,3.3,0.4698168498168498,0.5947252747252747
0.23806463999972038,2.5360439560439563,0.033846153846153845,0.19824175824175824
0.23830315200029872,2.7117216117216114,0.7381684981684982,1.2192673992673992
0.2433048510010849,2.7117216117216114,0.7381684981684982,1.2192673992673992
0.24708762600130285,2.7117216117216114,0.7381684981684982,1.2192673992673992
0.25145433400030015,2.7117216117216114,0.7381684981684982,1.2192673992673992
0.2530064450002101,2.7117216117216114,0.7381684981684982,1.2192673992673992
0.25993267000012565,2.7117216117216114,0.7381684981684982,1.2192673992673992
0.26327547900109494,2.7117216117216114,0.7381684981684982,1.2192673992673992
0.26483334499971534,2.7117216117216114,0.7381684981684982,1.2192673992673992
0.26951427700078057,2.7117216117216114,0.7381684981684982,1.2192673992673992
0.2769695030001458,2.7117216117216114,0.7381684981684982,1.2192673992673992
0.282118201999765,2.7117216117216114,1.1161172161172161,1.7156776556776556
0.2844320290005271,2.7117216117216114,1.1161172161172161,1.7156776556776556
0.28469277400108695,2.6746520146520147,0.6946520146520146,0.9541391941391941
0.28947768900070514,2.6746520146520147,0.6946520146520146,0.9541391941391941
0.2897865310005727,2.6746520146520147,0.6946520146520146,0.9541391941391941
0.29523901700122224,2.6746520146520147,0.6946520146520146,0.9541391941391941
0.2954951789997722,3.3,0.19743589743589743,0.3231501831501831
0.30107665000105044,3.3,0.19743589743589743,0.3231501831501831
0.3019734839999728,3.3,0.19743589743589743,0.3231501831501831
0.3028516710000986,3.3,0.19743589743589743,0.3231501831501831
0.30449921200124663,3.3,0.19743589743589743,0.3231501831501831
0.3095010650013137,3.3,0.19743589743589743,0.3231501831501831
0.3128476159999991,3.3,0.19743589743589743,0.3231501831501831
0.31443507200128806,3.3,0.19743589743589743,0.3231501831501831
0.31816690400046355,3.3,0.19743589743589743,0.3231501831501831
0.3274829399997543,3.3,0.19743589743589743,0.3231501831501831
0.3338356180011033,3.3,0.19743589743589743,0.3231501831501831
0.3398073660009686,2.752014652014652,0.026593406593406595,0.21032967032967032
0.34493680500054325,2.752014652014652,0.026593406593406595,0.21032967032967032
0.3466441960008524,2.752014652014652,0.026593406593406595,0.21032967032967032
0.34982527600004687,2.66014652014652,0.5657142857142857,0.8389010989010988
0.35145365100106574,2.66014652014652,0.5657142857142857,0.8389010989010988
0.3557017889997951,2.66014652014652,0.5657142857142857,0.8389010989010988
0.35946857500130136,2.66014652014652,0.5657142857142857,0.8389010989010988
0.36280100400108495,2.66014652014652,0.5657142857142857,0.8389010989010988
0.36313330800112453,2.66014652014652,0.5657142857142857,0.8389010989010988
0.36857229500128597,2.66014652014652,0.5657142857142857,0.8389010989010988
0.3695365439998568,3.3,0.8179487179487179,0.6503296703296703
0.37060199300140084,3.3,0.8179487179487179,0.6503296703296703
0.3720045240006584,3.3,0.8179487179487179,0.6503296703296703
0.3785873870001524,3.3,0.8179487179487179,0.6503296703296703
0.38249669800097763,3.3,0.8179487179487179,0.6503296703296703
0.3872239100001025,2.6585347985347987,0.9186813186813186,1.4223443223443224
0.39472141100122826,2.6585347985347987,0.9186813186813186,1.4223443223443224
0.3994362209996325,2.6585347985347987,0.9186813186813186,1.4223443223443224
0.4055274960010138,2.6585347985347987,0.9186813186813186,1.4223443223443224
0.41259450600045966,2.6585347985347987,0.9186813186813186,1.4223443223443224
0.4173199460001342,2.6585347985347987,0.9186813186813186,1.4223443223443224
0.4175167840003269,2.6585347985347987,0.9186813186813186,1.4223443223443224
0.42388033700080996,2.6585347985347987,0.9186813186813186,1.4223443223443224
0.4279871180006012,2.6746520146520147,0.6696703296703297,0.963003663003663
0.430527198001073,2.6746520146520147,0.6696703296703297,0.963003663003663
0.4350895280003897,2.655311355311355,0.25545787545787546,0.26754578754578756
0.4359361830011039,2.655311355311355,0.25545787545787546,0.26754578754578756
0.43760791000022436,2.655311355311355,0.25545787545787546,0.26754578754578756
0.4436817650002922,2.655311355311355,0.25545787545787546,0.26754578754578756
0.44723630100088485,2.655311355311355,0.25545787545787546,0.26754578754578756
0.4473974470001849,1.904249084249084,0.17406593406593407,0.2063003663003663
0.4523114780004107,1.904249084249084,0.17406593406593407,0.2063003663003663
0.45917683399966336,1.904249084249084,0.17406593406593407,0.2063003663003663
0.4637660799999139,2.751208791208791,1.353040293040293,1.9638827838827837
0.4639043450006284,2.751208791208791,1.353040293040293,1.9638827838827837
0.4693500760004099,2.751208791208791,1.353040293040293,1.9638827838827837
0.4702615580008569,2.751208791208791,1.353040293040293,1.9638827838827837
0.4718343750009808,2.751208791208791,1.353040293040293,1.9638827838827837
0.4787306810012524,2.751208791208791,1.353040293040293,1.9638827838827837
0.48283599500064156,2.740732600732601,1.0717948717948718,1.7237362637362637
0.4860610750001797,3.3,0.8767765567765567,1.3183882783882783
0.4878240560010454,3.3,0.8767765567765567,1.3183882783882783
0.49177650599995104,3.3,0.8767765567765567,1.3183882783882783
0.49450573200010695,3.3,0.8767765567765567,1.3183882783882783
0.49841240200112225,2.690769230769231,1.303076923076923,1.934065934065934
0.5022403760012821,2.690769230769231,1.303076923076923,1.934065934065934
0.5093794210006308,2.690769230769231,1.303076923076923,1.934065934065934
0.5134883190003166,2.492527472527472,0.24498168498168496,0.30542124542124544
0.5160237700001744,2.492527472527472,0.24498168498168496,0.30542124542124544
0.5219024560010439,2.706886446886447,1.2023443223443222,1.859120879120879
0.5285341850012628,2.6649816849816848,0.7438095238095238,1.2345787545787545
0.5324344880009448,2.6649816849816848,0.7438095238095238,1.2345787545787545
0.5370251029999054,2.6649816849816848,0.7438095238095238,1.2345787545787545
0.5372708150007384,2.6649816849816848,0.7438095238095238,1.2345787545787545
0.5441331540005194,2.6649816849816848,0.7438095238095238,1.2345787545787545
0.5481240810004238,2.6649816849816848,0.7438095238095238,1.2345787545787545
0.5519630300004792,2.6649816849816848,0.7438095238095238,1.2345787545787545
0.5584622590013169,2.6649816849816848,0.7438095238095238,1.2345787545787545
0.5623377940009959,2.6649816849816848,0.7438095238095238,1.2345787545787545
0.5663239269997575,2.6649816849816848,0.7438095238095238,1.2345787545787545
0.5700923519998469,3.1775091575091574,0.332014652014652,0.46175824175824176
0.5778998120003962,2.655311355311355,0.253040293040293,0.28446886446886444
0.5836669950003852,2.9712087912087912,0.8469597069597068,1.2974358974358973
0.5913306940001348,2.8664468864468864,0.850989010989011,0.946080586080586
0.5947357799996098,2.8664468864468864,0.850989010989011,0.946080586080586
0.5950035100013338,2.8664468864468864,0.850989010989011,0.946080586080586
0.599693128000581,2.8664468864468864,0.850989010989011,0.946080586080586
0.5999265580012434,2.8664468864468864,0.850989010989011,0.946080586080586
0.6044346569997288,2.8664468864468864,0.850989010989011,0.946080586080586
0.6048005820011895,3.3,0.42388278388278383,0.5528205128205127
0.6106692619996466,3.3,0.42388278388278383,0.5528205128205127
0.6161322970001493,3.3,0.42388278388278383,0.5528205128205127
0.6170673270007683,3.3,0.42388278388278383,0.5528205128205127
0.6186338320003415,3.3,0.42388278388278383,0.5528205128205127
0.6262430710012268,3.3,0.42388278388278383,0.5528205128205127
0.6302867240010528,3.3,0.42388278388278383,0.5528205128205127
0.6341285520011297,3.3,0.42388278388278383,0.5528205128205127
0.6410155579997081,2.0017582417582416,0.03868131868131868,0.05641025641025641
0.6457644420006545,2.0017582417582416,0.03868131868131868,0.05641025641025641
0.6503481960007775,2.0017582417582416,0.03868131868131868,0.05641025641025641
0.6511710329996276,2.0017582417582416,0.03868131868131868,0.05641025641025641
0.6527721910006221,2.0017582417582416,0.03868131868131868,0.05641025641025641
0.6609081100014009,2.0017582417582416,0.03868131868131868,0.05641025641025641
0.6650619620013458,2.0017582417582416,0.03868131868131868,0.05641025641025641
0.6674630760007858,2.0017582417582416,0.03868131868131868,0.05641025641025641
0.6676394910009549,2.0017582417582416,0.03868131868131868,0.05641025641025641
0.6737419750006666,2.0017582417582416,0.03868131868131868,0.05641025641025641
0.6813886180007103,2.0017582417582416,0.03868131868131868,0.05641025641025641
0.686049470999933,2.0017582417582416,0.03868131868131868,0.05641025641025641
0.6863473230005184,2.0017582417582416,0.03868131868131868,0.05641025641025641
0.6936060520001774,2.0017582417582416,0.03868131868131868,0.05641025641025641
0.6975492849996954,2.0017582417582416,0.03868131868131868,0.05641025641025641
0.7020239060002496,2.0017582417582416,0.03868131868131868,0.05641025641025641
0.7023052479999023,2.0017582417582416,0.03868131868131868,0.05641025641025641
0.7098454400002083,2.0017582417582416,0.03868131868131868,0.05641025641025641
0.7152565940014028,3.3,0.34007326007326005,0.4593406593406593
0.7161143740013358,2.764102564102564,0.06446886446886446,0.28769230769230764
0.7178234000002703,2.7117216117216114,1.1427106227106225,1.8397802197802198
0.7227860279999732,2.7117216117216114,1.1427106227106225,1.8397802197802198
0.7266123999997944,2.7117216117216114,1.1427106227106225,1.8397802197802198
0.7300509910000983,2.7117216117216114,1.1427106227106225,1.8397802197802198
0.7302742200008652,3.3,1.4054212454212454,0.6809523809523809
0.7346877630006929,3.3,1.4054212454212454,0.6809523809523809
0.7362453410005401,2.2088644688644687,0.06446886446886446,0.22725274725274724
0.7422111949999817,2.2088644688644687,0.06446886446886446,0.22725274725274724
0.7477579550013616,2.963150183150183,0.9920146520146519,1.365128205128205
0.7487272190010117,2.66014652014652,0.5133333333333333,0.8638827838827838
0.7502638940004545,2.66014652014652,0.5133333333333333,0.8638827838827838
0.7541430159999436,2.66014652014652,0.5133333333333333,0.8638827838827838
0.7615182990011817,2.66014652014652,0.5133333333333333,0.8638827838827838
0.7652798670005723,2.66014652014652,0.5133333333333333,0.8638827838827838
0.7708799530009856,2.66014652014652,0.5133333333333333,0.8638827838827838
0.771249429000818,2.6577289377289377,0.4964102564102564,0.8445421245421244
0.7800243199999386,2.6577289377289377,0.4964102564102564,0.8445421245421244
0.7840055950000533,2.6577289377289377,0.4964102564102564,0.8445421245421244
0.7877680729998247,2.6577289377289377,0.4964102564102564,0.8445421245421244
0.7947179800012236,2.6577289377289377,0.4964102564102564,0.8445421245421244
0.7985789989998011,2.6577289377289377,0.4964102564102564,0.8445421245421244
0.8024832400005835,2.71010989010989,0.6487179487179486,1.1580219780219778
0.8092642190003971,2.6682051282051282,0.8203663003663003,1.3248351648351648
0.8136837720012409,2.6682051282051282,0.8203663003663003,1.3248351648351648
0.813947853001082,2.6682051282051282,0.8203663003663003,1.3248351648351648
0.8184665360004146,2.6682051282051282,0.8203663003663003,1.3248351648351648
0.8187964520002424,2.6682051282051282,0.8203663003663003,1.3248351648351648
0.8251680539997324,2.6682051282051282,0.8203663003663003,1.3248351648351648
0.8284609880010976,2.6585347985347987,0.9146520146520146,1.4005860805860806
0.8288628730006167,2.6585347985347987,0.9146520146520146,1.4005860805860806
0.8335907159998897,2.6585347985347987,0.9146520146520146,1.4005860805860806
0.833807101000275,2.6585347985347987,0.9146520146520146,1.4005860805860806
0.8398900009997305,2.6585347985347987,0.9146520146520146,1.4005860805860806
0.8456319520009856,2.6617582417582417,0.30622710622710625,0.5173626373626373
0.8512560090002808,2.9180219780219776,0.31186813186813184,0.39406593406593404
0.8528624130012759,2.9180219780219776,0.31186813186813184,0.39406593406593404
0.8598082389999036,2.9180219780219776,0.31186813186813184,0.39406593406593404
0.8638804279999022,2.713333333333333,0.9686446886446887,1.543223443223443
0.8670296620002773,2.713333333333333,0.9686446886446887,1.543223443223443
0.8687089890008792,2.713333333333333,0.9686446886446887,1.543223443223443
0.8741652950011485,2.713333333333333,0.9686446886446887,1.543223443223443
0.8754845050007134,2.713333333333333,0.9686446886446887,1.543223443223443
0.882389616999717,2.713333333333333,0.9686446886446887,1.543223443223443
0.8868348880005215,2.713333333333333,0.9686446886446887,1.543223443223443
0.8912475289998838,3.3,0.39487179487179486,0.5842490842490843
0.8914967040000192,3.3,0.39487179487179486,0.5842490842490843
0.89595491900036,3.3,0.39487179487179486,0.5842490842490843
0.8968665700012934,3.3,0.39487179487179486,0.5842490842490843
0.8986626050009363,3.3,0.39487179487179486,0.5842490842490843
0.9009390259998327,3.3,0.39487179487179486,0.5842490842490843
0.9017415210000763,3.3,0.39487179487179486,0.5842490842490843
0.9041579410004488,3.3,0.39487179487179486,0.5842490842490843
0.9119050560002506,3.3,0.39487179487179486,0.5842490842490843
0.9163988170002995,3.3,0.39487179487179486,0.5842490842490843
0.9172629060012696,3.3,0.39487179487179486,0.5842490842490843
0.918822875000842,3.3,0.39487179487179486,0.5842490842490843
0.9264870090009936,3.3,0.39487179487179486,0.5842490842490843
0.9306469479997759,3.3,0.39487179487179486,0.5842490842490843
0.9329758160001802,2.2064468864468862,0.24175824175824176,0.2191941391941392
0.9331972070012853,2.2064468864468862,0.24175824175824176,0.2191941391941392
0.9384449080007471,2.2064468864468862,0.24175824175824176,0.2191941391941392
0.9441997940011788,2.2064468864468862,0.24175824175824176,0.2191941391941392
0.9473702850009431,3.3,0.8791941391941391,1.3675457875457875
0.9482778920009878,3.3,0.8791941391941391,1.3675457875457875
0.9498896090008202,3.3,0.8791941391941391,1.3675457875457875
0.9559487590013305,3.3,0.8791941391941391,1.3675457875457875
0.961467877999894,2.713333333333333,1.3095238095238093,1.9413186813186813
0.9616067740007566,2.713333333333333,1.3095238095238093,1.9413186813186813
0.9663132060013595,2.713333333333333,1.3095238095238093,1.9413186813186813
0.9665233089999674,2.713333333333333,1.3095238095238093,1.9413186813186813
0.9726240350009903,2.66014652014652,0.5552380952380952,0.8679120879120878
0.9772142399997392,2.66014652014652,0.5552380952380952,0.8679120879120878
0.9819718420003483,2.66014652014652,0.5552380952380952,0.8679120879120878
0.9821017100002791,3.3,1.3514285714285714,1.0113553113553113
0.9869706380013668,2.6682051282051282,0.8687179487179487,1.2257142857142858
0.9953640000003361,2.418388278388278,0.27238095238095233,0.2804395604395604
0.9999456500008819,2.418388278388278,0.27238095238095233,0.2804395604395604
1.0002406920011708,2.9712087912087912,0.8848351648351648,1.008937728937729
1.0050901390004583,2.9712087912087912,0.8848351648351648,1.008937728937729
1.011857964000228,2.9712087912087912,0.8848351648351648,1.008937728937729
1.016073407001386,3.3,0.06849816849816849,0.2562637362637363
1.0170257540012244,3.3,0.06849816849816849,0.2562637362637363
1.0178893219999736,3.3,0.06849816849816849,0.2562637362637363
1.0197203660009109,3.3,0.06849816849816849,0.2562637362637363
1.0233616320001602,3.3,0.06849816849816849,0.2562637362637363
1.029431808001391,3.3,0.06849816849816849,0.2562637362637363
1.033799648999775,3.3,0.06849816849816849,0.2562637362637363
1.0353403959998104,3.3,0.06849816849816849,0.2562637362637363
1.041802715000813,3.3,0.06849816849816849,0.2562637362637363
1.0466086360011104,3.3,0.06849816849816849,0.2562637362637363
1.0533680330008792,3.3,0.06849816849816849,0.2562637362637363
1.0619277069999953,3.3,0.06849816849816849,0.2562637362637363
1.0664147360002971,2.713333333333333,1.0137728937728938,1.5657875457875456
1.0668612790013867,2.713333333333333,1.0137728937728938,1.5657875457875456
1.0723720860005415,2.713333333333333,1.0137728937728938,1.5657875457875456
1.0738142730006075,2.713333333333333,1.0137728937728938,1.5657875457875456
1.0793650450013956,2.713333333333333,1.0137728937728938,1.5657875457875456
1.0796091440006421,2.713333333333333,1.0137728937728938,1.5657875457875456
1.0841441490010766,2.713333333333333,1.0137728937728938,1.5657875457875456
1.085020460001033,2.713333333333333,1.0137728937728938,1.5657875457875456
1.0866257369998493,2.713333333333333,1.0137728937728938,1.5657875457875456
1.092001971001082,3.3,0.3932600732600733,0.5310622710622711
1.0922744440013048,3.3,0.3932600732600733,0.5310622710622711
1.0972160060009628,3.3,0.3932600732600733,0.5310622710622711
1.102645561000827,3.3,0.3932600732600733,0.5310622710622711
1.1049302770006761,3.3,0.3932600732600733,0.5310622710622711
1.105264456000441,3.3,0.3932600732600733,0.5310622710622711
1.110441864000677,2.5215384615384613,0.2957509157509157,0.3167032967032967
1.1141818420001073,2.5215384615384613,0.2957509157509157,0.3167032967032967
1.1194621150007151,3.029230769230769,0.15472527472527473,0.35135531135531134
1.1218327400001726,3.029230769230769,0.15472527472527473,0.35135531135531134
1.1221104870001,3.029230769230769,0.15472527472527473,0.35135531135531134
1.1272302950001176,3.029230769230769,0.15472527472527473,0.35135531135531134
1.1308353590011393,3.029230769230769,0.15472527472527473,0.35135531135531134
1.1361051820003922,3.029230769230769,0.15472527472527473,0.35135531135531134
1.139095033000558,3.029230769230769,0.15472527472527473,0.35135531135531134
1.1433654430002207,3.029230769230769,0.15472527472527473,0.35135531135531134
1.1437846750013705,3.029230769230769,0.15472527472527473,0.35135531135531134
1.1493409160011652,3.029230769230769,0.15472527472527473,0.35135531135531134
1.1496493480008212,3.029230769230769,0.15472527472527473,0.35135531135531134
1.155422551000811,3.029230769230769,0.15472527472527473,0.35135531135531134
1.1556114169998182,3.029230769230769,0.15472527472527473,0.35135531135531134
1.1628529530007654,3.029230769230769,0.15472527472527473,0.35135531135531134
1.1675435060005839,3.3,1.3788278388278388,1.1145054945054944
1.1769797310007561,3.3,1.3788278388278388,1.1145054945054944
1.1822314580003876,2.655311355311355,0.3021978021978022,0.30622710622710625
1.1846638160004659,2.655311355311355,0.3021978021978022,0.30622710622710625
1.1847842000006494,2.655311355311355,0.3021978021978022,0.30622710622710625
1.192224755001007,2.655311355311355,0.3021978021978022,0.30622710622710625
1.1967257840005914,2.655311355311355,0.3021978021978022,0.30622710622710625
1.1975985910012241,2.7584615384615385,0.08139194139194139,0.2836630036630036
1.1986146870003722,2.7584615384615385,0.08139194139194139,0.2836630036630036
1.199546903000737,3.3,1.2797069597069597,1.0057142857142858
1.201435021001089,3.3,1.2797069597069597,1.0057142857142858
1.203011666000748,3.3,1.2797069597069597,1.0057142857142858
1.2077221700001246,3.3,1.2797069597069597,1.0057142857142858
1.2078345940008148,2.1589010989010986,0.25545787545787546,0.27076923076923076
1.2138097429997288,2.1589010989010986,0.25545787545787546,0.27076923076923076
1.2224323950013058,2.1589010989010986,0.25545787545787546,0.27076923076923076
1.2288339670012647,2.1589010989010986,0.25545787545787546,0.27076923076923076
1.2345251860006101,3.3,0.4738461538461538,0.6954578754578754
1.241250774000946,3.3,0.4738461538461538,0.6954578754578754
1.2449628739996115,2.677069597069597,0.4553113553113553,0.7736263736263735
1.245113217000835,2.677069597069597,0.4553113553113553,0.7736263736263735
1.2504275310002413,2.677069597069597,0.4553113553113553,0.7736263736263735
1.2536701959998027,2.677069597069597,0.4553113553113553,0.7736263736263735
1.2545557670000562,3.3,0.12249084249084248,0.3102564102564102
1.256094956999732,3.3,0.12249084249084248,0.3102564102564102
1.260904931999903,3.3,0.12249084249084248,0.3102564102564102
1.2610840440011089,3.3,0.12249084249084248,0.3102564102564102
1.2663008930012438,2.6706227106227107,0.8920879120879119,1.4513553113553113
1.2687414100000751,2.6706227106227107,0.8920879120879119,1.4513553113553113
1.2688411210001505,3.3,0.6777289377289377,0.5931135531135531
1.2739440410005045,3.3,0.6777289377289377,0.5931135531135531
1.2781871280003543,3.3,0.6777289377289377,0.5931135531135531
1.2803683980000642,3.3,0.6777289377289377,0.5931135531135531
1.2806927020010335,3.3,0.6777289377289377,0.5931135531135531
1.2857959190005204,3.3,0.6777289377289377,0.5931135531135531
1.289444011001251,2.652087912087912,0.5286446886446886,0.8364835164835164
1.2896223740008281,2.652087912087912,0.5286446886446886,0.8364835164835164
1.2948225140007708,2.652087912087912,0.5286446886446886,0.8364835164835164
1.297843639000348,2.652087912087912,0.5286446886446886,0.8364835164835164
1.3009630180004024,2.652087912087912,0.5286446886446886,0.8364835164835164
1.3025131240010523,2.652087912087912,0.5286446886446886,0.8364835164835164
1.3069878650003375,2.652087912087912,0.5286446886446886,0.8364835164835164
1.3078994940005941,2.652087912087912,0.5286446886446886,0.8364835164835164
1.3087980340005743,2.652087912087912,0.5286446886446886,0.8364835164835164
1.3103954030011664,2.652087912087912,0.5286446886446886,0.8364835164835164
1.3141317890003847,2.652087912087912,0.5286446886446886,0.8364835164835164
1.319358591999844,2.652087912087912,0.5286446886446886,0.8364835164835164
1.3217770060000475,2.652087912087912,0.5286446886446886,0.8364835164835164
1.32198367500132,2.652087912087912,0.5286446886446886,0.8364835164835164
1.327235359000042,2.652087912087912,0.5286446886446886,0.8364835164835164
1.3294973960000789,2.652087912087912,0.5286446886446886,0.8364835164835164
1.3298461940012203,2.652087912087912,0.5286446886446886,0.8364835164835164
1.3342225920005149,2.652087912087912,0.5286446886446886,0.8364835164835164
1.3364510259998497,2.652087912087912,0.5286446886446886,0.8364835164835164
1.3366985259999637,2.652087912087912,0.5286446886446886,0.8364835164835164
1.3417762270000821,2.652087912087912,0.5286446886446886,0.8364835164835164
1.3462843369998154,2.6794871794871793,0.8888644688644688,1.4690842490842488
1.3465304460005427,2.6794871794871793,0.8888644688644688,1.4690842490842488
1.351216758001101,2.6794871794871793,0.8888644688644688,1.4690842490842488
1.3514968729996326,2.6665934065934067,0.30542124542124544,0.2683516483516483
1.356833257001199,2.6665934065934067,0.30542124542124544,0.2683516483516483
1.359226767999644,2.6665934065934067,0.30542124542124544,0.2683516483516483
1.3594091820014,2.6665934065934067,0.30542124542124544,0.2683516483516483
1.364958068001215,2.6665934065934067,0.30542124542124544,0.2683516483516483
1.366603128000861,2.6665934065934067,0.30542124542124544,0.2683516483516483
1.3696585739999136,2.6665934065934067,0.30542124542124544,0.2683516483516483
1.371932904001369,2.6665934065934067,0.30542124542124544,0.2683516483516483
1.3727350610006397,2.6665934065934067,0.30542124542124544,0.2683516483516483
1.3749258000007103,2.6665934065934067,0.30542124542124544,0.2683516483516483
1.3757414200008498,2.6665934065934067,0.30542124542124544,0.2683516483516483
1.3780626540010417,2.6665934065934067,0.30542124542124544,0.2683516483516483
1.3782129570008692,2.6665934065934067,0.30542124542124544,0.2683516483516483
1.3835197980006342,2.6665934065934067,0.30542124542124544,0.2683516483516483
1.385819140001331,2.6665934065934067,0.30542124542124544,0.2683516483516483
1.3866387280013441,2.6665934065934067,0.30542124542124544,0.2683516483516483
1.3882916790007584,2.66014652014652,0.5350915750915751,0.855018315018315
1.3926458050009387,2.66014652014652,0.5350915750915751,0.855018315018315
1.3948933299998316,2.66014652014652,0.5350915750915751,0.855018315018315
1.3956930149997788,2.66014652014652,0.5350915750915751,0.855018315018315
1.3972895110000536,2.739120879120879,1.062930402930403,1.7221245421245421
1.401567523000267,2.6536996336996337,0.17406593406593407,0.26109890109890105
1.4030578239999159,2.6536996336996337,0.17406593406593407,0.26109890109890105
1.4074049299997569,2.6536996336996337,0.17406593406593407,0.26109890109890105
1.4097244759996101,2.6536996336996337,0.17406593406593407,0.26109890109890105
1.4105410459997074,2.4747985347985346,0.3747252747252747,0.5649084249084249
1.4120708339996781,2.4747985347985346,0.3747252747252747,0.5649084249084249
1.4165256020005472,2.4747985347985346,0.3747252747252747,0.5649084249084249
1.418871392001165,2.4747985347985346,0.3747252747252747,0.5649084249084249
1.4190590119997069,2.4747985347985346,0.3747252747252747,0.5649084249084249
1.4245302380004432,3.3,1.3441758241758242,1.0524542124542122
1.4260951070009469,3.3,1.3441758241758242,1.0524542124542122
1.4304618450005364,2.655311355311355,0.5286446886446886,0.8332600732600732
1.431335797000429,2.655311355311355,0.5286446886446886,0.8332600732600732
1.4328430610003124,2.655311355311355,0.5286446886446886,0.8332600732600732
1.4378218439997,2.655311355311355,0.5286446886446886,0.8332600732600732
1.4421763800000917,2.739120879120879,0.8687179487179487,1.3578754578754577
1.4436970970000402,2.739120879120879,0.8687179487179487,1.3578754578754577
1.4481043270006921,2.655311355311355,0.6374358974358975,0.9009523809523808
1.449711303001095,2.655311355311355,0.6374358974358975,0.9009523809523808
1.4544284210005571,2.655311355311355,0.6374358974358975,0.9009523809523808
1.4545685110006161,2.655311355311355,0.6374358974358975,0.9009523809523808
1.4591549670003587,2.655311355311355,0.6374358974358975,0.9009523809523808
1.459390683001402,2.655311355311355,0.6374358974358975,0.9009523809523808
1.4648097259996575,2.655311355311355,0.6374358974358975,0.9009523809523808
1.466470224000659,3.3,0.5044688644688645,0.684981684981685
1.4695541720011533,2.655311355311355,0.5205860805860806,0.850989010989011
1.472032603000116,2.655311355311355,0.5205860805860806,0.850989010989011
1.4722126630003913,2.655311355311355,0.5205860805860806,0.850989010989011
1.4774290820005263,3.183956043956044,0.029816849816849816,0.35135531135531134
1.480636026000866,2.7375091575091575,1.3183882783882783,2.0090109890109886
1.4815181370013306,2.7375091575091575,1.3183882783882783,2.0090109890109886
1.4830525899997156,2.7375091575091575,1.3183882783882783,2.0090109890109886
1.4873514890005026,2.6569230769230767,0.6398534798534798,0.9936263736263735
1.4888372170007642,2.324908424908425,0.2594871794871795,0.28527472527472525
1.493277917999876,2.324908424908425,0.2594871794871795,0.28527472527472525
1.4948481160008669,2.324908424908425,0.2594871794871795,0.28527472527472525
1.4992523020009685,3.3,0.6011721611721611,0.9613919413919414
1.5009258830014005,3.3,0.6011721611721611,0.9613919413919414
1.5047494500013272,3.3,0.6011721611721611,0.9613919413919414
1.509144768000624,3.3,0.6011721611721611,0.9613919413919414
1.5101063670008443,3.3,0.6011721611721611,0.9613919413919414
1.51167807100137,3.3,0.6011721611721611,0.9613919413919414
1.516091088000394,3.3,0.6011721611721611,0.9613919413919414
1.5170776249997289,2.686739926739927,1.207179487179487,1.934065934065934
1.51790325300135,2.686739926739927,1.207179487179487,1.934065934065934
1.5194928199998685,2.686739926739927,1.207179487179487,1.934065934065934
1.52338932100065,2.686739926739927,1.207179487179487,1.934065934065934
1.5272200300005352,2.6649816849816848,0.8816117216117215,1.4287912087912087
1.5315997170000628,2.6649816849816848,0.8816117216117215,1.4287912087912087
1.5331904480008234,2.6649816849816848,0.8816117216117215,1.4287912087912087
1.5369448790006572,2.6649816849816848,0.8816117216117215,1.4287912087912087
1.5421198490003007,2.6649816849816848,0.8816117216117215,1.4287912087912087
1.5451368630001525,2.6649816849816848,0.8816117216117215,1.4287912087912087
1.54802469400056,2.6649816849816848,0.8816117216117215,1.4287912087912087
1.5511734089996025,2.6649816849816848,0.8816117216117215,1.4287912087912087
1.5527040100005252,2.6649816849816848,0.8816117216117215,1.4287912087912087
1.5572491160000936,2.6649816849816848,0.8816117216117215,1.4287912087912087
1.5575121260008018,2.6649816849816848,0.8816117216117215,1.4287912087912087
1.5621731680002995,2.6649816849816848,0.8816117216117215,1.4287912087912087
1.5624330950013245,2.6778754578754578,0.8147252747252747,1.2643956043956044
1.5670693720003328,2.6778754578754578,0.8147252747252747,1.2643956043956044
1.5672793230005482,2.6778754578754578,0.8147252747252747,1.2643956043956044
1.5716444720001164,2.6778754578754578,0.8147252747252747,1.2643956043956044
1.573184951001167,3.3,0.8630769230769231,0.6938461538461538
1.5769271930003015,3.3,0.8630769230769231,0.6938461538461538
1.5819820449996769,2.673040293040293,0.4472527472527472,0.78007326007326
1.5865664600005402,2.892234432234432,0.6406593406593406,0.747032967032967
1.586863878001168,2.892234432234432,0.6406593406593406,0.747032967032967
1.5913853559995914,2.892234432234432,0.6406593406593406,0.747032967032967
1.5922561150000547,2.892234432234432,0.6406593406593406,0.747032967032967
1.5938543800002662,2.892234432234432,0.6406593406593406,0.747032967032967
1.5983774610012915,2.892234432234432,0.6406593406593406,0.747032967032967
1.5986749620005867,2.892234432234432,0.6406593406593406,0.747032967032967
1.6041128280012344,2.892234432234432,0.6406593406593406,0.747032967032967
1.6063154990006296,2.892234432234432,0.6406593406593406,0.747032967032967
1.6066005600005155,2.9695970695970697,0.35135531135531134,0.3964835164835165
1.6118502600002103,2.9695970695970697,0.35135531135531134,0.3964835164835165
1.6149753259996942,2.9695970695970697,0.35135531135531134,0.3964835164835165
1.6164908070004458,2.9695970695970697,0.35135531135531134,0.3964835164835165
1.6207648440013145,2.9695970695970697,0.35135531135531134,0.3964835164835165
1.622337011000127,2.9695970695970697,0.35135531135531134,0.3964835164835165
1.6266487650009367,2.9695970695970697,0.35135531135531134,0.3964835164835165
1.6290475910009263,2.9695970695970697,0.35135531135531134,0.3964835164835165
1.6292589510012476,2.9695970695970697,0.35135531135531134,0.3964835164835165
1.6345576210005675,3.3,1.2934065934065933,0.5753846153846153
1.6375851480006531,3.3,1.2934065934065933,0.5753846153846153
1.6392323230011243,2.71010989010989,1.1435164835164835,1.7986813186813184
1.6430906349996803,2.71010989010989,1.1435164835164835,1.7986813186813184
1.6478185420000955,2.743956043956044,0.9613919413919414,1.32
1.648011650000626,3.3,0.3473260073260073,0.5093040293040293
1.6527266520006378,3.3,0.3473260073260073,0.5093040293040293
1.6535497670010955,2.71010989010989,0.03868131868131868,0.2772161172161172
1.6551030999999057,2.71010989010989,0.03868131868131868,0.2772161172161172
1.659432911001204,2.71010989010989,0.03868131868131868,0.2772161172161172
1.660954633000074,2.2515750915750914,0.2087179487179487,0.40937728937728934
1.6652838270001666,2.2515750915750914,0.2087179487179487,0.40937728937728934
1.6668271779999486,2.2515750915750914,0.2087179487179487,0.40937728937728934
1.6713255530012248,2.2515750915750914,0.2087179487179487,0.40937728937728934
1.671598859000369,2.2515750915750914,0.2087179487179487,0.40937728937728934
1.6768525530005718,2.2515750915750914,0.2087179487179487,0.40937728937728934
1.6797388260001753,2.685934065934066,0.3916483516483516,0.6374358974358975
1.6826969630001258,2.685934065934066,0.3916483516483516,0.6374358974358975
1.6856310540006234,2.685934065934066,0.3916483516483516,0.6374358974358975
1.6885876409996854,2.685934065934066,0.3916483516483516,0.6374358974358975
1.6915373030005867,2.685934065934066,0.3916483516483516,0.6374358974358975
1.694443410000531,2.685934065934066,0.3916483516483516,0.6374358974358975
1.6980945539999084,2.685934065934066,0.3916483516483516,0.6374358974358975
1.703322510000362,3.3,1.1435164835164835,0.9839560439560439
1.7064602320006088,2.698827838827839,0.954945054945055,1.3457875457875457
1.7081405380013166,2.698827838827839,0.954945054945055,1.3457875457875457
1.711141822999707,2.698827838827839,0.954945054945055,1.3457875457875457
1.7141196070006117,2.698827838827839,0.954945054945055,1.3457875457875457
1.7170623920010257,2.698827838827839,0.954945054945055,1.3457875457875457
1.7200629630006006,2.698827838827839,0.954945054945055,1.3457875457875457
1.7232773270006874,2.698827838827839,0.954945054945055,1.3457875457875457
1.7251941410013387,2.698827838827839,0.954945054945055,1.3457875457875457
1.7267746159996022,2.698827838827839,0.954945054945055,1.3457875457875457
1.7313410050010134,2.698827838827839,0.954945054945055,1.3457875457875457
1.7316059160002624,3.3,1.0734065934065933,0.6753113553113552
1.7368660869997257,3.3,1.0734065934065933,0.6753113553113552
1.7399537279998185,2.713333333333333,0.8534065934065934,1.361098901098901
1.7416471110009297,2.713333333333333,0.8534065934065934,1.361098901098901
1.7447214069998154,2.713333333333333,0.8534065934065934,1.361098901098901
1.747174977001123,2.713333333333333,0.8534065934065934,1.361098901098901
1.7473909660002391,2.713333333333333,0.8534065934065934,1.361098901098901
1.751969781000298,2.713333333333333,0.8534065934065934,1.361098901098901
1.7522896410009707,2.713333333333333,0.8534065934065934,1.361098901098901
1.7567566870002338,2.698827838827839,0.06043956043956044,0.2917216117216117
1.758398093001233,2.698827838827839,0.06043956043956044,0.2917216117216117
1.7623465670003498,2.698827838827839,0.06043956043956044,0.2917216117216117
1.7660058190012933,2.698827838827839,0.06043956043956044,0.2917216117216117
1.7661957560012524,2.698827838827839,0.06043956043956044,0.2917216117216117
1.771587103999991,2.698827838827839,0.06043956043956044,0.2917216117216117
1.7738051039996208,2.698827838827839,0.06043956043956044,0.2917216117216117
1.7746352440008195,2.698827838827839,0.06043956043956044,0.2917216117216117
1.7761824900007923,2.698827838827839,0.06043956043956044,0.2917216117216117
1.7805455600009736,2.698827838827839,0.06043956043956044,0.2917216117216117
1.7827789840011974,2.698827838827839,0.06043956043956044,0.2917216117216117
1.7830613930000254,2.681098901098901,0.8856410256410255,1.4424908424908425
1.7874496610002097,2.659340659340659,0.61003663003663,0.8775824175824175
1.7883348450013727,2.6649816849816848,0.2949450549450549,0.3287912087912088
1.7905484630009596,2.6649816849816848,0.2949450549450549,0.3287912087912088
1.7908606090004469,2.6649816849816848,0.2949450549450549,0.3287912087912088
1.795942927001306,2.6649816849816848,0.2949450549450549,0.3287912087912088
1.8004425830004038,2.6649816849816848,0.2949450549450549,0.3287912087912088
1.8006944170010684,2.6649816849816848,0.2949450549450549,0.3287912087912088
1.8059584130005533,2.6649816849816848,0.2949450549450549,0.3287912087912088
1.808984283999962,2.6649816849816848,0.2949450549450549,0.3287912087912088
1.8112543180013745,2.6649816849816848,0.2949450549450549,0.3287912087912088
1.8120492369998829,2.6649816849816848,0.2949450549450549,0.3287912087912088
1.8136544980006875,2.6649816849816848,0.2949450549450549,0.3287912087912088
1.8175932049998664,2.6649816849816848,0.2949450549450549,0.3287912087912088
1.8212919010002224,2.7117216117216114,0.8066666666666666,1.2724542124542124
1.8214492469996912,2.7117216117216114,0.8066666666666666,1.2724542124542124
1.8259905810009514,2.7117216117216114,0.8066666666666666,1.2724542124542124
1.8269289270010631,2.7117216117216114,0.8066666666666666,1.2724542124542124
1.8285237170002802,2.7117216117216114,0.8066666666666666,1.2724542124542124
1.8321305790013866,2.7117216117216114,0.8066666666666666,1.2724542124542124
1.8375332680006977,2.7117216117216114,0.8066666666666666,1.2724542124542124
1.8398130410005251,2.6682051282051282,1.1443223443223443,1.7696703296703296
1.8407408750008472,2.6682051282051282,1.1443223443223443,1.7696703296703296
1.8423146730001463,2.6682051282051282,1.1443223443223443,1.7696703296703296
1.8460467540007812,2.6682051282051282,1.1443223443223443,1.7696703296703296
1.8512451690003218,2.655311355311355,0.5205860805860806,0.8590476190476191
1.854956305000087,2.655311355311355,0.5205860805860806,0.8590476190476191
1.8603000069997506,2.655311355311355,0.5205860805860806,0.8590476190476191
1.862629065000874,2.655311355311355,0.5205860805860806,0.8590476190476191
1.862900857000568,2.655311355311355,0.5205860805860806,0.8590476190476191
1.868247448001057,2.655311355311355,0.5205860805860806,0.8590476190476191
1.869980518000375,2.655311355311355,0.5205860805860806,0.8590476190476191
1.8730672920009965,2.655311355311355,0.5205860805860806,0.8590476190476191
1.8754664000007324,3.3,0.09509157509157509,0.30139194139194136
1.875620691000222,3.3,0.09509157509157509,0.30139194139194136
1.8807483590007905,3.3,0.09509157509157509,0.30139194139194136
1.886150546000863,3.3,0.09509157509157509,0.30139194139194136
1.887803753001208,3.3,0.09509157509157509,0.30139194139194136
1.8916752229997655,3.3,0.09509157509157509,0.30139194139194136
1.896161190001294,3.3,0.10637362637362638,0.3304029304029304
1.8971011150006234,3.3,0.10637362637362638,0.3304029304029304
1.8986747350008955,3.3,0.10637362637362638,0.3304029304029304
1.9025565490010194,3.3,0.10637362637362638,0.3304029304029304
1.906407800001034,3.3,0.10637362637362638,0.3304029304029304
1.9111340649997146,3.3,0.10637362637362638,0.3304029304029304
1.9113198420000117,3.3,0.10637362637362638,0.3304029304029304
1.9157857760001207,3.3,0.10315018315018315,0.2989743589743589
1.9174825090012746,3.3,0.10315018315018315,0.2989743589743589
1.9206132700001035,3.3,0.10315018315018315,0.2989743589743589
1.9229857420014014,3.3,0.10315018315018315,0.2989743589743589
1.9231645939998998,3.3,0.10315018315018315,0.2989743589743589
1.928373102000478,3.3,0.10315018315018315,0.2989743589743589
1.9313064710004255,2.6545054945054947,0.5181684981684981,0.8606593406593407
1.9338876359997812,2.6536996336996337,0.27076923076923076,0.2909157509157509
1.939136999000766,2.6536996336996337,0.27076923076923076,0.2909157509157509
1.941494747001343,2.6536996336996337,0.27076923076923076,0.2909157509157509
1.9416527080011292,2.6536996336996337,0.27076923076923076,0.2909157509157509
1.9471176670012937,2.6682051282051282,0.8904761904761904,1.4223443223443224
1.9480585450000945,2.6682051282051282,0.8904761904761904,1.4223443223443224
1.949589609999748,2.6682051282051282,0.8904761904761904,1.4223443223443224
1.954338256000483,2.6682051282051282,0.8904761904761904,1.4223443223443224
1.9595197540002118,3.00021978021978,0.8743589743589744,1.3006593406593405
1.9626284590012801,3.00021978021978,0.8743589743589744,1.3006593406593405
1.9644350170001417,3.00021978021978,0.8743589743589744,1.3006593406593405
1.9667311080011132,3.00021978021978,0.8743589743589744,1.3006593406593405
1.9676561060005042,3.00021978021978,0.8743589743589744,1.3006593406593405
1.9684884710004553,3.00021978021978,0.8743589743589744,1.3006593406593405
1.970010885001102,3.00021978021978,0.8743589743589744,1.3006593406593405
1.9743245589997969,3.3,1.3385347985347984,0.6704761904761904
1.9759242700001778,3.3,1.3385347985347984,0.6704761904761904
1.9803350580004917,3.3,1.3385347985347984,0.6704761904761904
1.9821234860010009,3.3,1.3385347985347984,0.6704761904761904
1.985218039000756,3.3,1.3385347985347984,0.6704761904761904
1.9876761710002029,3.3,1.3385347985347984,0.6704761904761904
1.9878359289996297,3.3,1.3385347985347984,0.6704761904761904
1.9922413880012755,3.3,1.3385347985347984,0.6704761904761904
1.9939010130001407,3.3,1.3385347985347984,0.6704761904761904
1.996954829999595,3.3,1.3385347985347984,0.6704761904761904
1.9992326170013257,3.3,1.3385347985347984,0.6704761904761904
1.999498069000765,3.3,1.3385347985347984,0.6704761904761904
2.0047399710001628,3.3,1.3385347985347984,0.6704761904761904
2.0078536930013797,2.6633699633699632,0.8227838827838827,1.016190476190476
2.009444015000554,2.6633699633699632,0.8227838827838827,1.016190476190476
2.013949297999716,3.3,1.311135531135531,0.614065934065934
2.0147933099997317,3.3,1.311135531135531,0.614065934065934
2.016335111000444,3.3,1.311135531135531,0.614065934065934
2.0210632819998864,3.3,1.311135531135531,0.614065934065934
2.0212500680008816,3.3,1.311135531135531,0.614065934065934
2.0259087120011827,3.3,1.311135531135531,0.614065934065934
2.02616933399986,3.3,1.311135531135531,0.614065934065934
2.0309699420013203,3.3,1.311135531135531,0.614065934065934
2.036243407999791,3.3,1.311135531135531,0.614065934065934
2.038583102001212,3.3,1.311135531135531,0.614065934065934
2.0388410909999948,3.3,1.311135531135531,0.614065934065934
2.044061419001082,3.3,1.311135531135531,0.614065934065934
2.046519438999894,3.3,1.311135531135531,0.614065934065934
2.0466476660003536,3.3,1.311135531135531,0.614065934065934
2.0522923120006453,3.3,1.311135531135531,0.614065934065934
2.0525207950013282,3.3,1.311135531135531,0.614065934065934
2.0575635929999407,3.3,1.311135531135531,0.614065934065934
2.0618958169998223,3.3,1.311135531135531,0.614065934065934
2.063446940999711,3.3,1.311135531135531,0.614065934065934
2.06781633600076,3.3,1.311135531135531,0.614065934065934
2.06933979400128,3.3,1.311135531135531,0.614065934065934
2.0736911410003813,3.3,1.311135531135531,0.614065934065934
2.076577358000577,3.3,1.311135531135531,0.614065934065934
2.079469043001154,3.3,1.311135531135531,0.614065934065934
2.083294386000489,3.3,1.311135531135531,0.614065934065934
2.088488524999775,3.3,1.311135531135531,0.614065934065934
2.0914700250013993,2.655311355311355,0.5133333333333333,0.7986080586080586
2.094395321000775,2.655311355311355,0.5133333333333333,0.7986080586080586
2.0966808949997358,2.7125274725274724,1.3208058608058608,1.991282051282051
2.0974869769997895,2.713333333333333,0.7365567765567765,1.1983150183150182
2.099008054001388,2.713333333333333,0.7365567765567765,1.1983150183150182
2.104310462000285,2.713333333333333,0.7365567765567765,1.1983150183150182
2.1067580859998998,2.713333333333333,0.7365567765567765,1.1983150183150182
2.1118509820007603,2.1129670329670325,0.25868131868131866,0.2772161172161172
2.1171173990005627,2.1129670329670325,0.25868131868131866,0.2772161172161172
2.1202088830013963,2.1129670329670325,0.25868131868131866,0.2772161172161172
2.121725807000985,2.1129670329670325,0.25868131868131866,0.2772161172161172
2.126985633000004,2.1129670329670325,0.25868131868131866,0.2772161172161172
2.1291953350009862,2.6665934065934067,0.6567765567765567,1.0532600732600732
2.130012286001147,2.6665934065934067,0.6567765567765567,1.0532600732600732
2.1315959510011453,2.6665934065934067,0.6567765567765567,1.0532600732600732
2.1353378029998566,2.6665934065934067,0.6567765567765567,1.0532600732600732
2.140338758001235,2.6665934065934067,0.6567765567765567,1.0532600732600732
2.144641365001007,2.6665934065934067,0.6567765567765567,1.0532600732600732
2.146403407999969,2.6714285714285713,0.7196336996336996,1.1580219780219778
2.1493736299999,2.6714285714285713,0.7196336996336996,1.1580219780219778
2.1523647049998544,2.6714285714285713,0.7196336996336996,1.1580219780219778
2.155459866000456,2.6714285714285713,0.7196336996336996,1.1580219780219778
2.157204488001298,2.6714285714285713,0.7196336996336996,1.1580219780219778
2.160108244001094,2.6714285714285713,0.7196336996336996,1.1580219780219778
2.1636929600008443,2.6714285714285713,0.7196336996336996,1.1580219780219778
2.1688406560006115,2.6714285714285713,0.7196336996336996,1.1580219780219778
2.1732427290007763,2.6714285714285713,0.7196336996336996,1.1580219780219778
2.17410153200035,2.6714285714285713,0.7196336996336996,1.1580219780219778
2.1763159510010155,2.6714285714285713,0.7196336996336996,1.1580219780219778
2.1765777960008563,2.6714285714285713,0.7196336996336996,1.1580219780219778
2.18103958500069,2.6714285714285713,0.7196336996336996,1.1580219780219778
2.182592821000071,2.6714285714285713,0.7196336996336996,1.1580219780219778
2.1863272999999026,2.6714285714285713,0.7196336996336996,1.1580219780219778
2.1865040530010447,2.6714285714285713,0.7196336996336996,1.1580219780219778
2.190925507000429,2.6714285714285713,0.7196336996336996,1.1580219780219778
2.192446283001118,2.6714285714285713,0.7196336996336996,1.1580219780219778
2.1968297390012594,2.6714285714285713,0.7196336996336996,1.1580219780219778
2.198436512000626,2.6714285714285713,0.7196336996336996,1.1580219780219778
2.2023970640002517,2.6714285714285713,0.7196336996336996,1.1580219780219778
2.2061406100001477,2.6714285714285713,0.7196336996336996,1.1580219780219778
2.210722046000228,2.6714285714285713,0.7196336996336996,1.1580219780219778
2.2116159870001866,2.6714285714285713,0.7196336996336996,1.1580219780219778
2.21318786700067,3.3,0.10476190476190475,0.2917216117216117
2.217805144000522,3.3,0.10476190476190475,0.2917216117216117
2.2180848050011264,3.3,0.10556776556776555,0.21355311355311357
2.223320548000629,3.3,0.10556776556776555,0.21355311355311357
2.227269666000211,3.3,0.10556776556776555,0.21355311355311357
2.230235029001051,3.3,0.10556776556776555,0.21355311355311357
2.2331602120011667,3.3,0.10556776556776555,0.21355311355311357
2.236779660999673,3.3,0.10556776556776555,0.21355311355311357
2.23696651300088,2.713333333333333,0.9742857142857142,1.5206593406593405
2.2413761940006225,2.713333333333333,0.9742857142857142,1.5206593406593405
2.242241242000091,2.713333333333333,0.9742857142857142,1.5206593406593405
2.2438981640007114,2.713333333333333,0.9742857142857142,1.5206593406593405
2.2477520430002187,2.713333333333333,0.9742857142857142,1.5206593406593405
2.2513796420007566,2.713333333333333,0.9742857142857142,1.5206593406593405
2.2566991840012633,2.713333333333333,0.9742857142857142,1.5206593406593405
2.2596283809998567,2.713333333333333,0.9742857142857142,1.5206593406593405
2.2619464159997733,3.1968498168498165,1.0903296703296703,1.0734065934065933
2.2627451970001857,3.1968498168498165,1.0903296703296703,1.0734065934065933
2.2644104339997284,3.1968498168498165,1.0903296703296703,1.0734065934065933
2.268089052000505,3.1968498168498165,1.0903296703296703,1.0734065934065933
2.273184420000689,3.3,0.42630036630036633,0.6108424908424909
2.2776417810000567,3.3,0.42630036630036633,0.6108424908424909
2.2779273910000484,3.3,0.42630036630036633,0.6108424908424909
2.283011454001098,3.3,0.42630036630036633,0.6108424908424909
2.287784959000419,2.6706227106227107,0.8477655677655677,1.344981684981685
2.2928524670005572,2.6706227106227107,0.8477655677655677,1.344981684981685
2.2964770720009255,2.6706227106227107,0.8477655677655677,1.344981684981685
2.301613751000332,2.6706227106227107,0.8477655677655677,1.344981684981685
2.305654454001342,2.6706227106227107,0.8477655677655677,1.344981684981685
2.308094085999983,2.6706227106227107,0.8477655677655677,1.344981684981685
2.308278311000322,2.7246153846153844,0.423076923076923,0.6495238095238095
2.313555349001035,2.7246153846153844,0.423076923076923,0.6495238095238095
2.316015245000017,2.905128205128205,0.03304029304029304,0.3021978021978022
2.3162349140002334,2.905128205128205,0.03304029304029304,0.3021978021978022
2.3215031840009033,2.905128205128205,0.03304029304029304,0.3021978021978022
2.323968759001218,2.905128205128205,0.03304029304029304,0.3021978021978022
2.32408987800045,2.905128205128205,0.03304029304029304,0.3021978021978022
2.32929375599997,2.905128205128205,0.03304029304029304,0.3021978021978022
2.3324673120005173,2.905128205128205,0.03304029304029304,0.3021978021978022
2.3347090750012285,2.905128205128205,0.03304029304029304,0.3021978021978022
2.335531300999719,2.905128205128205,0.03304029304029304,0.3021978021978022
2.337191911001355,2.905128205128205,0.03304029304029304,0.3021978021978022
2.3411041279996425,2.905128205128205,0.03304029304029304,0.3021978021978022
2.3457303150007647,2.905128205128205,0.03304029304029304,0.3021978021978022
2.3466545549999864,2.905128205128205,0.03304029304029304,0.3021978021978022
2.3476389610004844,2.905128205128205,0.03304029304029304,0.3021978021978022
2.3485566770013975,2.905128205128205,0.03304029304029304,0.3021978021978022
2.3501300950010773,2.905128205128205,0.03304029304029304,0.3021978021978022
2.354743257001246,2.905128205128205,0.03304029304029304,0.3021978021978022
2.355581448000521,2.905128205128205,0.03304029304029304,0.3021978021978022
2.357086865000383,2.905128205128205,0.03304029304029304,0.3021978021978022
2.361603606999779,2.7117216117216114,0.95010989010989,1.498095238095238
2.3619333960014046,2.7117216117216114,0.95010989010989,1.498095238095238
2.3665054960001726,2.7117216117216114,0.95010989010989,1.498095238095238
2.366796948001138,2.7117216117216114,0.95010989010989,1.498095238095238
2.371334977000515,2.7117216117216114,0.95010989010989,1.498095238095238
2.371630670000741,2.7117216117216114,0.95010989010989,1.498095238095238
2.3768758890000754,2.7117216117216114,0.95010989010989,1.498095238095238
2.380716093000956,2.6762637362637363,1.2764835164835164,1.7599999999999998
2.385174115001064,2.6762637362637363,1.2764835164835164,1.7599999999999998
2.3860112340007618,2.6762637362637363,1.2764835164835164,1.7599999999999998
2.3877470349998475,2.6762637362637363,1.2764835164835164,1.7599999999999998
2.390751455001009,2.6762637362637363,1.2764835164835164,1.7599999999999998
2.393053241999951,2.6762637362637363,1.2764835164835164,1.7599999999999998
2.3933164080008282,2.6762637362637363,1.2764835164835164,1.7599999999999998
2.397911574000318,2.6762637362637363,1.2764835164835164,1.7599999999999998
2.398250617001395,2.6762637362637363,1.2764835164835164,1.7599999999999998
2.402689733000443,2.6762637362637363,1.2764835164835164,1.7599999999999998
2.404290010001205,2.6762637362637363,1.2764835164835164,1.7599999999999998
2.4080600240013155,3.3,0.4553113553113553,0.6164835164835165
2.4132691900013015,3.3,0.9694505494505494,0.6350183150183151
2.4171375930000067,3.3,0.9694505494505494,0.6350183150183151
2.4208658500010642,3.3,0.9694505494505494,0.6350183150183151
2.4253860330009047,3.3,0.9694505494505494,0.6350183150183151
2.425673158000791,3.3,0.9694505494505494,0.6350183150183151
2.4308664330001193,3.3,0.9694505494505494,0.6350183150183151
2.4340235119998397,3.3,0.9694505494505494,0.6350183150183151
2.4355240519998915,3.3,0.9694505494505494,0.6350183150183151
2.440066475999629,3.3,0.9694505494505494,0.6350183150183151
2.4403510360007203,3.3,0.9694505494505494,0.6350183150183151
2.4447252959998877,3.3,0.9694505494505494,0.6350183150183151
2.446370145000401,3.3,0.9694505494505494,0.6350183150183151
2.4500747860001866,3.3,0.9694505494505494,0.6350183150183151
2.455438992999916,3.3,0.9694505494505494,0.6350183150183151
2.457816811000157,2.8736996336996334,0.04593406593406593,0.2925274725274725
2.4580344810001407,2.7125274725274724,0.9388278388278387,1.4852014652014651
2.4624570020005194,2.7125274725274724,0.9388278388278387,1.4852014652014651
2.4633542170013243,2.7125274725274724,0.9388278388278387,1.4852014652014651
2.4657456550012284,2.7125274725274724,0.9388278388278387,1.4852014652014651
2.46589694999966,2.7125274725274724,0.9388278388278387,1.4852014652014651
2.4702691410002444,2.7125274725274724,0.9388278388278387,1.4852014652014651
2.4718301860011707,3.3,1.1257875457875457,0.6809523809523809
2.476331248000861,3.3,1.1257875457875457,0.6809523809523809
2.477161528000579,3.3,1.1257875457875457,0.6809523809523809
2.478751751001255,3.3,1.1257875457875457,0.6809523809523809
2.4833076909999363,3.3,1.1273992673992674,0.942051282051282
2.4836078330008604,3.3,1.1273992673992674,0.942051282051282
2.4882028459996945,3.3,1.1273992673992674,0.942051282051282
2.489052537999669,3.3,0.4214652014652014,0.6124542124542125
2.4905936020004447,3.3,0.4214652014652014,0.6124542124542125
2.4944580030005454,3.3,0.4214652014652014,0.6124542124542125
2.498913643999913,3.3,0.4214652014652014,0.6124542124542125
2.49984287100051,3.3,1.3385347985347984,1.0363369963369962
2.5015478510013054,3.3,1.3385347985347984,1.0363369963369962
2.5046257480007625,3.3,1.3385347985347984,1.0363369963369962
2.506230245000552,3.103369963369963,0.361025641025641,0.43274725274725273
2.51084872499996,3.017948717948718,0.34007326007326005,0.423076923076923
2.5118226270005835,3.017948717948718,0.34007326007326005,0.423076923076923
2.5127052890002233,3.2387545787545786,0.03304029304029304,0.3384615384615384
2.5142681260003883,2.540879120879121,0.03223443223443223,0.24256410256410255
2.5187677339999937,2.540879120879121,0.03223443223443223,0.24256410256410255
2.5203039730004093,2.540879120879121,0.03223443223443223,0.24256410256410255
2.5239581940004427,2.6617582417582417,0.9041758241758242,1.3812454212454213
2.52920714100037,2.6617582417582417,0.9041758241758242,1.3812454212454213
2.532372497000324,1.7245421245421246,0.2651282051282051,0.40695970695970696
2.5332700369999657,1.7245421245421246,0.2651282051282051,0.40695970695970696
2.5348524840010214,1.7245421245421246,0.2651282051282051,0.40695970695970696
2.539166192000266,1.7245421245421246,0.2651282051282051,0.40695970695970696
2.5409127210004954,1.7245421245421246,0.2651282051282051,0.40695970695970696
2.5446924420011783,1.7245421245421246,0.2651282051282051,0.40695970695970696
2.5491913740006567,1.7245421245421246,0.2651282051282051,0.40695970695970696
2.550016126000628,3.3,1.1427106227106225,0.6608058608058608
2.5515706920014054,3.3,1.1427106227106225,0.6608058608058608
2.555404458000339,3.3,1.1427106227106225,0.6608058608058608
2.5607555650003633,3.3,1.1427106227106225,0.6608058608058608
2.5637713800006168,3.3,1.1427106227106225,0.6608058608058608
2.5667257430013706,3.3,1.1427106227106225,0.6608058608058608
2.569614834001186,2.294285714285714,0.2868864468864469,0.2925274725274725
2.571922948000065,2.294285714285714,0.2868864468864469,0.2925274725274725
2.572813524000594,2.294285714285714,0.2868864468864469,0.2925274725274725
2.5743873179999355,2.294285714285714,0.2868864468864469,0.2925274725274725
2.578735596000115,2.294285714285714,0.2868864468864469,0.2925274725274725
2.5809193830009463,2.294285714285714,0.2868864468864469,0.2925274725274725
2.5817384620004304,2.294285714285714,0.2868864468864469,0.2925274725274725
2.5839521400012018,2.294285714285714,0.2868864468864469,0.2925274725274725
2.584234526000728,2.294285714285714,0.2868864468864469,0.2925274725274725
2.5894585460009694,3.3,0.4416117216117216,0.49802197802197795
2.593156775999887,2.771355311355311,0.2925274725274725,0.3578021978021978
2.5932828130007692,2.771355311355311,0.2925274725274725,0.3578021978021978
2.598347802000717,2.771355311355311,0.2925274725274725,0.3578021978021978
2.6027052250010456,2.6875457875457873,1.2845421245421245,1.8695970695970694
2.6036174180007947,2.6875457875457873,1.2845421245421245,1.8695970695970694
2.6045651500007807,2.6875457875457873,1.2845421245421245,1.8695970695970694
2.6060673980009597,2.6875457875457873,1.2845421245421245,1.8695970695970694
2.610372217999611,2.6875457875457873,1.2845421245421245,1.8695970695970694
2.6133244860011473,2.6875457875457873,1.2845421245421245,1.8695970695970694
2.6156840519997786,2.6875457875457873,1.2845421245421245,1.8695970695970694
2.615905044000101,2.6875457875457873,1.2845421245421245,1.8695970695970694
2.620298261001153,2.6875457875457873,1.2845421245421245,1.8695970695970694
2.6218505810011266,2.6875457875457873,1.2845421245421245,1.8695970695970694
2.626407421001204,2.6875457875457873,1.2845421245421245,1.8695970695970694
2.6266556280006625,2.6875457875457873,1.2845421245421245,1.8695970695970694
2.6319610770005966,2.6875457875457873,1.2845421245421245,1.8695970695970694
2.6350655919995916,3.3,0.17245421245421244,0.34007326007326005
2.636713822999809,2.710915750915751,1.286959706959707,1.9477655677655676
2.641122376000567,2.710915750915751,1.286959706959707,1.9477655677655676
2.641952908999883,2.710915750915751,1.286959706959707,1.9477655677655676
2.6435818019999715,2.710915750915751,1.286959706959707,1.9477655677655676
2.64768475100027,2.710915750915751,1.286959706959707,1.9477655677655676
2.650637220000135,2.710915750915751,1.286959706959707,1.9477655677655676
2.6536014800003613,2.9647619047619047,1.1757509157509156,0.6664468864468864
2.6559064970006148,2.444981684981685,0.07413919413919413,0.2063003663003663
2.6568077290012297,2.444981684981685,0.07413919413919413,0.2063003663003663
2.658436084000641,2.444981684981685,0.07413919413919413,0.2063003663003663
2.6624424220008223,2.444981684981685,0.07413919413919413,0.2063003663003663
2.666030276001038,2.444981684981685,0.07413919413919413,0.2063003663003663
2.666148663000058,2.444981684981685,0.07413919413919413,0.2063003663003663
2.671646865999719,2.6617582417582417,0.5157509157509157,0.8389010989010988
2.6725452530008624,2.6617582417582417,0.5157509157509157,0.8389010989010988
2.67411204200107,2.6617582417582417,0.5157509157509157,0.8389010989010988
2.6796011830010684,3.3,0.28769230769230764,0.6906227106227106
2.6807824570005323,3.3,0.28769230769230764,0.6906227106227106
2.681145477001337,3.3,0.28769230769230764,0.6906227106227106
2.689994801001376,3.3,0.28769230769230764,0.6906227106227106
2.696840192000309,2.6279120879120876,0.2925274725274725,0.32153846153846155
2.7013813290013786,2.713333333333333,1.1596336996336996,1.818021978021978
2.7016153109998413,2.713333333333333,1.1596336996336996,1.818021978021978
2.7063383540007635,2.713333333333333,1.1596336996336996,1.818021978021978
2.7064902710008027,2.713333333333333,1.1596336996336996,1.818021978021978
2.7113833250004973,2.6569230769230767,0.51010989010989,0.8203663003663003
2.717519694000657,3.3,0.06608058608058608,0.28446886446886444
2.7205296749998524,2.7084981684981684,0.8808058608058608,1.386080586080586
2.723688652000419,2.7084981684981684,0.8808058608058608,1.386080586080586
2.7259336120005173,2.7084981684981684,0.8808058608058608,1.386080586080586
2.726175151999996,2.7084981684981684,0.8808058608058608,1.386080586080586
2.7306190230010543,2.6585347985347987,0.49802197802197795,0.8671062271062271
2.7322102510006516,2.6585347985347987,0.49802197802197795,0.8671062271062271
2.735911613999633,2.6585347985347987,0.49802197802197795,0.8671062271062271
2.736097234001136,2.713333333333333,1.070989010989011,1.7825641025641024
2.7405408089998673,2.713333333333333,1.070989010989011,1.7825641025641024
2.7414028760013025,3.3,1.3369230769230769,1.0516483516483515
2.7430106210013037,3.3,1.3369230769230769,1.0516483516483515
2.7480625219996,3.3,1.3369230769230769,1.0516483516483515
2.75125760300034,3.3,1.3369230769230769,1.0516483516483515
2.752815604000716,3.3,1.3369230769230769,1.0516483516483515
2.7576915320005355,3.3,1.3369230769230769,1.0516483516483515
2.763038287001109,3.3,1.3369230769230769,1.0516483516483515
2.764856919000522,2.713333333333333,0.9928205128205128,1.6036630036630035
2.7689545470002486,2.713333333333333,0.9928205128205128,1.6036630036630035
2.7702002599999105,2.713333333333333,0.9928205128205128,1.6036630036630035
2.7714311930012627,2.713333333333333,0.9928205128205128,1.6036630036630035
2.7752945470001578,2.713333333333333,0.9928205128205128,1.6036630036630035
2.7796208370000386,2.713333333333333,0.9928205128205128,1.6036630036630035
2.781200778999846,2.477216117216117,0.5093040293040293,0.7558974358974359
2.7855420150008285,3.3,0.9484981684981684,1.3522344322344322
2.786513996001304,3.3,0.9484981684981684,1.3522344322344322
2.787410484999782,3.3,0.9484981684981684,1.3522344322344322
2.7890001030009444,3.3,0.9484981684981684,1.3522344322344322
2.7931900470011897,3.3,0.9484981684981684,1.3522344322344322
2.795910664000985,3.3,0.15472527472527473,0.32798534798534795
2.8006691570008115,3.3,0.15472527472527473,0.32798534798534795
2.8009229430008418,3.3,0.15472527472527473,0.32798534798534795
2.8061138140001276,3.3,0.15472527472527473,0.32798534798534795
2.8090867020000587,3.3,0.15472527472527473,0.32798534798534795
2.812072246000753,3.3,0.15472527472527473,0.32798534798534795
2.8152509620013006,3.3,0.15472527472527473,0.32798534798534795
2.8167658610000217,3.3,0.15472527472527473,0.32798534798534795
2.821265784999923,3.3,0.15472527472527473,0.32798534798534795
2.82225044200095,2.6714285714285713,0.9243223443223443,1.3594871794871795
2.8230691030003072,2.6714285714285713,0.9243223443223443,1.3594871794871795
2.824720676000652,2.6714285714285713,0.9243223443223443,1.3594871794871795
2.8285122150009556,3.3,0.46739926739926735,0.6575824175824176
2.83294739700068,3.3,0.46739926739926735,0.6575824175824176
2.835942175999662,3.3,0.46739926739926735,0.6575824175824176
2.8398524399999587,2.713333333333333,1.0427838827838827,1.7704761904761903
2.8427098949996434,2.713333333333333,1.0427838827838827,1.7704761904761903
2.844547655000497,2.6706227106227107,0.917069597069597,1.4271794871794872
2.8477750460006064,2.6706227106227107,0.917069597069597,1.4271794871794872
2.849359675001324,2.6706227106227107,0.917069597069597,1.4271794871794872
2.8556420000004437,2.6706227106227107,0.917069597069597,1.4271794871794872
2.8615126080003392,2.6706227106227107,0.917069597069597,1.4271794871794872
2.866207488001237,2.6706227106227107,0.917069597069597,1.4271794871794872
2.8702509440008726,2.6706227106227107,0.917069597069597,1.4271794871794872
2.876185537999845,2.6706227106227107,0.917069597069597,1.4271794871794872
2.880973418999929,2.6706227106227107,0.917069597069597,1.4271794871794872
2.8855613129999256,2.6706227106227107,0.917069597069597,1.4271794871794872
2.885850188000404,2.6706227106227107,0.917069597069597,1.4271794871794872
2.893458444001226,2.6706227106227107,0.917069597069597,1.4271794871794872
2.8980466410012014,2.6706227106227107,0.917069597069597,1.4271794871794872
2.8989240270002483,2.6706227106227107,0.917069597069597,1.4271794871794872
2.9007584339997265,2.6706227106227107,0.917069597069597,1.4271794871794872
2.9050115210011427,2.6706227106227107,0.917069597069597,1.4271794871794872
2.9069486870012042,2.706886446886447,0.49882783882783877,0.6978754578754578
2.9086534360012593,2.706886446886447,0.49882783882783877,0.6978754578754578
2.911110715000177,2.706886446886447,0.49882783882783877,0.6978754578754578
2.91631521599993,3.3,0.6680586080586081,0.5915018315018314
2.9194240720007656,3.3,0.6680586080586081,0.5915018315018314
2.9216691060009907,2.771355311355311,0.5987545787545787,0.7284981684981684
2.92185031200097,2.771355311355311,0.5987545787545787,0.7284981684981684
2.9280604779996793,2.771355311355311,0.5987545787545787,0.7284981684981684
2.9318522270004905,2.771355311355311,0.5987545787545787,0.7284981684981684
2.937411802000497,2.771355311355311,0.5987545787545787,0.7284981684981684
2.938428807001401,2.6778754578754578,0.12168498168498168,0.14908424908424908
2.93971705200056,2.6778754578754578,0.12168498168498168,0.14908424908424908
2.9399270550002257,2.6778754578754578,0.12168498168498168,0.14908424908424908
2.9460491690006165,2.6778754578754578,0.12168498168498168,0.14908424908424908
2.950100754000232,2.6778754578754578,0.12168498168498168,0.14908424908424908
2.9540434360005747,2.6778754578754578,0.12168498168498168,0.14908424908424908
2.9598871979997057,2.6778754578754578,0.12168498168498168,0.14908424908424908
2.9638465930001985,3.3,0.9259340659340659,1.3296703296703296
2.9675842779997765,3.3,0.9259340659340659,1.3296703296703296
2.9739208560004045,3.3,0.9259340659340659,1.3296703296703296
2.9774557870005083,3.3,0.9259340659340659,1.3296703296703296
2.9776388720001705,3.3,0.9259340659340659,1.3296703296703296
2.982936217000315,3.3,0.06769230769230769,0.1676190476190476
2.9859615140012465,3.3,1.3965567765567766,1.0653479853479852
2.990750589000527,3.3,1.3965567765567766,1.0653479853479852
2.995712922000166,3.3,1.3965567765567766,1.0653479853479852
2.999771660000988,2.6746520146520147,1.2837362637362637,1.822051282051282
3.0050249630003236,2.6746520146520147,1.2837362637362637,1.822051282051282
3.0084573840013036,2.6746520146520147,1.2837362637362637,1.822051282051282
3.01347999599966,2.6746520146520147,1.2837362637362637,1.822051282051282
3.0172523410001304,2.893040293040293,0.029816849816849816,0.29736263736263735
3.025116834000073,2.709304029304029,0.8348717948717947,1.3747985347985348
3.028882615000839,2.6778754578754578,0.9581684981684981,1.4118681318681316
3.0337368930013326,2.6778754578754578,0.9581684981684981,1.4118681318681316
3.0411805269995966,3.3,0.3473260073260073,0.7252747252747253
3.045269391999682,2.7117216117216114,1.2144322344322345,1.8276923076923077
3.048646977000317,2.6649816849816848,0.6543589743589743,0.9799267399267398
3.0489023310001357,2.6649816849816848,0.6543589743589743,0.9799267399267398
3.0552548200012097,2.6649816849816848,0.6543589743589743,0.9799267399267398
3.0596207350008626,2.6649816849816848,0.6543589743589743,0.9799267399267398
3.06056029300089,2.6649816849816848,0.6543589743589743,0.9799267399267398
3.0620789950007747,3.017948717948718,0.9525274725274724,1.353040293040293
3.0668896620009036,3.017948717948718,0.9525274725274724,1.353040293040293
3.0746328020013607,3.017948717948718,0.9525274725274724,1.353040293040293
3.0784475220007153,3.017948717948718,0.9525274725274724,1.353040293040293
3.0837555560010514,2.7117216117216114,0.5963369963369963,1.0701831501831502
3.086017683999671,2.7117216117216114,0.5963369963369963,1.0701831501831502
3.0862178380011756,3.3,0.3731135531135531,0.5076923076923077
3.09279652800069,3.3,0.3731135531135531,0.5076923076923077
3.0965876310001477,3.3,0.14747252747252745,0.34813186813186814
3.102220868000586,3.3,0.14747252747252745,0.34813186813186814
3.103091115001007,3.3,0.14747252747252745,0.34813186813186814
3.1048125680008525,3.3,0.14747252747252745,0.34813186813186814
3.109816584001237,3.3,0.14747252747252745,0.34813186813186814
3.1120966620001127,3.3,0.14747252747252745,0.34813186813186814
3.112884729000143,3.3,0.14747252747252745,0.34813186813186814
3.1153811269996368,3.3,0.14747252747252745,0.34813186813186814
3.1215165110006637,3.066300366300366,0.15794871794871795,0.3932600732600733
3.126709555001071,2.6778754578754578,0.8695238095238095,1.4062271062271061
3.129701241001385,2.6585347985347987,0.5036630036630036,0.7832967032967032
3.1326502980009536,3.3,0.8316483516483516,0.6261538461538461
3.1364970860013273,3.3,0.19904761904761903,0.35216117216117215
3.1436665170003835,3.3,0.19904761904761903,0.35216117216117215
3.1478980960000627,3.3,0.19904761904761903,0.35216117216117215
3.1502143859997886,2.6545054945054947,0.5262271062271061,0.8252014652014652
3.150420316000236,2.6545054945054947,0.5262271062271061,0.8252014652014652
3.158357206000801,2.6545054945054947,0.5262271062271061,0.8252014652014652
3.162527434000367,3.3,1.2531135531135529,0.9863736263736262
3.164740019999954,3.3,0.9791208791208791,1.315970695970696
3.165538142000514,3.3,0.9791208791208791,1.315970695970696
3.1670802980006556,3.3,0.9791208791208791,1.315970695970696
3.171732595001231,3.3,0.9791208791208791,1.315970695970696
3.171859908001352,3.3,0.9791208791208791,1.315970695970696
3.177437711001403,3.3,0.9791208791208791,1.315970695970696
3.1778171860005386,3.3,0.9791208791208791,1.315970695970696
3.18254101400089,3.3,0.9791208791208791,1.315970695970696
3.1826800939998066,3.3,0.9791208791208791,1.315970695970696
3.188697936000608,3.3,0.9791208791208791,1.315970695970696
3.1951661790008075,3.3,0.9791208791208791,1.315970695970696
3.1992251640003815,3.3,0.9791208791208791,1.315970695970696
3.2023564060000353,3.3,0.9791208791208791,1.315970695970696
3.204808675000095,3.3,0.9791208791208791,1.315970695970696
3.210581381001248,3.3,0.9791208791208791,1.315970695970696
3.2107977340001526,3.3,0.9791208791208791,1.315970695970696
3.2155541379997885,3.3,0.9791208791208791,1.315970695970696
3.2156626249998226,3.3,0.9791208791208791,1.315970695970696
3.221185919999698,3.3,0.9791208791208791,1.315970695970696
3.222508619999644,3.3,0.9791208791208791,1.315970695970696
3.2284657870004594,3.3,0.9791208791208791,1.315970695970696
3.23287969500052,3.3,0.40615384615384614,0.5987545787545787
3.2345406160002312,3.0808058608058606,0.06446886446886446,0.25787545787545785
3.239259736999884,3.0808058608058606,0.06446886446886446,0.25787545787545785
3.2445056430005934,3.3,0.9662271062271062,0.9283516483516483
3.2475170680008887,3.3,0.9662271062271062,0.9283516483516483
3.249170758999753,3.3,0.9662271062271062,0.9283516483516483
3.2528972060008527,3.3,0.9662271062271062,0.9283516483516483
3.259628142999645,3.3,0.9662271062271062,0.9283516483516483
3.263362812000196,2.963150183150183,0.8542124542124543,1.3151648351648353
3.2635317250005755,2.963150183150183,0.8542124542124543,1.3151648351648353
3.268194981999841,2.963150183150183,0.8542124542124543,1.3151648351648353
3.2684292730009474,2.963150183150183,0.8542124542124543,1.3151648351648353
3.275230642000679,2.963150183150183,0.8542124542124543,1.3151648351648353
3.280313725999804,2.963150183150183,0.8542124542124543,1.3151648351648353
3.281959731000825,2.6682051282051282,0.3424908424908425,0.606007326007326
3.2856443830005446,2.6682051282051282,0.3424908424908425,0.606007326007326
3.2858748540002125,2.6682051282051282,0.3424908424908425,0.606007326007326
3.2944758240009833,2.6682051282051282,0.3424908424908425,0.606007326007326
3.3007363050001004,2.6746520146520147,1.1225641025641024,0.6672527472527472
3.3080185550006718,2.664175824175824,0.27641025641025635,0.4754578754578754
3.3113101119997737,2.664175824175824,0.27641025641025635,0.4754578754578754
3.3129067400004715,2.664175824175824,0.27641025641025635,0.4754578754578754
3.3175314319996687,2.664175824175824,0.27641025641025635,0.4754578754578754
3.327635829000428,2.7117216117216114,1.3167765567765568,1.9977289377289376
3.3345700910012965,3.3,1.4175091575091574,1.0613186813186812
3.3401450170003955,3.3,1.4175091575091574,1.0613186813186812
3.340487381999992,3.3,1.4175091575091574,1.0613186813186812
3.34482368800127,3.3,0.9452747252747251,1.332087912087912
3.3466420590011694,3.3,0.9452747252747251,1.332087912087912
3.3495241760010686,3.3,0.9452747252747251,1.332087912087912
3.3532757270004367,2.357142857142857,0.36344322344322344,0.4722344322344322
3.3627232770013507,3.3,0.18776556776556774,0.4085714285714286
3.36828438700104,3.3,0.18776556776556774,0.4085714285714286
3.368600294001226,3.3,0.18776556776556774,0.4085714285714286
3.37751385699994,3.3,1.1032234432234431,0.5963369963369963
3.382666389001315,2.6778754578754578,1.195091575091575,1.6544322344322344
3.3917452360001334,2.6682051282051282,0.7091575091575092,1.0726007326007325
3.39617441900009,3.3,0.16117216117216115,0.34007326007326005
3.3964702850007598,3.3,0.16117216117216115,0.34007326007326005
3.403963538001335,3.3,0.16117216117216115,0.34007326007326005
3.4099106900011975,3.3,0.16117216117216115,0.34007326007326005
3.4145581900011166,3.3,0.16117216117216115,0.34007326007326005
3.4245298799996817,2.7125274725274724,1.261172161172161,1.9945054945054943
3.4307822160008072,3.3,1.1515750915750915,1.0967765567765566
3.4338055650005117,3.3,1.1515750915750915,1.0967765567765566
3.437768515999778,3.2935531135531133,0.07897435897435898,0.29655677655677654
3.442173396000726,3.2935531135531133,0.07897435897435898,0.29655677655677654
3.4425572990003275,2.6649816849816848,0.929157509157509,1.4304029304029304
3.4470489350005664,2.6649816849816848,0.929157509157509,1.4304029304029304
3.447867398001108,2.6649816849816848,0.929157509157509,1.4304029304029304
3.449688810000225,2.6649816849816848,0.929157509157509,1.4304029304029304
3.455503287999818,2.6649816849816848,0.929157509157509,1.4304029304029304
3.461767028000395,2.6649816849816848,0.929157509157509,1.4304029304029304
3.4677711200001795,2.681098901098901,0.5778021978021978,0.8163369963369963
3.475243610000689,2.681098901098901,0.5778021978021978,0.8163369963369963
3.478960079000899,2.681098901098901,0.5778021978021978,0.8163369963369963
3.4835311160004494,2.681098901098901,0.5778021978021978,0.8163369963369963
3.483929951000391,2.681098901098901,0.5778021978021978,0.8163369963369963
3.490575773001183,2.681098901098901,0.5778021978021978,0.8163369963369963
3.4937343140009034,3.3,0.7075457875457875,0.5947252747252747
3.495975413999986,3.3,0.7075457875457875,0.5947252747252747
3.4962701910008036,3.3,0.7075457875457875,0.5947252747252747
3.5008250570008386,3.3,0.7075457875457875,0.5947252747252747
3.5017344250009046,3.3,0.7075457875457875,0.5947252747252747
3.5034300650004297,3.3,0.7075457875457875,0.5947252747252747
3.5074310489999334,3.3,0.7075457875457875,0.5947252747252747
3.510749349001344,3.3,0.7075457875457875,0.5947252747252747
3.5116136930009816,3.3,0.7075457875457875,0.5947252747252747
3.5132048600007693,3.3,0.7075457875457875,0.5947252747252747
3.51704827300091,3.3,0.7075457875457875,0.5947252747252747
3.525554286999977,2.713333333333333,1.091135531135531,1.7809523809523808
3.52944172000025,2.713333333333333,1.091135531135531,1.7809523809523808
3.5340883680000843,3.3,0.4738461538461538,0.5044688644688645
3.5342879489999177,3.192014652014652,0.0,0.3553846153846154
3.5419948660000955,3.192014652014652,0.0,0.3553846153846154
3.546762251000473,3.192014652014652,0.0,0.3553846153846154
3.5470210980001866,2.6585347985347987,0.5334798534798535,0.8590476190476191
3.551457569001286,2.6585347985347987,0.5334798534798535,0.8590476190476191
3.5522653980006,2.6585347985347987,0.5334798534798535,0.8590476190476191
3.554689390000931,2.6585347985347987,0.5334798534798535,0.8590476190476191
3.554933823999818,2.689157509157509,1.2643956043956044,1.8784615384615382
3.5613510250004765,2.689157509157509,1.2643956043956044,1.8784615384615382
3.5654564640008175,2.689157509157509,1.2643956043956044,1.8784615384615382
3.568144601000313,2.689157509157509,1.2643956043956044,1.8784615384615382
3.576046035001127,2.689157509157509,1.2643956043956044,1.8784615384615382
3.5798269610004354,2.689157509157509,1.2643956043956044,1.8784615384615382
3.5850556820005295,1.7898168498168496,0.7841025641025641,0.925128205128205
3.588528029000372,1.7898168498168496,0.7841025641025641,0.925128205128205
3.5951942869996856,1.7898168498168496,0.7841025641025641,0.925128205128205
3.599213924000651,3.0775824175824176,0.0273992673992674,0.3046153846153846
3.603318401999786,3.0775824175824176,0.0273992673992674,0.3046153846153846
3.610090696000043,3.0775824175824176,0.0273992673992674,0.3046153846153846
3.617113596001218,3.0775824175824176,0.0273992673992674,0.3046153846153846
3.622253276000265,3.0775824175824176,0.0273992673992674,0.3046153846153846
3.6256980289999774,3.0775824175824176,0.0273992673992674,0.3046153846153846
3.625879197001268,3.3,0.3892307692307692,0.5874725274725274
3.6308768180006155,3.3,0.3892307692307692,0.5874725274725274
3.6353305550001096,3.3,0.3892307692307692,0.5874725274725274
3.6356748649996007,3.3,0.3892307692307692,0.5874725274725274
3.6433206420006172,3.3,0.3892307692307692,0.5874725274725274
3.6477746960008517,3.3,0.12329670329670328,0.2562637362637363
3.6493399379996845,3.3,0.3642490842490842,0.5641025641025641
3.6531578909998643,3.3,1.195091575091575,0.6148717948717949
3.659854556000937,3.3,0.10073260073260072,0.303003663003663
3.66360750900094,3.3,0.10073260073260072,0.303003663003663
3.668934965000517,3.3,0.10073260073260072,0.303003663003663
3.6736017130006076,3.3,0.10073260073260072,0.303003663003663
3.678326183000536,3.3,0.16117216117216115,0.3932600732600733
3.6785026010002184,3.3,0.16117216117216115,0.3932600732600733
3.6837028629997803,3.3,0.16117216117216115,0.3932600732600733
3.6883885839997674,3.3,0.16117216117216115,0.3932600732600733
3.694212731999869,3.3,0.16117216117216115,0.3932600732600733
3.6994844420005393,3.0268131868131865,0.03868131868131868,0.29010989010989013
3.7049162500006787,3.0268131868131865,0.03868131868131868,0.29010989010989013
3.7065725740012567,3.0268131868131865,0.03868131868131868,0.29010989010989013
3.7096367009999085,3.0268131868131865,0.03868131868131868,0.29010989010989013
3.7119385470014095,3.0268131868131865,0.03868131868131868,0.29010989010989013
3.7127323479999177,3.0268131868131865,0.03868131868131868,0.29010989010989013
3.71473521200096,3.0268131868131865,0.03868131868131868,0.29010989010989013
3.7166302730001917,3.0268131868131865,0.03868131868131868,0.29010989010989013
3.7184198730010394,3.0268131868131865,0.03868131868131868,0.29010989010989013
3.7222541440005443,3.0268131868131865,0.03868131868131868,0.29010989010989013
3.727457700000741,3.0268131868131865,0.03868131868131868,0.29010989010989013
3.729061873000319,3.0268131868131865,0.03868131868131868,0.29010989010989013
3.732850854001299,3.0268131868131865,0.03868131868131868,0.29010989010989013
3.7401965690005454,3.0268131868131865,0.03868131868131868,0.29010989010989013
3.7440488070005813,3.0268131868131865,0.03868131868131868,0.29010989010989013
3.748508814000161,3.0268131868131865,0.03868131868131868,0.29010989010989013
3.749367878001067,3.3,0.3658608058608058,0.5052747252747253
3.7512767810003425,3.3,0.3658608058608058,0.5052747252747253
3.7569215260009514,3.3,0.3658608058608058,0.5052747252747253
3.7610414030004904,2.6665934065934067,0.14666666666666667,0.2498168498168498
3.7633911820012145,2.6665934065934067,0.14666666666666667,0.2498168498168498
3.7635645669997757,2.6665934065934067,0.14666666666666667,0.2498168498168498
3.768644462999873,2.6665934065934067,0.14666666666666667,0.2498168498168498
3.776323007001338,2.6665934065934067,0.14666666666666667,0.2498168498168498
3.780901375001122,2.6665934065934067,0.14666666666666667,0.2498168498168498
3.782165234000786,2.6665934065934067,0.14666666666666667,0.2498168498168498
3.782314314999894,2.6665934065934067,0.14666666666666667,0.2498168498168498
3.7870656900013273,2.6665934065934067,0.14666666666666667,0.2498168498168498
3.793582738000623,3.3,0.3545787545787546,0.5254212454212454
3.797608160000891,3.3,1.344981684981685,0.6454945054945055
3.8015576010002405,3.3,1.344981684981685,0.6454945054945055
3.8071044820007955,3.3,1.344981684981685,0.6454945054945055
3.807409902001382,3.3,0.3457142857142857,0.5173626373626373
3.8122091420009383,3.3,0.3457142857142857,0.5173626373626373
3.812371310999879,3.3,0.8163369963369963,0.6608058608058608
3.8169818690003012,3.3,0.8163369963369963,0.6608058608058608
3.8171943920006015,3.3,0.8163369963369963,0.6608058608058608
3.826119708000988,3.3,0.8163369963369963,0.6608058608058608
3.8294387940004526,3.2717948717948717,0.9783150183150182,1.3119413919413918
3.830435662999662,3.2717948717948717,0.9783150183150182,1.3119413919413918
3.8313529480001307,3.2717948717948717,0.9783150183150182,1.3119413919413918
3.8328573550006695,3.2717948717948717,0.9783150183150182,1.3119413919413918
3.8390398020001157,3.2717948717948717,0.9783150183150182,1.3119413919413918
3.8428397650004626,3.2717948717948717,0.9783150183150182,1.3119413919413918
3.846632161001253,3.2717948717948717,0.9783150183150182,1.3119413919413918
3.8512638110005355,3.2717948717948717,0.9783150183150182,1.3119413919413918
3.851405725001314,3.2717948717948717,0.9783150183150182,1.3119413919413918
3.858277055000144,3.2717948717948717,0.9783150183150182,1.3119413919413918
3.86206764400049,2.6964102564102563,0.03223443223443223,0.24578754578754577
3.8669305040002655,3.3,0.9565567765567766,1.3586813186813185
3.875893205000466,2.6706227106227107,0.506080586080586,0.8348717948717947
3.879793698000867,2.6545054945054947,0.307032967032967,0.32153846153846155
3.883593231999839,2.6545054945054947,0.307032967032967,0.32153846153846155
3.888717150000957,2.6545054945054947,0.307032967032967,0.32153846153846155
3.8956961290004983,2.6545054945054947,0.307032967032967,0.32153846153846155
3.9001144400008343,2.6545054945054947,0.307032967032967,0.32153846153846155
3.901766974000566,2.6545054945054947,0.307032967032967,0.32153846153846155
3.9088545920003526,2.6545054945054947,0.307032967032967,0.32153846153846155
3.912623705000442,3.005054945054945,0.34007326007326005,0.35216117216117215
3.917150189001404,3.3,0.07575091575091575,0.24256410256410255
3.918654098000843,2.6649816849816848,0.2216117216117216,0.39567765567765567
3.9260507079998206,3.3,1.2353846153846153,1.0443956043956042
3.9305420920009055,3.3,1.2353846153846153,1.0443956043956042
3.9308751099997608,3.3,1.2353846153846153,1.0443956043956042
3.9353812850004033,3.3,1.2353846153846153,1.0443956043956042
3.9364084910012025,3.3,1.2353846153846153,1.0443956043956042
3.9367062960009207,3.3,1.2353846153846153,1.0443956043956042
3.9441061100005754,3.3,1.2353846153846153,1.0443956043956042
3.9488770400002977,3.3,1.2353846153846153,1.0443956043956042
3.949152305000098,3.3,1.2353846153846153,1.0443956043956042
3.9539569080006913,3.3,1.2353846153846153,1.0443956043956042
3.9632451480010786,3.3,1.2353846153846153,1.0443956043956042
3.9720366780002223,3.3,1.2353846153846153,1.0443956043956042
3.9778193100009958,3.3,1.2353846153846153,1.0443956043956042
3.98425780999969,2.9905494505494503,0.8284249084249083,1.2555311355311354
3.9893072310005664,2.9905494505494503,0.8284249084249083,1.2555311355311354
3.99291025400089,2.9905494505494503,0.8284249084249083,1.2555311355311354
3.993020695999803,2.9905494505494503,0.8284249084249083,1.2555311355311354
3.9979044960000465,2.423223443223443,0.06688644688644689,0.24095238095238095
3.9980307100013306,2.423223443223443,0.06688644688644689,0.24095238095238095
4.003275871000369,2.423223443223443,0.06688644688644689,0.24095238095238095
4.008735647999856,2.423223443223443,0.06688644688644689,0.24095238095238095
4.008937329999753,2.423223443223443,0.06688644688644689,0.24095238095238095
4.013582174000476,2.423223443223443,0.06688644688644689,0.24095238095238095
4.013837947000866,2.6536996336996337,0.3191208791208791,0.2868864468864469
4.019451947000562,2.6536996336996337,0.3191208791208791,0.2868864468864469
4.021131972000148,2.6536996336996337,0.3191208791208791,0.2868864468864469
4.026280801001121,2.6536996336996337,0.3191208791208791,0.2868864468864469
4.027191651000976,2.6536996336996337,0.3191208791208791,0.2868864468864469
4.029043239999737,2.6536996336996337,0.3191208791208791,0.2868864468864469
4.031318012001066,2.6536996336996337,0.3191208791208791,0.2868864468864469
4.031592982000802,2.6536996336996337,0.3191208791208791,0.2868864468864469
4.038046843999837,2.6536996336996337,0.3191208791208791,0.2868864468864469
4.042087957001058,2.6536996336996337,0.3191208791208791,0.2868864468864469
4.044480831000328,2.739120879120879,0.8671062271062271,1.4674725274725273
4.04463561600096,2.739120879120879,0.8671062271062271,1.4674725274725273
4.050199040000734,2.739120879120879,0.8671062271062271,1.4674725274725273
4.051008491000175,2.739120879120879,0.8671062271062271,1.4674725274725273
4.052760389000468,2.739120879120879,0.8671062271062271,1.4674725274725273
4.057497544001308,2.8938461538461535,0.03465201465201465,0.3167032967032967
4.063457362000918,2.8938461538461535,0.03465201465201465,0.3167032967032967
4.068070444000114,2.8938461538461535,0.03465201465201465,0.3167032967032967
4.0683892280012515,2.8938461538461535,0.03465201465201465,0.3167032967032967
4.075923931000943,2.8938461538461535,0.03465201465201465,0.3167032967032967
4.080511948999629,3.3,0.14666666666666667,0.31750915750915754
4.080855051000981,3.3,0.14666666666666667,0.31750915750915754
4.087723908000044,3.3,0.14666666666666667,0.31750915750915754
4.095527489000233,3.3,0.14666666666666667,0.31750915750915754
4.099677332000283,3.3,0.06608058608058608,0.29816849816849816
4.101618168000641,3.3,0.06608058608058608,0.29816849816849816
4.104280207000556,3.3,0.06608058608058608,0.29816849816849816
4.1137752550002915,3.3,0.06608058608058608,0.29816849816849816
4.123678351001217,3.3,0.06608058608058608,0.29816849816849816
4.134556433000398,3.3,0.06608058608058608,0.29816849816849816
4.145792838000489,2.66014652014652,0.51010989010989,0.8437362637362636
4.157468313000209,2.66014652014652,0.51010989010989,0.8437362637362636
4.166660398001113,2.66014652014652,0.51010989010989,0.8437362637362636
4.175031602000672,3.3,0.8953113553113552,1.3336996336996336
4.17974295500062,3.3,0.8953113553113552,1.3336996336996336
4.188904316000844,3.3,1.1580219780219778,1.0621245421245422
4.197242072001245,3.3,1.1580219780219778,1.0621245421245422
4.205191558001388,2.245128205128205,0.04996336996336996,0.17648351648351646
4.209255707000921,2.245128205128205,0.04996336996336996,0.17648351648351646
4.2117460730005405,2.245128205128205,0.04996336996336996,0.17648351648351646
4.211857137001061,2.245128205128205,0.04996336996336996,0.17648351648351646
4.216427340999871,2.245128205128205,0.04996336996336996,0.17648351648351646
4.216831502000787,2.245128205128205,0.04996336996336996,0.17648351648351646
4.222282814000209,2.245128205128205,0.04996336996336996,0.17648351648351646
4.224812305999876,2.245128205128205,0.04996336996336996,0.17648351648351646
4.229428030001145,2.245128205128205,0.04996336996336996,0.17648351648351646
4.229798674999984,2.245128205128205,0.04996336996336996,0.17648351648351646
4.235479990000385,2.245128205128205,0.04996336996336996,0.17648351648351646
4.235936517001392,2.245128205128205,0.04996336996336996,0.17648351648351646
4.243364683999971,2.245128205128205,0.04996336996336996,0.17648351648351646
4.247669817999849,2.245128205128205,0.04996336996336996,0.17648351648351646
4.2501105459996324,2.66014652014652,0.5028571428571429,0.9041758241758242
4.250370327001292,2.66014652014652,0.5028571428571429,0.9041758241758242
4.257051639000565,3.3,0.17003663003663003,0.3352380952380952
4.260145363001357,3.3,0.17003663003663003,0.3352380952380952
4.262426503000825,3.3,0.17003663003663003,0.3352380952380952
4.26267766500132,3.3,0.17003663003663003,0.3352380952380952
4.268834274000255,2.6633699633699632,0.7204395604395604,1.0734065934065933
4.27560234900011,2.6633699633699632,0.7204395604395604,1.0734065934065933
4.278960679999727,2.655311355311355,0.27238095238095233,0.3505494505494505
4.28054929100108,2.713333333333333,0.8268131868131867,1.3627106227106225
4.284350686000835,2.713333333333333,0.8268131868131867,1.3627106227106225
4.291826201000731,2.713333333333333,0.8268131868131867,1.3627106227106225
4.296047593999901,3.3,0.07413919413919413,0.2627106227106227
4.299163220999617,3.3,0.07413919413919413,0.2627106227106227
4.301377638001213,3.3,0.8888644688644688,0.8920879120879119
4.301624472000185,3.3,0.8888644688644688,0.8920879120879119
4.310309839000183,3.3,0.8888644688644688,0.8920879120879119
4.315706830000636,3.3,0.8888644688644688,0.8920879120879119
4.3172686510006315,2.681098901098901,1.2692307692307692,1.8575091575091573
4.322908742000436,2.713333333333333,0.8582417582417583,1.4094505494505494
4.331643614999848,2.713333333333333,0.8582417582417583,1.4094505494505494
4.339595254001324,2.713333333333333,0.8582417582417583,1.4094505494505494
4.346319222000602,2.7415384615384615,0.8687179487179487,1.4529670329670328
4.3518193239997345,2.7415384615384615,0.8687179487179487,1.4529670329670328
4.352155102000324,2.7415384615384615,0.8687179487179487,1.4529670329670328
4.361523532001229,2.7415384615384615,0.8687179487179487,1.4529670329670328
4.3677340560007,2.7415384615384615,0.8687179487179487,1.4529670329670328
4.371052323000185,2.7415384615384615,0.8687179487179487,1.4529670329670328
4.37228128300012,2.7415384615384615,0.8687179487179487,1.4529670329670328
4.3782970780011965,2.7415384615384615,0.8687179487179487,1.4529670329670328
4.386647504001303,3.3,1.3022710622710623,1.037948717948718
4.394100817000435,3.3,1.3022710622710623,1.037948717948718
4.398231729999679,3.3,1.3022710622710623,1.037948717948718
4.400656498000899,3.3,0.09589743589743589,0.20065934065934066
4.40083094900001,3.3,0.09589743589743589,0.20065934065934066
4.407793751001009,3.3,0.09589743589743589,0.20065934065934066
4.411991296001361,3.3,0.09589743589743589,0.20065934065934066
4.415578743000879,3.3,0.09589743589743589,0.20065934065934066
4.423481081999853,3.3,0.09589743589743589,0.20065934065934066
4.4284757820005325,3.3,0.09589743589743589,0.20065934065934066
4.434099187001266,3.3,0.9702564102564102,0.6189010989010989
4.434319898000467,3.3,0.9702564102564102,0.6189010989010989
4.44230777499979,3.3,0.9702564102564102,0.6189010989010989
4.446309873001155,2.1879120879120877,0.9597802197802198,1.2418315018315018
4.450273099000697,2.76007326007326,0.29655677655677654,0.3263736263736263
4.456744062001235,3.3,0.3537728937728937,0.49076923076923074
4.460206224001013,3.3,0.3537728937728937,0.49076923076923074
4.460349226001199,3.3,0.3537728937728937,0.49076923076923074
4.464840647000528,3.3,0.3537728937728937,0.49076923076923074
4.466370742000436,2.6569230769230767,0.5600732600732601,0.8356776556776556
4.473347306000505,2.6569230769230767,0.5600732600732601,0.8356776556776556
4.477482625999983,2.6569230769230767,0.5600732600732601,0.8356776556776556
4.479118698000093,2.5046153846153842,0.23531135531135527,0.3997069597069597
4.484028972001397,2.5046153846153842,0.23531135531135527,0.3997069597069597
4.489874111000972,2.6706227106227107,0.6575824175824176,1.0323076923076921
4.497094068001388,2.68996336996337,0.22644688644688646,0.332014652014652
4.502273736999996,2.68996336996337,0.22644688644688646,0.332014652014652
4.506886715000292,2.68996336996337,0.22644688644688646,0.332014652014652
4.514010044000315,2.68996336996337,0.22644688644688646,0.332014652014652
4.51922885500062,3.1436630036630033,0.21194139194139192,0.3690842490842491
4.52156182500039,2.7117216117216114,0.6664468864468864,1.1257875457875457
4.529560898999989,2.7117216117216114,0.6664468864468864,1.1257875457875457
4.537081721000504,2.7117216117216114,0.6664468864468864,1.1257875457875457
4.5436049590007315,2.7117216117216114,0.6664468864468864,1.1257875457875457
4.548549401000855,2.4796336996336996,0.4545054945054945,0.6253479853479853
4.5556360660011705,3.3,1.2087912087912087,0.6688644688644688
4.560988311000983,3.3,1.2087912087912087,0.6688644688644688
4.561952994999956,2.6746520146520147,0.9057875457875458,1.3788278388278388
4.564321616000598,2.6746520146520147,0.9057875457875458,1.3788278388278388
4.570642126000166,2.6746520146520147,0.9057875457875458,1.3788278388278388
4.577274056000533,2.6746520146520147,0.9057875457875458,1.3788278388278388
4.582727220000379,2.6746520146520147,0.9057875457875458,1.3788278388278388
4.5829915550002625,2.6746520146520147,0.9057875457875458,1.3788278388278388
4.589798128999973,2.6746520146520147,0.9057875457875458,1.3788278388278388
4.59520988100121,2.6746520146520147,0.9057875457875458,1.3788278388278388
4.595498302000124,2.6746520146520147,0.9057875457875458,1.3788278388278388
4.601338316000692,2.6746520146520147,0.9057875457875458,1.3788278388278388
4.609493345000374,2.6746520146520147,0.9057875457875458,1.3788278388278388
4.615017050000461,2.726227106227106,0.473040293040293,0.734139194139194
4.617033758000616,2.726227106227106,0.473040293040293,0.734139194139194
4.618286599001294,2.726227106227106,0.473040293040293,0.734139194139194
4.618517483000687,2.726227106227106,0.473040293040293,0.734139194139194
4.627954995001346,2.726227106227106,0.473040293040293,0.734139194139194
4.633406865001234,2.726227106227106,0.473040293040293,0.734139194139194
4.635202114001004,2.726227106227106,0.473040293040293,0.734139194139194
4.640931287000058,2.726227106227106,0.473040293040293,0.734139194139194
4.646528956000111,2.3926007326007324,0.30058608058608055,0.4810989010989011
4.646787614001369,2.3926007326007324,0.30058608058608055,0.4810989010989011
4.652056061000621,2.3926007326007324,0.30058608058608055,0.4810989010989011
4.658973521000007,2.3926007326007324,0.30058608058608055,0.4810989010989011
4.663922310999624,2.3926007326007324,0.30058608058608055,0.4810989010989011
4.6669849139998405,2.3926007326007324,0.30058608058608055,0.4810989010989011
4.669465046001278,2.3926007326007324,0.30058608058608055,0.4810989010989011
4.677678578000268,2.3926007326007324,0.30058608058608055,0.4810989010989011
4.682803499001238,2.3926007326007324,0.30058608058608055,0.4810989010989011
4.68867438900088,2.3926007326007324,0.30058608058608055,0.4810989010989011
4.696579270999791,2.3926007326007324,0.30058608058608055,0.4810989010989011
4.705712521999885,3.3,0.10395604395604395,0.28849816849816845
4.710097504001169,3.3,0.10395604395604395,0.28849816849816845
4.711574038001345,3.3,0.10395604395604395,0.28849816849816845
4.7160325790009665,3.3,0.10395604395604395,0.28849816849816845
4.717110200999741,2.7125274725274724,1.2724542124542124,2.041245421245421
4.717472099000588,2.7125274725274724,1.2724542124542124,2.041245421245421
4.724040344000969,2.7125274725274724,1.2724542124542124,2.041245421245421
4.727997002000848,2.7125274725274724,1.2724542124542124,2.041245421245421
4.733767891000753,2.7125274725274724,1.2724542124542124,2.041245421245421
4.7406558399998175,2.7125274725274724,1.2724542124542124,2.041245421245421
4.743786492999789,2.7125274725274724,1.2724542124542124,2.041245421245421
4.745389102001354,2.7125274725274724,1.2724542124542124,2.041245421245421
4.749193831999946,2.7125274725274724,1.2724542124542124,2.041245421245421
4.756295316999967,2.7125274725274724,1.2724542124542124,2.041245421245421
4.759957542000848,3.3,0.22967032967032966,0.361025641025641
4.765223977001369,3.3,0.22967032967032966,0.361025641025641
4.7682347940008185,3.3,0.22967032967032966,0.361025641025641
4.771587029001239,3.2089377289377286,0.6882051282051282,0.5608791208791208
4.771852975000002,3.2089377289377286,0.6882051282051282,0.5608791208791208
4.777072382999904,3.2089377289377286,0.6882051282051282,0.5608791208791208
4.7801974510002765,3.2089377289377286,0.6882051282051282,0.5608791208791208
4.7824954700008675,3.2089377289377286,0.6882051282051282,0.5608791208791208
4.782704372000808,3.2089377289377286,0.6882051282051282,0.5608791208791208
4.788623764001386,3.2089377289377286,0.6882051282051282,0.5608791208791208
4.794357818000208,3.2089377289377286,0.6882051282051282,0.5608791208791208
4.794573848001164,3.2089377289377286,0.6882051282051282,0.5608791208791208
4.799731166000129,3.2089377289377286,0.6882051282051282,0.5608791208791208
4.80698302699966,3.2089377289377286,0.6882051282051282,0.5608791208791208
4.811342396000327,2.7084981684981684,0.755091575091575,1.2474725274725273
4.81160616499983,2.7084981684981684,0.755091575091575,1.2474725274725273
4.816133881000496,2.7084981684981684,0.755091575091575,1.2474725274725273
4.817670147000172,2.788278388278388,0.03223443223443223,0.18615384615384614
4.8246402090007905,2.788278388278388,0.03223443223443223,0.18615384615384614
4.829903789001037,2.66014652014652,0.5423443223443223,0.8211721611721612
4.832778080000935,2.66014652014652,0.5423443223443223,0.8211721611721612
4.837424129000283,2.66014652014652,0.5423443223443223,0.8211721611721612
4.845128668999678,2.7375091575091575,0.8840293040293039,1.5891575091575092
4.849586152000484,3.3,1.3691575091575092,0.9912087912087911
4.850518086001102,2.652087912087912,0.40776556776556777,0.7075457875457875
4.852097630000571,2.652087912087912,0.40776556776556777,0.7075457875457875
4.860169540999777,2.652087912087912,0.40776556776556777,0.7075457875457875
4.863890558999628,2.581172161172161,0.4472527472527472,0.6003663003663003
4.868341497000074,2.581172161172161,0.4472527472527472,0.6003663003663003
4.869711655001083,2.581172161172161,0.4472527472527472,0.6003663003663003
4.87028651699984,2.581172161172161,0.4472527472527472,0.6003663003663003
4.873260509000829,2.581172161172161,0.4472527472527472,0.6003663003663003
4.874924624000414,2.581172161172161,0.4472527472527472,0.6003663003663003
4.878735939000762,2.581172161172161,0.4472527472527472,0.6003663003663003
4.883252204999735,2.581172161172161,0.4472527472527472,0.6003663003663003
4.883528794000085,1.2724542124542124,0.9178754578754579,1.0758241758241758
4.8903905780007335,1.2724542124542124,0.9178754578754579,1.0758241758241758
4.894061252000029,1.2724542124542124,0.9178754578754579,1.0758241758241758
4.899367762000111,1.2724542124542124,0.9178754578754579,1.0758241758241758
4.905296781000288,1.2724542124542124,0.9178754578754579,1.0758241758241758
4.910047366000072,3.3,0.9347985347985347,1.3538461538461537
4.914774983000825,2.66014652014652,0.5318681318681319,0.8526007326007327
4.920108014001016,2.66014652014652,0.5318681318681319,0.8526007326007327
4.923219547001281,2.66014652014652,0.5318681318681319,0.8526007326007327
4.924108630000774,2.664175824175824,0.9565567765567766,1.456190476190476
4.9251072210008715,2.664175824175824,0.9565567765567766,1.456190476190476
4.926051360000201,2.664175824175824,0.9565567765567766,1.456190476190476
4.927572418000636,2.664175824175824,0.9565567765567766,1.456190476190476
4.9318209330012905,2.664175824175824,0.9565567765567766,1.456190476190476
4.935065503001169,2.664175824175824,0.9565567765567766,1.456190476190476
4.9353861449999386,2.664175824175824,0.9565567765567766,1.456190476190476
4.940576357001191,2.664175824175824,0.9565567765567766,1.456190476190476
4.943801807001364,2.6746520146520147,0.3747252747252747,0.7091575091575092
4.945431817001008,2.6746520146520147,0.3747252747252747,0.7091575091575092
4.949508839999908,2.6746520146520147,0.3747252747252747,0.7091575091575092
4.953366313000515,2.6746520146520147,0.3747252747252747,0.7091575091575092
4.960386471000675,2.6746520146520147,0.3747252747252747,0.7091575091575092
4.9634156490010355,2.6746520146520147,0.3747252747252747,0.7091575091575092
4.9669216990005225,2.6746520146520147,0.3747252747252747,0.7091575091575092
4.967190924000533,2.6746520146520147,0.3747252747252747,0.7091575091575092
4.97496572000091,2.6746520146520147,0.3747252747252747,0.7091575091575092
4.978711474001102,2.6746520146520147,0.3747252747252747,0.7091575091575092
4.9840912760009815,2.6746520146520147,0.3747252747252747,0.7091575091575092
4.985905559000457,2.6746520146520147,0.9017582417582416,1.4191208791208791
4.990594708000572,2.6746520146520147,0.9017582417582416,1.4191208791208791
4.99440762300037,2.6746520146520147,0.9017582417582416,1.4191208791208791
4.998538894000376,2.673040293040293,1.228131868131868,1.7261538461538461
5.001029429000482,2.673040293040293,1.228131868131868,1.7261538461538461
5.001140141999713,2.673040293040293,1.228131868131868,1.7261538461538461
5.009214404000886,2.673040293040293,1.228131868131868,1.7261538461538461
5.013996098999996,2.6698168498168497,0.7268864468864469,1.0806593406593406
5.019093889000942,3.3,0.06205128205128205,0.3183150183150183
5.024736708001001,2.714945054945055,0.8566300366300367,1.4158974358974357
5.030323797000165,2.6682051282051282,0.8098901098901098,1.3183882783882783
5.031133469001361,2.6682051282051282,0.8098901098901098,1.3183882783882783
5.032721441000831,2.6682051282051282,0.8098901098901098,1.3183882783882783
5.038437203000285,2.6682051282051282,0.8098901098901098,1.3183882783882783
5.0439371280008345,2.6682051282051282,0.8098901098901098,1.3183882783882783
5.045513840001149,2.6682051282051282,0.8098901098901098,1.3183882783882783
5.050349453000308,2.6682051282051282,0.8098901098901098,1.3183882783882783
5.0573412730009295,2.6682051282051282,0.8098901098901098,1.3183882783882783
5.061015672999929,2.6682051282051282,0.8098901098901098,1.3183882783882783
5.061127767001381,2.6682051282051282,0.8098901098901098,1.3183882783882783
5.065759050999986,2.6682051282051282,0.8098901098901098,1.3183882783882783
5.066608668001209,2.6682051282051282,0.8098901098901098,1.3183882783882783
5.068257152999649,2.6682051282051282,0.8098901098901098,1.3183882783882783
5.072084745999746,2.6682051282051282,0.8098901098901098,1.3183882783882783
5.075910789000773,2.6682051282051282,0.8098901098901098,1.3183882783882783
5.080592109999998,2.6682051282051282,0.8098901098901098,1.3183882783882783
5.080855567000981,2.6682051282051282,0.8098901098901098,1.3183882783882783
5.085477079999691,2.6682051282051282,0.8098901098901098,1.3183882783882783
5.085630776000471,2.6682051282051282,0.8098901098901098,1.3183882783882783
5.092075386000943,2.6682051282051282,0.8098901098901098,1.3183882783882783
5.099551483999676,2.6682051282051282,0.8098901098901098,1.3183882783882783
5.104123557999628,2.6682051282051282,0.8098901098901098,1.3183882783882783
5.1043710300000384,2.6682051282051282,0.8098901098901098,1.3183882783882783
5.1110179309998784,2.690769230769231,0.4802930402930403,0.6567765567765567
5.114849561001392,2.0186813186813186,0.1789010989010989,0.3441025641025641
5.119703918000596,2.0186813186813186,0.1789010989010989,0.3441025641025641
5.120146623001347,2.0186813186813186,0.1789010989010989,0.3441025641025641
5.124006403000749,2.0186813186813186,0.1789010989010989,0.3441025641025641
5.127022982000199,2.0186813186813186,0.1789010989010989,0.3441025641025641
5.130223407000813,2.0186813186813186,0.1789010989010989,0.3441025641025641
5.132056173000819,2.0186813186813186,0.1789010989010989,0.3441025641025641
5.134527734000585,2.0186813186813186,0.1789010989010989,0.3441025641025641
5.1398405880008795,2.0186813186813186,0.1789010989010989,0.3441025641025641
5.143156064001232,2.714945054945055,1.174139194139194,1.834945054945055
5.1434621660009725,2.6682051282051282,0.9106227106227106,1.4384615384615385
5.148506755000199,2.6682051282051282,0.9106227106227106,1.4384615384615385
5.151535937000517,3.3,1.2087912087912087,0.5842490842490843
5.154523422001148,3.3,1.2087912087912087,0.5842490842490843
5.156798969001102,3.3,0.3642490842490842,0.697069597069597
5.157664084999851,2.7117216117216114,0.7937728937728937,1.2635897435897436
5.159211617001347,2.7117216117216114,0.7937728937728937,1.2635897435897436
5.163624529999652,2.7117216117216114,0.7937728937728937,1.2635897435897436
5.164505491000455,2.7117216117216114,0.7937728937728937,1.2635897435897436
5.166053782000745,2.7117216117216114,0.7937728937728937,1.2635897435897436
5.170450638001057,2.7117216117216114,0.7937728937728937,1.2635897435897436
5.171337368999957,3.3,1.4803663003663003,0.6575824175824176
5.172907992000546,3.3,1.4803663003663003,0.6575824175824176
5.177202873001079,3.3,1.4803663003663003,0.6575824175824176
5.1786448170005315,3.3,1.4803663003663003,0.6575824175824176
5.182800415001111,3.3,1.4803663003663003,0.6575824175824176
5.185629700999925,3.3,1.4803663003663003,0.6575824175824176
5.1890679450007156,3.3,1.4803663003663003,0.6575824175824176
5.189393131000543,3.3,1.4803663003663003,0.6575824175824176
5.1951245090003795,3.3,1.4803663003663003,0.6575824175824176
5.195332410001356,2.22981684981685,0.06769230769230769,0.21597069597069596
5.200413798000227,2.7415384615384615,0.8985347985347985,1.548058608058608
5.204012567999598,2.7415384615384615,0.8985347985347985,1.548058608058608
5.2041237610010285,2.7415384615384615,0.8985347985347985,1.548058608058608
5.208518060000642,2.7415384615384615,0.8985347985347985,1.548058608058608
5.210074182999961,2.7415384615384615,0.8985347985347985,1.548058608058608
5.214378196000325,2.7415384615384615,0.8985347985347985,1.548058608058608
5.215930188000129,2.7415384615384615,0.8985347985347985,1.548058608058608
5.220962860999862,2.7415384615384615,0.8985347985347985,1.548058608058608
5.225227278000602,2.7415384615384615,0.8985347985347985,1.548058608058608
5.226799193000261,2.7415384615384615,0.8985347985347985,1.548058608058608
5.2311652730004425,2.7415384615384615,0.8985347985347985,1.548058608058608
5.232040515000335,3.3,0.11684981684981684,0.3336263736263736
5.2343053220010916,3.3,0.11684981684981684,0.3336263736263736
5.234581263001019,2.6802930402930403,1.2627838827838826,1.8252747252747252
5.239884831000381,2.6802930402930403,1.2627838827838826,1.8252747252747252
5.242870551001033,2.6802930402930403,1.2627838827838826,1.8252747252747252
5.245197301001099,2.6802930402930403,1.2627838827838826,1.8252747252747252
5.24540790500032,2.6802930402930403,1.2627838827838826,1.8252747252747252
5.25038516099994,2.6802930402930403,1.2627838827838826,1.8252747252747252
5.254236839000441,3.3,0.7937728937728937,0.6567765567765567
5.2595359300012205,3.3,0.7937728937728937,0.6567765567765567
5.261949415000345,3.3,1.1298168498168497,1.0903296703296703
5.262100179001209,3.3,1.1298168498168497,1.0903296703296703
5.266685827000401,2.681098901098901,0.904981684981685,1.340952380952381
5.266931006000959,2.6585347985347987,0.6358241758241758,0.759120879120879
5.272355899000104,2.6585347985347987,0.6358241758241758,0.759120879120879
5.2740180190012325,2.6585347985347987,0.6358241758241758,0.759120879120879
5.277819382001326,2.6585347985347987,0.6358241758241758,0.759120879120879
5.282963012001346,2.6585347985347987,0.6358241758241758,0.759120879120879
5.28699307900024,2.6585347985347987,0.6358241758241758,0.759120879120879
5.291396971000722,3.1194871794871792,0.311062271062271,0.39406593406593404
5.291605977001382,3.1194871794871792,0.311062271062271,0.39406593406593404
5.298162136999963,3.1194871794871792,0.311062271062271,0.39406593406593404
5.301914353000029,3.1194871794871792,0.311062271062271,0.39406593406593404
5.306971089001308,3.1194871794871792,0.311062271062271,0.39406593406593404
5.312095728000713,3.3,0.4351648351648352,0.6116483516483516
5.315105143999972,3.3,0.9146520146520146,0.6624175824175824
5.318096556000455,3.3,0.9146520146520146,0.6624175824175824
5.321135977001177,3.3,0.9146520146520146,0.6624175824175824
5.32419158599987,3.3,0.9146520146520146,0.6624175824175824
5.3257684600012,3.3,0.9146520146520146,0.6624175824175824
5.330260065000402,3.3,0.39003663003663,0.5995604395604395
5.331109274000482,3.3,0.39003663003663,0.5995604395604395
5.33265673599999,3.3,0.39003663003663,0.5995604395604395
5.337192848000996,3.3,0.39003663003663,0.5995604395604395
5.337408502000471,2.6794871794871793,1.1282051282051282,1.7640293040293038
5.34220607700081,2.6794871794871793,1.1282051282051282,1.7640293040293038
5.342416247000074,2.6794871794871793,1.1282051282051282,1.7640293040293038
5.347486447000847,2.6738461538461538,0.6978754578754578,1.1153113553113554
5.35124241199992,2.9615384615384617,0.4827106227106227,0.7188278388278388
5.356297682999866,2.9615384615384617,0.4827106227106227,0.7188278388278388
5.360305317000893,2.713333333333333,0.7365567765567765,1.344981684981685
5.363857121999899,3.3,1.361098901098901,1.0113553113553113
5.364054870000473,3.3,1.361098901098901,1.0113553113553113
5.372806520001177,3.3,1.361098901098901,1.0113553113553113
5.380894214000364,3.3,1.361098901098901,1.0113553113553113
5.385688211001252,2.71010989010989,1.141098901098901,1.847032967032967
5.392887256000904,2.673040293040293,0.7454212454212454,1.2095970695970695
5.3973897810010385,3.3,0.21032967032967032,0.3916483516483516
5.398190912001155,3.3,0.21032967032967032,0.3916483516483516
5.399938230000771,3.3,0.21032967032967032,0.3916483516483516
5.40437263900094,3.3,0.21032967032967032,0.3916483516483516
5.404724592999628,3.3,0.21032967032967032,0.3916483516483516
5.410495172000083,3.3,0.21032967032967032,0.3916483516483516
5.410598135000328,3.3,1.2716483516483517,0.6559706959706959
5.415415052000753,3.3,1.2716483516483517,0.6559706959706959
5.424684477000483,3.3,1.2716483516483517,0.6559706959706959
5.431186441999671,3.3,1.2716483516483517,0.6559706959706959
5.434956342000078,3.3,1.2716483516483517,0.6559706959706959
5.4436001570011285,3.3,1.2716483516483517,0.6559706959706959
5.45106933399984,3.3,1.2716483516483517,0.6559706959706959
5.458098347000487,3.3,1.2716483516483517,0.6559706959706959
5.463642627000809,3.3,1.2716483516483517,0.6559706959706959
5.474141750000854,3.3,1.2716483516483517,0.6559706959706959
5.48322623400054,3.3,1.2716483516483517,0.6559706959706959
5.490213394999955,3.3,1.2716483516483517,0.6559706959706959
5.4959488670010614,3.3,1.2716483516483517,0.6559706959706959
5.5047127030011325,2.00014652014652,0.03062271062271062,0.14505494505494507
5.511624606000623,2.00014652014652,0.03062271062271062,0.14505494505494507
5.515391199000078,2.655311355311355,0.46498168498168496,0.6954578754578754
5.521426420000353,2.655311355311355,0.46498168498168496,0.6954578754578754
5.529608531000122,2.713333333333333,0.5906959706959707,1.083076923076923
5.536321217001387,2.713333333333333,0.9783150183150182,1.6109157509157508
5.542414378000103,2.713333333333333,0.9783150183150182,1.6109157509157508
5.546298416000354,2.713333333333333,0.9783150183150182,1.6109157509157508
5.54932556499989,2.6585347985347987,0.5697435897435897,0.8316483516483516
5.5515697310002,2.6585347985347987,0.5697435897435897,0.8316483516483516
5.551873102000172,2.6585347985347987,0.5697435897435897,0.8316483516483516
5.5591363860003185,2.6585347985347987,0.5697435897435897,0.8316483516483516
5.563976344999901,2.6585347985347987,0.5697435897435897,0.8316483516483516
5.571131534001324,2.6585347985347987,0.5697435897435897,0.8316483516483516
5.575657976000002,2.6585347985347987,0.5697435897435897,0.8316483516483516
5.5758830750000925,2.6585347985347987,0.5697435897435897,0.8316483516483516
5.582856846000141,2.6585347985347987,0.5697435897435897,0.8316483516483516
5.5902175730007,2.6585347985347987,0.5697435897435897,0.8316483516483516
5.594673388000956,2.6585347985347987,0.5697435897435897,0.8316483516483516
5.5949584179998055,2.6585347985347987,0.5697435897435897,0.8316483516483516
5.599704946000202,2.6585347985347987,0.5697435897435897,0.8316483516483516
5.608302000000549,3.3,1.3369230769230769,0.9758974358974358
5.612920049999957,3.3,1.3369230769230769,0.9758974358974358
5.614024987000448,3.3,0.07816849816849816,0.30058608058608055
5.614297979000185,3.3,0.07816849816849816,0.30058608058608055
5.622780405999947,3.3,0.07816849816849816,0.30058608058608055
5.626179675000458,3.3,0.07816849816849816,0.30058608058608055
5.627020220001214,3.3,0.07816849816849816,0.30058608058608055
5.628593237999667,3.3,0.07816849816849816,0.30058608058608055
5.63317410000127,3.3,0.07816849816849816,0.30058608058608055
5.634137490000285,3.3,0.07816849816849816,0.30058608058608055
5.635206144999756,3.3,0.07816849816849816,0.30058608058608055
5.6356208870001865,3.3,0.07816849816849816,0.30058608058608055
5.640940938999847,3.3,0.07816849816849816,0.30058608058608055
5.642500551000921,3.3,0.07816849816849816,0.30058608058608055
5.646136897999895,3.3,0.07816849816849816,0.30058608058608055
5.646362360001149,3.3,0.07816849816849816,0.30058608058608055
5.65228936099993,3.3,0.07816849816849816,0.30058608058608055
5.652399900000091,3.3,0.20227106227106226,0.3852014652014652
5.660592416999862,3.3,0.20227106227106226,0.3852014652014652
5.667929660001391,3.3,0.20227106227106226,0.3852014652014652
5.674156455001139,3.3,0.20227106227106226,0.3852014652014652
5.678415289999975,3.3,0.381978021978022,0.7164102564102564
5.679904286000237,3.3,0.381978021978022,0.7164102564102564
5.684570520001216,3.3,0.381978021978022,0.7164102564102564
5.69227027099987,2.4159706959706955,0.2715750915750916,0.28446886446886444
5.696177028999955,2.6617582417582417,1.1217582417582417,0.6011721611721611
5.70071282400022,2.6714285714285713,1.0597069597069597,1.6318681318681318
5.700943310999719,2.6714285714285713,1.0597069597069597,1.6318681318681318
5.707737816999725,2.6714285714285713,1.0597069597069597,1.6318681318681318
5.711522429999604,2.6714285714285713,1.0597069597069597,1.6318681318681318
5.715402728001209,2.6714285714285713,1.0597069597069597,1.6318681318681318
5.72338390600089,2.9792673992673993,0.0547985347985348,0.3231501831501831
5.727898794000794,3.3,0.13941391941391942,0.24014652014652016
5.728193585000554,3.3,0.13941391941391942,0.24014652014652016
5.737820435000685,3.3,0.13941391941391942,0.24014652014652016
5.74287909099985,3.3,0.13941391941391942,0.24014652014652016
5.746048044000418,3.3,0.13941391941391942,0.24014652014652016
5.747532708999643,3.3,0.13941391941391942,0.24014652014652016
5.753078189000007,3.3,0.13941391941391942,0.24014652014652016
5.753549888000634,3.3,0.13941391941391942,0.24014652014652016
5.758284465000543,3.3,0.13941391941391942,0.24014652014652016
5.76284647600005,3.3,0.8936996336996336,0.8920879120879119
5.763722345000133,3.3,0.8936996336996336,0.8920879120879119
5.765271951000614,3.3,0.8936996336996336,0.8920879120879119
5.769467000000077,3.3,0.8936996336996336,0.8920879120879119
5.771885579000809,2.655311355311355,1.0049084249084248,0.5608791208791208
5.77781711300122,2.655311355311355,1.0049084249084248,0.5608791208791208
5.7854781950009055,2.655311355311355,1.0049084249084248,0.5608791208791208
5.791045769001357,2.655311355311355,1.0049084249084248,0.5608791208791208
5.791853554999761,2.655311355311355,1.0049084249084248,0.5608791208791208
5.793554281999604,2.655311355311355,1.0049084249084248,0.5608791208791208
5.79658856900096,2.8583882783882784,0.03545787545787545,0.24498168498168496
5.7995954859998164,2.8583882783882784,0.03545787545787545,0.24498168498168496
5.802601143001084,2.8583882783882784,0.03545787545787545,0.24498168498168496
5.8075707420011895,2.8583882783882784,0.03545787545787545,0.24498168498168496
5.811401693999869,2.8583882783882784,0.03545787545787545,0.24498168498168496
5.816402299000401,2.664175824175824,0.23208791208791207,0.4472527472527472
5.8210905810010445,2.713333333333333,0.5326739926739926,1.041978021978022
5.821289569999863,2.713333333333333,0.5326739926739926,1.041978021978022
5.827272202001041,2.713333333333333,0.5326739926739926,1.041978021978022
5.831051869001385,2.713333333333333,0.5326739926739926,1.041978021978022
5.836496444000659,2.713333333333333,0.5326739926739926,1.041978021978022
5.838108029000068,2.713333333333333,1.0258608058608059,1.8317216117216117
5.84188580800037,2.713333333333333,1.0258608058608059,1.8317216117216117
5.84560337000039,2.655311355311355,0.9452747252747251,1.4175091575091574
5.85222902500027,2.655311355311355,0.9452747252747251,1.4175091575091574
5.857643035000365,2.655311355311355,0.9452747252747251,1.4175091575091574
5.857944416000464,2.655311355311355,0.9452747252747251,1.4175091575091574
5.862350931000037,2.655311355311355,0.9452747252747251,1.4175091575091574
5.863918169001408,2.655311355311355,0.9452747252747251,1.4175091575091574
5.868281619001209,2.655311355311355,0.9452747252747251,1.4175091575091574
5.869964032001008,2.655311355311355,0.9452747252747251,1.4175091575091574
5.875320113000271,2.655311355311355,0.9452747252747251,1.4175091575091574
5.875595772000452,3.3,0.12571428571428572,0.3852014652014652
5.880596148001132,3.3,0.12571428571428572,0.3852014652014652
5.885268129000906,3.3,0.9468864468864467,1.340952380952381
5.885527481999816,3.3,0.9468864468864467,1.340952380952381
5.893343933999859,3.3,0.9468864468864467,1.340952380952381
5.900091677000091,2.768131868131868,0.33282051282051284,0.3594139194139194
5.905751023999983,2.768131868131868,0.33282051282051284,0.3594139194139194
5.91145598500043,2.66014652014652,0.9605860805860806,1.415091575091575
5.9164972030011995,2.66014652014652,0.9605860805860806,1.415091575091575
5.916834327999823,2.713333333333333,1.1394871794871795,1.7599999999999998
5.921096652000415,2.713333333333333,1.1394871794871795,1.7599999999999998
5.923060955001347,3.3,0.9686446886446887,0.938021978021978
5.92399804300112,3.3,0.9686446886446887,0.938021978021978
5.925561366000693,3.3,0.40937728937728934,0.46739926739926735
5.930315984000117,3.3,0.40937728937728934,0.46739926739926735
5.930444879000788,3.3,0.46659340659340653,0.6156776556776556
5.936901336999654,3.3,0.46659340659340653,0.6156776556776556
5.940538540000489,3.3,0.46659340659340653,0.6156776556776556
5.94870008900034,2.6536996336996337,0.9509157509157508,1.39010989010989
5.955145474001256,2.6536996336996337,0.9509157509157508,1.39010989010989
5.960388024001077,2.6536996336996337,0.9509157509157508,1.39010989010989
5.961868293999942,2.6536996336996337,0.9509157509157508,1.39010989010989
5.968062178000764,2.6698168498168497,0.8147252747252747,1.4030036630036629
5.9740954320004676,2.6698168498168497,0.8147252747252747,1.4030036630036629
5.977842481999687,2.6698168498168497,0.8147252747252747,1.4030036630036629
5.982282070999645,2.66014652014652,0.17406593406593407,0.3473260073260073
5.983816743000716,2.66014652014652,0.17406593406593407,0.3473260073260073
5.992669704000946,2.66014652014652,0.17406593406593407,0.3473260073260073
5.997099198000797,2.6577289377289377,0.4625641025641025,0.8453479853479853
5.997992784999951,2.6577289377289377,0.4625641025641025,0.8453479853479853
6.000404141999752,2.6577289377289377,0.4625641025641025,0.8453479853479853
6.008819765000226,2.6577289377289377,0.4625641025641025,0.8453479853479853
6.013353270000152,2.6577289377289377,0.4625641025641025,0.8453479853479853
6.014393962001122,2.6577289377289377,0.4625641025641025,0.8453479853479853
6.014666794000732,2.6577289377289377,0.4625641025641025,0.8453479853479853
6.021518733999983,2.6577289377289377,0.4625641025641025,0.8453479853479853
6.026852285000132,2.6577289377289377,0.4625641025641025,0.8453479853479853
6.02846380200026,2.6577289377289377,0.4625641025641025,0.8453479853479853
6.0323392000009335,2.6577289377289377,0.4625641025641025,0.8453479853479853
6.038037487000111,2.6577289377289377,0.4625641025641025,0.8453479853479853
6.038370185000531,2.6577289377289377,0.4625641025641025,0.8453479853479853
6.044582018001165,3.3,1.3659340659340657,1.1394871794871795
6.048567576001005,2.6778754578754578,0.5987545787545787,1.070989010989011
6.051983104000101,2.294285714285714,0.26915750915750913,0.423076923076923
6.0522580800006835,2.294285714285714,0.26915750915750913,0.423076923076923
