time,emg1,emg2,emg3
0.009364259998619673,3.103369963369963,0.34007326007326005,1.0572893772893772
0.01806046499950753,3.103369963369963,0.34007326007326005,1.0572893772893772
0.023403293000228587,3.103369963369963,0.34007326007326005,1.0572893772893772
0.02483595199919364,3.3,0.9791208791208791,0.8638827838827838
0.032347190999644226,3.3,0.9791208791208791,0.8638827838827838
0.038081429000158096,3.3,0.9791208791208791,0.8638827838827838
0.04533703499873809,3.3,0.9791208791208791,0.8638827838827838
0.05021336000027077,3.3,0.9791208791208791,0.8638827838827838
0.0558711729991046,3.3,0.9791208791208791,0.8638827838827838
0.05602620099853084,3.3,0.9791208791208791,0.8638827838827838
0.061665974999414175,3.3,0.9791208791208791,0.8638827838827838
0.06192550199921243,3.3,0.9791208791208791,0.8638827838827838
0.0676725590001297,3.3,0.9791208791208791,0.8638827838827838
0.06789544399907754,3.3,0.9791208791208791,0.8638827838827838
0.07427284699951997,3.3,0.9791208791208791,0.8638827838827838
0.07796123899970553,3.3,0.9791208791208791,0.8638827838827838
0.08341540099900158,3.3,0.9791208791208791,0.8638827838827838
0.08445246100018267,3.3,0.9791208791208791,0.8638827838827838
0.08479341999918688,3.3,0.9791208791208791,0.8638827838827838
0.09004454099886061,3.3,0.9791208791208791,0.8638827838827838
0.09337586299989198,3.3,0.9791208791208791,0.8638827838827838
0.09367321499848913,3.3,0.9791208791208791,0.8638827838827838
0.09849526499965577,3.3,0.9791208791208791,0.8638827838827838
0.10404503099925932,2.6536996336996337,0.23047619047619047,0.26915750915750913
0.1048968059985782,2.6536996336996337,0.23047619047619047,0.26915750915750913
0.10653265099972486,3.3,0.3884249084249084,0.6269597069597069
0.11041323199970066,3.3,0.3884249084249084,0.6269597069597069
0.11509966699850338,3.3,0.3884249084249084,0.6269597069597069
0.11529892199905589,3.3,0.3884249084249084,0.6269597069597069
0.12000042099862185,3.3,0.3884249084249084,0.6269597069597069
0.1203225970002677,3.3,0.3884249084249084,0.6269597069597069
0.13014347099851875,2.6488644688644687,0.6761172161172161,1.2998534798534798
0.13738689699857787,2.6488644688644687,0.6761172161172161,1.2998534798534798
0.14341064200016262,2.6488644688644687,0.6761172161172161,1.2998534798534798
0.1475381649997871,2.6488644688644687,0.6761172161172161,1.2998534798534798
0.1491227299993625,2.6488644688644687,0.6761172161172161,1.2998534798534798
0.1547681569991255,2.6488644688644687,0.6761172161172161,1.2998534798534798
0.1549012630002835,2.6488644688644687,0.6761172161172161,1.2998534798534798
0.1603529139993043,2.6488644688644687,0.6761172161172161,1.2998534798534798
0.16220931299903896,2.6488644688644687,0.6761172161172161,1.2998534798534798
0.16479425199941033,2.6488644688644687,0.6761172161172161,1.2998534798534798
0.17070635900017805,2.6488644688644687,0.6761172161172161,1.2998534798534798
0.17539085599855753,2.697216117216117,0.08622710622710622,0.3698901098901099
0.1757593000002089,2.697216117216117,0.08622710622710622,0.3698901098901099
0.18082201499964867,2.697216117216117,0.08622710622710622,0.3698901098901099
0.18659550399934233,2.697216117216117,0.08622710622710622,0.3698901098901099
0.19500272299956123,2.6665934065934067,0.365054945054945,0.7244688644688644
0.2042128409993893,2.6665934065934067,0.365054945054945,0.7244688644688644
0.2115975790002267,3.3,1.0274725274725274,0.8252014652014652
0.21863695699903474,3.3,1.0274725274725274,0.8252014652014652
0.22353118599858135,3.3,1.0274725274725274,0.8252014652014652
0.2274964859989268,2.7423443223443225,0.7067399267399267,1.3619047619047617
0.23024734699902183,2.7423443223443225,0.7067399267399267,1.3619047619047617
0.2360406759999023,3.3,0.9396336996336996,0.5568498168498168
0.23624631999882695,3.3,0.9396336996336996,0.5568498168498168
0.2410325989985722,3.3,0.9396336996336996,0.5568498168498168
0.24124206499982392,3.3,0.9396336996336996,0.5568498168498168
0.2469292719997611,3.3,0.9396336996336996,0.5568498168498168
0.24712044799889554,2.6609523809523807,0.4391941391941392,0.8808058608058608
0.25506757399853086,2.6609523809523807,0.4391941391941392,0.8808058608058608
0.2610697809996054,3.17992673992674,0.0,0.26915750915750913
0.26798662999863154,3.17992673992674,0.0,0.26915750915750913
0.27187652199972945,2.706886446886447,0.7268864468864469,1.415091575091575
0.27601231500011636,2.706886446886447,0.7268864468864469,1.415091575091575
0.2777786179995019,3.2629304029304027,0.028205128205128206,0.3046153846153846
0.2825773240001581,2.6875457875457873,0.35216117216117215,0.7083516483516483
0.2887465469993913,2.673040293040293,0.6591941391941392,1.2378021978021978
0.29316869499962195,2.673040293040293,0.6591941391941392,1.2378021978021978
0.2940640609995171,3.3,0.10153846153846154,0.26673992673992675
0.2959711690000404,3.3,0.10153846153846154,0.26673992673992675
0.2980561589993158,3.3,0.10153846153846154,0.26673992673992675
0.2999291769992851,3.3,0.10153846153846154,0.26673992673992675
0.30205171699890343,3.3,0.10153846153846154,0.26673992673992675
0.3024170270000468,3.3,0.10153846153846154,0.26673992673992675
0.30735289599942917,3.3,0.10153846153846154,0.26673992673992675
0.3113290869987395,3.3,0.10153846153846154,0.26673992673992675
0.31598367399965355,3.3,0.10153846153846154,0.26673992673992675
0.3163290819993563,3.3,0.10153846153846154,0.26673992673992675
0.3215756429999601,3.3,0.10153846153846154,0.26673992673992675
0.3248534109989123,3.3,0.10153846153846154,0.26673992673992675
0.3259154360002867,3.3,0.10153846153846154,0.26673992673992675
0.32615322899982857,3.3,0.10153846153846154,0.26673992673992675
0.3324353769985464,3.3,0.10153846153846154,0.26673992673992675
0.33668833399860887,3.3,0.06124542124542124,0.29655677655677654
0.3377317159993254,2.764908424908425,0.9025641025641026,1.7253479853479854
0.33805667599881417,2.764908424908425,0.9025641025641026,1.7253479853479854
0.3430882129996462,2.764908424908425,0.9025641025641026,1.7253479853479854
0.3477250549985911,2.764908424908425,0.9025641025641026,1.7253479853479854
0.3478622099992208,2.764908424908425,0.9025641025641026,1.7253479853479854
0.354498679000244,2.988937728937729,0.5302564102564102,0.6011721611721611
0.3591164019999269,3.3,0.12732600732600732,0.3441025641025641
0.3593103169987444,3.3,0.12732600732600732,0.3441025641025641
0.36429157899874554,3.3,0.12732600732600732,0.3441025641025641
0.3710728009991726,2.6488644688644687,0.684981684981685,1.2732600732600732
0.37522096899920143,2.6488644688644687,0.684981684981685,1.2732600732600732
0.3777100810002594,2.6488644688644687,0.684981684981685,1.2732600732600732
0.38751334799962933,2.6488644688644687,0.684981684981685,1.2732600732600732
0.3930424190002668,2.6488644688644687,0.684981684981685,1.2732600732600732
0.39337708199855115,2.652087912087912,0.17648351648351646,0.32476190476190475
0.39921233499990194,2.652087912087912,0.17648351648351646,0.32476190476190475
0.3994245049998426,2.652087912087912,0.17648351648351646,0.32476190476190475
0.40442907999931776,2.652087912087912,0.17648351648351646,0.32476190476190475
0.41050453599928005,2.652087912087912,0.17648351648351646,0.32476190476190475
0.4150156670002616,2.652087912087912,0.17648351648351646,0.32476190476190475
0.4236085649990855,2.652087912087912,0.17648351648351646,0.32476190476190475
0.43105219099925307,2.714139194139194,0.3964835164835165,0.755091575091575
0.43612294599915913,2.787472527472527,0.26593406593406593,0.3852014652014652
0.43875218399989535,2.7117216117216114,1.0178021978021978,1.917948717948718
0.44390354699862655,2.7117216117216114,1.0178021978021978,1.917948717948718
0.4516942249993008,2.1717948717948716,0.4794871794871795,0.7413919413919414
0.45595918300023186,3.3,1.0242490842490841,0.585054945054945
0.4569114569985686,2.6665934065934067,0.7905494505494506,1.4191208791208791
0.45855479700003343,2.6665934065934067,0.7905494505494506,1.4191208791208791
0.46275677099947643,3.3,0.6591941391941392,0.7478388278388278
0.4643486759996449,3.3,0.6591941391941392,0.7478388278388278
0.47072982200006663,3.3,0.6591941391941392,0.7478388278388278
0.47431439499996486,3.3,0.6591941391941392,0.7478388278388278
0.4744420379993244,3.3,0.6591941391941392,0.7478388278388278
0.48043399000016507,3.3,0.6591941391941392,0.7478388278388278
0.48816212299971085,3.3,0.6591941391941392,0.7478388278388278
0.4930626889999985,3.3,0.6591941391941392,0.7478388278388278
0.49898587799907546,3.3,0.5745787545787545,0.5399267399267399
0.5067301399994903,3.3,0.5745787545787545,0.5399267399267399
0.5126922819999891,3.3,0.29333333333333333,0.5028571428571429
0.5232243659993401,3.3,0.29333333333333333,0.5028571428571429
0.5296793609995802,2.6569230769230767,0.693040293040293,1.3425641025641024
0.5364860109984875,2.6569230769230767,0.693040293040293,1.3425641025641024
0.5399894649999624,2.6714285714285713,0.8469597069597068,1.569010989010989
0.5401654809993488,2.6714285714285713,0.8469597069597068,1.569010989010989
0.5458398779992422,2.6714285714285713,0.8469597069597068,1.569010989010989
0.5460075529990718,2.6714285714285713,0.8469597069597068,1.569010989010989
0.5549300959992252,2.6714285714285713,0.8469597069597068,1.569010989010989
0.5591972370002622,2.6714285714285713,0.8469597069597068,1.569010989010989
0.5617264459997386,2.6714285714285713,0.8469597069597068,1.569010989010989
0.5682920929993998,2.6714285714285713,0.8469597069597068,1.569010989010989
0.5746754849988065,2.673040293040293,0.4561172161172161,0.8074725274725274
0.5804786150001746,2.673040293040293,0.4561172161172161,0.8074725274725274
0.5895599649993528,2.673040293040293,0.4561172161172161,0.8074725274725274
0.594168768999225,2.673040293040293,0.4561172161172161,0.8074725274725274
0.5943235389986512,2.673040293040293,0.4561172161172161,0.8074725274725274
0.6007073799992213,2.673040293040293,0.4561172161172161,0.8074725274725274
0.6044451929992647,2.673040293040293,0.4561172161172161,0.8074725274725274
0.6093515169995953,2.673040293040293,0.4561172161172161,0.8074725274725274
0.6166922559987142,3.3,0.31509157509157504,0.5584615384615385
0.6209767189993727,3.3,0.31509157509157504,0.5584615384615385
0.6218853829996078,3.3,0.31509157509157504,0.5584615384615385
0.6238630339994415,3.3,0.31509157509157504,0.5584615384615385
0.6255237219993433,3.3,0.31509157509157504,0.5584615384615385
0.6288248559994827,2.107326007326007,0.2111355311355311,0.28527472527472525
0.6297732059992995,2.107326007326007,0.2111355311355311,0.28527472527472525
0.6324808739991568,2.107326007326007,0.2111355311355311,0.28527472527472525
0.6368211049993988,3.0227838827838824,0.1829304029304029,0.36827838827838827
0.6377602239990665,3.0227838827838824,0.1829304029304029,0.36827838827838827
0.6387446869994164,3.0227838827838824,0.1829304029304029,0.36827838827838827
0.6404196869989391,3.0227838827838824,0.1829304029304029,0.36827838827838827
0.6444367589992908,3.0227838827838824,0.1829304029304029,0.36827838827838827
0.6483993999991071,3.0227838827838824,0.1829304029304029,0.36827838827838827
0.6537887009999395,3.0227838827838824,0.1829304029304029,0.36827838827838827
0.6548262839987729,3.0227838827838824,0.1829304029304029,0.36827838827838827
0.6557557519990951,3.0227838827838824,0.1829304029304029,0.36827838827838827
0.6566998409998632,3.0227838827838824,0.1829304029304029,0.36827838827838827
0.6583376109992969,3.0227838827838824,0.1829304029304029,0.36827838827838827
0.6624330689992348,3.0227838827838824,0.1829304029304029,0.36827838827838827
0.6681313009994483,3.0227838827838824,0.1829304029304029,0.36827838827838827
0.6745165729989822,3.0227838827838824,0.1829304029304029,0.36827838827838827
0.678642642998966,3.3,0.016923076923076923,0.2683516483516483
0.6827150619992608,3.3,0.016923076923076923,0.2683516483516483
0.6861429589989712,1.672161172161172,0.6197069597069597,0.9315750915750916
0.6863808919988514,1.672161172161172,0.6197069597069597,0.9315750915750916
0.6922193359987432,1.672161172161172,0.6197069597069597,0.9315750915750916
0.6995517409995955,1.672161172161172,0.6197069597069597,0.9315750915750916
0.7060252969986323,1.672161172161172,0.6197069597069597,0.9315750915750916
0.7100911620000261,1.672161172161172,0.6197069597069597,0.9315750915750916
0.7124815429997398,3.3,0.22564102564102564,0.43999999999999995
0.7126351709994196,3.3,0.22564102564102564,0.43999999999999995
0.7216217240002152,3.3,0.22564102564102564,0.43999999999999995
0.7264503859987599,3.3,0.22564102564102564,0.43999999999999995
0.7266155709985469,3.3,0.22564102564102564,0.43999999999999995
0.7342809619985928,3.3,0.22564102564102564,0.43999999999999995
0.738118728999325,2.655311355311355,0.2377289377289377,0.21999999999999997
0.7429985660000966,2.655311355311355,0.2377289377289377,0.21999999999999997
0.7475467799995386,2.655311355311355,0.2377289377289377,0.21999999999999997
0.7479227249987161,2.655311355311355,0.2377289377289377,0.21999999999999997
0.7531823039989831,2.655311355311355,0.2377289377289377,0.21999999999999997
0.7556134549995477,2.655311355311355,0.2377289377289377,0.21999999999999997
0.7557350319984835,2.655311355311355,0.2377289377289377,0.21999999999999997
0.7604613280000194,2.655311355311355,0.2377289377289377,0.21999999999999997
0.7606465129993012,1.3482051282051282,0.5979487179487178,0.896117216117216
0.7670904759997939,1.3482051282051282,0.5979487179487178,0.896117216117216
0.7724832839994633,1.3482051282051282,0.5979487179487178,0.896117216117216
0.772789049999119,3.3,1.095164835164835,0.5858608058608058
0.7810220169994864,3.3,1.095164835164835,0.5858608058608058
0.7885493049998331,3.3,1.095164835164835,0.5858608058608058
0.7925995329987927,3.3,0.3884249084249084,0.5923076923076923
0.79588396500003,3.3,0.3884249084249084,0.5923076923076923
0.7983731069998612,2.3587545787545787,0.03465201465201465,0.190989010989011
0.8077909509993333,2.3587545787545787,0.03465201465201465,0.190989010989011
0.8164815089985495,2.3587545787545787,0.03465201465201465,0.190989010989011
0.8214918329995271,2.3587545787545787,0.03465201465201465,0.190989010989011
0.8255043159988418,2.3587545787545787,0.03465201465201465,0.190989010989011
0.8279246530000819,2.3587545787545787,0.03465201465201465,0.190989010989011
0.8281335269984993,2.3587545787545787,0.03465201465201465,0.190989010989011
0.8366620109991345,2.3587545787545787,0.03465201465201465,0.190989010989011
0.840825469000265,2.3587545787545787,0.03465201465201465,0.190989010989011
0.843314116998954,3.1275457875457873,0.6986813186813187,0.7607326007326007
0.8504736449995107,3.1275457875457873,0.6986813186813187,0.7607326007326007
0.856419169000219,3.3,0.9920146520146519,0.5778021978021978
0.8620074270002078,3.3,0.9920146520146519,0.5778021978021978
0.8621173499996075,3.3,0.9920146520146519,0.5778021978021978
0.8722049039988633,3.3,0.9920146520146519,0.5778021978021978
0.8805769509999664,2.659340659340659,0.4126007326007326,0.763956043956044
0.8895211039998685,2.6722344322344322,0.7156043956043956,1.3514285714285714
0.8957078109997383,2.6722344322344322,0.7156043956043956,1.3514285714285714
0.8992610109999077,3.3,0.05963369963369963,0.31267399267399265
0.8994134819986357,2.6617582417582417,0.2063003663003663,0.4319413919413919
0.9050058880002325,2.6617582417582417,0.2063003663003663,0.4319413919413919
0.9053793759994733,2.6617582417582417,0.2063003663003663,0.4319413919413919
0.9102234679994581,2.445787545787546,0.2369230769230769,0.24498168498168496
0.9182408479991864,2.445787545787546,0.2369230769230769,0.24498168498168496
0.9235444739988452,3.3,0.21194139194139192,0.5334798534798535
0.9252506789998733,3.3,0.896117216117216,0.7994139194139194
0.9294291719998,3.3,0.896117216117216,0.7994139194139194
0.9339110359996994,2.6786813186813188,0.43999999999999995,0.8574358974358974
0.9404812550001225,2.6786813186813188,0.43999999999999995,0.8574358974358974
0.9443367359999684,1.730989010989011,0.6551648351648351,1.0387545787545787
0.9504952480001521,1.730989010989011,0.6551648351648351,1.0387545787545787
0.9548158709985728,1.730989010989011,0.6551648351648351,1.0387545787545787
0.9550027129989758,1.730989010989011,0.6551648351648351,1.0387545787545787
0.9645654219984863,1.730989010989011,0.6551648351648351,1.0387545787545787
0.9712323709991324,1.730989010989011,0.6551648351648351,1.0387545787545787
0.9756805380002334,1.730989010989011,0.6551648351648351,1.0387545787545787
0.9759942119999323,1.730989010989011,0.6551648351648351,1.0387545787545787
0.9816521659995487,1.730989010989011,0.6551648351648351,1.0387545787545787
0.9818704089993844,1.730989010989011,0.6551648351648351,1.0387545787545787
0.9904615309988003,1.730989010989011,0.6551648351648351,1.0387545787545787
0.9950066749988764,1.730989010989011,0.6551648351648351,1.0387545787545787
0.9952437819993065,1.730989010989011,0.6551648351648351,1.0387545787545787
1.0048238009985653,1.730989010989011,0.6551648351648351,1.0387545787545787
1.0121721169998636,2.71010989010989,0.3046153846153846,0.4424175824175824
1.0199370800000906,2.71010989010989,0.3046153846153846,0.4424175824175824
1.0242602250000346,2.71010989010989,0.3046153846153846,0.4424175824175824
1.0251855939986854,2.7326739926739925,0.6938461538461538,1.3522344322344322
1.0268313369997486,2.7326739926739925,0.6938461538461538,1.3522344322344322
1.0306962140002724,2.7326739926739925,0.6938461538461538,1.3522344322344322
1.0375367399992683,2.7326739926739925,0.6938461538461538,1.3522344322344322
1.0415928599995823,3.1356043956043953,0.09267399267399268,0.33684981684981685
1.0447363359999144,2.6649816849816848,0.7623443223443224,1.3022710622710623
1.0465470799990726,2.6649816849816848,0.7623443223443224,1.3022710622710623
1.0514346929994645,2.6649816849816848,0.7623443223443224,1.3022710622710623
1.0575364219985204,2.6649816849816848,0.7623443223443224,1.3022710622710623
1.0627623629989102,2.714945054945055,0.9879853479853479,1.9332600732600733
1.0643926649991045,2.714945054945055,0.9879853479853479,1.9332600732600733
1.069620145999579,2.714945054945055,0.9879853479853479,1.9332600732600733
1.0709470809997583,2.714945054945055,0.9879853479853479,1.9332600732600733
1.0804597649985226,2.714945054945055,0.9879853479853479,1.9332600732600733
1.0860484409986384,3.3,0.017728937728937726,0.26996336996336995
1.0862294210000982,3.3,0.017728937728937726,0.26996336996336995
1.092019892999815,3.3,0.017728937728937726,0.26996336996336995
1.0922296879998612,3.3,0.017728937728937726,0.26996336996336995
1.0977978099999746,3.3,0.017728937728937726,0.26996336996336995
1.098805640998762,3.3,0.017728937728937726,0.26996336996336995
1.0997386409999308,3.3,0.017728937728937726,0.26996336996336995
1.1013247189985123,3.3,0.017728937728937726,0.26996336996336995
1.1062364199988224,3.3,0.017728937728937726,0.26996336996336995
1.1115785199999664,3.3,0.017728937728937726,0.26996336996336995
1.1141768079996837,3.3,0.017728937728937726,0.26996336996336995
1.119674944999133,3.3,0.017728937728937726,0.26996336996336995
1.121498527998483,3.3,0.017728937728937726,0.26996336996336995
1.124646603999281,3.3,0.017728937728937726,0.26996336996336995
1.1271746959992015,3.3,0.3602197802197802,0.5463736263736263
1.1341840929999307,3.3,0.3602197802197802,0.5463736263736263
1.1375992789999145,3.3,0.3602197802197802,0.5463736263736263
1.1378305519992864,2.7117216117216114,0.5399267399267399,1.0887179487179486
1.1431942159997561,2.7117216117216114,0.5399267399267399,1.0887179487179486
1.1457580349997443,2.7117216117216114,0.5399267399267399,1.0887179487179486
1.1546470619996398,2.4006593406593404,0.26754578754578756,0.2925274725274725
1.1624196739994659,3.3,0.08139194139194139,0.2917216117216117
1.168272196999169,3.3,0.08139194139194139,0.2917216117216117
1.1724325539998972,3.3,0.08139194139194139,0.2917216117216117
1.176348932998735,3.3,0.4899633699633699,0.5302564102564102
1.1786594859986508,3.3,0.4899633699633699,0.5302564102564102
1.17893833800008,3.3,0.4899633699633699,0.5302564102564102
1.1868644949990994,3.3,0.4899633699633699,0.5302564102564102
1.1928245259987307,3.3,0.4899633699633699,0.5302564102564102
1.200211045999822,3.3,0.4899633699633699,0.5302564102564102
1.2080474149988731,3.3,0.4899633699633699,0.5302564102564102
1.2138836269987223,3.3,0.4899633699633699,0.5302564102564102
1.2189587079992634,3.3,0.4899633699633699,0.5302564102564102
1.2224410219987476,3.3,1.0226373626373626,0.8316483516483516
1.2227125720000913,3.3,1.0226373626373626,0.8316483516483516
1.2276704010000685,3.3,1.0226373626373626,0.8316483516483516
1.2329616930001066,3.3,1.0226373626373626,0.8316483516483516
1.2355483840001398,3.3,0.1095970695970696,0.3747252747252747
1.24029751299895,3.3,0.1095970695970696,0.3747252747252747
1.2404397989994322,3.3,0.9912087912087911,0.8453479853479853
1.2452099780002754,3.3,0.9912087912087911,0.8453479853479853
1.2508690229988133,3.3,0.9912087912087911,0.8453479853479853
1.2517176040000777,3.3,0.958974358974359,0.5866666666666667
1.253402071999517,3.3,0.958974358974359,0.5866666666666667
1.2573345609998796,3.3,0.958974358974359,0.5866666666666667
1.260502743998586,3.3,0.166007326007326,0.28527472527472525
1.2621694819990807,3.3,0.166007326007326,0.28527472527472525
1.2660848289997375,3.3,0.166007326007326,0.28527472527472525
1.2708146269997087,3.3,0.166007326007326,0.28527472527472525
1.271024091000072,3.3,1.0145787545787546,0.5093040293040293
1.2763216069997725,3.3,1.0145787545787546,0.5093040293040293
1.2788196820001758,2.709304029304029,0.7905494505494506,1.552087912087912
1.2789249769994058,2.709304029304029,0.7905494505494506,1.552087912087912
1.283964215999731,2.709304029304029,0.7905494505494506,1.552087912087912
1.2881597449995752,2.709304029304029,0.7905494505494506,1.552087912087912
1.2900256510001782,2.709304029304029,0.7905494505494506,1.552087912087912
1.2917297829990275,2.709304029304029,0.7905494505494506,1.552087912087912
1.2956417829991551,3.3,0.112014652014652,0.2594871794871795
1.299649471999146,3.3,0.112014652014652,0.2594871794871795
1.3036083569986658,3.3,0.112014652014652,0.2594871794871795
1.3074820689998887,3.3,0.112014652014652,0.2594871794871795
1.3122535009988496,3.3,0.112014652014652,0.2594871794871795
1.3177441279985942,3.3,0.8791941391941391,0.5479853479853479
1.3185919469997316,3.3,0.1515018315018315,0.27076923076923076
1.320254913000099,3.3,0.1515018315018315,0.27076923076923076
1.3240550449991133,3.3,0.1515018315018315,0.27076923076923076
1.3279383769986453,3.3,0.1515018315018315,0.27076923076923076
1.3317457719986123,3.3,0.1515018315018315,0.27076923076923076
1.3363144289996853,2.693186813186813,0.946080586080586,0.5753846153846153
1.336617031998685,2.693186813186813,0.946080586080586,0.5753846153846153
1.341304894998757,2.693186813186813,0.946080586080586,0.5753846153846153
1.3415380789992923,2.693186813186813,0.946080586080586,0.5753846153846153
1.3464189569986047,2.693186813186813,0.946080586080586,0.5753846153846153
1.3510902629986958,2.71010989010989,0.7986080586080586,1.5931868131868132
1.3513163609986805,2.71010989010989,0.7986080586080586,1.5931868131868132
1.3559451490000356,2.71010989010989,0.7986080586080586,1.5931868131868132
1.3562413879990345,2.71010989010989,0.7986080586080586,1.5931868131868132
1.3610422109995852,2.71010989010989,0.7986080586080586,1.5931868131868132
1.3669552679984918,3.3,0.9275457875457875,0.8074725274725274
1.3671305359985126,3.3,0.9275457875457875,0.8074725274725274
1.373060590998648,3.3,0.9275457875457875,0.8074725274725274
1.3788682599988533,3.3,0.9275457875457875,0.8074725274725274
1.3790544799994677,3.3,0.9275457875457875,0.8074725274725274
1.384216196000125,3.3,0.9275457875457875,0.8074725274725274
1.3874977659997967,2.6738461538461538,0.5906959706959707,1.1008058608058606
1.3883912729997974,2.6738461538461538,0.5906959706959707,1.1008058608058606
1.390183748999334,2.6738461538461538,0.5906959706959707,1.1008058608058606
1.3934660519989848,2.6738461538461538,0.5906959706959707,1.1008058608058606
1.3937160409986973,2.6738461538461538,0.5906959706959707,1.1008058608058606
1.3985452039996744,2.6738461538461538,0.5906959706959707,1.1008058608058606
1.3986609739986307,2.6738461538461538,0.5906959706959707,1.1008058608058606
1.4035144059998856,2.6738461538461538,0.5906959706959707,1.1008058608058606
1.4036329259997729,2.6738461538461538,0.5906959706959707,1.1008058608058606
1.4086360879991844,2.6738461538461538,0.5906959706959707,1.1008058608058606
1.4132589410000946,2.656117216117216,0.43113553113553116,0.8429304029304028
1.4135483029986062,2.656117216117216,0.43113553113553116,0.8429304029304028
1.4182454509991658,2.656117216117216,0.43113553113553116,0.8429304029304028
1.4184040789987193,3.3,0.16197802197802197,0.30945054945054945
1.4240695549997326,3.3,0.16197802197802197,0.30945054945054945
1.4244012079998356,3.3,0.16197802197802197,0.30945054945054945
1.4298857679987123,3.3,0.16197802197802197,0.30945054945054945
1.4307436419985606,3.3,0.16197802197802197,0.30945054945054945
1.432371537999643,3.3,0.16197802197802197,0.30945054945054945
1.4370976809987042,3.3,0.16197802197802197,0.30945054945054945
1.437287736998769,3.3,0.16197802197802197,0.30945054945054945
1.442710884999542,3.3,0.16197802197802197,0.30945054945054945
1.4443058529996051,3.3,0.16197802197802197,0.30945054945054945
1.448362413999348,3.3,0.16197802197802197,0.30945054945054945
1.451563251999687,2.4828571428571427,0.09025641025641025,0.25545787545787546
1.452527695999379,3.3,0.04593406593406593,0.2345054945054945
1.4534858930001064,3.3,0.04593406593406593,0.2345054945054945
1.454379587999938,3.3,0.04593406593406593,0.2345054945054945
1.4561972259998583,3.3,0.04593406593406593,0.2345054945054945
1.4586687329992856,3.3,0.04593406593406593,0.2345054945054945
1.4644699089985806,3.3,0.04593406593406593,0.2345054945054945
1.4646941739993053,2.6875457875457873,0.7413919413919414,1.3788278388278388
1.4698366329994315,2.6875457875457873,0.7413919413919414,1.3788278388278388
1.473212897999474,3.3,0.2836630036630036,0.4810989010989011
1.4741027589989244,3.3,0.1249084249084249,0.3191208791208791
1.4757336399998167,3.3,0.1249084249084249,0.3191208791208791
1.4789867809995485,3.3,0.1249084249084249,0.3191208791208791
1.4806790779985022,3.3,0.929157509157509,0.842124542124542
1.4847292409995134,3.3,0.929157509157509,0.842124542124542
1.4873131869990175,2.6762637362637363,0.6285714285714284,1.212820512820513
1.4929442100001324,2.6762637362637363,0.6285714285714284,1.212820512820513
1.4933119990000705,3.3,0.01934065934065934,0.3191208791208791
1.4980483660001482,3.3,0.01934065934065934,0.3191208791208791
1.4982287450002332,3.3,0.01934065934065934,0.3191208791208791
1.5038993319994916,3.3,0.01934065934065934,0.3191208791208791
1.504230139998981,3.3,0.01934065934065934,0.3191208791208791
1.5098588359996938,3.3,0.01934065934065934,0.3191208791208791
1.5106470009995974,3.3,0.01934065934065934,0.3191208791208791
1.5122050649988523,3.3,0.01934065934065934,0.3191208791208791
1.5164519239988294,3.106593406593406,0.0136996336996337,0.3183150183150183
1.5186686019987974,3.106593406593406,0.0136996336996337,0.3183150183150183
1.5194704869991256,3.106593406593406,0.0136996336996337,0.3183150183150183
1.52163008000025,3.106593406593406,0.0136996336996337,0.3183150183150183
1.5224763400001393,3.106593406593406,0.0136996336996337,0.3183150183150183
1.5246307449997403,3.106593406593406,0.0136996336996337,0.3183150183150183
1.5254261840000254,3.106593406593406,0.0136996336996337,0.3183150183150183
1.5275802179985476,3.106593406593406,0.0136996336996337,0.3183150183150183
1.529061240998999,3.106593406593406,0.0136996336996337,0.3183150183150183
1.533357417998559,3.106593406593406,0.0136996336996337,0.3183150183150183
1.5356114309997793,3.106593406593406,0.0136996336996337,0.3183150183150183
1.5364842229992064,2.9953846153846153,0.4158241758241758,0.9009523809523808
1.538661147998937,2.9953846153846153,0.4158241758241758,0.9009523809523808
1.5394749999995838,3.3,0.1643956043956044,0.32395604395604394
1.5410282479988382,3.3,0.1643956043956044,0.32395604395604394
1.5447180779992777,3.3,0.1643956043956044,0.32395604395604394
1.5448524419989553,3.3,0.1643956043956044,0.32395604395604394
1.5497778099997959,3.3,0.1643956043956044,0.32395604395604394
1.5498863799984974,3.3,0.1643956043956044,0.32395604395604394
1.5548661709999578,3.3,0.1643956043956044,0.32395604395604394
1.5599387149995891,3.3,0.0975091575091575,0.3231501831501831
1.5643586850001157,3.3,0.9920146520146519,0.8413186813186813
1.56524879799872,2.706886446886447,0.7317216117216117,1.5214652014652015
1.5661587659997167,2.706886446886447,0.7317216117216117,1.5214652014652015
1.567761435999273,2.706886446886447,0.7317216117216117,1.5214652014652015
1.571440628998971,2.706886446886447,0.7317216117216117,1.5214652014652015
1.5716916909987049,3.3,0.21274725274725276,0.4222710622710622
1.5768221660000563,3.3,0.21274725274725276,0.4222710622710622
1.580639309999242,3.3,0.21274725274725276,0.4222710622710622
1.5861308080002345,3.3,0.21274725274725276,0.4222710622710622
1.5879724619990156,3.3,0.21274725274725276,0.4222710622710622
1.5905751039990719,3.3,0.21274725274725276,0.4222710622710622
1.596244245998605,3.3,0.21274725274725276,0.4222710622710622
1.5970868120002706,3.3,0.21274725274725276,0.4222710622710622
1.5988313859998016,3.3,0.21274725274725276,0.4222710622710622
1.6021412760001112,3.111428571428571,0.17406593406593407,0.2627106227106227
1.6024020699987886,3.111428571428571,0.17406593406593407,0.2627106227106227
1.608083267999973,3.111428571428571,0.17406593406593407,0.2627106227106227
1.6084591929993621,3.111428571428571,0.17406593406593407,0.2627106227106227
1.6133492839999235,3.111428571428571,0.17406593406593407,0.2627106227106227
1.6182420469995122,3.111428571428571,0.17406593406593407,0.2627106227106227
1.623899612999594,3.111428571428571,0.17406593406593407,0.2627106227106227
1.624243435999233,2.681098901098901,0.49560439560439556,0.9573626373626374
1.6293027419997088,2.681098901098901,0.49560439560439556,0.9573626373626374
1.633349265999641,3.3,0.5455677655677655,0.5536263736263736
1.6367178039999999,3.3,0.5455677655677655,0.5536263736263736
1.6368964779994712,3.3,0.5455677655677655,0.5536263736263736
1.6424150410002767,3.3,0.5455677655677655,0.5536263736263736
1.6434158489992114,3.3,0.5455677655677655,0.5536263736263736
1.6442926799991255,3.3,0.5455677655677655,0.5536263736263736
1.645236954000211,3.3,0.5455677655677655,0.5536263736263736
1.6473224829987885,3.3,0.5455677655677655,0.5536263736263736
1.648248864999914,2.673040293040293,0.3578021978021978,0.6761172161172161
1.6499040090002381,3.3,0.7567032967032966,0.47142857142857136
1.6530986689995188,3.3,0.7567032967032966,0.47142857142857136
1.6555104319995735,3.3,0.10315018315018315,0.307032967032967
1.6556667139993806,3.3,0.10315018315018315,0.307032967032967
1.6605706809987169,3.3,0.10315018315018315,0.307032967032967
1.6606847329985612,3.3,0.10315018315018315,0.307032967032967
1.6665807209992636,3.3,0.10315018315018315,0.307032967032967
1.6666899479987478,3.3,0.10315018315018315,0.307032967032967
1.6726213780002581,3.3,0.10315018315018315,0.307032967032967
1.6771560679990216,3.3,0.10315018315018315,0.307032967032967
1.6774781690000964,3.3,0.10315018315018315,0.307032967032967
1.6826575670002057,3.3,0.10315018315018315,0.307032967032967
1.6856261799985077,3.3,0.10315018315018315,0.307032967032967
1.6886018429995602,3.3,0.10315018315018315,0.307032967032967
1.6922927179984981,3.3,1.0484249084249082,0.5286446886446886
1.6967467679987749,3.3,1.0484249084249082,0.5286446886446886
1.6982587929996953,3.3,1.0484249084249082,0.5286446886446886
1.7025978120000218,2.710915750915751,0.39406593406593404,0.9138461538461539
1.7041355579985975,2.6633699633699632,0.7147985347985348,1.3643223443223442
1.7084560679995775,2.6633699633699632,0.7147985347985348,1.3643223443223442
1.7093424039994716,2.6633699633699632,0.7147985347985348,1.3643223443223442
1.7109489630001917,2.6633699633699632,0.7147985347985348,1.3643223443223442
1.7145952339997166,2.6633699633699632,0.7147985347985348,1.3643223443223442
1.7148928419992444,2.6633699633699632,0.7147985347985348,1.3643223443223442
1.7199187810001604,2.6633699633699632,0.7147985347985348,1.3643223443223442
1.7242823699998553,3.3,1.021025641025641,0.8292307692307692
1.7258455510000204,3.3,1.021025641025641,0.8292307692307692
1.7294955439992918,3.3,1.021025641025641,0.8292307692307692
1.7296782229987002,2.6585347985347987,0.3295970695970696,0.747032967032967
1.7346723199989356,2.6585347985347987,0.3295970695970696,0.747032967032967
1.739703022998583,2.6585347985347987,0.3295970695970696,0.747032967032967
1.744756733000031,2.6585347985347987,0.3295970695970696,0.747032967032967
1.7484536590000062,2.6585347985347987,0.3295970695970696,0.747032967032967
1.7486559839999245,2.6585347985347987,0.3295970695970696,0.747032967032967
1.7536126189988863,2.6585347985347987,0.3295970695970696,0.747032967032967
1.7578636170001118,2.6585347985347987,0.3295970695970696,0.747032967032967
1.7600835529992764,2.6682051282051282,0.2071062271062271,0.36344322344322344
1.7609650979993603,2.6682051282051282,0.2071062271062271,0.36344322344322344
1.7625264809994405,2.6682051282051282,0.2071062271062271,0.36344322344322344
1.7669763539997803,2.6875457875457873,0.6366300366300366,1.2273260073260073
1.7677740399994946,2.6875457875457873,0.6366300366300366,1.2273260073260073
1.7693571309991967,2.6875457875457873,0.6366300366300366,1.2273260073260073
1.7737526279997837,2.6875457875457873,0.6366300366300366,1.2273260073260073
1.7746666530001676,2.6875457875457873,0.6366300366300366,1.2273260073260073
1.7761779489992477,2.6875457875457873,0.6366300366300366,1.2273260073260073
1.7804698729996744,2.6875457875457873,0.6366300366300366,1.2273260073260073
1.7820218580000073,2.6875457875457873,0.6366300366300366,1.2273260073260073
1.786242587999368,2.6875457875457873,0.6366300366300366,1.2273260073260073
1.7891877549991477,2.6875457875457873,0.6366300366300366,1.2273260073260073
1.7920552579998912,2.6875457875457873,0.6366300366300366,1.2273260073260073
1.7956872919985472,2.6875457875457873,0.6366300366300366,1.2273260073260073
1.800911851998535,2.6875457875457873,0.6366300366300366,1.2273260073260073
1.8038547269989067,2.6875457875457873,0.6366300366300366,1.2273260073260073
1.8067967939987284,2.6875457875457873,0.6366300366300366,1.2273260073260073
1.8104152659998363,2.6617582417582417,0.4013186813186813,0.834065934065934
1.8106044689993723,2.6682051282051282,0.17084249084249084,0.3336263736263736
1.8156484430001,3.3,0.11684981684981684,0.32717948717948714
1.8199106060001213,3.3,0.007252747252747252,0.2562637362637363
1.8222206339996774,3.3,0.007252747252747252,0.2562637362637363
1.8224930509986734,3.3,0.6736996336996337,1.2426373626373626
1.8273302249999688,3.3,0.6736996336996337,1.2426373626373626
1.8320975349997752,3.3,0.6736996336996337,1.2426373626373626
1.8322357319993898,3.3,0.11362637362637362,0.3038095238095238
1.8375182370000402,2.913186813186813,0.02175824175824176,0.2216117216117216
1.8403983909993258,2.913186813186813,0.02175824175824176,0.2216117216117216
1.8439528709986917,2.913186813186813,0.02175824175824176,0.2216117216117216
1.844222539999464,2.913186813186813,0.02175824175824176,0.2216117216117216
1.8491773509995255,2.913186813186813,0.02175824175824176,0.2216117216117216
1.8542149789991527,2.913186813186813,0.02175824175824176,0.2216117216117216
1.8591414009988512,2.913186813186813,0.02175824175824176,0.2216117216117216
1.8592306729988195,2.913186813186813,0.02175824175824176,0.2216117216117216
1.8641847290000442,2.913186813186813,0.02175824175824176,0.2216117216117216
1.8642748649999703,2.913186813186813,0.02175824175824176,0.2216117216117216
1.8691917569994985,2.913186813186813,0.02175824175824176,0.2216117216117216
1.8745324239989714,2.913186813186813,0.02175824175824176,0.2216117216117216
1.8775065569989238,2.913186813186813,0.02175824175824176,0.2216117216117216
1.8804564239999308,2.913186813186813,0.02175824175824176,0.2216117216117216
1.8834149819995218,2.913186813186813,0.02175824175824176,0.2216117216117216
1.8869691339987185,2.913186813186813,0.02175824175824176,0.2216117216117216
1.8872227470001235,2.913186813186813,0.02175824175824176,0.2216117216117216
1.8923907169992162,2.913186813186813,0.02175824175824176,0.2216117216117216
1.8952708939996228,2.913186813186813,0.02175824175824176,0.2216117216117216
1.8988397979992442,2.7423443223443225,0.9920146520146519,1.8446153846153845
1.8989544149990252,2.7423443223443225,0.9920146520146519,1.8446153846153845
1.9033010650000506,2.7423443223443225,0.9920146520146519,1.8446153846153845
1.9055307469989202,2.7423443223443225,0.9920146520146519,1.8446153846153845
1.9058220279985107,2.7423443223443225,0.9920146520146519,1.8446153846153845
1.9101679409995995,2.7423443223443225,0.9920146520146519,1.8446153846153845
1.91172148700025,2.7423443223443225,0.9920146520146519,1.8446153846153845
1.916022815999895,2.7423443223443225,0.9920146520146519,1.8446153846153845
1.9189192159992672,2.713333333333333,0.9476923076923076,1.826886446886447
1.9218235030002688,2.713333333333333,0.9476923076923076,1.826886446886447
1.924765050998758,3.17992673992674,0.7123809523809523,1.2257142857142858
1.9276487789993553,3.17992673992674,0.7123809523809523,1.2257142857142858
1.9312476539998897,3.17992673992674,0.7123809523809523,1.2257142857142858
1.931502585999624,3.3,0.11684981684981684,0.3505494505494505
1.9364728799992008,3.3,0.11684981684981684,0.3505494505494505
1.9414153620000434,2.71010989010989,0.958974358974359,1.8792673992673992
1.9457144209991384,2.71010989010989,0.958974358974359,1.8792673992673992
1.9472254840002279,2.71010989010989,0.958974358974359,1.8792673992673992
1.9515018809997855,2.71010989010989,0.958974358974359,1.8792673992673992
1.9530667359995277,2.71010989010989,0.958974358974359,1.8792673992673992
1.957383757999196,2.71010989010989,0.958974358974359,1.8792673992673992
1.9595622979995824,2.7423443223443225,0.4496703296703296,0.9347985347985347
1.9604322469986073,3.3,0.9243223443223443,0.78007326007326
1.9625969899989286,3.3,0.9243223443223443,0.78007326007326
1.9634336379986053,3.3,0.9243223443223443,0.78007326007326
1.9656184670002403,3.3,0.9243223443223443,0.78007326007326
1.9658875579989399,3.3,0.9243223443223443,0.78007326007326
1.9708519539999543,3.3,0.9243223443223443,0.78007326007326
1.9760327839994716,2.6569230769230767,0.3964835164835165,0.8042490842490841
1.980027607998636,3.2838827838827838,0.018534798534798533,0.3199267399267399
1.9834283649997815,3.2838827838827838,0.018534798534798533,0.3199267399267399
1.9842977110001812,2.6698168498168497,0.5165567765567766,0.9581684981684981
1.985944201998791,2.6698168498168497,0.5165567765567766,0.9581684981684981
1.9899784629997157,1.938095238095238,0.1942124542124542,0.224029304029304
1.9931514079999033,3.3,0.9339926739926739,0.9726739926739927
1.9948008849987673,3.3,0.9339926739926739,0.9726739926739927
1.999012350999692,2.735897435897436,0.9315750915750916,1.8397802197802198
2.000693213998602,2.735897435897436,0.9315750915750916,1.8397802197802198
2.0047476859999733,2.735897435897436,0.9315750915750916,1.8397802197802198
2.007291403999261,2.735897435897436,0.9315750915750916,1.8397802197802198
2.0128102999988187,2.735897435897436,0.9315750915750916,1.8397802197802198
2.0145420059998287,2.735897435897436,0.9315750915750916,1.8397802197802198
2.0177172559997416,2.735897435897436,0.9315750915750916,1.8397802197802198
2.0194137029993726,2.735897435897436,0.9315750915750916,1.8397802197802198
2.0233274069996696,2.735897435897436,0.9315750915750916,1.8397802197802198
2.027990069000225,2.735897435897436,0.9315750915750916,1.8397802197802198
2.0281627799995476,2.735897435897436,0.9315750915750916,1.8397802197802198
2.0339573479996034,2.735897435897436,0.9315750915750916,1.8397802197802198
2.039835673000198,2.735897435897436,0.9315750915750916,1.8397802197802198
2.0443131969987007,2.735897435897436,0.9315750915750916,1.8397802197802198
2.0451312339992,2.664175824175824,0.386007326007326,0.7067399267399267
2.04737194199879,2.664175824175824,0.386007326007326,0.7067399267399267
2.0476781399993342,2.664175824175824,0.386007326007326,0.7067399267399267
2.0527238710001257,2.664175824175824,0.386007326007326,0.7067399267399267
2.0569286169993575,2.664175824175824,0.386007326007326,0.7067399267399267
2.059131243999218,2.9695970695970697,0.4448351648351648,0.946080586080586
2.0606103439986327,2.9695970695970697,0.4448351648351648,0.946080586080586
2.0648417149986926,2.9695970695970697,0.4448351648351648,0.946080586080586
2.0670002850001765,2.6714285714285713,0.41098901098901097,0.7671794871794871
2.0677870429990435,2.6714285714285713,0.3964835164835165,0.7865201465201466
2.0693342260001373,2.6714285714285713,0.3964835164835165,0.7865201465201466
2.0745244529989577,2.6714285714285713,0.3964835164835165,0.7865201465201466
2.0784026969995466,3.2548717948717947,0.00967032967032967,0.28205128205128205
2.083881979999205,3.3,0.83003663003663,0.8332600732600732
2.084768576998613,2.6762637362637363,0.6938461538461538,1.3828571428571428
2.0858356569988246,2.6762637362637363,0.6938461538461538,1.3828571428571428
2.086700034999012,2.6762637362637363,0.6938461538461538,1.3828571428571428
2.08833188799872,2.6762637362637363,0.6938461538461538,1.3828571428571428
2.093047974998626,2.6762637362637363,0.6938461538461538,1.3828571428571428
2.0931669139990845,2.6762637362637363,0.6938461538461538,1.3828571428571428
2.098977931000263,2.6762637362637363,0.6938461538461538,1.3828571428571428
2.1043656839992764,2.7415384615384615,0.5979487179487178,1.228131868131868
2.1070481539991306,2.7415384615384615,0.5979487179487178,1.228131868131868
2.111157950999768,2.6794871794871793,0.42468864468864465,0.8727472527472527
2.115160516999822,2.6794871794871793,0.42468864468864465,0.8727472527472527
2.118454651999855,2.984102564102564,0.4528937728937729,0.9154578754578755
2.1187760929988144,2.984102564102564,0.4528937728937729,0.9154578754578755
2.123713142998895,2.984102564102564,0.4528937728937729,0.9154578754578755
2.128784385999097,2.984102564102564,0.4528937728937729,0.9154578754578755
2.133038336000027,2.984102564102564,0.4528937728937729,0.9154578754578755
2.135471883999344,2.984102564102564,0.4528937728937729,0.9154578754578755
2.1356786409996857,2.984102564102564,0.4528937728937729,0.9154578754578755
2.1408536969993293,2.713333333333333,0.8904761904761904,1.792234432234432
2.144213135999962,2.6714285714285713,0.22564102564102564,0.33926739926739924
2.1444794259987248,2.6714285714285713,0.22564102564102564,0.33926739926739924
2.150093352998738,2.6714285714285713,0.22564102564102564,0.33926739926739924
2.1503801090002526,2.66014652014652,0.3884249084249084,0.8252014652014652
2.1551172719991882,2.66014652014652,0.3884249084249084,0.8252014652014652
2.1553660970002966,2.66014652014652,0.3884249084249084,0.8252014652014652
2.1601230329997634,2.713333333333333,0.9339926739926739,1.8252747252747252
2.1603005599990865,2.713333333333333,0.9339926739926739,1.8252747252747252
2.164951848999408,2.713333333333333,0.9339926739926739,1.8252747252747252
2.165131728999768,2.713333333333333,0.9339926739926739,1.8252747252747252
2.1706175159997656,2.713333333333333,0.9339926739926739,1.8252747252747252
2.1723468499985756,2.713333333333333,0.9339926739926739,1.8252747252747252
2.1755482999997184,2.713333333333333,0.9339926739926739,1.8252747252747252
2.17655280299914,2.713333333333333,0.9339926739926739,1.8252747252747252
2.177504927998598,2.713333333333333,0.9339926739926739,1.8252747252747252
2.17845435199888,2.713333333333333,0.9339926739926739,1.8252747252747252
2.180182950998642,2.713333333333333,0.9339926739926739,1.8252747252747252
2.1834932709989516,2.713333333333333,0.9339926739926739,1.8252747252747252
2.184343523998905,2.713333333333333,0.9339926739926739,1.8252747252747252
2.1861007640000025,2.713333333333333,0.9339926739926739,1.8252747252747252
2.189392083999337,2.713333333333333,0.9339926739926739,1.8252747252747252
2.1896754529989266,2.713333333333333,0.9339926739926739,1.8252747252747252
2.1944760579990543,2.713333333333333,0.9339926739926739,1.8252747252747252
2.1945984579997457,2.713333333333333,0.9339926739926739,1.8252747252747252
2.199265890998504,2.713333333333333,0.9339926739926739,1.8252747252747252
2.1995406549995096,2.713333333333333,0.9339926739926739,1.8252747252747252
2.204212878999897,2.713333333333333,0.9339926739926739,1.8252747252747252
2.204433140999754,2.713333333333333,0.9339926739926739,1.8252747252747252
2.209074573998805,2.713333333333333,0.9339926739926739,1.8252747252747252
2.2093558849992405,2.713333333333333,0.9339926739926739,1.8252747252747252
2.2139819219992205,2.713333333333333,0.9339926739926739,1.8252747252747252
2.2143040199989628,2.713333333333333,0.9339926739926739,1.8252747252747252
2.2191365269991365,2.713333333333333,0.9339926739926739,1.8252747252747252
2.2247790319997875,2.713333333333333,0.9339926739926739,1.8252747252747252
2.2249841609991563,2.713333333333333,0.9339926739926739,1.8252747252747252
2.2297154959996988,2.713333333333333,0.9339926739926739,1.8252747252747252
2.229913993000082,2.713333333333333,0.9339926739926739,1.8252747252747252
2.2346531189996313,2.713333333333333,0.9339926739926739,1.8252747252747252
2.2347794489996886,2.713333333333333,0.9339926739926739,1.8252747252747252
2.2394371569989744,2.713333333333333,0.9339926739926739,1.8252747252747252
2.239728724998713,2.713333333333333,0.9339926739926739,1.8252747252747252
2.244385322999733,2.713333333333333,0.9339926739926739,1.8252747252747252
2.244651350998538,2.713333333333333,0.9339926739926739,1.8252747252747252
2.2492027139996935,2.713333333333333,0.9339926739926739,1.8252747252747252
2.250067091999881,2.713333333333333,0.9339926739926739,1.8252747252747252
2.2516332989998773,3.3,0.4456410256410256,0.5254212454212454
2.255947435998678,3.3,0.4456410256410256,0.5254212454212454
2.2581296899988956,3.3,0.4456410256410256,0.5254212454212454
2.2602436500001204,3.3,0.4456410256410256,0.5254212454212454
2.261106373000075,2.0621978021978022,0.6616117216117217,1.0701831501831502
2.2632531429990195,2.0621978021978022,0.6616117216117217,1.0701831501831502
2.2641133479992277,2.0621978021978022,0.6616117216117217,1.0701831501831502
2.2656621869991795,2.0621978021978022,0.6616117216117217,1.0701831501831502
2.2700530669990258,2.6609523809523807,0.4045421245421245,0.8582417582417583
2.271007961999203,2.6682051282051282,0.17487179487179486,0.2562637362637363
2.2726172669990774,2.6682051282051282,0.17487179487179486,0.2562637362637363
2.276304273000278,2.6682051282051282,0.17487179487179486,0.2562637362637363
2.27645396600019,2.7383150183150184,0.7752380952380952,1.5786813186813187
2.2814773099999,2.7383150183150184,0.7752380952380952,1.5786813186813187
2.2861968990000605,2.7383150183150184,0.7752380952380952,1.5786813186813187
2.291858474000037,3.3,0.3892307692307692,0.4528937728937729
2.2922976989993913,3.3,0.9597802197802198,0.5842490842490843
2.2973253129985096,3.3,0.9597802197802198,0.5842490842490843
2.3019003289991815,3.3,0.9597802197802198,0.5842490842490843
2.3021541489997617,3.3,0.9597802197802198,0.5842490842490843
2.30754869699922,3.3,0.9597802197802198,0.5842490842490843
2.310125166999569,3.3,0.9597802197802198,0.5842490842490843
2.310243466999964,3.3,0.9597802197802198,0.5842490842490843
2.314976468000168,3.3,0.9597802197802198,0.5842490842490843
2.315126605999467,3.3,0.9597802197802198,0.5842490842490843
2.320878462998735,3.3,0.9597802197802198,0.5842490842490843
2.3210227559993655,3.3,0.9597802197802198,0.5842490842490843
2.325532815999395,3.3,0.9597802197802198,0.5842490842490843
2.3270507999986876,3.3,0.9597802197802198,0.5842490842490843
2.330712223998489,3.3,0.9597802197802198,0.5842490842490843
2.330859461999353,3.3,0.9597802197802198,0.5842490842490843
2.3357640059984988,3.3,0.09992673992673992,0.29413919413919415
2.3358874379991903,3.3,0.09992673992673992,0.29413919413919415
2.3408470729991677,3.3,0.09992673992673992,0.29413919413919415
2.345120201998725,2.706886446886447,0.5294505494505495,1.1346520146520145
2.3479633159986406,2.706886446886447,0.5294505494505495,1.1346520146520145
2.350920787999712,2.706886446886447,0.5294505494505495,1.1346520146520145
2.3539275969997107,2.706886446886447,0.5294505494505495,1.1346520146520145
2.356902696999896,2.706886446886447,0.5294505494505495,1.1346520146520145
2.359879257999637,2.706886446886447,0.5294505494505495,1.1346520146520145
2.362240271999326,2.706886446886447,0.5294505494505495,1.1346520146520145
2.36305830099991,2.706886446886447,0.5294505494505495,1.1346520146520145
2.3646244909996312,2.690769230769231,0.5262271062271061,1.1564102564102563
2.3691946959988854,2.690769230769231,0.5262271062271061,1.1564102564102563
2.369459518999065,2.690769230769231,0.5262271062271061,1.1564102564102563
2.3746257399998285,2.690769230769231,0.5262271062271061,1.1564102564102563
2.376926471999468,2.690769230769231,0.5262271062271061,1.1564102564102563
2.3772856679988763,2.690769230769231,0.5262271062271061,1.1564102564102563
2.3823148669998773,2.690769230769231,0.5262271062271061,1.1564102564102563
2.386653978999675,2.690769230769231,0.5262271062271061,1.1564102564102563
2.388161875998776,2.690769230769231,0.5262271062271061,1.1564102564102563
2.3926374959992245,2.690769230769231,0.5262271062271061,1.1564102564102563
2.3941395319998264,2.690769230769231,0.5262271062271061,1.1564102564102563
2.3984731159998773,2.690769230769231,0.5262271062271061,1.1564102564102563
2.4000644979987555,2.690769230769231,0.5262271062271061,1.1564102564102563
2.4038725509999495,2.5199267399267398,0.6761172161172161,1.0983882783882783
2.408843915998659,2.6665934065934067,0.5141391941391941,1.0145787545787546
2.4139167430003,2.6665934065934067,0.5141391941391941,1.0145787545787546
2.4183423739996215,2.6665934065934067,0.5141391941391941,1.0145787545787546
2.4206567000001087,2.6665934065934067,0.5141391941391941,1.0145787545787546
2.420894523998868,2.6665934065934067,0.5141391941391941,1.0145787545787546
2.425955869999598,2.6665934065934067,0.5141391941391941,1.0145787545787546
2.430899472999954,2.6665934065934067,0.5141391941391941,1.0145787545787546
2.4351634869999543,2.6665934065934067,0.5141391941391941,1.0145787545787546
2.4374193999992713,2.6665934065934067,0.5141391941391941,1.0145787545787546
2.4377135140002792,2.6665934065934067,0.5141391941391941,1.0145787545787546
2.4426099119991704,2.6665934065934067,0.5141391941391941,1.0145787545787546
2.4475394139990385,2.681098901098901,0.6745054945054945,1.2934065934065933
2.4476380059986695,2.681098901098901,0.6745054945054945,1.2934065934065933
2.452043175999279,2.681098901098901,0.6745054945054945,1.2934065934065933
2.4541957869987527,3.3,0.044322344322344324,0.3102564102564102
2.455065903999639,3.3,0.044322344322344324,0.3102564102564102
2.4567111209998984,3.3,0.044322344322344324,0.3102564102564102
2.460364620999826,3.3,0.044322344322344324,0.3102564102564102
2.460534015999656,1.4142857142857141,0.5681318681318681,0.8767765567765567
2.4655729409987543,1.4142857142857141,0.5681318681318681,0.8767765567765567
2.469590906999656,1.4142857142857141,0.5681318681318681,0.8767765567765567
2.4727142639985686,1.4142857142857141,0.5681318681318681,0.8767765567765567
2.4743805279995286,1.4142857142857141,0.5681318681318681,0.8767765567765567
2.4784076809992257,1.4142857142857141,0.5681318681318681,0.8767765567765567
2.482307096999648,1.4142857142857141,0.5681318681318681,0.8767765567765567
2.4870763259987143,1.4142857142857141,0.5681318681318681,0.8767765567765567
2.487292764999438,1.4142857142857141,0.5681318681318681,0.8767765567765567
2.4921543109994673,1.4142857142857141,0.5681318681318681,0.8767765567765567
2.4922955259989976,1.4142857142857141,0.5681318681318681,0.8767765567765567
2.4971850469992205,1.4142857142857141,0.5681318681318681,0.8767765567765567
2.4972940879997623,1.4142857142857141,0.5681318681318681,0.8767765567765567
2.502190638999309,1.4142857142857141,0.5681318681318681,0.8767765567765567
2.5080233339995175,1.4142857142857141,0.5681318681318681,0.8767765567765567
2.508127107999826,2.6682051282051282,0.3997069597069597,0.6745054945054945
2.5137690789997578,2.6682051282051282,0.3997069597069597,0.6745054945054945
2.5146912210002483,2.6682051282051282,0.3997069597069597,0.6745054945054945
2.517011703999742,2.6682051282051282,0.3997069597069597,0.6745054945054945
2.5172461610000028,2.71010989010989,0.7349450549450549,1.4344322344322344
2.52189413799897,2.71010989010989,0.7349450549450549,1.4344322344322344
2.5221008629996504,2.71010989010989,0.7349450549450549,1.4344322344322344
2.527497602999574,2.71010989010989,0.7349450549450549,1.4344322344322344
2.5298798589992657,2.71010989010989,0.7349450549450549,1.4344322344322344
2.530023710000023,2.71010989010989,0.7349450549450549,1.4344322344322344
2.5347647599992342,2.71010989010989,0.7349450549450549,1.4344322344322344
2.534927472999698,2.71010989010989,0.7349450549450549,1.4344322344322344
2.539524463998532,2.7125274725274724,0.9275457875457875,1.8945787545787542
2.539788223999494,2.7125274725274724,0.9275457875457875,1.8945787545787542
2.5441842449999967,2.7125274725274724,0.9275457875457875,1.8945787545787542
2.545756048999465,2.7125274725274724,0.9275457875457875,1.8945787545787542
2.5494325349991414,2.7125274725274724,0.9275457875457875,1.8945787545787542
2.549594491998505,2.7125274725274724,0.9275457875457875,1.8945787545787542
2.553976514000169,2.7125274725274724,0.9275457875457875,1.8945787545787542
2.5555243259987037,2.7125274725274724,0.9275457875457875,1.8945787545787542
2.5599663319990213,2.7125274725274724,0.9275457875457875,1.8945787545787542
2.5608421889992314,2.7125274725274724,0.9275457875457875,1.8945787545787542
2.5624209889992926,2.7125274725274724,0.9275457875457875,1.8945787545787542
2.5667163069992966,2.7125274725274724,0.9275457875457875,1.8945787545787542
2.568272202999651,2.004175824175824,0.1958241758241758,0.22886446886446887
2.5733283709996613,2.004175824175824,0.1958241758241758,0.22886446886446887
2.5781130279992794,2.004175824175824,0.1958241758241758,0.22886446886446887
2.583895500998551,2.004175824175824,0.1958241758241758,0.22886446886446887
2.5840485759999865,2.004175824175824,0.1958241758241758,0.22886446886446887
2.589568376999523,2.004175824175824,0.1958241758241758,0.22886446886446887
2.5905216519986425,2.004175824175824,0.1958241758241758,0.22886446886446887
2.591501019998759,2.004175824175824,0.1958241758241758,0.22886446886446887
2.592538680999496,2.004175824175824,0.1958241758241758,0.22886446886446887
2.5928735739998956,2.004175824175824,0.1958241758241758,0.22886446886446887
2.597537261999605,2.004175824175824,0.1958241758241758,0.22886446886446887
2.597741343999587,2.004175824175824,0.1958241758241758,0.22886446886446887
2.60313694999968,2.004175824175824,0.1958241758241758,0.22886446886446887
2.605550352998762,2.004175824175824,0.1958241758241758,0.22886446886446887
2.6057678790002683,2.004175824175824,0.1958241758241758,0.22886446886446887
2.6112153909998597,2.004175824175824,0.1958241758241758,0.22886446886446887
2.613107156999831,2.004175824175824,0.1958241758241758,0.22886446886446887
2.615532493999126,3.3,0.017728937728937726,0.29413919413919415
2.6212338929999532,3.3,0.017728937728937726,0.29413919413919415
2.622140751000188,3.3,0.017728937728937726,0.29413919413919415
2.623648504999437,3.3,0.017728937728937726,0.29413919413919415
2.6280037790002098,3.3,0.017728937728937726,0.29413919413919415
2.629523257999608,3.3,0.017728937728937726,0.29413919413919415
2.6338474489984947,3.3,0.017728937728937726,0.29413919413919415
2.6361259859986603,3.3,0.017728937728937726,0.29413919413919415
2.6369654789996275,3.3,0.017728937728937726,0.29413919413919415
2.6385365309997724,3.3,0.017728937728937726,0.29413919413919415
2.642779394000172,3.3,0.9194871794871795,0.8058608058608058
2.644342558000062,3.3,0.9194871794871795,0.8058608058608058
2.6485960239988344,3.3,0.9194871794871795,0.8058608058608058
2.6508534399999917,3.3,0.9194871794871795,0.8058608058608058
2.651656351999918,3.3,0.9194871794871795,0.8058608058608058
2.6532043070001237,3.3,0.9194871794871795,0.8058608058608058
2.6585283749991504,3.3,0.9194871794871795,0.8058608058608058
2.6602215279999655,3.3,0.9194871794871795,0.8058608058608058
2.664002528999845,3.3,0.9194871794871795,0.8058608058608058
2.6678039409998746,3.3,0.9194871794871795,0.8058608058608058
2.672396681999089,3.3,0.9194871794871795,0.8058608058608058
2.672625851999328,3.3,0.9194871794871795,0.8058608058608058
2.6772231119994103,3.3,0.9194871794871795,0.8058608058608058
2.677570609999748,3.3,0.9194871794871795,0.8058608058608058
2.6822563850000734,3.3,0.9194871794871795,0.8058608058608058
2.6824988879998273,3.3,0.9194871794871795,0.8058608058608058
2.687076356000034,3.3,0.9194871794871795,0.8058608058608058
2.687980188999063,3.3,0.9194871794871795,0.8058608058608058
2.688892964999468,3.3,0.9194871794871795,0.8058608058608058
2.690492337998876,3.3,0.9194871794871795,0.8058608058608058
2.694393386998854,3.3,0.9194871794871795,0.8058608058608058
2.6990010219997203,3.3,0.9194871794871795,0.8058608058608058
2.6991378549992078,3.3,0.9194871794871795,0.8058608058608058
2.7053460239985725,3.3,0.9194871794871795,0.8058608058608058
2.7086672429995815,3.3,0.9194871794871795,0.8058608058608058
2.7096933369994076,3.3,0.9194871794871795,0.8058608058608058
2.711295547998816,3.3,0.9194871794871795,0.8058608058608058
2.7154060909997497,3.3,0.9194871794871795,0.8058608058608058
2.718642396999712,3.3,0.9194871794871795,0.8058608058608058
2.7195708859999286,3.3,0.9194871794871795,0.8058608058608058
2.7205229479986883,3.3,0.9194871794871795,0.8058608058608058
2.7214487940000254,3.3,0.9194871794871795,0.8058608058608058
2.72314817699953,3.3,0.9194871794871795,0.8058608058608058
2.7265316089997214,3.3,0.9194871794871795,0.8058608058608058
2.726753954999367,3.3,0.9194871794871795,0.8058608058608058
2.73144786299963,3.3,0.9194871794871795,0.8058608058608058
2.7317429479990096,2.6536996336996337,0.18695970695970696,0.311062271062271
2.7378341929997987,2.6536996336996337,0.18695970695970696,0.311062271062271
2.7417135149989917,2.5843956043956045,0.15472527472527473,0.4488644688644688
2.7464025459994446,3.3,0.942051282051282,0.8477655677655677
2.7465153649991407,2.673040293040293,0.4867399267399267,0.9686446886446887
2.751253429998542,2.673040293040293,0.4867399267399267,0.9686446886446887
2.7515325299991673,2.673040293040293,0.4867399267399267,0.9686446886446887
2.7579726969997864,2.673040293040293,0.4867399267399267,0.9686446886446887
2.762702250000075,2.713333333333333,0.6293772893772893,1.2515018315018314
2.766649380999297,2.6915750915750913,0.6922344322344323,1.3635164835164835
2.7713549459986098,2.6915750915750913,0.6922344322344323,1.3635164835164835
2.771494778999113,2.6915750915750913,0.6922344322344323,1.3635164835164835
2.776434094999786,2.6915750915750913,0.6922344322344323,1.3635164835164835
2.7814479879998544,2.6915750915750913,0.6922344322344323,1.3635164835164835
2.785506448999513,2.6915750915750913,0.6922344322344323,1.3635164835164835
2.788771392999479,2.6915750915750913,0.6922344322344323,1.3635164835164835
2.7903854759988462,2.6915750915750913,0.6922344322344323,1.3635164835164835
2.794989912999881,2.6915750915750913,0.6922344322344323,1.3635164835164835
2.795157497999753,2.6915750915750913,0.6922344322344323,1.3635164835164835
2.8006971839986363,2.6915750915750913,0.6922344322344323,1.3635164835164835
2.801609059999464,2.6915750915750913,0.6922344322344323,1.3635164835164835
2.8025619210002333,2.6915750915750913,0.6922344322344323,1.3635164835164835
2.8041864419992635,2.6915750915750913,0.6922344322344323,1.3635164835164835
2.8082877549986733,2.6915750915750913,0.6922344322344323,1.3635164835164835
2.812690441000086,2.6746520146520147,0.3964835164835165,0.7494505494505495
2.8128690969988384,2.6746520146520147,0.3964835164835165,0.7494505494505495
2.8175542459994176,2.6746520146520147,0.3964835164835165,0.7494505494505495
2.8178963199989084,2.6746520146520147,0.3964835164835165,0.7494505494505495
2.825882842998908,2.6746520146520147,0.3964835164835165,0.7494505494505495
2.832377472999724,3.3,0.6777289377289377,1.1975091575091574
2.836358439999458,3.3,0.6777289377289377,1.1975091575091574
2.8390830070002266,3.3,0.6777289377289377,1.1975091575091574
2.8454667789992527,3.3,0.6777289377289377,1.1975091575091574
2.8526279990001058,2.693186813186813,0.6591941391941392,1.357069597069597
2.856718548999197,2.693186813186813,0.6591941391941392,1.357069597069597
2.8602223309990222,2.693186813186813,0.6591941391941392,1.357069597069597
2.8604458529989643,2.693186813186813,0.6591941391941392,1.357069597069597
2.867617195999628,2.693186813186813,0.6591941391941392,1.357069597069597
2.8716580539985443,2.693186813186813,0.6591941391941392,1.357069597069597
2.8760513159995753,2.693186813186813,0.6591941391941392,1.357069597069597
2.876360536998618,2.693186813186813,0.6591941391941392,1.357069597069597
2.882833853998818,2.693186813186813,0.6591941391941392,1.357069597069597
2.8868690519993834,2.693186813186813,0.6591941391941392,1.357069597069597
2.889397053999346,2.693186813186813,0.6591941391941392,1.357069597069597
2.8895615989986254,2.693186813186813,0.6591941391941392,1.357069597069597
2.895011569999042,2.693186813186813,0.6591941391941392,1.357069597069597
2.896416600999146,2.693186813186813,0.6591941391941392,1.357069597069597
2.9037025779998658,2.693186813186813,0.6591941391941392,1.357069597069597
2.908433402999435,2.693186813186813,0.6591941391941392,1.357069597069597
2.9086947109990433,2.693186813186813,0.6591941391941392,1.357069597069597
2.9163250389992754,2.693186813186813,0.6591941391941392,1.357069597069597
2.9206156639993424,2.693186813186813,0.6591941391941392,1.357069597069597
2.921594481998909,2.693186813186813,0.6591941391941392,1.357069597069597
2.923214528000244,2.693186813186813,0.6591941391941392,1.357069597069597
2.9272609039999224,2.693186813186813,0.6591941391941392,1.357069597069597
2.9325388299985207,2.693186813186813,0.6591941391941392,1.357069597069597
2.9355158759990445,2.693186813186813,0.6591941391941392,1.357069597069597
2.937064845998975,2.693186813186813,0.6591941391941392,1.357069597069597
2.94173030499951,2.693186813186813,0.6591941391941392,1.357069597069597
2.9484043779993954,2.693186813186813,0.6591941391941392,1.357069597069597
2.95358708799904,3.261318681318681,0.12168498168498168,0.2772161172161172
2.9581918599997152,3.261318681318681,0.12168498168498168,0.2772161172161172
2.964221459998953,3.261318681318681,0.12168498168498168,0.2772161172161172
2.9699363709987665,2.6843223443223443,0.6986813186813187,1.3675457875457875
2.976202641999407,2.6843223443223443,0.6986813186813187,1.3675457875457875
2.9822420780001266,2.71010989010989,0.7051282051282051,1.39010989010989
2.985939819998748,2.71010989010989,0.7051282051282051,1.39010989010989
2.9909916579999845,3.0356776556776555,0.24175824175824176,0.40615384615384614
2.994987897000101,3.0356776556776555,0.24175824175824176,0.40615384615384614
2.999310577999495,3.0356776556776555,0.24175824175824176,0.40615384615384614
3.000643790999675,2.66014652014652,0.43597069597069593,0.6390476190476191
3.0058331879990874,2.66014652014652,0.43597069597069593,0.6390476190476191
3.008169339998858,2.66014652014652,0.43597069597069593,0.6390476190476191
3.008452785999907,2.66014652014652,0.43597069597069593,0.6390476190476191
3.0165467179995176,2.66014652014652,0.43597069597069593,0.6390476190476191
3.020106310999836,3.3,0.03706959706959707,0.25787545787545785
3.020298286999605,3.3,0.03706959706959707,0.25787545787545785
3.025624641999457,2.6698168498168497,0.6922344322344323,1.3417582417582417
3.0272820230002253,2.6698168498168497,0.6922344322344323,1.3417582417582417
3.0336133769997105,2.6698168498168497,0.6922344322344323,1.3417582417582417
3.037205692999123,2.6698168498168497,0.6922344322344323,1.3417582417582417
3.037353464998887,2.6698168498168497,0.6922344322344323,1.3417582417582417
3.0421105779987556,2.6698168498168497,0.6922344322344323,1.3417582417582417
3.0423019329991803,2.6698168498168497,0.6922344322344323,1.3417582417582417
3.047931819999576,2.6698168498168497,0.6922344322344323,1.3417582417582417
3.0545541219998995,2.6698168498168497,0.6922344322344323,1.3417582417582417
3.0584521609998774,2.8873992673992674,0.0547985347985348,0.2063003663003663
3.0626020149993565,2.8873992673992674,0.0547985347985348,0.2063003663003663
3.067038732999208,2.8873992673992674,0.0547985347985348,0.2063003663003663
3.0671917049985495,3.3,0.2989743589743589,0.5093040293040293
3.073173021999537,3.3,0.2989743589743589,0.5093040293040293
3.079368552998858,3.3,0.2989743589743589,0.5093040293040293
3.086017005998656,2.880952380952381,0.4520879120879121,0.6164835164835165
3.0900637869999628,2.880952380952381,0.4520879120879121,0.6164835164835165
3.0939588619985443,2.880952380952381,0.4520879120879121,0.6164835164835165
3.100494706999598,2.880952380952381,0.4520879120879121,0.6164835164835165
3.10421752000002,2.880952380952381,0.4520879120879121,0.6164835164835165
3.1097921229993517,2.880952380952381,0.4520879120879121,0.6164835164835165
3.109978496999247,2.6698168498168497,0.3852014652014652,0.834065934065934
3.1181613259996084,2.6698168498168497,0.3852014652014652,0.834065934065934
3.122379536000153,2.673040293040293,0.85018315018315,1.4747252747252748
3.1245978309998463,2.673040293040293,0.85018315018315,1.4747252747252748
3.124908742000116,2.673040293040293,0.85018315018315,1.4747252747252748
3.131346385998768,2.673040293040293,0.85018315018315,1.4747252747252748
3.1353232249985012,2.673040293040293,0.85018315018315,1.4747252747252748
3.1378345339999214,2.722197802197802,0.018534798534798533,0.2224175824175824
3.137957999999344,2.722197802197802,0.018534798534798533,0.2224175824175824
3.1428748769994854,2.722197802197802,0.018534798534798533,0.2224175824175824
3.15061031499863,2.673040293040293,0.7035164835164834,1.3498168498168497
3.1549301979994198,2.673040293040293,0.7035164835164834,1.3498168498168497
3.155963872999564,2.673040293040293,0.7035164835164834,1.3498168498168497
3.1568679559986776,2.7084981684981684,0.942051282051282,1.846227106227106
3.157830718999321,2.7084981684981684,0.942051282051282,1.846227106227106
3.159908612999061,3.3,0.17809523809523808,0.24014652014652016
3.1607965729999705,1.2805128205128204,0.5705494505494505,0.8808058608058608
3.1633056249993388,1.2805128205128204,0.5705494505494505,0.8808058608058608
3.1709657599985803,2.690769230769231,0.6116483516483516,1.216849816849817
3.1757416179989377,2.905128205128205,0.2191941391941392,0.311062271062271
3.183789511998839,2.905128205128205,0.2191941391941392,0.311062271062271
3.1881889079995744,2.655311355311355,0.39890109890109887,0.6736996336996337
3.1891458979989693,2.655311355311355,0.39890109890109887,0.6736996336996337
3.1901495739984966,2.655311355311355,0.39890109890109887,0.6736996336996337
3.1918170129993086,2.655311355311355,0.39890109890109887,0.6736996336996337
3.196140555999591,2.655311355311355,0.39890109890109887,0.6736996336996337
3.1997337009997864,2.655311355311355,0.39890109890109887,0.6736996336996337
3.204131309999866,2.655311355311355,0.39890109890109887,0.6736996336996337
3.2050584239987074,2.655311355311355,0.39890109890109887,0.6736996336996337
3.2061125729997,2.655311355311355,0.39890109890109887,0.6736996336996337
3.2071202949991857,2.655311355311355,0.39890109890109887,0.6736996336996337
3.2080016219988465,2.655311355311355,0.39890109890109887,0.6736996336996337
3.209043610999288,2.655311355311355,0.39890109890109887,0.6736996336996337
3.2099766969986376,2.655311355311355,0.39890109890109887,0.6736996336996337
3.211594818998492,2.9776556776556777,0.19904761904761903,0.3618315018315018
3.2178166529993177,2.9776556776556777,0.19904761904761903,0.3618315018315018
3.221741466999447,2.71010989010989,0.6825641025641025,1.3216117216117216
3.225366356999075,2.71010989010989,0.6825641025641025,1.3216117216117216
3.2255104779997055,2.71010989010989,0.6825641025641025,1.3216117216117216
3.2328341029988223,2.71010989010989,0.6825641025641025,1.3216117216117216
3.2381069249986467,2.8825641025641024,0.1555311355311355,0.3884249084249084
3.2393432939988998,2.8825641025641024,0.1555311355311355,0.3884249084249084
3.2394720159991266,2.8825641025641024,0.1555311355311355,0.3884249084249084
3.24821772499854,2.8825641025641024,0.1555311355311355,0.3884249084249084
3.2550452319992473,2.709304029304029,0.7164102564102564,1.4650549450549448
3.2597145499985345,2.840659340659341,0.0136996336996337,0.25787545787545785
3.2697321719988395,1.5158241758241757,0.5109157509157509,0.7881318681318681
3.2761236159985856,2.6843223443223443,0.5044688644688645,0.9444688644688644
3.281901164998999,3.3,0.047545787545787546,0.27238095238095233
3.288897525999346,3.3,0.047545787545787546,0.27238095238095233
3.2936378529993817,3.3,0.047545787545787546,0.27238095238095233
3.293893037998714,3.3,0.047545787545787546,0.27238095238095233
3.301815936998537,3.3,0.047545787545787546,0.27238095238095233
3.3073536869997042,3.3,0.047545787545787546,0.27238095238095233
3.30760064199967,3.3,0.047545787545787546,0.27238095238095233
3.3158894030002557,3.3,0.047545787545787546,0.27238095238095233
3.3220735029990465,3.3,0.047545787545787546,0.27238095238095233
3.3252324009990843,3.3,0.047545787545787546,0.27238095238095233
3.3278684389988484,3.3,0.047545787545787546,0.27238095238095233
3.335269391998736,3.3,0.047545787545787546,0.27238095238095233
3.3398923849999846,3.3,0.047545787545787546,0.27238095238095233
3.345244603999163,3.3,0.047545787545787546,0.27238095238095233
3.3476833079985227,3.3,0.047545787545787546,0.27238095238095233
3.356868155999109,2.66014652014652,0.3304029304029304,0.5431501831501832
3.3639320109996333,2.66014652014652,0.3304029304029304,0.5431501831501832
3.367813782999292,2.66014652014652,0.3304029304029304,0.5431501831501832
3.3716931580001983,2.66014652014652,0.3304029304029304,0.5431501831501832
3.3761794969996117,2.66014652014652,0.3304029304029304,0.5431501831501832
3.3770581600001606,2.71010989010989,0.9307692307692307,1.892161172161172
3.378212532999896,2.71010989010989,0.9307692307692307,1.892161172161172
3.378543238999555,2.71010989010989,0.9307692307692307,1.892161172161172
3.3868474589999096,2.71010989010989,0.9307692307692307,1.892161172161172
3.3917648839997128,3.3,0.6624175824175824,1.2055677655677655
3.3979282039999816,3.3,0.6624175824175824,1.2055677655677655
3.40393999600019,3.3,0.6624175824175824,1.2055677655677655
3.408290366998699,3.3,0.6624175824175824,1.2055677655677655
3.4092372429986426,3.3,0.6624175824175824,1.2055677655677655
3.4108608239985188,3.3,1.05003663003663,0.5616849816849817
3.4173128530001122,3.3,1.05003663003663,0.5616849816849817
3.4205549379985314,3.3,1.05003663003663,0.5616849816849817
3.4221897199986415,3.3,1.05003663003663,0.5616849816849817
3.4260802549997607,3.3,1.05003663003663,0.5616849816849817
3.431086624999807,3.3,1.05003663003663,0.5616849816849817
3.436848536999605,3.3,0.06849816849816849,0.28124542124542123
3.442611376998684,3.3,0.06849816849816849,0.28124542124542123
3.4428920509999443,3.3,0.06849816849816849,0.28124542124542123
3.4517965109989746,3.3,0.06849816849816849,0.28124542124542123
3.4583692209998844,3.3,0.9194871794871795,0.5044688644688645
3.4635176960000535,3.3,0.9194871794871795,0.5044688644688645
3.4665878159994463,3.3,0.9194871794871795,0.5044688644688645
3.4675446639994334,2.6714285714285713,0.3529670329670329,0.70996336996337
3.469229345999338,2.6714285714285713,0.3529670329670329,0.70996336996337
3.4725129090002156,2.6714285714285713,0.3529670329670329,0.70996336996337
3.473462717000075,2.6714285714285713,0.3529670329670329,0.70996336996337
3.4750730489995476,2.6714285714285713,0.3529670329670329,0.70996336996337
3.4791585439998016,2.6714285714285713,0.3529670329670329,0.70996336996337
3.484035490999304,2.6714285714285713,0.3529670329670329,0.70996336996337
3.4889067579988478,2.6714285714285713,0.3529670329670329,0.70996336996337
3.4945440809988213,2.6714285714285713,0.3529670329670329,0.70996336996337
3.494778733998828,2.6649816849816848,0.7156043956043956,1.4698901098901098
3.5040052280000964,2.6649816849816848,0.7156043956043956,1.4698901098901098
3.510508179999306,2.6649816849816848,0.7156043956043956,1.4698901098901098
3.5172258269994927,3.253260073260073,0.14424908424908423,0.2949450549450549
3.523050259998854,3.253260073260073,0.14424908424908423,0.2949450549450549
3.5285154349985532,2.652087912087912,0.6720879120879121,1.083076923076923
3.530921108998882,2.652087912087912,0.6720879120879121,1.083076923076923
3.538873674999195,3.3,0.7857142857142856,0.5600732600732601
3.5430099129989685,3.3,0.7857142857142856,0.5600732600732601
3.546688175998497,3.3,0.7857142857142856,0.5600732600732601
3.5527052219986217,3.3,0.7857142857142856,0.5600732600732601
3.55826392400013,3.3,0.7857142857142856,0.5600732600732601
3.558517829000266,2.739120879120879,0.7115750915750916,1.4231501831501832
3.564076575999934,2.739120879120879,0.7115750915750916,1.4231501831501832
3.565305598998748,2.739120879120879,0.7115750915750916,1.4231501831501832
3.5655866319993947,2.739120879120879,0.7115750915750916,1.4231501831501832
3.5711460289985553,2.739120879120879,0.7115750915750916,1.4231501831501832
3.5714053909996437,2.739120879120879,0.7115750915750916,1.4231501831501832
3.5761882480001077,2.739120879120879,0.7115750915750916,1.4231501831501832
3.5762977929989574,2.739120879120879,0.7115750915750916,1.4231501831501832
3.583378659999653,2.739120879120879,0.7115750915750916,1.4231501831501832
3.5886872859991854,2.739120879120879,0.7115750915750916,1.4231501831501832
3.5896452679990034,2.739120879120879,0.7115750915750916,1.4231501831501832
3.590507914999762,2.739120879120879,0.7115750915750916,1.4231501831501832
3.5921433240000624,2.739120879120879,0.7115750915750916,1.4231501831501832
3.5964843389992893,2.739120879120879,0.7115750915750916,1.4231501831501832
3.5995635210001637,2.739120879120879,0.7115750915750916,1.4231501831501832
3.599960187999386,2.739120879120879,0.7115750915750916,1.4231501831501832
3.604240220000065,2.739120879120879,0.7115750915750916,1.4231501831501832
3.606699985999512,2.739120879120879,0.7115750915750916,1.4231501831501832
3.612461042999712,2.6682051282051282,0.4126007326007326,0.8332600732600732
3.612859794999167,2.6682051282051282,0.4126007326007326,0.8332600732600732
3.619376906999605,2.6682051282051282,0.4126007326007326,0.8332600732600732
3.623624342999392,2.7423443223443225,0.9299633699633699,1.7438827838827837
3.625303883000015,2.7423443223443225,0.9299633699633699,1.7438827838827837
3.6317870410002797,2.7423443223443225,0.9299633699633699,1.7438827838827837
3.6362363230000483,2.7423443223443225,0.9299633699633699,1.7438827838827837
3.6365144069986854,2.7423443223443225,0.9299633699633699,1.7438827838827837
3.643444403000103,2.71010989010989,0.693040293040293,1.2917948717948717
3.651347902999987,1.735018315018315,0.4698168498168498,0.73010989010989
3.655959828998675,3.1855677655677654,0.3706959706959707,0.5463736263736263
3.6560674800002744,3.1855677655677654,0.3706959706959707,0.5463736263736263
3.6608645939995768,3.1855677655677654,0.3706959706959707,0.5463736263736263
3.6610178439987067,3.1855677655677654,0.3706959706959707,0.5463736263736263
3.6708205710001494,3.1855677655677654,0.3706959706959707,0.5463736263736263
3.67635794600028,2.6682051282051282,0.5205860805860806,0.9638095238095238
3.677273425999374,2.6682051282051282,0.8364835164835164,1.5117948717948717
3.678220108999085,3.3,0.17326007326007326,0.25465201465201465
3.6814806099991984,3.3,0.17326007326007326,0.25465201465201465
3.681826079999155,2.698827838827839,0.6624175824175824,1.274871794871795
3.687757170999248,2.698827838827839,0.6624175824175824,1.274871794871795
3.691720314998747,2.6617582417582417,0.42630036630036633,0.7542857142857142
3.694872725998721,3.3,0.0709157509157509,0.2804395604395604
3.6958841149989894,3.3,0.0709157509157509,0.2804395604395604
3.6974378129998513,3.3,0.0709157509157509,0.2804395604395604
3.703519745999074,3.3,0.0709157509157509,0.2804395604395604
3.707011970998792,3.3,0.0709157509157509,0.2804395604395604
3.7072891409989097,3.3,0.0709157509157509,0.2804395604395604
3.7121678839994274,3.3,0.0709157509157509,0.2804395604395604
3.7122885159988073,3.3,0.0709157509157509,0.2804395604395604
3.722315647999494,3.3,0.0709157509157509,0.2804395604395604
3.727106303000255,3.3,0.0709157509157509,0.2804395604395604
3.7272341230000166,3.3,0.0709157509157509,0.2804395604395604
3.7354611699993256,3.3,0.0709157509157509,0.2804395604395604
3.741089805000229,3.3,0.0709157509157509,0.2804395604395604
3.7412854729991523,3.3,0.0709157509157509,0.2804395604395604
3.7486704049988475,3.3,0.0709157509157509,0.2804395604395604
3.756462997000199,2.7117216117216114,0.614065934065934,1.2490842490842489
3.76469825499953,2.7084981684981684,1.1314285714285715,1.892161172161172
3.7703345350000745,2.7084981684981684,1.1314285714285715,1.892161172161172
3.7705493189987465,2.7084981684981684,1.1314285714285715,1.892161172161172
3.7757940699993924,2.7084981684981684,1.1314285714285715,1.892161172161172
3.778622717998587,2.7084981684981684,1.1314285714285715,1.892161172161172
3.783913125000254,3.3,0.8606593406593407,0.8227838827838827
3.784159183000156,3.3,0.8606593406593407,0.8227838827838827
3.789749571998982,3.3,0.8606593406593407,0.8227838827838827
3.7909716029989795,3.3,1.0178021978021978,0.5213919413919413
3.7911273729987442,3.3,1.0178021978021978,0.5213919413919413
3.798335026998757,3.3,1.0178021978021978,0.5213919413919413
3.8029023429990048,3.3,1.0178021978021978,0.5213919413919413
3.8031920960002026,2.713333333333333,0.7494505494505495,1.5786813186813187
3.8083612999998877,2.713333333333333,0.7494505494505495,1.5786813186813187
3.8121338689998083,2.713333333333333,0.7494505494505495,1.5786813186813187
3.8199730819997058,3.3,0.1539194139194139,0.4037362637362637
3.8255699919991457,3.3,0.1539194139194139,0.4037362637362637
3.82719928699953,3.3,0.1539194139194139,0.4037362637362637
3.833556249999674,3.3,0.1539194139194139,0.4037362637362637
3.837272603999736,3.0115018315018314,0.029816849816849816,0.25465201465201465
3.842098465000163,3.0115018315018314,0.029816849816849816,0.25465201465201465
3.850879667999834,3.0115018315018314,0.029816849816849816,0.25465201465201465
3.8554546710001887,3.0115018315018314,0.029816849816849816,0.25465201465201465
3.856381708999834,3.3,0.0016117216117216117,0.2957509157509157
3.856747590998566,2.7117216117216114,0.805054945054945,1.5649816849816849
3.861361773999306,2.7117216117216114,0.805054945054945,1.5649816849816849
3.8617496589995426,2.7117216117216114,0.805054945054945,1.5649816849816849
3.8715218489996914,2.7117216117216114,0.805054945054945,1.5649816849816849
3.8771768059996248,3.3,0.2651282051282051,0.3892307692307692
3.877363397999943,3.3,0.2651282051282051,0.3892307692307692
3.8875686849987687,3.3,0.2651282051282051,0.3892307692307692
3.8964961169986054,3.3,0.2651282051282051,0.3892307692307692
3.9028161499991256,3.3,0.8936996336996336,0.5632967032967032
3.9068311659993924,3.3,0.8936996336996336,0.5632967032967032
3.910775627999101,2.655311355311355,0.4142124542124542,0.684981684981685
3.916151141998853,2.655311355311355,0.4142124542124542,0.684981684981685
3.916437711999606,2.655311355311355,0.4142124542124542,0.684981684981685
3.9239462069999718,2.655311355311355,0.4142124542124542,0.684981684981685
3.9289755429999786,2.655311355311355,0.4142124542124542,0.684981684981685
3.93450405799922,2.655311355311355,0.4142124542124542,0.684981684981685
3.934777601998576,2.6682051282051282,0.788937728937729,1.411062271062271
3.943166527998983,2.6682051282051282,0.788937728937729,1.411062271062271
3.9515253310000844,2.6682051282051282,0.788937728937729,1.411062271062271
3.955580129999362,3.3,1.016190476190476,0.5407326007326007
3.9594884399994044,3.3,1.016190476190476,0.5407326007326007
3.9658582840002055,3.3,0.6809523809523809,1.1894505494505494
3.9692379999996774,3.3,0.6809523809523809,1.1894505494505494
3.9701905570000235,3.3,0.6809523809523809,1.1894505494505494
3.971926659000019,3.3,0.6809523809523809,1.1894505494505494
3.975075387999823,3.3,0.0,0.2772161172161172
3.9774816739991365,2.465128205128205,0.0024175824175824176,0.15875457875457877
3.977621996999005,2.465128205128205,0.0024175824175824176,0.15875457875457877
3.984939743999348,2.465128205128205,0.0024175824175824176,0.15875457875457877
3.98901007799941,2.6746520146520147,0.5689377289377289,1.0452014652014652
3.992462098998658,3.3,0.9114285714285715,0.5939194139194138
3.993451655998797,3.3,0.9114285714285715,0.5939194139194138
3.993718359999548,3.3,0.9114285714285715,0.5939194139194138
4.001838604999648,2.755238095238095,0.9017582417582416,1.6367032967032966
4.00686683099957,2.755238095238095,0.9017582417582416,1.6367032967032966
4.011662490998788,2.3297435897435896,0.1958241758241758,0.224029304029304
4.018711943999733,2.3297435897435896,0.1958241758241758,0.224029304029304
4.022774062999815,2.3297435897435896,0.1958241758241758,0.224029304029304
4.0277903209989745,2.3297435897435896,0.1958241758241758,0.224029304029304
4.034858883000197,2.3297435897435896,0.1958241758241758,0.224029304029304
4.038804203999462,2.3297435897435896,0.1958241758241758,0.224029304029304
4.047653386998718,3.3,0.1668131868131868,0.28769230769230764
4.053618883999661,3.3,0.1668131868131868,0.28769230769230764
4.059400471998742,3.3,0.1668131868131868,0.28769230769230764
4.0595643569995445,3.3,0.1668131868131868,0.28769230769230764
4.067721703999268,3.3,0.1668131868131868,0.28769230769230764
4.074556207999194,3.3,0.1668131868131868,0.28769230769230764
4.084534083000108,3.3,0.1668131868131868,0.28769230769230764
4.0889529479991324,2.6665934065934067,0.1692307692307692,0.30945054945054945
4.090696628998558,2.6665934065934067,0.1692307692307692,0.30945054945054945
4.093521882999994,2.6665934065934067,0.1692307692307692,0.30945054945054945
4.098584450999624,2.6665934065934067,0.1692307692307692,0.30945054945054945
4.1017554239988385,2.6665934065934067,0.1692307692307692,0.30945054945054945
4.102708297999925,2.6665934065934067,0.1692307692307692,0.30945054945054945
4.1036527669984935,2.6665934065934067,0.1692307692307692,0.30945054945054945
4.105317196999749,2.6649816849816848,0.5600732600732601,0.8002197802197801
4.110126603998651,2.6649816849816848,0.5600732600732601,0.8002197802197801
4.116840828999557,2.6649816849816848,0.5600732600732601,0.8002197802197801
4.120259975999943,2.6649816849816848,0.5600732600732601,0.8002197802197801
4.120511483999508,2.6649816849816848,0.5600732600732601,0.8002197802197801
4.126231846999872,2.6649816849816848,0.5600732600732601,0.8002197802197801
4.127058042999124,2.6649816849816848,0.5600732600732601,0.8002197802197801
4.1291109079993475,2.6649816849816848,0.5600732600732601,0.8002197802197801
4.132341333999648,2.6649816849816848,0.5600732600732601,0.8002197802197801
4.132548760999271,3.0227838827838824,0.0,0.20065934065934066
4.137684249999438,3.0227838827838824,0.0,0.20065934065934066
4.1402042739991884,3.0227838827838824,0.0,0.20065934065934066
4.1468534329997055,3.0227838827838824,0.0,0.20065934065934066
4.152510885000083,3.3,0.3376556776556776,0.5947252747252747
4.152743998000005,3.3,0.3376556776556776,0.5947252747252747
4.157625660998747,3.3,0.3376556776556776,0.5947252747252747
4.163463540999146,3.3,0.3376556776556776,0.5947252747252747
4.171601497999291,3.3,0.3376556776556776,0.5947252747252747
4.180232591999811,3.3,0.3376556776556776,0.5947252747252747
4.18766179100021,3.3,0.3376556776556776,0.5947252747252747
4.19325375399967,2.713333333333333,0.7631501831501831,1.5448351648351648
4.193507142999806,2.697216117216117,0.18857142857142856,0.3432967032967033
4.202009078999254,2.6585347985347987,0.6390476190476191,1.1975091575091574
4.206057527999292,2.6585347985347987,0.6390476190476191,1.1975091575091574
4.208622658999957,2.6585347985347987,0.6390476190476191,1.1975091575091574
4.215422825000132,2.6585347985347987,0.6390476190476191,1.1975091575091574
4.221160889999737,2.6585347985347987,0.6390476190476191,1.1975091575091574
4.227034124998681,2.6585347985347987,0.6390476190476191,1.1975091575091574
4.233550072998696,2.6585347985347987,0.6390476190476191,1.1975091575091574
4.2390254929996445,3.042124542124542,0.1692307692307692,0.38278388278388276
4.239239668999289,3.042124542124542,0.1692307692307692,0.38278388278388276
4.244692395999664,3.042124542124542,0.1692307692307692,0.38278388278388276
4.247676438999406,3.042124542124542,0.1692307692307692,0.38278388278388276
4.2511477930002,3.042124542124542,0.1692307692307692,0.38278388278388276
4.257080909999786,3.042124542124542,0.1692307692307692,0.38278388278388276
4.263777377998849,3.042124542124542,0.1692307692307692,0.38278388278388276
4.269967905998783,3.042124542124542,0.1692307692307692,0.38278388278388276
4.273994703999051,3.3,0.21516483516483517,0.4786813186813187
4.276530463999734,3.3,0.21516483516483517,0.4786813186813187
4.276719259998572,3.3,0.21516483516483517,0.4786813186813187
4.286709942998641,2.713333333333333,0.3723076923076923,0.8074725274725274
4.293847899998582,2.7084981684981684,0.6922344322344323,1.340952380952381
4.300801268998839,2.7084981684981684,0.6922344322344323,1.340952380952381
4.306184073999248,3.3,0.6745054945054945,1.1556043956043955
4.306547264999608,2.6665934065934067,0.42710622710622714,0.850989010989011
4.31623640899852,2.6665934065934067,0.42710622710622714,0.850989010989011
4.320665097999154,2.6665934065934067,0.42710622710622714,0.850989010989011
4.320953554999505,2.6665934065934067,0.42710622710622714,0.850989010989011
4.3258734549999645,2.6665934065934067,0.42710622710622714,0.850989010989011
4.332569149999472,2.6665934065934067,0.42710622710622714,0.850989010989011
4.339544389998991,2.6665934065934067,0.42710622710622714,0.850989010989011
4.3452552759990795,2.6665934065934067,0.42710622710622714,0.850989010989011
4.35770784899978,2.6665934065934067,0.42710622710622714,0.850989010989011
4.3704301830002805,2.6665934065934067,0.42710622710622714,0.850989010989011
4.382131491998734,3.3,0.012087912087912087,0.29655677655677654
4.388487161999365,2.698827838827839,0.5568498168498168,1.0105494505494506
4.393048643998554,3.3,0.29413919413919415,0.4593406593406593
4.393409492999126,3.3,0.29413919413919415,0.4593406593406593
4.401535211998635,3.3,0.29413919413919415,0.4593406593406593
4.409330745000261,3.3,0.29413919413919415,0.4593406593406593
4.417274612000256,3.3,0.29413919413919415,0.4593406593406593
4.422504702999504,3.3,0.29413919413919415,0.4593406593406593
4.424225347998799,3.3,0.29413919413919415,0.4593406593406593
4.428424431998792,3.3,0.29413919413919415,0.4593406593406593
4.43165646899979,3.3,0.29413919413919415,0.4593406593406593
4.4321054499996535,3.3,0.29413919413919415,0.4593406593406593
4.44091576000028,3.3,0.29413919413919415,0.4593406593406593
4.448292629000207,3.3,0.29413919413919415,0.4593406593406593
4.4528722149989335,3.3,0.29413919413919415,0.4593406593406593
4.453250343998661,3.3,0.29413919413919415,0.4593406593406593
4.460002288999021,3.3,0.29413919413919415,0.4593406593406593
4.466751595999085,3.3,0.29413919413919415,0.4593406593406593
4.472614948999762,2.6794871794871793,0.5939194139194138,1.1257875457875457
4.477055997000207,2.6794871794871793,0.5939194139194138,1.1257875457875457
4.477319491999879,2.713333333333333,0.9678388278388278,1.8969963369963367
4.484953110999413,2.713333333333333,0.9678388278388278,1.8969963369963367
4.489861526999448,3.3,0.7905494505494506,0.8002197802197801
4.495624944998781,2.988937728937729,0.12249084249084248,0.253040293040293
4.495913373999429,3.0606593406593405,0.0846153846153846,0.29816849816849816
4.502185844999985,2.706886446886447,0.7986080586080586,1.4972893772893772
4.506328219998977,2.6802930402930403,0.693040293040293,1.3328937728937729
4.508701128999746,2.6802930402930403,0.693040293040293,1.3328937728937729
4.508829201999106,2.6802930402930403,0.693040293040293,1.3328937728937729
4.5142683449994365,2.6802930402930403,0.693040293040293,1.3328937728937729
4.516679821999787,2.6802930402930403,0.693040293040293,1.3328937728937729
4.51692133799952,2.6802930402930403,0.693040293040293,1.3328937728937729
4.522061378998842,2.6802930402930403,0.693040293040293,1.3328937728937729
4.524553852999816,2.6802930402930403,0.693040293040293,1.3328937728937729
4.533457699999417,3.3,0.27399267399267396,0.3529670329670329
4.538452872999187,3.3,0.27399267399267396,0.3529670329670329
4.5408961180000915,3.3,0.27399267399267396,0.3529670329670329
4.5477930929992,3.3,0.27399267399267396,0.3529670329670329
4.553203560999464,3.3,0.27399267399267396,0.3529670329670329
4.554585660000157,3.3,0.012893772893772894,0.2683516483516483
4.55946871299966,2.7423443223443225,0.9468864468864467,1.8196336996336997
4.567257716998938,2.7423443223443225,0.9468864468864467,1.8196336996336997
4.572238443999595,2.7423443223443225,0.9468864468864467,1.8196336996336997
4.577336147998722,2.7423443223443225,0.9468864468864467,1.8196336996336997
4.582564854999873,2.7423443223443225,0.9468864468864467,1.8196336996336997
4.582911362000232,3.0203663003663,0.43758241758241756,0.7502564102564102
4.588208499999382,3.0203663003663,0.43758241758241756,0.7502564102564102
4.590792549999605,3.0203663003663,0.43758241758241756,0.7502564102564102
4.599112673999116,3.0203663003663,0.43758241758241756,0.7502564102564102
4.604131917998529,3.0203663003663,0.43758241758241756,0.7502564102564102
4.607980355998734,3.0203663003663,0.43758241758241756,0.7502564102564102
4.614226582998526,3.0203663003663,0.43758241758241756,0.7502564102564102
4.6200405649997265,3.3,0.0016117216117216117,0.3078388278388278
4.624316109999199,2.71010989010989,0.772014652014652,1.4578021978021978
4.626104180999391,2.71010989010989,0.772014652014652,1.4578021978021978
4.631379428999935,2.71010989010989,0.772014652014652,1.4578021978021978
4.631704677998641,2.71010989010989,0.772014652014652,1.4578021978021978
4.637623253998754,2.71010989010989,0.772014652014652,1.4578021978021978
4.64224835999994,2.71010989010989,0.772014652014652,1.4578021978021978
4.642552458999489,2.71010989010989,0.772014652014652,1.4578021978021978
4.6504340109986515,2.71010989010989,0.772014652014652,1.4578021978021978
4.654453805998855,2.71010989010989,0.772014652014652,1.4578021978021978
4.657622796999931,2.71010989010989,0.772014652014652,1.4578021978021978
4.659317796998948,2.71010989010989,0.772014652014652,1.4578021978021978
4.663823730999866,2.71010989010989,0.772014652014652,1.4578021978021978
4.664064065000275,2.71010989010989,0.772014652014652,1.4578021978021978
4.672755297999174,2.71010989010989,0.772014652014652,1.4578021978021978
4.678110785000172,2.71010989010989,0.772014652014652,1.4578021978021978
4.681731725999271,2.71010989010989,0.772014652014652,1.4578021978021978
4.688946940999813,2.735897435897436,0.6817582417582417,1.3457875457875457
4.6928634220003005,2.735897435897436,0.6817582417582417,1.3457875457875457
4.69878229799906,2.735897435897436,0.6817582417582417,1.3457875457875457
4.703426688998661,2.735897435897436,0.6817582417582417,1.3457875457875457
4.703626008998981,2.735897435897436,0.6817582417582417,1.3457875457875457
4.709397103999436,2.735897435897436,0.6817582417582417,1.3457875457875457
4.718503315998532,2.735897435897436,0.6817582417582417,1.3457875457875457
4.723494301999381,2.71010989010989,0.6857875457875457,1.270842490842491
4.727801992999957,2.71010989010989,0.6857875457875457,1.270842490842491
4.72996238199994,2.71010989010989,0.6857875457875457,1.270842490842491
4.730251121998663,2.71010989010989,0.6857875457875457,1.270842490842491
4.7367812449992925,2.71010989010989,0.6857875457875457,1.270842490842491
4.741005537998717,2.71010989010989,0.6857875457875457,1.270842490842491
4.743707232999441,3.3,0.8824175824175824,0.8332600732600732
4.750526231999174,2.681098901098901,0.5399267399267399,1.0073260073260073
4.755388617999415,2.681098901098901,0.5399267399267399,1.0073260073260073
4.764350350998939,2.681098901098901,0.5399267399267399,1.0073260073260073
4.7702325509999355,2.4345054945054945,0.195018315018315,0.1821245421245421
4.776069133999044,2.4345054945054945,0.195018315018315,0.1821245421245421
4.784234715998537,2.713333333333333,0.49560439560439556,1.0468131868131867
4.788791711998783,2.713333333333333,0.49560439560439556,1.0468131868131867
4.7889608229997975,2.713333333333333,0.49560439560439556,1.0468131868131867
4.797437809000257,2.9744322344322343,0.2111355311355311,0.3698901098901099
4.803584170000249,2.9744322344322343,0.2111355311355311,0.3698901098901099
4.806944771999042,3.3,0.6704761904761904,0.8526007326007327
4.807245093999882,3.3,0.6704761904761904,0.8526007326007327
4.8129396610002,3.3,0.6704761904761904,0.8526007326007327
4.8132237109985,3.3,0.6704761904761904,0.8526007326007327
4.819304184999055,3.3,0.6704761904761904,0.8526007326007327
4.82399660199917,3.3,0.6704761904761904,0.8526007326007327
4.8305110429992055,2.6875457875457873,0.6720879120879121,1.2490842490842489
4.834814558998914,2.6875457875457873,0.6720879120879121,1.2490842490842489
4.835086948998651,2.6875457875457873,0.6720879120879121,1.2490842490842489
4.8420422399995005,2.6875457875457873,0.6720879120879121,1.2490842490842489
4.848441215999628,2.6875457875457873,0.6720879120879121,1.2490842490842489
4.852106365999134,2.6714285714285713,0.4166300366300366,0.8195604395604396
4.852327789998526,2.6714285714285713,0.4166300366300366,0.8195604395604396
4.857286683998609,2.6714285714285713,0.4166300366300366,0.8195604395604396
4.862212170999555,2.6714285714285713,0.4166300366300366,0.8195604395604396
4.870896343998538,2.6714285714285713,0.4166300366300366,0.8195604395604396
4.875336658999004,2.6714285714285713,0.4166300366300366,0.8195604395604396
4.876397171999997,2.6714285714285713,0.4166300366300366,0.8195604395604396
4.876690114999292,2.6714285714285713,0.4166300366300366,0.8195604395604396
4.883799878998616,2.6714285714285713,0.4166300366300366,0.8195604395604396
4.8871997659989574,3.3,0.66,1.1830036630036629
4.887519412999609,3.3,0.66,1.1830036630036629
4.893460231000063,3.3,0.66,1.1830036630036629
4.906231604998538,3.296776556776557,0.02901098901098901,0.28124542124542123
4.916867923999234,3.296776556776557,0.02901098901098901,0.28124542124542123
4.922115587998633,2.9180219780219776,0.12893772893772892,0.3441025641025641
4.93047716899855,2.9180219780219776,0.12893772893772892,0.3441025641025641
4.935663110998576,2.9180219780219776,0.12893772893772892,0.3441025641025641
4.938070090998735,2.9180219780219776,0.12893772893772892,0.3441025641025641
4.944313459998739,2.9180219780219776,0.12893772893772892,0.3441025641025641
4.953660215000127,2.9180219780219776,0.12893772893772892,0.3441025641025641
4.9583656979993975,2.9180219780219776,0.12893772893772892,0.3441025641025641
4.958562211999379,2.9180219780219776,0.12893772893772892,0.3441025641025641
4.966318332999435,2.9180219780219776,0.12893772893772892,0.3441025641025641
4.969712034999247,2.9180219780219776,0.12893772893772892,0.3441025641025641
4.969924219998575,2.9180219780219776,0.12893772893772892,0.3441025641025641
4.974770721999448,2.9180219780219776,0.12893772893772892,0.3441025641025641
4.974927276998642,2.9180219780219776,0.12893772893772892,0.3441025641025641
4.982414699999936,2.9180219780219776,0.12893772893772892,0.3441025641025641
4.9861158129988326,2.9180219780219776,0.12893772893772892,0.3441025641025641
4.991631684999447,2.9180219780219776,0.12893772893772892,0.3441025641025641
4.9925798080003005,2.9180219780219776,0.12893772893772892,0.3441025641025641
4.994224854999629,2.9180219780219776,0.12893772893772892,0.3441025641025641
5.000224380999498,2.9180219780219776,0.12893772893772892,0.3441025641025641
5.004210147999402,2.9180219780219776,0.12893772893772892,0.3441025641025641
5.008187633999114,2.9180219780219776,0.12893772893772892,0.3441025641025641
5.013643434000187,3.3,0.5463736263736263,0.5939194139194138
5.013904028999605,3.3,0.007252747252747252,0.29333333333333333
5.02073649599879,3.3,0.007252747252747252,0.29333333333333333
5.025928678998753,3.3,0.007252747252747252,0.29333333333333333
5.030034907000299,3.3,0.007252747252747252,0.29333333333333333
5.033261344999119,3.3,0.007252747252747252,0.29333333333333333
5.034319931999562,3.3,0.007252747252747252,0.29333333333333333
5.035297874999742,3.3,0.007252747252747252,0.29333333333333333
5.03626073399937,3.3,0.007252747252747252,0.29333333333333333
5.03728861199852,3.3,0.007252747252747252,0.29333333333333333
5.038287497998681,3.3,0.007252747252747252,0.29333333333333333
5.039500715998656,3.2935531135531133,0.5616849816849817,0.6946520146520146
5.039706593999654,3.2935531135531133,0.5616849816849817,0.6946520146520146
5.044513921999169,3.2935531135531133,0.5616849816849817,0.6946520146520146
5.044641921998846,3.2935531135531133,0.5616849816849817,0.6946520146520146
5.050162898998678,2.66014652014652,0.40937728937728934,0.801025641025641
5.051809830998536,3.3,0.8711355311355311,0.5528205128205127
5.054992123999909,3.3,0.8711355311355311,0.5528205128205127
5.056588456998725,3.3,0.8711355311355311,0.5528205128205127
5.061221377998663,3.3,0.8711355311355311,0.5528205128205127
5.061434674998964,3.3,0.8711355311355311,0.5528205128205127
5.066125268998803,3.3,0.8711355311355311,0.5528205128205127
5.066296425999099,2.6682051282051282,0.43032967032967034,0.8477655677655677
5.072269790000064,2.6682051282051282,0.43032967032967034,0.8477655677655677
5.078402171999187,3.3,0.8163369963369963,0.5375091575091575
5.08395807099987,3.3,0.8163369963369963,0.5375091575091575
5.089659714998561,3.3,0.8163369963369963,0.5375091575091575
5.089881177998905,2.6690109890109888,0.4142124542124542,0.8324542124542124
5.095912897999369,2.6690109890109888,0.4142124542124542,0.8324542124542124
5.1022430029988755,2.6690109890109888,0.4142124542124542,0.8324542124542124
5.106205606000003,2.6690109890109888,0.4142124542124542,0.8324542124542124
5.110221353999805,3.3,0.2836630036630036,0.4698168498168498
5.114278654998998,3.3,1.3345054945054944,0.5681318681318681
5.117615311999543,3.3,1.3345054945054944,0.5681318681318681
5.117872574999637,3.3,1.3345054945054944,0.5681318681318681
5.1224437820001185,3.3,1.3345054945054944,0.5681318681318681
5.123283881999669,3.3,1.3345054945054944,0.5681318681318681
5.124839711999812,3.3,1.3345054945054944,0.5681318681318681
5.129187130998616,3.3,1.3345054945054944,0.5681318681318681
5.131330168998829,3.3,1.3345054945054944,0.5681318681318681
5.1321811149991845,3.3,1.3345054945054944,0.5681318681318681
5.134326096000223,3.3,1.3345054945054944,0.5681318681318681
5.135156054999243,3.3,1.3345054945054944,0.5681318681318681
5.136723080999218,3.3,1.3345054945054944,0.5681318681318681
5.140995227999156,3.3,1.3345054945054944,0.5681318681318681
5.143171527999584,3.3,1.3345054945054944,0.5681318681318681
5.143977174999236,3.3,1.3345054945054944,0.5681318681318681
5.145583760999216,3.3,1.3345054945054944,0.5681318681318681
5.149237413999799,2.6665934065934067,0.42630036630036633,0.8131135531135532
5.149391397999352,2.8027838827838827,0.11282051282051282,0.40776556776556777
5.154411341998639,2.8027838827838827,0.11282051282051282,0.40776556776556777
5.158041827999114,2.8583882783882784,0.02095238095238095,0.2175824175824176
5.158229332999326,2.8583882783882784,0.02095238095238095,0.2175824175824176
5.164181545998872,2.8583882783882784,0.02095238095238095,0.2175824175824176
5.168975414999295,3.055018315018315,0.6865934065934066,1.2563369963369961
5.174680565000017,2.851941391941392,0.09831501831501832,0.30864468864468864
5.174865432998558,2.851941391941392,0.09831501831501832,0.30864468864468864
5.180826067999078,2.851941391941392,0.09831501831501832,0.30864468864468864
5.186376343999655,2.851941391941392,0.09831501831501832,0.30864468864468864
5.1880797969988635,2.851941391941392,0.09831501831501832,0.30864468864468864
5.192060006000247,2.851941391941392,0.09831501831501832,0.30864468864468864
5.195968713000184,3.3,0.09267399267399268,0.34087912087912087
5.200684694998927,3.3,0.09267399267399268,0.34087912087912087
5.200955290998536,2.9712087912087912,0.6656410256410257,1.2490842490842489
5.205653899000026,2.9712087912087912,0.6656410256410257,1.2490842490842489
5.205936941998516,2.9712087912087912,0.6656410256410257,1.2490842490842489
5.210640788000092,2.9712087912087912,0.6656410256410257,1.2490842490842489
5.210743722000188,3.3,0.0846153846153846,0.24014652014652016
5.216256460000295,3.3,0.0846153846153846,0.24014652014652016
5.217120073999467,3.3,0.0846153846153846,0.24014652014652016
5.218825062998803,3.3,0.0846153846153846,0.24014652014652016
5.222212446999038,3.3,0.9662271062271062,0.8002197802197801
5.222538287000134,3.3,0.9662271062271062,0.8002197802197801
5.228019221000068,2.713333333333333,0.6785347985347985,1.315970695970696
5.228431785999419,2.713333333333333,0.6785347985347985,1.315970695970696
5.233169403998545,2.713333333333333,0.6785347985347985,1.315970695970696
5.233296022999639,2.713333333333333,0.6785347985347985,1.315970695970696
5.237968235998778,2.713333333333333,0.6785347985347985,1.315970695970696
5.2381601790002605,2.713333333333333,0.6785347985347985,1.315970695970696
5.243733793999127,2.713333333333333,0.6785347985347985,1.315970695970696
5.244699582999601,2.706886446886447,0.7252747252747253,1.3667399267399267
5.245688775999952,2.706886446886447,0.7252747252747253,1.3667399267399267
5.246687398999711,2.706886446886447,0.7252747252747253,1.3667399267399267
5.247611389999292,2.6682051282051282,0.419047619047619,0.8155311355311355
5.249389621998489,3.3,0.6873992673992674,0.6591941391941392
5.252613274999021,3.3,0.9605860805860806,0.5157509157509157
5.253513925999869,3.3,0.9605860805860806,0.5157509157509157
5.255172170998776,3.3,0.9605860805860806,0.5157509157509157
5.2591195439999865,3.3,0.9605860805860806,0.5157509157509157
5.263049555998805,3.3,0.9605860805860806,0.5157509157509157
5.2670402499988995,3.3,0.9605860805860806,0.5157509157509157
5.2710163470001135,3.3,0.9605860805860806,0.5157509157509157
5.275729768998644,3.3,0.9605860805860806,0.5157509157509157
5.284154519998992,3.3,0.9605860805860806,0.5157509157509157
5.289685526999165,3.3,0.9605860805860806,0.5157509157509157
5.290548940998633,3.3,0.9605860805860806,0.5157509157509157
5.2922085449990846,3.3,0.9605860805860806,0.5157509157509157
5.296092897999188,3.3,0.9605860805860806,0.5157509157509157
5.299972622999121,3.3,0.9605860805860806,0.5157509157509157
5.303881706999164,3.3,0.9605860805860806,0.5157509157509157
5.307137029998557,3.3,0.9605860805860806,0.5157509157509157
5.308793472999241,3.3,0.3191208791208791,0.5173626373626373
5.312719059998926,3.3,0.3191208791208791,0.5173626373626373
5.317400702999294,3.3,0.3191208791208791,0.5173626373626373
5.317572242000097,3.3,0.3191208791208791,0.5173626373626373
5.323115755998515,3.3,0.3191208791208791,0.5173626373626373
5.324125475999608,3.3,0.3191208791208791,0.5173626373626373
5.3249886319990765,2.6665934065934067,0.4496703296703296,0.8098901098901098
5.325943235999148,2.6665934065934067,0.4496703296703296,0.8098901098901098
5.326955362999797,2.6665934065934067,0.4496703296703296,0.8098901098901098
5.327945295999598,2.6665934065934067,0.4496703296703296,0.8098901098901098
5.32882471099947,2.6665934065934067,0.4496703296703296,0.8098901098901098
5.329787120999754,2.6665934065934067,0.4496703296703296,0.8098901098901098
5.330858294999416,2.6665934065934067,0.4496703296703296,0.8098901098901098
5.33113623799909,2.6665934065934067,0.4496703296703296,0.8098901098901098
5.33865258699916,3.3,0.018534798534798533,0.2248351648351648
5.344517149998865,3.3,0.018534798534798533,0.2248351648351648
5.35270786899855,2.7117216117216114,0.6946520146520146,1.3167765567765568
5.360878335999587,2.7117216117216114,0.6946520146520146,1.3167765567765568
5.367846974999338,2.7342857142857144,0.5391208791208791,1.0387545787545787
5.371671523998884,2.6649816849816848,0.41340659340659336,0.7744322344322344
5.3769835049988615,2.655311355311355,0.16842490842490843,0.2909157509157509
5.3811464619993785,2.655311355311355,0.16842490842490843,0.2909157509157509
5.383717722999791,2.655311355311355,0.16842490842490843,0.2909157509157509
5.3879002739995485,2.655311355311355,0.16842490842490843,0.2909157509157509
5.390359801998784,2.655311355311355,0.16842490842490843,0.2909157509157509
5.3906219319997035,2.655311355311355,0.16842490842490843,0.2909157509157509
5.395181207999485,2.655311355311355,0.16842490842490843,0.2909157509157509
5.395411981999132,2.655311355311355,0.16842490842490843,0.2909157509157509
5.402820598999824,2.655311355311355,0.16842490842490843,0.2909157509157509
5.407611464999718,2.655311355311355,0.16842490842490843,0.2909157509157509
5.407743079000284,3.074358974358974,0.1515018315018315,0.4448351648351648
5.415070286999253,3.3,1.0145787545787546,0.5302564102564102
5.419723274999342,3.3,1.0145787545787546,0.5302564102564102
5.419910507998793,3.3,1.0145787545787546,0.5302564102564102
5.424796739000158,3.3,1.0145787545787546,0.5302564102564102
5.433935699998983,3.3,1.0145787545787546,0.5302564102564102
5.441147952999017,2.713333333333333,0.9879853479853479,1.8736263736263734
5.44749534499897,2.713333333333333,0.9879853479853479,1.8736263736263734
5.451579774999118,2.6714285714285713,0.43113553113553116,0.8042490842490841
5.452619560999665,2.6714285714285713,0.43113553113553116,0.8042490842490841
5.452920396999616,2.6714285714285713,0.43113553113553116,0.8042490842490841
5.458838544000173,2.6714285714285713,0.43113553113553116,0.8042490842490841
5.458982273999936,2.6714285714285713,0.43113553113553116,0.8042490842490841
5.465736157999345,2.6714285714285713,0.43113553113553116,0.8042490842490841
5.469207137999547,2.6714285714285713,0.43113553113553116,0.8042490842490841
5.4695361249996495,2.6585347985347987,0.29816849816849816,0.5117216117216117
5.475192379999498,2.6585347985347987,0.29816849816849816,0.5117216117216117
5.475362434999624,2.6585347985347987,0.29816849816849816,0.5117216117216117
5.482392211999468,2.6585347985347987,0.29816849816849816,0.5117216117216117
5.487891020999086,2.713333333333333,0.46659340659340653,0.9098168498168498
5.488028812000266,2.713333333333333,0.46659340659340653,0.9098168498168498
5.493662731998484,2.713333333333333,0.46659340659340653,0.9098168498168498
5.495451685999797,2.6609523809523807,0.7333333333333333,1.3506227106227104
5.498945626999557,2.6609523809523807,0.7333333333333333,1.3506227106227104
5.504517643999861,2.6609523809523807,0.7333333333333333,1.3506227106227104
5.5054169750001165,2.6617582417582417,0.7019047619047618,1.3296703296703296
5.507097421999788,2.6617582417582417,0.7019047619047618,1.3296703296703296
5.5103528189993085,2.6617582417582417,0.7019047619047618,1.3296703296703296
5.511318376999043,2.6617582417582417,0.7019047619047618,1.3296703296703296
5.512718856998617,2.6617582417582417,0.7019047619047618,1.3296703296703296
5.519369171999642,2.6617582417582417,0.7019047619047618,1.3296703296703296
5.523352303998763,2.6617582417582417,0.7019047619047618,1.3296703296703296
5.526607629999489,2.6617582417582417,0.7019047619047618,1.3296703296703296
5.527548019999813,2.6617582417582417,0.7019047619047618,1.3296703296703296
5.530518734998623,2.6617582417582417,0.7019047619047618,1.3296703296703296
5.533263186998738,3.3,0.12168498168498168,0.32556776556776557
5.53762512999856,3.3,0.12168498168498168,0.32556776556776557
5.537869826999668,3.1098168498168497,0.3658608058608058,0.5068864468864469
5.543407149998529,3.1098168498168497,0.3658608058608058,0.5068864468864469
5.545872235999923,2.6617582417582417,0.7051282051282051,1.2740659340659342
5.5545014969993645,2.6665934065934067,0.386007326007326,0.7897435897435897
5.560772651999287,2.6665934065934067,0.386007326007326,0.7897435897435897
5.568004573999133,3.2145787545787545,0.5624908424908425,0.6914285714285714
5.571341680999467,3.2145787545787545,0.5624908424908425,0.6914285714285714
5.5723705849995895,3.2145787545787545,0.5624908424908425,0.6914285714285714
5.5733052369996585,3.0775824175824176,0.025787545787545788,0.23853479853479853
5.574279041999034,3.0775824175824176,0.025787545787545788,0.23853479853479853
5.576328017999913,3.0775824175824176,0.025787545787545788,0.23853479853479853
5.577481213000283,3.0775824175824176,0.025787545787545788,0.23853479853479853
5.577801191999242,3.0775824175824176,0.025787545787545788,0.23853479853479853
5.585228596999514,3.0775824175824176,0.025787545787545788,0.23853479853479853
5.589145807000023,2.66014652014652,0.4416117216117216,0.7204395604395604
5.594981217000168,2.66014652014652,0.4416117216117216,0.7204395604395604
5.602340852999987,2.713333333333333,0.763956043956044,1.5641758241758241
5.608031518999269,2.713333333333333,0.763956043956044,1.5641758241758241
5.608220875999905,2.713333333333333,0.763956043956044,1.5641758241758241
5.6181075389995385,2.713333333333333,0.763956043956044,1.5641758241758241
5.627020935999099,2.713333333333333,0.9767032967032967,1.8913553113553112
5.636403196998799,2.713333333333333,0.9767032967032967,1.8913553113553112
5.641600128999926,3.00989010989011,0.22886446886446887,0.415018315018315
5.64599563199954,2.7423443223443225,0.7019047619047618,1.39010989010989
5.6463045370001055,2.7423443223443225,0.7019047619047618,1.39010989010989
5.652030552999349,2.7423443223443225,0.7019047619047618,1.39010989010989
5.661609036998925,2.7423443223443225,0.7019047619047618,1.39010989010989
5.670049163998556,2.7423443223443225,0.7019047619047618,1.39010989010989
5.6749730840001575,2.7423443223443225,0.7019047619047618,1.39010989010989
5.683487375999903,2.7423443223443225,0.7019047619047618,1.39010989010989
5.688200687000062,2.7423443223443225,0.7019047619047618,1.39010989010989
5.693978655999672,2.7423443223443225,0.7019047619047618,1.39010989010989
5.6942516780000005,2.7423443223443225,0.7019047619047618,1.39010989010989
5.700215672999548,2.7423443223443225,0.7019047619047618,1.39010989010989
5.705140193000261,2.7423443223443225,0.7019047619047618,1.39010989010989
5.7092869539992535,2.7423443223443225,0.7019047619047618,1.39010989010989
5.712925493999137,2.7423443223443225,0.7019047619047618,1.39010989010989
5.720112319999316,2.7423443223443225,0.7019047619047618,1.39010989010989
5.72482230300011,2.3297435897435896,0.42710622710622714,0.7075457875457875
5.733586352998827,3.3,0.30864468864468864,0.5149450549450549
5.739485492998938,2.7125274725274724,1.0008791208791208,1.8172161172161172
5.747904304000258,2.7125274725274724,1.0008791208791208,1.8172161172161172
5.754961566999555,2.7125274725274724,1.0008791208791208,1.8172161172161172
5.759059701998922,2.7125274725274724,1.0008791208791208,1.8172161172161172
5.762481763998949,2.7125274725274724,1.0008791208791208,1.8172161172161172
5.762708456999462,2.7125274725274724,1.0008791208791208,1.8172161172161172
5.769346257999132,2.7125274725274724,1.0008791208791208,1.8172161172161172
5.773505414999818,2.7125274725274724,1.0008791208791208,1.8172161172161172
5.776315584000258,2.7125274725274724,1.0008791208791208,1.8172161172161172
5.780687550999573,2.7125274725274724,1.0008791208791208,1.8172161172161172
5.7811404619988025,2.7125274725274724,1.0008791208791208,1.8172161172161172
5.787024000999736,2.7125274725274724,1.0008791208791208,1.8172161172161172
5.7909431509997376,2.7125274725274724,1.0008791208791208,1.8172161172161172
5.796007838998776,2.7125274725274724,1.0008791208791208,1.8172161172161172
5.800073934999091,2.71010989010989,0.9323809523809523,1.8156043956043957
5.803780495998581,2.6843223443223443,0.73010989010989,1.3345054945054944
5.8103000889987015,2.6843223443223443,0.73010989010989,1.3345054945054944
5.818276313999377,2.6843223443223443,0.73010989010989,1.3345054945054944
5.8219124949991965,2.6037362637362635,0.004029304029304029,0.16117216117216115
5.827420161000191,2.6037362637362635,0.004029304029304029,0.16117216117216115
5.831511107999177,2.6037362637362635,0.004029304029304029,0.16117216117216115
5.832709483998769,2.6037362637362635,0.004029304029304029,0.16117216117216115
5.832928779998838,2.9260805860805856,0.020146520146520144,0.19904761904761903
5.837717336999049,2.9260805860805856,0.020146520146520144,0.19904761904761903
5.837838223998915,2.9260805860805856,0.020146520146520144,0.19904761904761903
5.844627425998624,2.9260805860805856,0.020146520146520144,0.19904761904761903
5.850907057998484,2.756043956043956,0.2506227106227106,0.3457142857142857
5.8544391189989256,2.756043956043956,0.2506227106227106,0.3457142857142857
5.854686976999801,2.756043956043956,0.2506227106227106,0.3457142857142857
5.859444232999522,2.756043956043956,0.2506227106227106,0.3457142857142857
5.859576838000066,2.71010989010989,0.6543589743589743,1.2410256410256408
5.8669738409989804,2.71010989010989,0.6543589743589743,1.2410256410256408
5.871466984999643,2.71010989010989,0.7752380952380952,1.4795604395604396
5.872632542999781,2.71010989010989,0.7752380952380952,1.4795604395604396
5.872817454999677,2.71010989010989,0.7752380952380952,1.4795604395604396
5.877598170000056,2.71010989010989,0.7752380952380952,1.4795604395604396
5.877738049999607,2.71010989010989,0.7752380952380952,1.4795604395604396
5.885078576999149,2.71010989010989,0.7752380952380952,1.4795604395604396
5.889788574999329,2.71010989010989,0.7752380952380952,1.4795604395604396
5.889995850999185,2.71010989010989,0.7752380952380952,1.4795604395604396
5.896741710999777,2.71010989010989,0.7752380952380952,1.4795604395604396
5.901804945999174,2.71010989010989,0.7752380952380952,1.4795604395604396
5.904579717998786,2.71010989010989,0.7752380952380952,1.4795604395604396
5.908486709999124,2.71010989010989,0.7752380952380952,1.4795604395604396
5.915629847999298,2.71010989010989,0.7752380952380952,1.4795604395604396
5.9217226059990935,2.71010989010989,0.7752380952380952,1.4795604395604396
5.925794593998944,2.71010989010989,0.7752380952380952,1.4795604395604396
5.929129545998876,2.71010989010989,0.7752380952380952,1.4795604395604396
5.9302642490001745,2.71010989010989,0.7752380952380952,1.4795604395604396
5.93047605799984,2.71010989010989,0.7752380952380952,1.4795604395604396
5.937298297998495,3.3,0.045128205128205125,0.25787545787545785
5.941895766000016,3.3,0.045128205128205125,0.25787545787545785
5.949218091998773,2.7084981684981684,0.6817582417582417,1.195091575091575
5.953293290998772,2.6843223443223443,0.4391941391941392,0.8663003663003663
5.956655893998686,2.6843223443223443,0.4391941391941392,0.8663003663003663
5.957546767000167,2.6843223443223443,0.4391941391941392,0.8663003663003663
5.959209086999181,2.6843223443223443,0.4391941391941392,0.8663003663003663
5.964544798998759,2.6843223443223443,0.4391941391941392,0.8663003663003663
5.96637333399849,2.6843223443223443,0.4391941391941392,0.8663003663003663
5.9693567429985706,2.6843223443223443,0.4391941391941392,0.8663003663003663
5.971641965999879,2.6843223443223443,0.4391941391941392,0.8663003663003663
5.97183196900005,2.6843223443223443,0.4391941391941392,0.8663003663003663
5.976642315999925,2.6843223443223443,0.4391941391941392,0.8663003663003663
5.984110145998784,2.6843223443223443,0.4391941391941392,0.8663003663003663
5.989976717999525,2.655311355311355,0.6777289377289377,1.228937728937729
5.99402891599857,2.655311355311355,0.6777289377289377,1.228937728937729
5.9979684479985735,2.729450549450549,0.051575091575091575,0.2111355311355311
6.00242750399957,3.3,0.6148717948717949,0.759120879120879
6.002717558998484,3.3,0.6148717948717949,0.759120879120879
6.008107528999972,3.3,0.6148717948717949,0.759120879120879
6.0118277780002245,3.3,0.6148717948717949,0.759120879120879
6.0166464039994025,3.3,0.6148717948717949,0.759120879120879
6.021641027999067,3.3,0.6148717948717949,0.759120879120879
6.025903975998517,3.3,0.6148717948717949,0.759120879120879
6.027775018999819,3.3,0.6148717948717949,0.759120879120879
6.031494409999141,3.3,0.6148717948717949,0.759120879120879
6.039752011998644,3.3,0.07172161172161172,0.3021978021978022
6.046306279999044,3.3,0.07172161172161172,0.3021978021978022
6.051380693999818,2.6609523809523807,0.2804395604395604,0.6366300366300366
6.055250502999115,2.6609523809523807,0.2804395604395604,0.6366300366300366
6.0598537269997905,2.6609523809523807,0.2804395604395604,0.6366300366300366
6.060057732998757,2.6609523809523807,0.2804395604395604,0.6366300366300366
6.067937220999738,2.6609523809523807,0.2804395604395604,0.6366300366300366
6.075965291000102,2.6649816849816848,0.3932600732600733,0.7526739926739926
6.084552225000152,2.6649816849816848,0.3932600732600733,0.7526739926739926
6.088706470998659,2.740732600732601,0.7131868131868132,1.4344322344322344
6.092017611999836,3.3,0.801025641025641,0.5471794871794872
6.0929498320001585,3.3,0.03062271062271062,0.27238095238095233
6.093852922998849,3.3,0.03062271062271062,0.27238095238095233
6.096690005999335,3.3,0.03062271062271062,0.27238095238095233
6.099811344000045,2.6738461538461538,0.26190476190476186,0.3876190476190476
6.102206171999569,2.6738461538461538,0.26190476190476186,0.3876190476190476
6.1024486609985615,2.681098901098901,0.6785347985347985,1.3578754578754577
6.107351740000013,2.681098901098901,0.6785347985347985,1.3578754578754577
6.113795510000273,2.681098901098901,0.6785347985347985,1.3578754578754577
6.118436232000022,2.9744322344322343,0.044322344322344324,0.2328937728937729
6.118636393999623,2.9744322344322343,0.044322344322344324,0.2328937728937729
6.124662714999431,2.9744322344322343,0.044322344322344324,0.2328937728937729
6.129699924998931,2.9744322344322343,0.044322344322344324,0.2328937728937729
6.133113968999169,2.6682051282051282,0.518974358974359,0.8485714285714284
6.133302186999572,2.6682051282051282,0.518974358974359,0.8485714285714284
6.138232547998996,2.6682051282051282,0.518974358974359,0.8485714285714284
6.142857138000181,2.6682051282051282,0.518974358974359,0.8485714285714284
6.143021534999207,2.6682051282051282,0.518974358974359,0.8485714285714284
6.147762489999877,2.6682051282051282,0.518974358974359,0.8485714285714284
6.148001116998785,2.6682051282051282,0.518974358974359,0.8485714285714284
6.153129143000115,2.6682051282051282,0.518974358974359,0.8485714285714284
6.157314438998583,2.6682051282051282,0.518974358974359,0.8485714285714284
6.159069850999003,2.6682051282051282,0.518974358974359,0.8485714285714284
6.162237077998725,2.6682051282051282,0.518974358974359,0.8485714285714284
6.1639712389987835,2.7415384615384615,0.66,1.2837362637362637
6.1665706940002565,2.7415384615384615,0.66,1.2837362637362637
6.172281813000154,2.7415384615384615,0.66,1.2837362637362637
6.172510874999716,3.3,0.03465201465201465,0.2756043956043956
6.1784584619999805,3.3,0.03465201465201465,0.2756043956043956
6.183611434998966,3.3,0.5882783882783883,0.8920879120879119
6.186572511000122,3.3,0.5882783882783883,0.8920879120879119
6.190918700998736,3.3,0.5882783882783883,0.8920879120879119
6.1911507719996735,3.3,0.07655677655677656,0.2345054945054945
6.198188926999137,3.3,0.07655677655677656,0.2345054945054945
6.201573633999942,3.3,0.07655677655677656,0.2345054945054945
6.201883840998562,3.3,0.07655677655677656,0.2345054945054945
6.206889306999074,3.3,0.07655677655677656,0.2345054945054945
6.211118420000275,3.3,0.07655677655677656,0.2345054945054945
6.215807086999121,3.3,0.07655677655677656,0.2345054945054945
6.221535517999655,3.3,0.07655677655677656,0.2345054945054945
6.221660350998718,3.3,0.07655677655677656,0.2345054945054945
6.226500789998681,3.3,0.07655677655677656,0.2345054945054945
6.226607200998842,3.3,0.07655677655677656,0.2345054945054945
6.233643827999913,3.3,0.07655677655677656,0.2345054945054945
6.237956912998925,3.0614652014652015,0.07655677655677656,0.3102564102564102
6.240505960999144,3.0614652014652015,0.07655677655677656,0.3102564102564102
6.246412409000186,3.3,0.7389743589743589,1.199120879120879
6.252138001998901,3.3,0.2224175824175824,0.3884249084249084
6.252312650000022,3.3,0.02095238095238095,0.24901098901098898
6.25832039099987,3.3,0.02095238095238095,0.24901098901098898
6.263278360998811,3.3,0.02095238095238095,0.24901098901098898
6.268600047000291,2.6778754578754578,0.4899633699633699,0.7994139194139194
6.270408098998814,2.6778754578754578,0.4899633699633699,0.7994139194139194
