time,emg1,emg2,emg3
0.024907855000492418,2.496556776556776,0.6374358974358975,1.1265934065934065
0.04280877299970598,2.496556776556776,0.6374358974358975,1.1265934065934065
0.043186255999899004,2.496556776556776,0.6374358974358975,1.1265934065934065
0.05054135299906193,2.496556776556776,0.6374358974358975,1.1265934065934065
0.055979851000302006,1.4594139194139193,0.3102564102564102,0.0709157509157509
0.05714295500001754,1.4594139194139193,0.3102564102564102,0.0709157509157509
0.05743828499907977,1.4594139194139193,0.3102564102564102,0.0709157509157509
0.06312058999901637,1.4594139194139193,0.3102564102564102,0.0709157509157509
0.06339313500029675,2.3378021978021977,0.0709157509157509,0.585054945054945
0.06877188900034525,2.3378021978021977,0.0709157509157509,0.585054945054945
0.07147836299918708,2.3378021978021977,0.0709157509157509,0.585054945054945
0.07595737900010135,2.3378021978021977,0.0709157509157509,0.585054945054945
0.07695348800007196,2.3378021978021977,0.0709157509157509,0.585054945054945
0.07796831199993903,2.3378021978021977,0.0709157509157509,0.585054945054945
0.07900315699953353,2.3378021978021977,0.0709157509157509,0.585054945054945
0.07997784600047453,2.3378021978021977,0.0709157509157509,0.585054945054945
0.08036410599925148,2.3378021978021977,0.0709157509157509,0.585054945054945
0.08569602699935785,2.3378021978021977,0.0709157509157509,0.585054945054945
0.08838782699967851,2.3378021978021977,0.0709157509157509,0.585054945054945
0.09412622899981216,2.3378021978021977,0.0709157509157509,0.585054945054945
0.09440287200050079,2.3378021978021977,0.0709157509157509,0.585054945054945
0.10396382799990533,2.3378021978021977,0.0709157509157509,0.585054945054945
0.11240496800019173,2.3378021978021977,0.0709157509157509,0.585054945054945
0.12151492500015593,3.3,1.7205128205128206,0.8969230769230768
0.12764806499944825,3.3,1.7205128205128206,0.8969230769230768
0.1318541609998647,3.3,1.7205128205128206,0.8969230769230768
0.13352015199961897,3.3,1.7205128205128206,0.8969230769230768
0.13738626899976225,3.3,1.7205128205128206,0.8969230769230768
0.14201999599936244,3.3,1.7205128205128206,0.8969230769230768
0.14771631599978718,3.3,1.7205128205128206,0.8969230769230768
0.14902602899928752,3.3,1.7205128205128206,0.8969230769230768
0.16055387300002621,3.3,1.7205128205128206,0.8969230769230768
0.1698076279990346,3.3,1.7205128205128206,0.8969230769230768
0.17630833399925905,1.523882783882784,0.3183150183150183,0.12732600732600732
0.18015737799942144,1.959047619047619,0.6164835164835165,0.622124542124542
0.1848468309999589,1.6495970695970694,0.16278388278388278,0.5834432234432234
0.18505150199962372,2.3458608058608057,0.12329670329670328,0.3795604395604395
0.1903750889996445,2.3458608058608057,0.12329670329670328,0.3795604395604395
0.19276917900060653,2.3458608058608057,0.12329670329670328,0.3795604395604395
0.19296905400005926,2.3458608058608057,0.12329670329670328,0.3795604395604395
0.19846985999902245,2.3458608058608057,0.12329670329670328,0.3795604395604395
0.19939610899928084,2.3458608058608057,0.12329670329670328,0.3795604395604395
0.2017224230003194,2.3458608058608057,0.12329670329670328,0.3795604395604395
0.20194867300051556,2.3458608058608057,0.12329670329670328,0.3795604395604395
0.20801920799931395,2.3458608058608057,0.12329670329670328,0.3795604395604395
0.21231426399936026,2.049304029304029,0.8945054945054944,0.6285714285714284
0.21323915100037993,2.049304029304029,0.8945054945054944,0.6285714285714284
0.21536539800035825,2.049304029304029,0.8945054945054944,0.6285714285714284
0.21650436100026127,2.049304029304029,0.8945054945054944,0.6285714285714284
0.21686126299937314,2.049304029304029,0.8945054945054944,0.6285714285714284
0.22167251700011548,2.049304029304029,0.8945054945054944,0.6285714285714284
0.22181449699928635,2.049304029304029,0.8945054945054944,0.6285714285714284
0.23160689100041054,2.049304029304029,0.8945054945054944,0.6285714285714284
0.23666390200014575,2.049304029304029,0.8945054945054944,0.6285714285714284
0.24092875200039998,2.049304029304029,0.8945054945054944,0.6285714285714284
0.24429999899984978,2.049304029304029,0.8945054945054944,0.6285714285714284
0.2502377290002187,2.049304029304029,0.8945054945054944,0.6285714285714284
0.2503436770002736,1.6318681318681318,0.39003663003663,0.2191941391941392
0.25596334200054116,1.6318681318681318,0.39003663003663,0.2191941391941392
0.25617594399955124,1.6318681318681318,0.39003663003663,0.2191941391941392
0.26240056399910827,1.6318681318681318,0.39003663003663,0.2191941391941392
0.2663307620005071,2.548937728937729,0.18937728937728937,0.303003663003663
0.2710168880003039,2.548937728937729,0.18937728937728937,0.303003663003663
0.27777810800034786,2.548937728937729,0.18937728937728937,0.303003663003663
0.28222917200037045,2.548937728937729,0.18937728937728937,0.303003663003663
0.2824362659994222,2.548937728937729,0.18937728937728937,0.303003663003663
0.2877764959994238,2.548937728937729,0.18937728937728937,0.303003663003663
0.2895540869994875,2.548937728937729,0.18937728937728937,0.303003663003663
0.2960887379995256,2.548937728937729,0.18937728937728937,0.303003663003663
0.3019682029989781,1.1693040293040293,0.2208058608058608,0.07413919413919413
0.30592165300004126,1.1693040293040293,0.2208058608058608,0.07413919413919413
0.310738059999494,3.3,1.6367032967032966,0.9307692307692307
0.31612071900053706,3.3,1.6367032967032966,0.9307692307692307
0.31642366199957905,3.3,1.6367032967032966,0.9307692307692307
0.32257555599971965,3.3,1.6367032967032966,0.9307692307692307
0.3291796310004429,3.3,1.6367032967032966,0.9307692307692307
0.33363810399896465,1.7575824175824175,0.43999999999999995,0.11362637362637362
0.33465938699919207,1.7575824175824175,0.43999999999999995,0.11362637362637362
0.3356595309996919,1.7575824175824175,0.43999999999999995,0.11362637362637362
0.3360146300001361,1.7575824175824175,0.43999999999999995,0.11362637362637362
0.3440672540000378,3.3,1.456190476190476,1.099194139194139
0.34870970399970247,3.3,1.456190476190476,1.099194139194139
0.35485524499927124,3.3,1.456190476190476,1.099194139194139
0.3588442629989004,3.3,1.456190476190476,1.099194139194139
0.3629784049990121,3.3,1.456190476190476,1.099194139194139
0.36473616500006756,3.3,1.456190476190476,1.099194139194139
0.3674170989997947,3.3,1.456190476190476,1.099194139194139
0.3724180859990156,3.3,1.456190476190476,1.099194139194139
0.3759762280005816,3.3,1.456190476190476,1.099194139194139
0.376268527999855,3.3,0.473040293040293,0.2208058608058608
0.3818069919998379,3.3,0.473040293040293,0.2208058608058608
0.38198510499933036,3.3,0.473040293040293,0.2208058608058608
0.38763453100000334,3.3,0.473040293040293,0.2208058608058608
0.38791539600060787,3.3,0.473040293040293,0.2208058608058608
0.39353768799992395,3.3,0.473040293040293,0.2208058608058608
0.39403730899903167,3.3,0.473040293040293,0.2208058608058608
0.3986629199989693,3.3,0.473040293040293,0.2208058608058608
0.3988281870006176,3.3,0.473040293040293,0.2208058608058608
0.40361112599930493,3.3,0.473040293040293,0.2208058608058608
0.4037510590005695,2.6166300366300366,0.09589743589743589,0.44402930402930396
0.4105924710002,2.6166300366300366,0.09589743589743589,0.44402930402930396
0.4152952450003795,2.6166300366300366,0.09589743589743589,0.44402930402930396
0.4154219669999293,2.6166300366300366,0.09589743589743589,0.44402930402930396
0.4203385040000285,2.6166300366300366,0.09589743589743589,0.44402930402930396
0.4274743949990807,2.6166300366300366,0.09589743589743589,0.44402930402930396
0.43208735799998976,2.6166300366300366,0.09589743589743589,0.44402930402930396
0.4382775539997965,2.6166300366300366,0.09589743589743589,0.44402930402930396
0.4462309579994326,2.2684981684981684,0.8735531135531135,0.8066666666666666
0.45141882200005057,3.3,0.13135531135531134,0.6374358974358975
0.45341365700005554,3.3,0.13135531135531134,0.6374358974358975
0.4552252100002079,3.3,0.13135531135531134,0.6374358974358975
0.459696621999683,3.3,0.13135531135531134,0.6374358974358975
0.45984490099908726,3.3,0.13135531135531134,0.6374358974358975
0.469587710000269,3.3,0.13135531135531134,0.6374358974358975
0.47913572499965085,3.3,0.13135531135531134,0.6374358974358975
0.4857957490003173,3.3,0.13135531135531134,0.6374358974358975
0.489769570000135,3.3,0.13135531135531134,0.6374358974358975
0.49745384699963324,3.3,0.13135531135531134,0.6374358974358975
0.503379469999345,3.3,0.13135531135531134,0.6374358974358975
0.5069541289994959,3.3,0.13135531135531134,0.6374358974358975
0.5070658320000803,1.8816849816849814,0.10717948717948718,0.253040293040293
0.5139398139999685,1.8816849816849814,0.10717948717948718,0.253040293040293
0.5182700339992152,1.8816849816849814,0.10717948717948718,0.253040293040293
0.5199628169993957,1.8816849816849814,0.10717948717948718,0.253040293040293
0.5240527209989523,1.8816849816849814,0.10717948717948718,0.253040293040293
0.5289432520003174,1.8816849816849814,0.10717948717948718,0.253040293040293
0.5322805529995094,2.776190476190476,1.2386080586080586,0.8711355311355311
0.5331981569997879,2.776190476190476,1.2386080586080586,0.8711355311355311
0.5341813169998204,2.776190476190476,1.2386080586080586,0.8711355311355311
0.5351673669993033,2.776190476190476,1.2386080586080586,0.8711355311355311
0.5361133679998602,2.776190476190476,1.2386080586080586,0.8711355311355311
0.5370662619989162,2.776190476190476,1.2386080586080586,0.8711355311355311
0.5379942849995132,2.776190476190476,1.2386080586080586,0.8711355311355311
0.5389406739996048,2.776190476190476,1.2386080586080586,0.8711355311355311
0.5400351869993756,2.776190476190476,1.2386080586080586,0.8711355311355311
0.5404076249997161,2.776190476190476,1.2386080586080586,0.8711355311355311
0.5477905879997707,2.776190476190476,1.2386080586080586,0.8711355311355311
0.5519068169996899,2.776190476190476,1.2386080586080586,0.8711355311355311
0.5558180509997328,2.697216117216117,0.8364835164835164,0.755091575091575
0.560989449999397,2.697216117216117,0.8364835164835164,0.755091575091575
0.5630765989990323,2.2282051282051283,0.07413919413919413,0.6374358974358975
0.5640279479994206,2.2282051282051283,0.07413919413919413,0.6374358974358975
0.5657960930002446,2.2282051282051283,0.07413919413919413,0.6374358974358975
0.5690749639998103,2.2282051282051283,0.07413919413919413,0.6374358974358975
0.5693896159991709,2.2282051282051283,0.07413919413919413,0.6374358974358975
0.5757598660002259,2.2282051282051283,0.07413919413919413,0.6374358974358975
0.5807729759999347,2.2282051282051283,0.07413919413919413,0.6374358974358975
0.5831836460001796,2.718168498168498,0.10315018315018315,0.4553113553113553
0.5833947999999509,2.718168498168498,0.10315018315018315,0.4553113553113553
0.5888694089990167,2.718168498168498,0.10315018315018315,0.4553113553113553
0.591050068000186,2.718168498168498,0.10315018315018315,0.4553113553113553
0.5914794149994123,2.718168498168498,0.10315018315018315,0.4553113553113553
0.597148095999728,2.718168498168498,0.10315018315018315,0.4553113553113553
0.6020968089997041,2.718168498168498,0.10315018315018315,0.4553113553113553
0.606926623999243,2.718168498168498,0.10315018315018315,0.4553113553113553
0.6146603769993817,2.3200732600732596,0.17164835164835165,0.2562637362637363
0.6204995900006907,2.3200732600732596,0.17164835164835165,0.2562637362637363
0.6281228679999913,2.3200732600732596,0.17164835164835165,0.2562637362637363
0.6322413060006511,2.3200732600732596,0.17164835164835165,0.2562637362637363
0.6354385459999321,1.1999267399267397,0.21999999999999997,0.05882783882783882
0.6370979349994741,1.1999267399267397,0.21999999999999997,0.05882783882783882
0.6417844379993767,1.1999267399267397,0.21999999999999997,0.05882783882783882
0.6420407989990053,1.1999267399267397,0.21999999999999997,0.05882783882783882
0.6482162510001217,1.1999267399267397,0.21999999999999997,0.05882783882783882
0.651802399999724,1.1999267399267397,0.21999999999999997,0.05882783882783882
0.6519510639991495,1.1999267399267397,0.21999999999999997,0.05882783882783882
0.6582408079993911,3.034065934065934,0.8945054945054944,0.8155311355311355
0.663026844000342,3.034065934065934,0.8945054945054944,0.8155311355311355
0.6671958459992311,2.8164835164835162,0.2216117216117216,0.3231501831501831
0.6697253460006323,2.8164835164835162,0.2216117216117216,0.3231501831501831
0.6760092740005348,2.8164835164835162,0.2216117216117216,0.3231501831501831
0.680336804000035,3.2903296703296703,1.4255677655677657,1.0653479853479852
0.6813285270000051,3.2903296703296703,1.4255677655677657,1.0653479853479852
0.6816736889995809,3.2903296703296703,1.4255677655677657,1.0653479853479852
0.6867868930003169,1.44007326007326,0.08622710622710622,0.22644688644688646
0.6919599359989661,1.44007326007326,0.08622710622710622,0.22644688644688646
0.697489948999646,1.44007326007326,0.08622710622710622,0.22644688644688646
0.7031717680001748,1.44007326007326,0.08622710622710622,0.22644688644688646
0.7033977280007093,1.44007326007326,0.08622710622710622,0.22644688644688646
0.7117415449993132,1.44007326007326,0.08622710622710622,0.22644688644688646
0.7191876029992272,1.44007326007326,0.08622710622710622,0.22644688644688646
0.7252466310001182,1.44007326007326,0.08622710622710622,0.22644688644688646
0.7310878570006025,2.5747252747252745,0.10717948717948718,0.3811721611721612
0.7342400340003223,1.1838095238095236,0.2216117216117216,0.06043956043956044
0.7377242090005893,1.1838095238095236,0.2216117216117216,0.06043956043956044
0.7468779449991416,1.2676190476190476,0.24014652014652016,0.6495238095238095
0.7538511219991051,1.9123076923076923,0.13377289377289378,0.2506227106227106
0.7593834710005467,1.9123076923076923,0.13377289377289378,0.2506227106227106
0.7603834639994602,1.9123076923076923,0.13377289377289378,0.2506227106227106
0.7613637920003384,1.9123076923076923,0.13377289377289378,0.2506227106227106
0.7622912379993068,1.9123076923076923,0.13377289377289378,0.2506227106227106
0.7632741470006295,1.9123076923076923,0.13377289377289378,0.2506227106227106
0.7642038510002749,1.9123076923076923,0.13377289377289378,0.2506227106227106
0.7659478690002288,1.9123076923076923,0.13377289377289378,0.2506227106227106
0.7691093079993152,1.9123076923076923,0.13377289377289378,0.2506227106227106
0.7710210200002621,1.9123076923076923,0.13377289377289378,0.2506227106227106
0.773501130999648,1.9123076923076923,0.13377289377289378,0.2506227106227106
0.7806232370003272,2.6528937728937727,0.5036630036630036,0.39567765567765567
0.7854741979990649,2.4989743589743587,1.0024908424908423,0.9154578754578755
0.7855732070001977,1.4884249084249084,0.06608058608058608,0.1813186813186813
0.7903968520004128,1.4884249084249084,0.06608058608058608,0.1813186813186813
0.7906397639999341,1.8736263736263734,0.43677655677655675,0.09992673992673992
0.7960744619995239,1.8736263736263734,0.43677655677655675,0.09992673992673992
0.797013273999255,1.8736263736263734,0.43677655677655675,0.09992673992673992
0.7987015109993081,1.8736263736263734,0.43677655677655675,0.09992673992673992
0.8020659359990532,1.8736263736263734,0.43677655677655675,0.09992673992673992
0.802908325998942,1.8736263736263734,0.43677655677655675,0.09992673992673992
0.8045436979991791,1.8736263736263734,0.43677655677655675,0.09992673992673992
0.809594988999379,1.8736263736263734,0.43677655677655675,0.09992673992673992
0.8138218639996921,1.8736263736263734,0.43677655677655675,0.09992673992673992
0.8155218669999158,1.8736263736263734,0.43677655677655675,0.09992673992673992
0.8193119610004942,1.8736263736263734,0.43677655677655675,0.09992673992673992
0.8231195190001017,0.40695970695970696,0.4214652014652014,0.6406593406593406
0.8311759429998347,2.3539194139194137,0.18615384615384614,0.2683516483516483
0.8376635469994653,2.3539194139194137,0.18615384615384614,0.2683516483516483
0.8431077099994582,2.378095238095238,1.0693772893772893,0.9493040293040291
0.8434833619994606,2.378095238095238,1.0693772893772893,0.9493040293040291
0.8510757479998574,2.378095238095238,1.0693772893772893,0.9493040293040291
0.8561042889996315,1.5367765567765568,0.25384615384615383,0.09670329670329669
0.8606009619998076,1.5367765567765568,0.25384615384615383,0.09670329670329669
0.860868906000178,2.698021978021978,0.5753846153846153,1.2579487179487179
0.8666206639991287,2.6536996336996337,0.224029304029304,0.9219047619047619
0.872087981999357,3.3,0.9992673992673992,0.7446153846153846
0.8754912080003123,2.714945054945055,0.9839560439560439,1.8889377289377287
0.8826869650001754,2.714945054945055,0.9839560439560439,1.8889377289377287
0.8875243700003921,2.714945054945055,0.9839560439560439,1.8889377289377287
0.8955849390004005,2.714945054945055,0.9839560439560439,1.8889377289377287
0.9007899459993496,2.714945054945055,0.9839560439560439,1.8889377289377287
0.903251805999389,2.714945054945055,0.9839560439560439,1.8889377289377287
0.9088781930004188,2.664175824175824,0.12974358974358974,0.6511355311355311
0.910044760999881,2.664175824175824,0.12974358974358974,0.6511355311355311
0.9101942840006814,2.664175824175824,0.12974358974358974,0.6511355311355311
0.9152295179992507,2.743956043956044,0.1797069597069597,0.31267399267399265
0.9192484819996025,2.66014652014652,0.4512820512820513,0.4891575091575091
0.9229874709999422,2.66014652014652,0.4512820512820513,0.4891575091575091
0.930650925000009,2.66014652014652,0.4512820512820513,0.4891575091575091
0.9355468399990059,2.66014652014652,0.4512820512820513,0.4891575091575091
0.9406976659993234,2.66014652014652,0.4512820512820513,0.4891575091575091
0.9449525349991745,2.66014652014652,0.4512820512820513,0.4891575091575091
0.9451337869995768,2.66014652014652,0.4512820512820513,0.4891575091575091
0.9501306229994952,2.66014652014652,0.4512820512820513,0.4891575091575091
0.9562159510005586,3.3,1.3546520146520145,0.6374358974358975
0.9633350919993973,3.3,1.3546520146520145,0.6374358974358975
0.967438226000013,3.3,1.3546520146520145,0.6374358974358975
0.9706568530000368,3.3,1.3546520146520145,0.6374358974358975
0.9716652129991417,3.3,1.3546520146520145,0.6374358974358975
0.9725409629991191,3.3,1.3546520146520145,0.6374358974358975
0.9751109369990445,2.7117216117216114,1.1177289377289377,2.016263736263736
0.9834163029991032,2.7117216117216114,1.1177289377289377,2.016263736263736
0.9894960999990872,2.6714285714285713,0.2643223443223443,1.207179487179487
0.9949100359990553,2.561831501831502,0.17245421245421244,0.2917216117216117
0.9952433159996872,2.561831501831502,0.17245421245421244,0.2917216117216117
1.0035815730007016,2.561831501831502,0.17245421245421244,0.2917216117216117
1.0122277720001875,2.655311355311355,2.2016117216117213,0.8977289377289376
1.0177902209998138,2.655311355311355,2.2016117216117213,0.8977289377289376
1.0289781219998986,2.655311355311355,2.2016117216117213,0.8977289377289376
1.0372455529995932,2.655311355311355,2.2016117216117213,0.8977289377289376
1.0443295610002679,2.6649816849816848,0.25142857142857145,0.48835164835164835
1.0476589730005799,2.9647619047619047,0.5995604395604395,1.2547252747252746
1.0480687790004595,2.9647619047619047,0.5995604395604395,1.2547252747252746
1.0530321129990625,2.9647619047619047,0.5995604395604395,1.2547252747252746
1.0582355890001054,2.9647619047619047,0.5995604395604395,1.2547252747252746
1.062122888999511,2.6536996336996337,2.0783150183150183,0.8840293040293039
1.0664603539989912,2.6536996336996337,2.0783150183150183,0.8840293040293039
1.0669012060006935,2.6536996336996337,2.0783150183150183,0.8840293040293039
1.075974359000611,2.6536996336996337,2.0783150183150183,0.8840293040293039
1.085595206999642,2.655311355311355,2.3458608058608057,0.8880586080586079
1.0951589760006755,2.655311355311355,2.3458608058608057,0.8880586080586079
1.1019594329991378,2.655311355311355,2.3458608058608057,0.8880586080586079
1.1070267329996568,2.655311355311355,2.3458608058608057,0.8880586080586079
1.1106970170003478,3.3,0.6422710622710622,0.365054945054945
1.1158293219996267,3.3,0.6422710622710622,0.365054945054945
1.1193723880005564,3.3,0.6422710622710622,0.365054945054945
1.1195220709996647,3.3,0.6422710622710622,0.365054945054945
1.1240805449997424,3.3,0.6422710622710622,0.365054945054945
1.125082446000306,3.3,0.6422710622710622,0.365054945054945
1.1259890139990603,3.3,0.14263736263736262,0.42065934065934063
1.1275819610000326,3.3,0.14263736263736262,0.42065934065934063
1.132238715999847,3.3,0.14263736263736262,0.42065934065934063
1.1323922840001615,3.3,0.14263736263736262,0.42065934065934063
1.137924849999763,3.3,0.14263736263736262,0.42065934065934063
1.1394902619995264,3.3,0.14263736263736262,0.42065934065934063
1.1432890670002962,3.3,0.14263736263736262,0.42065934065934063
1.1497866739991878,3.3,0.14263736263736262,0.42065934065934063
1.1544257949990424,3.3,0.14263736263736262,0.42065934065934063
1.1546430130001681,3.3,0.14263736263736262,0.42065934065934063
1.1591103779992409,3.3,0.14263736263736262,0.42065934065934063
1.15938646199902,3.3,0.14263736263736262,0.42065934065934063
1.166439526999966,3.3,0.14263736263736262,0.42065934065934063
1.1708634009992238,3.3,0.14263736263736262,0.42065934065934063
1.17111210999974,3.3,0.14263736263736262,0.42065934065934063
1.1810901209992153,3.3,0.14263736263736262,0.42065934065934063
1.1898794429998816,3.3,0.14263736263736262,0.42065934065934063
1.196116281000286,3.3,0.2917216117216117,0.5367032967032966
1.199518483999782,3.3,0.2917216117216117,0.5367032967032966
1.1998172130006424,3.3,0.2917216117216117,0.5367032967032966
1.205216393000228,3.3,0.2917216117216117,0.5367032967032966
1.20776735400068,2.9905494505494503,0.9227106227106227,0.7228571428571429
1.2137198119999084,2.9905494505494503,0.9227106227106227,0.7228571428571429
1.2186548240006232,3.3,0.527032967032967,0.9388278388278387
1.2233614880005916,3.3,0.527032967032967,0.9388278388278387
1.2289376970002195,3.3,0.527032967032967,0.9388278388278387
1.229856968000604,3.3,0.527032967032967,0.9388278388278387
1.2314443069990375,3.3,0.527032967032967,0.9388278388278387
1.2359878679999383,3.3,0.527032967032967,0.9388278388278387
1.2362367379992065,3.3,0.527032967032967,0.9388278388278387
1.2418600309993053,3.3,0.527032967032967,0.9388278388278387
1.2420730409994576,3.3,0.527032967032967,0.9388278388278387
1.246813187999578,3.3,0.527032967032967,0.9388278388278387
1.2469819870002539,3.3,0.527032967032967,0.9388278388278387
1.2519089590005024,3.3,0.6704761904761904,0.3658608058608058
1.2576651599993056,3.3,0.6704761904761904,0.3658608058608058
1.2577807870002289,2.9808791208791208,2.0557509157509157,0.8356776556776556
1.2628064389991778,2.9808791208791208,2.0557509157509157,0.8356776556776556
1.2670955390003655,2.9808791208791208,2.0557509157509157,0.8356776556776556
1.2680809550001868,2.9808791208791208,2.0557509157509157,0.8356776556776556
1.269055180999203,2.9808791208791208,2.0557509157509157,0.8356776556776556
1.2699339150003652,2.9808791208791208,2.0557509157509157,0.8356776556776556
1.2715624680004112,2.9808791208791208,2.0557509157509157,0.8356776556776556
1.2755467030001455,2.9808791208791208,2.0557509157509157,0.8356776556776556
1.2787785420005093,2.9808791208791208,2.0557509157509157,0.8356776556776556
1.2797484900002019,2.655311355311355,2.332967032967033,0.9098168498168498
1.2813724850002473,2.655311355311355,2.332967032967033,0.9098168498168498
1.2861333780001587,2.655311355311355,2.332967032967033,0.9098168498168498
1.2916679869995278,2.6794871794871793,2.1959706959706957,0.6801465201465201
1.2932347570003913,2.6794871794871793,2.1959706959706957,0.6801465201465201
1.2971506180001597,2.6794871794871793,2.1959706959706957,0.6801465201465201
1.3010722109993367,2.6794871794871793,2.1959706959706957,0.6801465201465201
1.3057500260001689,2.6794871794871793,2.1959706959706957,0.6801465201465201
1.3065865469998243,2.6794871794871793,2.1959706959706957,0.6801465201465201
1.3081729000004998,2.6794871794871793,2.1959706959706957,0.6801465201465201
1.312097301999529,3.067912087912088,0.31267399267399265,0.3690842490842491
1.3160453389991744,3.067912087912088,0.31267399267399265,0.3690842490842491
1.3199178640006721,3.067912087912088,0.31267399267399265,0.3690842490842491
1.3237698110006022,3.067912087912088,0.31267399267399265,0.3690842490842491
1.3294482019991847,2.6665934065934067,0.12249084249084248,0.9871794871794871
1.3303180829989287,2.6665934065934067,0.12249084249084248,0.9871794871794871
1.3321792429997004,2.6665934065934067,0.12249084249084248,0.9871794871794871
1.3345484410001518,2.6665934065934067,0.12249084249084248,0.9871794871794871
1.3347557630004303,2.6665934065934067,0.12249084249084248,0.9871794871794871
1.339627211998959,2.6665934065934067,0.12249084249084248,0.9871794871794871
1.3443770300000324,2.714945054945055,0.3183150183150183,1.4868131868131869
1.3445517630007089,2.714945054945055,0.3183150183150183,1.4868131868131869
1.3492393260003155,2.714945054945055,0.3183150183150183,1.4868131868131869
1.349545584000225,2.714945054945055,0.3183150183150183,1.4868131868131869
1.354281006999372,2.714945054945055,0.3183150183150183,1.4868131868131869
1.3543983380004647,2.714945054945055,0.3183150183150183,1.4868131868131869
1.3602532639997662,2.714945054945055,0.3183150183150183,1.4868131868131869
1.3652732730006392,2.714945054945055,0.3183150183150183,1.4868131868131869
1.3695332879997295,2.714945054945055,0.3183150183150183,1.4868131868131869
1.3704539840000507,2.714945054945055,0.3183150183150183,1.4868131868131869
1.3722164159989916,2.714945054945055,0.3183150183150183,1.4868131868131869
1.3746227850006107,2.714945054945055,0.3183150183150183,1.4868131868131869
1.3747781349993602,2.714945054945055,0.3183150183150183,1.4868131868131869
1.3796909809989302,2.714945054945055,0.3183150183150183,1.4868131868131869
1.385472222998942,2.714945054945055,0.3183150183150183,1.4868131868131869
1.385670105999452,2.714945054945055,0.3183150183150183,1.4868131868131869
1.3911822899990511,2.714945054945055,0.3183150183150183,1.4868131868131869
1.391496449999977,3.3,0.6052014652014651,0.4254945054945055
1.396146533999854,3.3,0.6052014652014651,0.4254945054945055
1.3965026240002771,3.3,0.6052014652014651,0.4254945054945055
1.401911974999166,3.3,0.6052014652014651,0.4254945054945055
1.403510580999864,2.6649816849816848,0.4504761904761904,1.3208058608058608
1.4074197169993568,2.6649816849816848,0.4504761904761904,1.3208058608058608
1.4120787819992984,3.3,0.6986813186813187,0.35619047619047617
1.4122104790003505,3.3,0.6986813186813187,0.35619047619047617
1.4179925940006797,3.3,0.6986813186813187,0.35619047619047617
1.4181445680005709,3.3,0.6986813186813187,0.35619047619047617
1.4237203419997968,3.3,0.6986813186813187,0.35619047619047617
1.4239746969997213,2.6682051282051282,0.13619047619047617,0.9879853479853479
1.4293049450006947,2.6682051282051282,0.13619047619047617,0.9879853479853479
1.4325706559993705,2.6682051282051282,0.13619047619047617,0.9879853479853479
1.4334831239993946,2.6682051282051282,0.13619047619047617,0.9879853479853479
1.4352367800001957,2.6682051282051282,0.13619047619047617,0.9879853479853479
1.4393199570004072,2.6682051282051282,0.13619047619047617,0.9879853479853479
1.4417642440002965,2.6682051282051282,0.13619047619047617,0.9879853479853479
1.447222798000439,2.6682051282051282,0.13619047619047617,0.9879853479853479
1.4490705629996228,2.6706227106227107,0.13135531135531134,1.012161172161172
1.452313764999417,2.6706227106227107,0.13135531135531134,1.012161172161172
1.4532359250006266,2.6706227106227107,0.13135531135531134,1.012161172161172
1.4548991239989846,2.6706227106227107,0.13135531135531134,1.012161172161172
1.4588485059994127,2.6706227106227107,0.13135531135531134,1.012161172161172
1.4626300180007092,2.6706227106227107,0.13135531135531134,1.012161172161172
1.4671744070001296,2.6706227106227107,0.13135531135531134,1.012161172161172
1.4674890789992787,2.6706227106227107,0.13135531135531134,1.012161172161172
1.47227079699951,2.6706227106227107,0.13135531135531134,1.012161172161172
1.4723986219996732,2.6706227106227107,0.13135531135531134,1.012161172161172
1.4771634539993101,2.744761904761905,0.8429304029304028,1.8446153846153845
1.4829861990001518,2.744761904761905,0.8429304029304028,1.8446153846153845
1.4887779990003764,2.744761904761905,0.8429304029304028,1.8446153846153845
1.4890625619991624,2.744761904761905,0.8429304029304028,1.8446153846153845
1.493929988999298,2.744761904761905,0.8429304029304028,1.8446153846153845
1.4988841539998248,2.744761904761905,0.8429304029304028,1.8446153846153845
1.503745316000277,2.744761904761905,0.8429304029304028,1.8446153846153845
1.5092413450001914,2.6746520146520147,0.30864468864468864,1.1797802197802196
1.510955453999486,2.6746520146520147,0.30864468864468864,1.1797802197802196
1.5140312339990487,2.6746520146520147,0.30864468864468864,1.1797802197802196
1.515813027999684,2.7165567765567764,0.48754578754578753,1.324029304029304
1.5190024919993448,3.3,1.5464468864468863,0.896117216117216
1.5199561469999026,3.3,1.5464468864468863,0.896117216117216
1.5215870079991873,3.3,1.5464468864468863,0.896117216117216
1.525524155000312,3.3,1.5464468864468863,0.896117216117216
1.5293553699993936,3.3,1.5464468864468863,0.896117216117216
1.5338751369999954,3.2726007326007327,0.4222710622710622,0.356996336996337
1.5348583519989916,3.2726007326007327,0.4222710622710622,0.356996336996337
1.5365201690001413,3.2726007326007327,0.4222710622710622,0.356996336996337
1.5397894870002347,3.2726007326007327,0.4222710622710622,0.356996336996337
1.5413841669997055,3.2726007326007327,0.4222710622710622,0.356996336996337
1.5454677239995362,3.2726007326007327,0.4222710622710622,0.356996336996337
1.548689953999201,3.2726007326007327,0.4222710622710622,0.356996336996337
1.5506899390002218,3.2726007326007327,0.4222710622710622,0.356996336996337
1.5522797880003054,3.2726007326007327,0.4222710622710622,0.356996336996337
1.5561976879998838,3.2726007326007327,0.4222710622710622,0.356996336996337
1.5600322079990292,2.6545054945054947,2.250769230769231,0.8735531135531135
1.5648235230000864,2.6545054945054947,2.250769230769231,0.8735531135531135
1.5705601589997968,2.6545054945054947,2.250769230769231,0.8735531135531135
1.570858118000615,2.6545054945054947,2.250769230769231,0.8735531135531135
1.575528936999035,2.6545054945054947,2.250769230769231,0.8735531135531135
1.5758772099998168,2.6545054945054947,2.250769230769231,0.8735531135531135
1.5805329079994408,2.652087912087912,2.1008791208791204,0.846153846153846
1.5808065759993042,2.652087912087912,2.1008791208791204,0.846153846153846
1.5854065229996195,2.652087912087912,2.1008791208791204,0.846153846153846
1.5856790620000538,2.652087912087912,2.1008791208791204,0.846153846153846
1.5902441189991805,2.652087912087912,2.1008791208791204,0.846153846153846
1.5911325699998997,2.652087912087912,2.1008791208791204,0.846153846153846
1.5920788280000124,2.652087912087912,2.1008791208791204,0.846153846153846
1.5936905540002044,2.652087912087912,2.1008791208791204,0.846153846153846
1.5974935069989442,2.652087912087912,2.1008791208791204,0.846153846153846
1.6020810369991523,2.652087912087912,2.1008791208791204,0.846153846153846
1.6022690829995554,2.652087912087912,2.1008791208791204,0.846153846153846
1.6080729559998872,2.652087912087912,2.1008791208791204,0.846153846153846
1.6082452360005846,2.652087912087912,2.1008791208791204,0.846153846153846
1.6139174420004565,2.652087912087912,2.1008791208791204,0.846153846153846
1.6149277399999846,2.652087912087912,2.1008791208791204,0.846153846153846
1.6152281310005492,2.652087912087912,2.1008791208791204,0.846153846153846
1.6206580809994193,2.652087912087912,2.1008791208791204,0.846153846153846
1.6215585110003303,2.652087912087912,2.1008791208791204,0.846153846153846
1.6232241020006768,2.652087912087912,2.1008791208791204,0.846153846153846
1.6270665920001193,2.652087912087912,2.1008791208791204,0.846153846153846
1.6309433520000312,2.652087912087912,2.1008791208791204,0.846153846153846
1.635484219999853,2.652087912087912,2.1008791208791204,0.846153846153846
1.6363365739998699,2.713333333333333,0.4786813186813187,1.3498168498168497
1.6379684719995566,2.713333333333333,0.4786813186813187,1.3498168498168497
1.6418302959991706,2.713333333333333,0.4786813186813187,1.3498168498168497
1.645676279998952,2.713333333333333,0.4786813186813187,1.3498168498168497
1.652251838999291,2.713333333333333,0.4786813186813187,1.3498168498168497
1.6580759309999848,2.6843223443223443,1.195091575091575,1.8051282051282052
1.662758684000437,2.6843223443223443,1.195091575091575,1.8051282051282052
1.662888519000262,2.6843223443223443,1.195091575091575,1.8051282051282052
1.6676640629993926,2.6843223443223443,1.195091575091575,1.8051282051282052
1.6679258869990008,2.6843223443223443,1.195091575091575,1.8051282051282052
1.6725717579993216,2.6843223443223443,1.195091575091575,1.8051282051282052
1.6728053810002166,2.7117216117216114,1.00007326007326,2.05010989010989
1.6774763710000116,2.7117216117216114,1.00007326007326,2.05010989010989
1.6777037190004194,2.7117216117216114,1.00007326007326,2.05010989010989
1.6826184490000742,2.7117216117216114,1.00007326007326,2.05010989010989
1.6875840350003273,2.7117216117216114,1.00007326007326,2.05010989010989
1.6926180249993195,2.7117216117216114,1.00007326007326,2.05010989010989
1.695913045999987,2.7117216117216114,1.00007326007326,2.05010989010989
1.6968034769997757,2.7117216117216114,1.00007326007326,2.05010989010989
1.6985384189993056,2.7117216117216114,1.00007326007326,2.05010989010989
1.7016887909994693,2.7117216117216114,1.00007326007326,2.05010989010989
1.703282720000061,2.7117216117216114,1.00007326007326,2.05010989010989
1.707959822999328,2.7117216117216114,1.00007326007326,2.05010989010989
1.7177152749991365,2.7117216117216114,1.00007326007326,2.05010989010989
1.7201993779999611,2.7117216117216114,1.00007326007326,2.05010989010989
1.7303700449992903,2.7117216117216114,1.00007326007326,2.05010989010989
1.738048864999655,3.3,0.1555311355311355,0.42388278388278383
1.7437378829999943,3.3,0.1555311355311355,0.42388278388278383
1.7521731710003223,3.3,0.1555311355311355,0.42388278388278383
1.7576698339998984,2.714945054945055,0.9057875457875458,2.0726739926739923
1.759366112999487,2.714945054945055,0.9057875457875458,2.0726739926739923
1.7633871899997757,2.714945054945055,0.9057875457875458,2.0726739926739923
1.7651860160003707,2.714945054945055,0.9057875457875458,2.0726739926739923
1.7676287409994984,3.3,0.17406593406593407,0.39809523809523806
1.7678168309994362,3.3,0.17406593406593407,0.39809523809523806
1.773723484000584,3.3,0.17406593406593407,0.39809523809523806
1.7739817330002552,3.3,0.17406593406593407,0.39809523809523806
1.7816852929991,3.3,0.17406593406593407,0.39809523809523806
1.7888364179998462,3.3,0.17406593406593407,0.39809523809523806
1.7943228999993153,2.6682051282051282,1.759194139194139,0.772014652014652
1.7945177120000153,2.6682051282051282,1.759194139194139,0.772014652014652
1.801378164000198,2.6682051282051282,1.759194139194139,0.772014652014652
1.806732760000159,2.6682051282051282,1.759194139194139,0.772014652014652
1.8070069160003186,2.6682051282051282,1.759194139194139,0.772014652014652
1.8135512379994907,2.6682051282051282,1.759194139194139,0.772014652014652
1.8176038509991486,2.6682051282051282,1.759194139194139,0.772014652014652
1.8215358699999342,2.6682051282051282,1.759194139194139,0.772014652014652
1.824641146000431,2.6682051282051282,1.759194139194139,0.772014652014652
1.8271283479989506,2.6682051282051282,1.759194139194139,0.772014652014652
1.8319284459994378,2.6682051282051282,1.759194139194139,0.772014652014652
1.8374948759992549,2.6682051282051282,1.759194139194139,0.772014652014652
1.837816445999124,2.6682051282051282,1.759194139194139,0.772014652014652
1.8421215920006944,2.6682051282051282,1.759194139194139,0.772014652014652
1.8443108219998976,2.6682051282051282,1.759194139194139,0.772014652014652
1.8451647679994494,2.6682051282051282,1.759194139194139,0.772014652014652
1.8467103889997816,2.6682051282051282,1.759194139194139,0.772014652014652
1.8509976740006095,2.6682051282051282,1.759194139194139,0.772014652014652
1.8532460189999256,2.6682051282051282,1.759194139194139,0.772014652014652
1.854067689000658,2.6682051282051282,1.759194139194139,0.772014652014652
1.8555610059993342,2.6682051282051282,1.759194139194139,0.772014652014652
1.860448149000149,2.6682051282051282,1.759194139194139,0.772014652014652
1.8654431689992634,3.067912087912088,0.6632234432234432,1.211208791208791
1.8696561050001037,2.6746520146520147,0.14586080586080585,0.9783150183150182
1.8718274410002778,3.3,0.6575824175824176,0.38681318681318677
1.872678198000358,3.3,0.6575824175824176,0.38681318681318677
1.8748326620006992,3.3,0.6575824175824176,0.38681318681318677
1.8756210150004335,3.3,0.6575824175824176,0.38681318681318677
1.877769269000055,3.3,0.6575824175824176,0.38681318681318677
1.8786411259989109,0.9621978021978022,0.8848351648351648,0.921098901098901
1.8808060829996975,0.9621978021978022,0.8848351648351648,0.921098901098901
1.8815850339997269,2.673040293040293,0.2643223443223443,1.075018315018315
1.8837241130004259,2.673040293040293,0.2643223443223443,1.075018315018315
1.8845788849994278,2.673040293040293,0.2643223443223443,1.075018315018315
1.8860899720002635,2.673040293040293,0.2643223443223443,1.075018315018315
1.8904983079992235,3.3,1.6093040293040293,0.6962637362637363
1.8926221620004071,3.3,0.718021978021978,0.3626373626373626
1.8934159189993807,3.3,0.718021978021978,0.3626373626373626
1.895562659999996,3.3,0.718021978021978,0.3626373626373626
1.896363632999055,3.3,0.718021978021978,0.3626373626373626
1.8984974599989073,3.3,0.718021978021978,0.3626373626373626
1.899315951999597,3.3,0.718021978021978,0.3626373626373626
1.9008380559989746,3.3,0.718021978021978,0.3626373626373626
1.905732025999896,2.6665934065934067,0.21435897435897436,0.9581684981684981
1.9106560059990443,2.6665934065934067,0.21435897435897436,0.9581684981684981
1.910773227999016,2.6665934065934067,0.21435897435897436,0.9581684981684981
1.915664858999662,2.6665934065934067,0.21435897435897436,0.9581684981684981
1.9157600149992504,2.714945054945055,0.307032967032967,0.763956043956044
1.9206456230003823,2.714945054945055,0.307032967032967,0.763956043956044
1.9255617679991701,1.4416849816849817,0.83003663003663,1.021025641025641
1.9256607930001337,3.3,0.17406593406593407,0.5447619047619047
1.9305163079989143,3.3,0.17406593406593407,0.5447619047619047
1.9306340849998378,3.3,0.17406593406593407,0.5447619047619047
1.9358551850000367,3.3,0.17406593406593407,0.5447619047619047
1.9383015179992071,2.71010989010989,0.4126007326007326,1.0492307692307692
1.93848173600054,2.71010989010989,0.4126007326007326,1.0492307692307692
1.943363923999641,2.71010989010989,0.4126007326007326,1.0492307692307692
1.9482616320001398,2.71010989010989,0.4126007326007326,1.0492307692307692
1.9536063420000573,2.71010989010989,0.4126007326007326,1.0492307692307692
1.9561683329993684,2.71010989010989,0.4126007326007326,1.0492307692307692
1.9607658049990278,2.6536996336996337,2.1991941391941388,0.909010989010989
1.9616980320006405,2.6714285714285713,0.42468864468864465,1.2893772893772892
1.9633309639993968,2.6714285714285713,0.42468864468864465,1.2893772893772892
1.9671792200006166,2.6714285714285713,0.42468864468864465,1.2893772893772892
1.971771450000233,2.856776556776557,0.8252014652014652,0.3884249084249084
1.9720017599993298,2.856776556776557,0.8252014652014652,0.3884249084249084
1.9767071539990866,2.713333333333333,0.9194871794871795,1.9695238095238095
1.9769822649996058,3.3,1.1322344322344322,0.713992673992674
1.981384161999813,3.3,1.1322344322344322,0.713992673992674
1.9835025400006998,3.3,1.1322344322344322,0.713992673992674
1.9843096799995692,3.3,1.1322344322344322,0.713992673992674
1.9858252960002574,3.3,1.1322344322344322,0.713992673992674
1.990023886999552,2.6545054945054947,1.6391208791208791,0.9283516483516483
1.9928731839991087,2.6545054945054947,1.6391208791208791,0.9283516483516483
1.996425299999828,2.6545054945054947,1.6391208791208791,0.9283516483516483
1.996634309000001,2.6545054945054947,1.6391208791208791,0.9283516483516483
2.001538926999274,2.6545054945054947,1.6391208791208791,0.9283516483516483
2.0062630140000692,2.6545054945054947,1.6391208791208791,0.9283516483516483
2.006514082000649,2.655311355311355,1.9848351648351645,0.7784615384615384
2.011495331998958,3.3,0.7687912087912088,0.42952380952380953
2.0162851519999094,3.3,0.7687912087912088,0.42952380952380953
2.0218660549999186,2.713333333333333,1.0693772893772893,2.02996336996337
2.0227952759996697,2.713333333333333,1.0693772893772893,2.02996336996337
2.0244541369993385,2.713333333333333,1.0693772893772893,2.02996336996337
2.028468292999605,2.713333333333333,1.0693772893772893,2.02996336996337
2.0317018639998423,2.713333333333333,1.0693772893772893,2.02996336996337
2.032558082999458,2.713333333333333,1.0693772893772893,2.02996336996337
2.034203907000119,2.713333333333333,1.0693772893772893,2.02996336996337
2.0382943029999296,2.713333333333333,1.0693772893772893,2.02996336996337
2.0414087469998776,2.713333333333333,1.0693772893772893,2.02996336996337
2.04303343599895,2.713333333333333,1.0693772893772893,2.02996336996337
2.0476582480005163,2.713333333333333,1.0693772893772893,2.02996336996337
2.0478115919995616,2.713333333333333,1.0693772893772893,2.02996336996337
2.052825634000328,2.713333333333333,1.0693772893772893,2.02996336996337
2.057001854000191,2.713333333333333,1.0693772893772893,2.02996336996337
2.058741311999256,2.713333333333333,1.0693772893772893,2.02996336996337
2.0618280149992643,2.7117216117216114,0.41340659340659336,1.5827106227106227
2.064269245000105,2.7117216117216114,0.41340659340659336,1.5827106227106227
2.069847890999881,2.7117216117216114,0.41340659340659336,1.5827106227106227
2.07088606599973,2.7117216117216114,0.41340659340659336,1.5827106227106227
2.071161707999636,2.523956043956044,0.1523076923076923,0.23128205128205126
2.0766484209998453,2.523956043956044,0.1523076923076923,0.23128205128205126
2.0782265639991238,2.523956043956044,0.1523076923076923,0.23128205128205126
2.0824114469996857,2.66014652014652,0.5689377289377289,1.3715750915750915
2.084875356000339,2.66014652014652,0.5689377289377289,1.3715750915750915
2.0849758309996105,2.66014652014652,0.5689377289377289,1.3715750915750915
2.0905943010002375,2.66014652014652,0.5689377289377289,1.3715750915750915
2.0915066830002615,2.66014652014652,0.5689377289377289,1.3715750915750915
2.0931543530005,2.664175824175824,1.0073260073260073,1.411062271062271
2.0965436450005654,2.664175824175824,1.0073260073260073,1.411062271062271
2.0968332430002192,2.664175824175824,1.0073260073260073,1.411062271062271
2.101683368999147,2.664175824175824,1.0073260073260073,1.411062271062271
2.107064055999217,2.664175824175824,1.0073260073260073,1.411062271062271
2.1087138919992867,2.664175824175824,1.0073260073260073,1.411062271062271
2.112509840000712,2.664175824175824,1.0073260073260073,1.411062271062271
2.1179397769992647,2.6794871794871793,1.0613186813186812,1.6729670329670328
2.118888330000118,2.6794871794871793,1.0613186813186812,1.6729670329670328
2.1205751069992402,2.6794871794871793,1.0613186813186812,1.6729670329670328
2.123994001000028,2.6794871794871793,1.0613186813186812,1.6729670329670328
2.1243543260006845,2.6794871794871793,1.0613186813186812,1.6729670329670328
2.129418230999363,2.6794871794871793,1.0613186813186812,1.6729670329670328
2.133254025999122,2.635970695970696,0.1813186813186813,0.31750915750915754
2.138013182000577,2.635970695970696,0.1813186813186813,0.31750915750915754
2.138131514999259,3.3,1.6367032967032966,1.012161172161172
2.1430170629992062,3.3,1.6367032967032966,1.012161172161172
2.150623571998949,3.3,1.6367032967032966,1.012161172161172
2.1563676749992737,3.3,0.14827838827838827,0.5358974358974359
2.161830826998994,2.713333333333333,1.1040293040293039,2.017069597069597
2.162179233000643,2.713333333333333,1.1040293040293039,2.017069597069597
2.166844729999866,2.713333333333333,1.1040293040293039,2.017069597069597
2.167014876000394,2.713333333333333,1.1040293040293039,2.017069597069597
2.1720327099992573,3.3,0.66,0.415018315018315
2.175968539000678,3.3,0.66,0.415018315018315
2.1798376869992353,3.3,0.66,0.415018315018315
2.1871887180004705,3.3,0.66,0.415018315018315
2.1929774820000603,3.3,0.66,0.415018315018315
2.197584593999636,3.3,0.66,0.415018315018315
2.1978957730007096,2.6536996336996337,2.2765567765567765,0.9106227106227106
2.2029779240001517,2.6536996336996337,2.2765567765567765,0.9106227106227106
2.2069800489989575,2.6536996336996337,2.2765567765567765,0.9106227106227106
2.2101309680001577,2.6528937728937727,2.328131868131868,0.747032967032967
2.211815803999343,2.6528937728937727,2.328131868131868,0.747032967032967
2.2150652229993284,2.6528937728937727,2.328131868131868,0.747032967032967
2.215969270999267,2.6528937728937727,2.328131868131868,0.747032967032967
2.217590365000433,2.652087912087912,2.305567765567765,0.8663003663003663
2.2214531079989683,2.652087912087912,2.305567765567765,0.8663003663003663
2.2253965780000726,2.652087912087912,2.305567765567765,0.8663003663003663
2.230692867999096,2.6682051282051282,2.3797069597069593,0.6785347985347985
2.2330510440006037,2.6682051282051282,2.3797069597069593,0.6785347985347985
2.2332134610005596,2.6682051282051282,2.3797069597069593,0.6785347985347985
2.2386185380000825,2.6682051282051282,2.3797069597069593,0.6785347985347985
2.23955093999939,2.6682051282051282,2.3797069597069593,0.6785347985347985
2.2413015799993445,2.6682051282051282,2.3797069597069593,0.6785347985347985
2.24449046799964,2.6682051282051282,2.3797069597069593,0.6785347985347985
2.246133552000174,2.6682051282051282,2.3797069597069593,0.6785347985347985
2.2499648939992767,2.6577289377289377,1.714065934065934,0.8638827838827838
2.254809046000446,2.6577289377289377,1.714065934065934,0.8638827838827838
2.2593837040003564,2.7423443223443225,1.0323076923076921,1.9719413919413917
2.2596489139996265,2.7423443223443225,1.0323076923076921,1.9719413919413917
2.2640397279992612,2.7423443223443225,1.0323076923076921,1.9719413919413917
2.2655971799995314,2.7423443223443225,1.0323076923076921,1.9719413919413917
2.2693082679998042,2.7423443223443225,1.0323076923076921,1.9719413919413917
2.269512045999363,2.7423443223443225,1.0323076923076921,1.9719413919413917
2.274472732000504,2.7423443223443225,1.0323076923076921,1.9719413919413917
2.2786952949991246,2.713333333333333,1.0266666666666666,2.0654212454212453
2.280882417000612,3.3,2.1008791208791204,1.0008791208791208
2.2816851339994173,3.3,2.1008791208791204,1.0008791208791208
2.2838144279994594,3.3,2.1008791208791204,1.0008791208791208
2.284637949000171,3.3,2.1008791208791204,1.0008791208791208
2.286172292999254,3.3,2.1008791208791204,1.0008791208791208
2.2906680010000855,3.3,2.1008791208791204,1.0008791208791208
2.2918920920001256,3.3,2.1008791208791204,1.0008791208791208
2.292001709000033,3.3,2.1008791208791204,1.0008791208791208
2.2964256489995023,3.3,2.1008791208791204,1.0008791208791208
2.297927929999787,3.3,2.1008791208791204,1.0008791208791208
2.3022277649997704,3.3,2.1008791208791204,1.0008791208791208
2.3050682230004895,2.6609523809523807,0.20307692307692307,0.801025641025641
2.3088085719991795,2.6609523809523807,0.20307692307692307,0.801025641025641
2.313778956000533,2.6609523809523807,0.20307692307692307,0.801025641025641
2.3186743539990857,2.76007326007326,0.2989743589743589,0.7067399267399267
2.318789478000326,2.76007326007326,0.2989743589743589,0.7067399267399267
2.323642026000016,2.76007326007326,0.2989743589743589,0.7067399267399267
2.3238392519997433,2.76007326007326,0.2989743589743589,0.7067399267399267
2.3288206359993637,2.76007326007326,0.2989743589743589,0.7067399267399267
2.3335118100003456,3.3,0.4561172161172161,0.3763369963369963
2.333666483998968,3.3,0.4561172161172161,0.3763369963369963
2.339349874000618,2.7165567765567764,0.39567765567765567,0.9855677655677655
2.3401949769995554,2.7165567765567764,0.39567765567765567,0.9855677655677655
2.341829291999602,2.7165567765567764,0.39567765567765567,0.9855677655677655
2.345573227999921,2.7165567765567764,0.39567765567765567,0.9855677655677655
2.3498872019990813,2.7165567765567764,0.39567765567765567,0.9855677655677655
2.3513863749994925,2.7165567765567764,0.39567765567765567,0.9855677655677655
2.3565400280003814,2.7165567765567764,0.39567765567765567,0.9855677655677655
2.359411055000237,2.7084981684981684,1.1515750915750915,2.0726739926739923
2.362947420000637,2.7084981684981684,1.1515750915750915,2.0726739926739923
2.3630753719990025,2.7084981684981684,1.1515750915750915,2.0726739926739923
2.3680014990004565,2.7084981684981684,1.1515750915750915,2.0726739926739923
2.3731382570003916,2.7084981684981684,1.1515750915750915,2.0726739926739923
2.3765167509991443,2.7084981684981684,1.1515750915750915,2.0726739926739923
2.3767819200002123,3.3,1.6036630036630035,0.9243223443223443
2.3815426340006525,3.3,1.6036630036630035,0.9243223443223443
2.381814263999331,2.71010989010989,0.20146520146520144,0.6446886446886446
2.386460469000667,2.71010989010989,0.20146520146520144,0.6446886446886446
2.3866167169999244,2.71010989010989,0.20146520146520144,0.6446886446886446
2.3920234979996167,2.71010989010989,0.20146520146520144,0.6446886446886446
2.393853076000596,2.71010989010989,0.20146520146520144,0.6446886446886446
2.396255301000565,2.71010989010989,0.20146520146520144,0.6446886446886446
2.396444362000693,2.71010989010989,0.20146520146520144,0.6446886446886446
2.402019361999919,2.71010989010989,0.20146520146520144,0.6446886446886446
2.4023430659999576,2.71010989010989,0.20146520146520144,0.6446886446886446
2.4076797510006145,2.71010989010989,0.20146520146520144,0.6446886446886446
2.4099897229989438,2.71010989010989,0.20146520146520144,0.6446886446886446
2.4101795879996644,2.71010989010989,0.20146520146520144,0.6446886446886446
2.415723849000642,2.71010989010989,0.20146520146520144,0.6446886446886446
2.416631611000412,2.713333333333333,0.3142857142857142,0.7083516483516483
2.4175421119998646,2.713333333333333,0.3142857142857142,0.7083516483516483
2.419139179999547,2.713333333333333,0.3142857142857142,0.7083516483516483
2.4230531949997385,2.713333333333333,0.3142857142857142,0.7083516483516483
2.427698731999044,2.6665934065934067,0.13296703296703297,0.9227106227106227
2.428528591999566,3.3,0.7405860805860806,0.3932600732600733
2.4301709510000364,3.3,0.7405860805860806,0.3932600732600733
2.4340115659997537,3.3,0.7405860805860806,0.3932600732600733
2.4386239819996263,3.3,0.7405860805860806,0.3932600732600733
2.4395159920004517,2.7616849816849816,0.7438095238095238,1.095164835164835
2.441104876999816,2.7616849816849816,0.7438095238095238,1.095164835164835
2.4458046700001432,2.7616849816849816,0.7438095238095238,1.095164835164835
2.4459818249997625,2.7616849816849816,0.7438095238095238,1.095164835164835
2.4508410210000875,2.7616849816849816,0.7438095238095238,1.095164835164835
2.456763819000116,3.2468131868131866,0.4174358974358974,0.3505494505494505
2.462312514000587,1.8486446886446886,0.8179487179487179,1.0597069597069597
2.464049394999165,2.681098901098901,0.11282051282051282,0.8679120879120878
2.4671140880000166,2.681098901098901,0.11282051282051282,0.8679120879120878
2.468745463000232,2.681098901098901,0.11282051282051282,0.8679120879120878
2.472600335999232,2.681098901098901,0.11282051282051282,0.8679120879120878
2.476488918000541,2.681098901098901,0.11282051282051282,0.8679120879120878
2.481217446998926,2.681098901098901,0.11282051282051282,0.8679120879120878
2.4870135149994894,2.681098901098901,0.11282051282051282,0.8679120879120878
2.4871293819996936,3.3,0.21274725274725276,0.4698168498168498
2.492734916999325,3.3,0.684981684981685,0.3964835164835165
2.4938111920000665,3.3,0.684981684981685,0.3964835164835165
2.4940999939990434,3.3,0.684981684981685,0.3964835164835165
2.499795219000589,3.3,0.684981684981685,0.3964835164835165
2.499904603999312,2.6682051282051282,0.32798534798534795,1.1862271062271061
2.5048097590006364,2.6682051282051282,0.32798534798534795,1.1862271062271061
2.5097189150001213,2.6682051282051282,0.32798534798534795,1.1862271062271061
2.5143855059995985,2.6682051282051282,0.32798534798534795,1.1862271062271061
2.5146237110002403,2.6682051282051282,0.32798534798534795,1.1862271062271061
2.519321231999129,2.6682051282051282,0.32798534798534795,1.1862271062271061
2.519484520000333,2.6682051282051282,0.32798534798534795,1.1862271062271061
2.524150829000064,2.6682051282051282,0.32798534798534795,1.1862271062271061
2.5244576479999523,2.6835164835164833,0.15875457875457877,0.9597802197802198
2.5298127219994058,2.6835164835164833,0.15875457875457877,0.9597802197802198
2.5314117300004,2.6835164835164833,0.15875457875457877,0.9597802197802198
2.5357316989993706,2.6835164835164833,0.15875457875457877,0.9597802197802198
2.5379982499998732,2.6835164835164833,0.15875457875457877,0.9597802197802198
2.538792293998995,2.6835164835164833,0.15875457875457877,0.9597802197802198
2.540939647000414,2.6835164835164833,0.15875457875457877,0.9597802197802198
2.5418778650000604,2.6835164835164833,0.15875457875457877,0.9597802197802198
2.543350279000151,2.6835164835164833,0.15875457875457877,0.9597802197802198
2.5475973180000437,2.6835164835164833,0.15875457875457877,0.9597802197802198
2.5498353540006065,2.6835164835164833,0.15875457875457877,0.9597802197802198
2.550616811000509,2.6835164835164833,0.15875457875457877,0.9597802197802198
2.5530067999989114,2.6835164835164833,0.15875457875457877,0.9597802197802198
2.553168414000538,2.6835164835164833,0.15875457875457877,0.9597802197802198
2.558117296999626,2.6835164835164833,0.15875457875457877,0.9597802197802198
2.5632528829992225,2.6835164835164833,0.15875457875457877,0.9597802197802198
2.567288648999238,2.6835164835164833,0.15875457875457877,0.9597802197802198
2.570488179999302,3.3,0.4424175824175824,0.44402930402930396
2.5729383929992764,3.3,0.4424175824175824,0.44402930402930396
2.578592255998956,2.714945054945055,0.5109157509157509,1.4287912087912087
2.579605843000536,3.3,1.2732600732600732,0.7631501831501831
2.5804878090002603,3.3,1.2732600732600732,0.7631501831501831
2.5821128219995444,3.3,1.2732600732600732,0.7631501831501831
2.5860748369996145,3.3,1.2732600732600732,0.7631501831501831
2.5900351910004247,2.6665934065934067,2.3120146520146516,0.7244688644688644
2.5932499609989463,2.6665934065934067,2.3120146520146516,0.7244688644688644
2.59484965899901,2.6665934065934067,2.3120146520146516,0.7244688644688644
2.5995263419990806,2.6665934065934067,2.3120146520146516,0.7244688644688644
2.5998011640003824,2.6665934065934067,2.3120146520146516,0.7244688644688644
2.6047270620001655,2.6665934065934067,2.3120146520146516,0.7244688644688644
2.6103524249992915,2.6698168498168497,2.2169230769230768,0.7430036630036629
2.6106519059994753,2.6698168498168497,2.2169230769230768,0.7430036630036629
2.615238361999218,2.6698168498168497,2.2169230769230768,0.7430036630036629
2.616136335000192,2.7117216117216114,0.8348717948717947,2.121025641025641
2.6177524169997923,2.7117216117216114,0.8348717948717947,2.121025641025641
2.621623131999513,2.7117216117216114,0.8348717948717947,2.121025641025641
2.6261141239992867,2.7117216117216114,0.8348717948717947,2.121025641025641
2.6264561360003427,2.7117216117216114,0.8348717948717947,2.121025641025641
2.6312609699998575,2.7117216117216114,0.8348717948717947,2.121025641025641
2.636445914000433,2.7117216117216114,0.8348717948717947,2.121025641025641
2.6393328260001,3.3,0.9146520146520146,0.6108424908424909
2.6430326139998215,3.3,0.9146520146520146,0.6108424908424909
2.6478136839996296,3.3,0.9146520146520146,0.6108424908424909
2.6479841059990576,3.3,0.9146520146520146,0.6108424908424909
2.654530984998928,3.3,0.9146520146520146,0.6108424908424909
2.6579769529998885,3.3,0.9146520146520146,0.6108424908424909
2.6582406090001314,3.3,0.9146520146520146,0.6108424908424909
2.66365887900065,3.3,0.9146520146520146,0.6108424908424909
2.665222964998975,3.3,0.9146520146520146,0.6108424908424909
2.66897787400012,3.3,0.9146520146520146,0.6108424908424909
2.673541844000283,3.3,0.9146520146520146,0.6108424908424909
2.6738079730002937,3.3,0.9146520146520146,0.6108424908424909
2.678460240998902,3.3,0.9146520146520146,0.6108424908424909
2.6786734809993504,3.3,0.9146520146520146,0.6108424908424909
2.683128224000029,3.3,0.9146520146520146,0.6108424908424909
2.6846151030003966,3.3,0.9146520146520146,0.6108424908424909
2.6909599999999045,3.3,0.9146520146520146,0.6108424908424909
2.694652940999731,3.3,0.9146520146520146,0.6108424908424909
2.6994235269994533,3.3,0.9146520146520146,0.6108424908424909
2.6995477119999123,3.3,0.9146520146520146,0.6108424908424909
2.704232852000132,3.3,0.9146520146520146,0.6108424908424909
2.704526927000188,2.6617582417582417,0.12974358974358974,0.7293040293040293
2.7103801390003355,2.6617582417582417,0.12974358974358974,0.7293040293040293
2.715801885999099,2.6617582417582417,0.12974358974358974,0.7293040293040293
2.718103772000177,2.6617582417582417,0.12974358974358974,0.7293040293040293
2.718395916999725,2.6617582417582417,0.12974358974358974,0.7293040293040293
2.723753587999454,2.6617582417582417,0.12974358974358974,0.7293040293040293
2.725754594999671,2.6617582417582417,0.12974358974358974,0.7293040293040293
2.726625827999669,2.6617582417582417,0.12974358974358974,0.7293040293040293
2.7282940770001005,2.6617582417582417,0.12974358974358974,0.7293040293040293
2.732254856000509,3.1251282051282048,0.3424908424908425,0.3553846153846154
2.7365522519994556,2.7375091575091575,0.9033699633699634,1.9429304029304029
2.7383833849999064,3.3,0.7002930402930403,0.6116483516483516
2.7421367690003535,1.4650549450549448,0.8590476190476191,1.0427838827838827
2.7461093319998326,1.4650549450549448,0.8590476190476191,1.0427838827838827
2.7500345570006175,3.3,0.7575091575091575,0.4657875457875458
2.7531698549992143,3.3,0.7575091575091575,0.4657875457875458
2.756524835000164,3.3,0.7575091575091575,0.4657875457875458
2.7567918929998996,3.3,0.7575091575091575,0.4657875457875458
2.7622672639990924,3.3,0.7575091575091575,0.4657875457875458
2.7631391670001904,2.6706227106227107,0.44080586080586076,1.3465934065934064
2.764143497999612,2.6706227106227107,0.44080586080586076,1.3465934065934064
2.7658559609990334,2.6706227106227107,0.44080586080586076,1.3465934065934064
2.768985201999385,2.6706227106227107,0.44080586080586076,1.3465934065934064
2.7705871910002315,2.6706227106227107,0.44080586080586076,1.3465934065934064
2.7750823450005555,2.6706227106227107,0.44080586080586076,1.3465934065934064
2.7754286370000045,2.6706227106227107,0.44080586080586076,1.3465934065934064
2.780803849000222,2.6706227106227107,0.44080586080586076,1.3465934065934064
2.78311244500037,2.6706227106227107,0.44080586080586076,1.3465934065934064
2.783400774000256,2.6706227106227107,0.44080586080586076,1.3465934065934064
2.7895854569997027,2.6706227106227107,0.44080586080586076,1.3465934065934064
2.795789877000061,2.6706227106227107,0.44080586080586076,1.3465934065934064
2.799726756000382,3.3,1.1072527472527471,0.6906227106227106
2.8036243930000637,1.3643223443223442,0.8808058608058608,1.00007326007326
2.8081805709989567,2.6585347985347987,0.2224175824175824,0.8155311355311355
2.808454124000491,2.6585347985347987,0.2224175824175824,0.8155311355311355
2.8130240320006124,2.803589743589743,0.2216117216117216,0.3199267399267399
2.813343821999297,2.803589743589743,0.2216117216117216,0.3199267399267399
2.818669238999064,2.803589743589743,0.2216117216117216,0.3199267399267399
2.8210211349996825,2.3378021978021977,0.8082783882783882,1.079047619047619
2.821194848000232,2.3378021978021977,0.8082783882783882,1.079047619047619
2.8266873299999133,2.3378021978021977,0.8082783882783882,1.079047619047619
2.8275782969994907,2.3378021978021977,0.8082783882783882,1.079047619047619
2.8285125080001308,2.3378021978021977,0.8082783882783882,1.079047619047619
2.8301706359998207,2.3378021978021977,0.8082783882783882,1.079047619047619
2.833380768999632,2.3378021978021977,0.8082783882783882,1.079047619047619
2.8349805849993572,2.3378021978021977,0.8082783882783882,1.079047619047619
2.8397452930003055,2.71010989010989,0.34007326007326005,0.9259340659340659
2.846455935999984,2.71010989010989,0.34007326007326005,0.9259340659340659
2.8503714649996255,2.6569230769230767,0.25787545787545785,0.7647619047619048
2.859648804000244,2.6569230769230767,0.25787545787545785,0.7647619047619048
2.867205077000108,2.6569230769230767,0.25787545787545785,0.7647619047619048
2.871879712000009,2.6569230769230767,0.25787545787545785,0.7647619047619048
2.872130083000229,2.7004395604395603,0.8284249084249083,1.2539194139194139
2.8820250400003715,2.7004395604395603,0.8284249084249083,1.2539194139194139
2.887178947999928,2.7004395604395603,0.8284249084249083,1.2539194139194139
2.893423380999593,2.7004395604395603,0.8284249084249083,1.2539194139194139
2.897125485998913,2.7004395604395603,0.8284249084249083,1.2539194139194139
2.9027297669999825,2.7004395604395603,0.8284249084249083,1.2539194139194139
2.903033864999088,2.7004395604395603,0.8284249084249083,1.2539194139194139
2.9084458830002404,2.7004395604395603,0.8284249084249083,1.2539194139194139
2.9115071639989765,2.7004395604395603,0.8284249084249083,1.2539194139194139
2.9124482229999558,2.7004395604395603,0.8284249084249083,1.2539194139194139
2.9134353999997984,2.7004395604395603,0.8284249084249083,1.2539194139194139
2.914410033999957,2.7004395604395603,0.8284249084249083,1.2539194139194139
2.9156824439996853,2.7004395604395603,0.8284249084249083,1.2539194139194139
2.915813479999997,2.7004395604395603,0.8284249084249083,1.2539194139194139
2.9204602469999372,2.7004395604395603,0.8284249084249083,1.2539194139194139
2.920701974999247,2.7004395604395603,0.8284249084249083,1.2539194139194139
2.9284535850001703,2.7004395604395603,0.8284249084249083,1.2539194139194139
2.9324353619995236,2.7004395604395603,0.8284249084249083,1.2539194139194139
2.9367504450001434,2.7004395604395603,0.8284249084249083,1.2539194139194139
2.937113457999658,2.7004395604395603,0.8284249084249083,1.2539194139194139
2.9448812219998217,2.7004395604395603,0.8284249084249083,1.2539194139194139
2.9491913950005255,2.7004395604395603,0.8284249084249083,1.2539194139194139
2.9523181959993963,2.7004395604395603,0.8284249084249083,1.2539194139194139
2.9532871060000616,2.7004395604395603,0.8284249084249083,1.2539194139194139
2.954904058999091,2.7004395604395603,0.8284249084249083,1.2539194139194139
2.9608955410003546,2.7004395604395603,0.8284249084249083,1.2539194139194139
2.96496720200048,2.7004395604395603,0.8284249084249083,1.2539194139194139
2.967337886999303,2.9776556776556777,0.904981684981685,0.8405128205128204
2.9674797229999967,2.9776556776556777,0.904981684981685,0.8405128205128204
2.9725360140000703,2.9776556776556777,0.904981684981685,0.8405128205128204
2.979859306000435,2.9776556776556777,0.904981684981685,0.8405128205128204
2.9839354119994823,2.6633699633699632,0.5028571428571429,1.3925274725274726
2.9879256919994077,2.6778754578754578,0.14344322344322344,0.9581684981684981
2.991362656999627,2.6778754578754578,0.14344322344322344,0.9581684981684981
2.9915959110003314,2.6778754578754578,0.14344322344322344,0.9581684981684981
2.998537667999699,2.6778754578754578,0.14344322344322344,0.9581684981684981
3.0025102210001933,2.6778754578754578,0.14344322344322344,0.9581684981684981
3.007438024998919,2.6778754578754578,0.14344322344322344,0.9581684981684981
3.013055715999144,2.6778754578754578,0.14344322344322344,0.9581684981684981
3.0188365949998115,2.6778754578754578,0.14344322344322344,0.9581684981684981
3.019009229999938,0.5552380952380952,0.9098168498168498,0.909010989010989
3.0274833149996994,0.5552380952380952,0.9098168498168498,0.909010989010989
3.0310914969995792,0.5552380952380952,0.9098168498168498,0.909010989010989
3.03671257699898,2.9260805860805856,0.20307692307692307,0.38036630036630037
3.037015001000327,2.9260805860805856,0.20307692307692307,0.38036630036630037
3.0446299859995634,2.9260805860805856,0.20307692307692307,0.38036630036630037
3.048584418000246,2.9260805860805856,0.20307692307692307,0.38036630036630037
3.052610864999224,2.9873260073260073,0.32073260073260074,0.37150183150183147
3.0559371590006776,2.9873260073260073,0.32073260073260074,0.37150183150183147
3.057536379999874,2.9873260073260073,0.32073260073260074,0.37150183150183147
3.062396051000178,2.9873260073260073,0.32073260073260074,0.37150183150183147
3.0671029610002734,2.9873260073260073,0.32073260073260074,0.37150183150183147
3.067206121999334,2.9873260073260073,0.32073260073260074,0.37150183150183147
3.07268803199986,2.9873260073260073,0.32073260073260074,0.37150183150183147
3.0736982460002764,2.9873260073260073,0.32073260073260074,0.37150183150183147
3.0748667169991677,2.9873260073260073,0.32073260073260074,0.37150183150183147
3.0751949839996087,2.9873260073260073,0.32073260073260074,0.37150183150183147
3.0808765340007085,2.9873260073260073,0.32073260073260074,0.37150183150183147
3.0817356879997533,1.6431501831501831,0.9476923076923076,0.6398534798534798
3.082810320000135,1.6431501831501831,0.9476923076923076,0.6398534798534798
3.083110706998923,1.6431501831501831,0.9476923076923076,0.6398534798534798
3.0881881690002047,1.6431501831501831,0.9476923076923076,0.6398534798534798
3.0950081079990923,1.6431501831501831,0.9476923076923076,0.6398534798534798
3.0995160170004965,2.714139194139194,0.27318681318681315,0.614065934065934
3.099724323999908,2.714139194139194,0.27318681318681315,0.614065934065934
3.1087966449995292,2.714139194139194,0.27318681318681315,0.614065934065934
3.11383485999977,2.714139194139194,0.27318681318681315,0.614065934065934
3.1176561409993155,2.797142857142857,0.15633699633699633,0.3594139194139194
3.1215256249997765,2.797142857142857,0.15633699633699633,0.3594139194139194
3.12698095199994,2.797142857142857,0.15633699633699633,0.3594139194139194
3.1279040419995,2.655311355311355,1.3119413919413918,0.7857142857142856
3.1290839920002327,2.655311355311355,1.3119413919413918,0.7857142857142856
3.129236237000441,2.655311355311355,1.3119413919413918,0.7857142857142856
3.1351885749991197,2.655311355311355,1.3119413919413918,0.7857142857142856
3.1354019760001393,2.655311355311355,1.3119413919413918,0.7857142857142856
3.1412828669999726,2.655311355311355,1.3119413919413918,0.7857142857142856
3.149755025999184,2.655311355311355,1.3119413919413918,0.7857142857142856
3.153719554999043,2.652087912087912,2.449010989010989,0.7421978021978022
3.1609844169997814,2.652087912087912,2.449010989010989,0.7421978021978022
3.1657428540002,2.652087912087912,2.449010989010989,0.7421978021978022
3.170936256999994,2.652087912087912,2.449010989010989,0.7421978021978022
3.1749291279993486,3.1130402930402927,0.7599267399267399,1.0637362637362637
3.179971747000309,2.714945054945055,0.8808058608058608,1.9316483516483516
3.181477640000594,2.714945054945055,0.8808058608058608,1.9316483516483516
3.1880752880006185,2.714945054945055,0.8808058608058608,1.9316483516483516
3.1956633949994284,2.714945054945055,0.8808058608058608,1.9316483516483516
3.2010717339999246,2.739120879120879,1.0234432234432234,2.0968498168498164
3.2013208070002293,2.739120879120879,1.0234432234432234,2.0968498168498164
3.208667234999666,2.739120879120879,1.0234432234432234,2.0968498168498164
3.2151244090000546,2.6682051282051282,2.194358974358974,0.6446886446886446
3.22049855700061,2.6682051282051282,2.194358974358974,0.6446886446886446
3.220838626999466,2.6682051282051282,2.194358974358974,0.6446886446886446
3.2310080169991124,2.6682051282051282,2.194358974358974,0.6446886446886446
3.237698646998979,3.3,2.332967032967033,0.7172161172161172
3.244496679999429,3.3,2.332967032967033,0.7172161172161172
3.2484605869994994,3.3,2.332967032967033,0.7172161172161172
3.252026783000474,3.3,2.332967032967033,0.7172161172161172
3.2569593520001945,3.3,2.332967032967033,0.7172161172161172
3.2636515769991092,3.3,2.332967032967033,0.7172161172161172
3.2676090029999614,3.3,2.332967032967033,0.7172161172161172
3.2707902559996,3.3,2.332967032967033,0.7172161172161172
3.272518105999552,3.3,2.332967032967033,0.7172161172161172
3.2768778529989504,2.6722344322344322,1.1886446886446886,1.6471794871794871
3.277137008999489,2.6722344322344322,1.1886446886446886,1.6471794871794871
3.282157391999135,2.6722344322344322,1.1886446886446886,1.6471794871794871
3.287183847000051,2.6722344322344322,1.1886446886446886,1.6471794871794871
3.292848070999753,2.6722344322344322,1.1886446886446886,1.6471794871794871
3.3014824749989202,2.6722344322344322,1.1886446886446886,1.6471794871794871
3.30782741800067,2.6722344322344322,1.1886446886446886,1.6471794871794871
3.3122865479999746,2.6722344322344322,1.1886446886446886,1.6471794871794871
3.3125603389999014,2.6722344322344322,1.1886446886446886,1.6471794871794871
3.3182369699989067,2.6722344322344322,1.1886446886446886,1.6471794871794871
3.3184999029999744,2.6722344322344322,1.1886446886446886,1.6471794871794871
3.326060953000706,2.6722344322344322,1.1886446886446886,1.6471794871794871
3.3325657780005713,2.6722344322344322,1.1886446886446886,1.6471794871794871
3.3369836620004207,2.6722344322344322,1.1886446886446886,1.6471794871794871
3.3371945100006997,2.6722344322344322,1.1886446886446886,1.6471794871794871
3.346661771000072,2.6722344322344322,1.1886446886446886,1.6471794871794871
3.3520903610005917,2.6722344322344322,1.1886446886446886,1.6471794871794871
3.3530212469995604,2.6722344322344322,1.1886446886446886,1.6471794871794871
3.3547045809991687,2.7117216117216114,1.0427838827838827,2.037216117216117
3.360316550999414,2.7117216117216114,1.0427838827838827,2.037216117216117
3.3667673859999923,2.7117216117216114,1.0427838827838827,2.037216117216117
3.3698833719990944,2.690769230769231,0.16117216117216115,0.9525274725274724
3.371490460000132,2.690769230769231,0.16117216117216115,0.9525274725274724
3.3783366610005032,2.690769230769231,0.16117216117216115,0.9525274725274724
3.3823799729998427,2.690769230769231,0.16117216117216115,0.9525274725274724
3.386331268999129,2.690769230769231,0.16117216117216115,0.9525274725274724
3.3917851879996306,2.6536996336996337,1.531135531135531,0.8630769230769231
3.3919776399998227,2.6536996336996337,1.531135531135531,0.8630769230769231
3.3983597959995677,2.6536996336996337,1.531135531135531,0.8630769230769231
3.4022875289992953,2.6577289377289377,0.3723076923076923,0.4432234432234432
3.4089690990003874,2.6577289377289377,0.3723076923076923,0.4432234432234432
3.4132077939993906,3.3,1.7253479853479854,0.6825641025641025
3.415643842999998,3.3,1.7253479853479854,0.6825641025641025
3.415846617999705,3.3,1.7253479853479854,0.6825641025641025
3.421323336999194,3.3,1.7253479853479854,0.6825641025641025
3.423501617999136,3.3,1.7253479853479854,0.6825641025641025
3.423775322000438,3.3,1.7253479853479854,0.6825641025641025
3.429387965999922,3.3,1.7253479853479854,0.6825641025641025
3.4296008179990167,3.3,1.7253479853479854,0.6825641025641025
3.4343389450004906,3.3,1.7253479853479854,0.6825641025641025
3.434640903999025,3.3,1.7253479853479854,0.6825641025641025
3.4396159120005905,3.3,1.7253479853479854,0.6825641025641025
3.4470958780002547,2.6649816849816848,2.1202197802197804,0.8622710622710623
3.4507236770004965,2.6649816849816848,2.1202197802197804,0.8622710622710623
3.450840686999072,2.6649816849816848,2.1202197802197804,0.8622710622710623
3.4579079049999564,2.6649816849816848,2.1202197802197804,0.8622710622710623
3.4636237369995797,2.714945054945055,0.3142857142857142,0.8695238095238095
3.463872927999546,3.3,0.19663003663003664,0.5616849816849817
3.470735249000427,3.3,0.19663003663003664,0.5616849816849817
3.474876452999524,2.673040293040293,1.108058608058608,1.6036630036630035
3.477060907000123,2.673040293040293,1.108058608058608,1.6036630036630035
3.4773914819998026,2.673040293040293,1.108058608058608,1.6036630036630035
3.4820545490001678,2.673040293040293,1.108058608058608,1.6036630036630035
3.4823512849998224,2.6633699633699632,0.25142857142857145,0.909010989010989
3.4874457070000062,2.6633699633699632,0.25142857142857145,0.909010989010989
3.494816415999594,2.6633699633699632,0.25142857142857145,0.909010989010989
3.4991076040005282,2.6633699633699632,0.25142857142857145,0.909010989010989
3.500989046999166,2.6682051282051282,0.44080586080586076,1.3425641025641024
3.50310533999982,2.6682051282051282,0.44080586080586076,1.3425641025641024
3.503974941000706,2.6682051282051282,0.44080586080586076,1.3425641025641024
3.505990280998958,2.6682051282051282,0.44080586080586076,1.3425641025641024
3.5078281900005095,2.6682051282051282,0.44080586080586076,1.3425641025641024
3.5106023019998247,2.6682051282051282,0.44080586080586076,1.3425641025641024
3.5147156530001666,2.6682051282051282,0.44080586080586076,1.3425641025641024
3.5164335839999694,2.6682051282051282,0.44080586080586076,1.3425641025641024
3.521184594999795,2.6682051282051282,0.44080586080586076,1.3425641025641024
3.5294888030002767,2.6682051282051282,0.44080586080586076,1.3425641025641024
3.535446042998956,2.6682051282051282,0.44080586080586076,1.3425641025641024
3.5392818149994127,2.6682051282051282,0.44080586080586076,1.3425641025641024
3.5453182450000895,2.664175824175824,0.5842490842490843,1.2378021978021978
3.5494864840002265,2.664175824175824,0.5842490842490843,1.2378021978021978
3.551156236000679,2.664175824175824,0.5842490842490843,1.2378021978021978
3.5553636419990653,2.664175824175824,0.5842490842490843,1.2378021978021978
3.558903224999085,2.664175824175824,0.5842490842490843,1.2378021978021978
3.5680386620006175,2.664175824175824,0.5842490842490843,1.2378021978021978
3.577258740999241,2.6746520146520147,0.17567765567765567,1.0194139194139193
3.584422366000581,2.6746520146520147,0.17567765567765567,1.0194139194139193
3.5896250949990645,2.6746520146520147,0.17567765567765567,1.0194139194139193
3.592408587999671,3.108205128205128,0.22805860805860806,0.33604395604395604
3.596957256000678,2.714945054945055,0.9791208791208791,2.0638095238095238
3.6017885349992866,2.714945054945055,0.9791208791208791,2.0638095238095238
3.6077956869994523,2.714945054945055,0.9791208791208791,2.0638095238095238
3.612674703999801,2.714945054945055,0.9791208791208791,2.0638095238095238
3.6164860739991127,2.713333333333333,1.1273992673992674,1.9759706959706957
3.62187743100003,2.713333333333333,1.1273992673992674,1.9759706959706957
3.623120148999078,2.713333333333333,1.1273992673992674,1.9759706959706957
3.6321976679992076,2.713333333333333,1.1273992673992674,1.9759706959706957
3.6377162440003303,2.713333333333333,1.1273992673992674,1.9759706959706957
3.6393246779989568,2.713333333333333,1.1273992673992674,1.9759706959706957
3.644075337999311,2.713333333333333,1.1273992673992674,1.9759706959706957
3.64797492300022,2.713333333333333,1.1273992673992674,1.9759706959706957
3.6519139600004564,3.2452014652014647,0.43355311355311354,0.38358974358974357
3.656006797000373,3.2452014652014647,0.43355311355311354,0.38358974358974357
3.6610156599999755,3.2452014652014647,0.43355311355311354,0.38358974358974357
3.6638752439994278,3.2452014652014647,0.43355311355311354,0.38358974358974357
3.666343749000589,3.2452014652014647,0.43355311355311354,0.38358974358974357
3.666512526999213,3.2452014652014647,0.43355311355311354,0.38358974358974357
3.6720262429989816,3.2452014652014647,0.43355311355311354,0.38358974358974357
3.6745785740004067,3.103369963369963,0.307032967032967,0.3352380952380952
3.679458782000438,3.103369963369963,0.307032967032967,0.3352380952380952
3.684844138999324,3.103369963369963,0.307032967032967,0.3352380952380952
3.686437271999239,3.103369963369963,0.307032967032967,0.3352380952380952
3.693351896999957,3.103369963369963,0.307032967032967,0.3352380952380952
3.696982299999945,2.713333333333333,0.9356043956043956,1.967106227106227
3.705474555999899,2.713333333333333,0.9356043956043956,1.967106227106227
3.7145157420000032,2.713333333333333,0.9356043956043956,1.967106227106227
3.7193578089991206,2.713333333333333,0.9356043956043956,1.967106227106227
3.727761448999445,3.261318681318681,0.7043223443223443,1.1233699633699634
3.734833417000118,3.261318681318681,0.7043223443223443,1.1233699633699634
3.740260873999432,2.332161172161172,0.14827838827838827,0.2087179487179487
3.740750487999321,2.690769230769231,0.39890109890109887,1.349010989010989
3.747536969000066,2.690769230769231,0.39890109890109887,1.349010989010989
3.753519370000504,2.6633699633699632,0.14102564102564102,0.5125274725274725
3.7594355219989666,2.714945054945055,0.3586080586080586,0.938021978021978
3.7627171269996325,2.714945054945055,0.3586080586080586,0.938021978021978
3.7636264550001215,2.993772893772894,0.12732600732600732,0.518974358974359
3.765269747000275,2.993772893772894,0.12732600732600732,0.518974358974359
3.7701993020000373,2.993772893772894,0.12732600732600732,0.518974358974359
3.7749202699997113,2.797142857142857,0.7736263736263735,0.37150183150183147
3.7806152699995437,2.714945054945055,0.3908424908424908,1.120952380952381
3.7808253210005205,2.714945054945055,0.3908424908424908,1.120952380952381
3.785477952000292,2.714945054945055,0.3908424908424908,1.120952380952381
3.7857534979993943,2.655311355311355,1.6608791208791207,0.8824175824175824
3.7907174800002394,2.655311355311355,1.6608791208791207,0.8824175824175824
3.7953873999995267,3.3,0.6317948717948718,0.3731135531135531
3.7955176340001344,2.71010989010989,0.38681318681318677,0.9936263736263735
3.8003491750005196,2.71010989010989,0.38681318681318677,0.9936263736263735
3.8066166089993203,2.71010989010989,0.38681318681318677,0.9936263736263735
3.81261032600014,2.71010989010989,0.38681318681318677,0.9936263736263735
3.815810677000627,3.235531135531135,0.3594139194139194,0.3384615384615384
3.8181001909997576,3.235531135531135,0.3594139194139194,0.3384615384615384
3.8183817110002565,1.7994871794871792,0.8816117216117215,1.0774358974358973
3.8233356589989853,1.7994871794871792,0.8816117216117215,1.0774358974358973
3.82895565599938,1.7994871794871792,0.8816117216117215,1.0774358974358973
3.829160883999066,1.7994871794871792,0.8816117216117215,1.0774358974358973
3.83397619400057,1.7994871794871792,0.8816117216117215,1.0774358974358973
3.840922977000446,1.7994871794871792,0.8816117216117215,1.0774358974358973
3.8454368769998837,3.3,1.6318681318681318,0.8856410256410255
3.8455964170007064,3.3,0.1805128205128205,0.4142124542124542
3.8510126229994057,3.3,0.1805128205128205,0.4142124542124542
3.852602360999299,2.8100366300366297,0.16036630036630037,0.3578021978021978
3.857301844000176,2.8100366300366297,0.16036630036630037,0.3578021978021978
3.8642269669999223,2.8100366300366297,0.16036630036630037,0.3578021978021978
3.869050432000222,2.8100366300366297,0.16036630036630037,0.3578021978021978
3.8746255610003573,3.3,1.814798534798535,0.7841025641025641
3.8764545129997714,3.3,1.814798534798535,0.7841025641025641
3.8789728289993946,3.3,1.814798534798535,0.7841025641025641
3.8836183629991865,3.3,1.814798534798535,0.7841025641025641
3.883925719999752,2.6617582417582417,0.2498168498168498,0.834065934065934
3.888815534999594,2.6617582417582417,0.2498168498168498,0.834065934065934
3.8985507729994424,2.6528937728937727,2.0678388278388278,0.6374358974358975
3.9044186640003318,2.71010989010989,0.30139194139194136,0.7075457875457875
3.9153651369997533,2.71010989010989,0.30139194139194136,0.7075457875457875
3.9265088560005097,2.71010989010989,0.30139194139194136,0.7075457875457875
3.933050239000295,0.8179487179487179,0.8953113553113552,0.9122344322344322
3.937108721000186,0.8179487179487179,0.8953113553113552,0.9122344322344322
3.9405185420000635,0.8179487179487179,0.8953113553113552,0.9122344322344322
3.9406895079991955,0.8179487179487179,0.8953113553113552,0.9122344322344322
3.9467282989990053,0.8179487179487179,0.8953113553113552,0.9122344322344322
3.950879296999119,0.8179487179487179,0.8953113553113552,0.9122344322344322
3.9532847489990672,0.8179487179487179,0.8953113553113552,0.9122344322344322
3.95347243300057,0.8179487179487179,0.8953113553113552,0.9122344322344322
3.959924372000387,0.8179487179487179,0.8953113553113552,0.9122344322344322
3.963647487000344,0.8179487179487179,0.8953113553113552,0.9122344322344322
3.9682900949992472,0.8179487179487179,0.8953113553113552,0.9122344322344322
3.9684084500004246,0.8179487179487179,0.8953113553113552,0.9122344322344322
3.973642622000625,0.8179487179487179,0.8953113553113552,0.9122344322344322
3.976915227000063,2.7423443223443225,0.34813186813186814,0.9227106227106227
3.9771884319998208,2.7423443223443225,0.34813186813186814,0.9227106227106227
3.9822806119991583,2.7423443223443225,0.34813186813186814,0.9227106227106227
3.985658223999053,2.6545054945054947,0.27882783882783885,0.7454212454212454
3.9860055429999193,3.3,0.18615384615384614,0.39567765567765567
3.9923573859996395,3.3,0.18615384615384614,0.39567765567765567
3.995918491998964,2.7117216117216114,1.037948717948718,2.028351648351648
4.001423371999408,2.7117216117216114,1.037948717948718,2.028351648351648
4.002993530999447,2.7117216117216114,1.037948717948718,2.028351648351648
4.0086383759989985,2.7117216117216114,1.037948717948718,2.028351648351648
4.015242748999299,3.2806593406593407,0.40615384615384614,0.365054945054945
4.01937591999922,3.2806593406593407,0.40615384615384614,0.365054945054945
4.0234159890005685,3.2806593406593407,0.40615384615384614,0.365054945054945
4.028029764000166,2.6585347985347987,0.14666666666666667,0.6841758241758242
4.032712201998947,2.6585347985347987,0.14666666666666667,0.6841758241758242
4.032959823000056,2.6738461538461538,1.00007326007326,1.6423443223443224
4.037741644000562,2.6738461538461538,1.00007326007326,1.6423443223443224
4.045724485999017,3.3,1.8816849816849814,0.8654945054945055
4.050874577000286,3.3,1.8816849816849814,0.8654945054945055
4.053609548000168,3.3,1.8816849816849814,0.8654945054945055
4.059567348000201,3.3,1.8816849816849814,0.8654945054945055
4.063942147999114,3.3,1.8816849816849814,0.8654945054945055
4.064218690000416,3.3,1.8816849816849814,0.8654945054945055
4.070262601999275,3.3,1.8816849816849814,0.8654945054945055
4.0764467959998,3.071135531135531,0.22644688644688646,0.4391941391941392
4.0794031559998984,3.3,2.0775091575091573,0.8783882783882784
4.081845828999576,3.3,2.0775091575091573,0.8783882783882784
4.082075215999794,3.3,2.0775091575091573,0.8783882783882784
4.086746480999864,3.3,2.0775091575091573,0.8783882783882784
4.086968268999044,3.3,2.0775091575091573,0.8783882783882784
4.0938030060005985,3.3,2.0775091575091573,0.8783882783882784
4.097786844999064,3.3,2.0775091575091573,0.8783882783882784
4.101691932999529,2.690769230769231,2.2362637362637363,0.8389010989010988
4.1057080480004515,2.690769230769231,2.2362637362637363,0.8389010989010988
4.110714013000688,2.690769230769231,2.2362637362637363,0.8389010989010988
4.1139786319999985,3.0276190476190474,0.22967032967032966,0.3553846153846154
4.114345033000063,3.0276190476190474,0.22967032967032966,0.3553846153846154
4.11974318799912,3.0276190476190474,0.22967032967032966,0.3553846153846154
4.120732150000549,3.0276190476190474,0.22967032967032966,0.3553846153846154
4.121900699999969,3.0276190476190474,0.22967032967032966,0.3553846153846154
4.122131664000335,3.0276190476190474,0.22967032967032966,0.3553846153846154
4.129127594000238,3.0276190476190474,0.22967032967032966,0.3553846153846154
4.134250436000002,3.0276190476190474,0.22967032967032966,0.3553846153846154
4.139147353000226,2.681098901098901,0.26754578754578756,0.5874725274725274
4.1451622280001175,2.681098901098901,0.26754578754578756,0.5874725274725274
4.149022139999943,2.681098901098901,0.26754578754578756,0.5874725274725274
4.152955572999417,2.681098901098901,0.26754578754578756,0.5874725274725274
4.157225633000053,2.7117216117216114,1.1604395604395605,2.0589743589743588
4.159638557999642,2.7117216117216114,1.1604395604395605,2.0589743589743588
4.165786461999232,2.7117216117216114,1.1604395604395605,2.0589743589743588
4.169664572000329,2.7117216117216114,1.1604395604395605,2.0589743589743588
4.176353355000174,2.7117216117216114,1.1604395604395605,2.0589743589743588
4.179624688998956,3.3,0.9235164835164835,0.6189010989010989
4.181226231999972,2.6488644688644687,0.5778021978021978,1.3087179487179486
4.186486175000027,2.6488644688644687,0.5778021978021978,1.3087179487179486
4.189166165000643,2.6488644688644687,0.5778021978021978,1.3087179487179486
4.193919609999284,2.6488644688644687,0.5778021978021978,1.3087179487179486
4.199686120000479,2.6488644688644687,0.5778021978021978,1.3087179487179486
4.199907455000357,2.6488644688644687,0.5778021978021978,1.3087179487179486
4.204468206000456,2.6488644688644687,0.5778021978021978,1.3087179487179486
4.205445030000192,3.3,0.14586080586080585,0.5455677655677655
4.2063582119990315,3.3,0.14586080586080585,0.5455677655677655
4.207502320999993,3.3,0.14586080586080585,0.5455677655677655
4.207940141999643,3.3,0.14586080586080585,0.5455677655677655
4.21365459899971,3.3,0.14586080586080585,0.5455677655677655
4.213811854999221,2.713333333333333,0.9694505494505494,2.0146520146520146
4.218445796999731,2.713333333333333,0.9694505494505494,2.0146520146520146
4.218682532000457,2.713333333333333,0.9694505494505494,2.0146520146520146
4.22534434499903,2.713333333333333,0.9694505494505494,2.0146520146520146
4.2292784889996256,2.6649816849816848,0.13377289377289378,0.7228571428571429
4.232475536000493,3.3,0.4899633699633699,0.3972893772893773
4.234084727000663,3.3,0.4899633699633699,0.3972893772893773
4.2381464280006185,3.3,0.4899633699633699,0.3972893772893773
4.244824657000208,3.3,0.4899633699633699,0.3972893772893773
4.24814900399906,3.3,0.4899633699633699,0.3972893772893773
4.249138199000299,2.993772893772894,2.1919413919413917,0.6801465201465201
4.249485776999791,2.993772893772894,2.1919413919413917,0.6801465201465201
4.254168501000095,2.993772893772894,2.1919413919413917,0.6801465201465201
4.254408081000292,2.993772893772894,2.1919413919413917,0.6801465201465201
4.26128181400054,2.993772893772894,2.1919413919413917,0.6801465201465201
4.264480432999335,2.993772893772894,2.1919413919413917,0.6801465201465201
4.266097194000395,2.993772893772894,2.1919413919413917,0.6801465201465201
4.269964917999459,2.993772893772894,2.1919413919413917,0.6801465201465201
4.274157120000382,3.183956043956044,0.37150183150183147,0.3578021978021978
4.277609577999101,3.183956043956044,0.37150183150183147,0.3578021978021978
4.277749855998991,3.183956043956044,0.37150183150183147,0.3578021978021978
4.282781889000034,3.183956043956044,0.37150183150183147,0.3578021978021978
4.287612718000673,3.3,0.16117216117216115,0.5133333333333333
4.294168746000651,3.3,0.16117216117216115,0.5133333333333333
4.298119629000212,3.3,0.16117216117216115,0.5133333333333333
4.30253818500023,3.3,0.16117216117216115,0.5133333333333333
4.304104296999867,3.3,0.16117216117216115,0.5133333333333333
4.309616733000439,3.3,0.16117216117216115,0.5133333333333333
4.309868110000025,3.3,0.16117216117216115,0.5133333333333333
4.314574559999528,3.3,0.16117216117216115,0.5133333333333333
4.3148304389997065,2.713333333333333,0.7534798534798535,1.8671794871794871
4.319753247000335,2.713333333333333,0.7534798534798535,1.8671794871794871
4.326392994998969,2.713333333333333,0.7534798534798535,1.8671794871794871
4.329717238999365,2.713333333333333,0.7534798534798535,1.8671794871794871
4.330010248999315,2.713333333333333,0.7534798534798535,1.8671794871794871
4.3346472659995925,2.713333333333333,0.7534798534798535,1.8671794871794871
4.335465885998929,2.713333333333333,0.7534798534798535,1.8671794871794871
4.3369986839989,2.713333333333333,0.7534798534798535,1.8671794871794871
4.345421788999374,2.755238095238095,0.7655677655677655,1.0798534798534798
4.349286712998946,2.755238095238095,0.7655677655677655,1.0798534798534798
4.35426093299975,2.755238095238095,0.7655677655677655,1.0798534798534798
4.359947192999243,2.681098901098901,1.0822710622710623,1.6431501831501831
4.360153874000389,2.681098901098901,1.0822710622710623,1.6431501831501831
4.365019028000461,2.681098901098901,1.0822710622710623,1.6431501831501831
4.369801831999212,2.681098901098901,1.0822710622710623,1.6431501831501831
4.3777051769993705,2.681098901098901,1.0822710622710623,1.6431501831501831
4.382453001000613,2.681098901098901,1.0822710622710623,1.6431501831501831
4.382601022000017,2.681098901098901,1.0822710622710623,1.6431501831501831
4.387822798998968,2.681098901098901,1.0822710622710623,1.6431501831501831
4.39215527899978,2.681098901098901,1.0822710622710623,1.6431501831501831
4.392516510999485,2.681098901098901,1.0822710622710623,1.6431501831501831
4.396431713999846,2.681098901098901,1.0822710622710623,1.6431501831501831
4.400419248000617,2.681098901098901,1.0822710622710623,1.6431501831501831
4.403738556000462,2.681098901098901,1.0822710622710623,1.6431501831501831
4.4040218859991,2.681098901098901,1.0822710622710623,1.6431501831501831
4.413176926000233,2.681098901098901,1.0822710622710623,1.6431501831501831
4.420161920999817,2.681098901098901,1.0822710622710623,1.6431501831501831
4.4265602649993525,2.6706227106227107,0.4198534798534798,1.3224175824175823
4.430494837999504,2.685128205128205,0.13216117216117215,0.527032967032967
4.433981584999856,2.685128205128205,0.13216117216117215,0.527032967032967
4.442163874999096,2.713333333333333,0.4021245421245421,1.0685714285714285
4.445956596999167,2.713333333333333,0.4021245421245421,1.0685714285714285
4.449906641999405,2.713333333333333,0.4021245421245421,1.0685714285714285
4.453843556999345,3.3,0.3424908424908425,0.7059340659340658
4.462874855998962,3.3,0.3424908424908425,0.7059340659340658
4.468991219999225,2.7044688644688644,2.305567765567765,0.8808058608058608
4.473278860999926,2.7044688644688644,2.305567765567765,0.8808058608058608
4.475041710000369,2.7044688644688644,2.305567765567765,0.8808058608058608
4.4769225170002755,2.6673992673992672,0.27076923076923076,0.4794871794871795
4.479373853000652,2.6673992673992672,0.27076923076923076,0.4794871794871795
4.479517200999908,2.6698168498168497,0.6003663003663003,1.290989010989011
4.484199290000106,2.6698168498168497,0.6003663003663003,1.290989010989011
4.484470704999694,2.6698168498168497,0.6003663003663003,1.290989010989011
4.489793546999863,2.6698168498168497,0.6003663003663003,1.290989010989011
4.492141745999106,2.6698168498168497,0.6003663003663003,1.290989010989011
4.492339914000695,2.6698168498168497,0.6003663003663003,1.290989010989011
4.498025359000167,2.6698168498168497,0.6003663003663003,1.290989010989011
4.503559814000255,2.6698168498168497,2.3652014652014652,0.9202930402930403
4.504524050998953,2.6698168498168497,2.3652014652014652,0.9202930402930403
4.505548262999582,2.6698168498168497,2.3652014652014652,0.9202930402930403
4.506461854000008,2.6698168498168497,2.3652014652014652,0.9202930402930403
4.507544206999228,2.6698168498168497,2.3652014652014652,0.9202930402930403
4.507974788999491,2.6698168498168497,2.3652014652014652,0.9202930402930403
4.512664850999499,2.6698168498168497,2.3652014652014652,0.9202930402930403
4.512810709000405,2.6682051282051282,1.0347252747252746,1.514212454212454
4.518647389999387,2.6682051282051282,1.0347252747252746,1.514212454212454
4.518762663999951,0.9243223443223443,0.9227106227106227,0.9758974358974358
4.525884026999847,0.9243223443223443,0.9227106227106227,0.9758974358974358
4.530816071999652,2.6746520146520147,0.12974358974358974,0.9718681318681318
4.534668934000365,2.6746520146520147,0.12974358974358974,0.9718681318681318
4.545029777998934,2.6746520146520147,0.12974358974358974,0.9718681318681318
4.550710681000055,2.6746520146520147,0.12974358974358974,0.9718681318681318
4.5508765390004555,2.6746520146520147,0.12974358974358974,0.9718681318681318
4.5556970670004375,2.6746520146520147,0.12974358974358974,0.9718681318681318
4.563479734999419,2.714139194139194,0.5761904761904761,1.5665934065934064
4.568583607999244,2.6649816849816848,0.2683516483516483,0.9855677655677655
4.574107221998929,2.6649816849816848,0.2683516483516483,0.9855677655677655
4.581071950000478,2.6649816849816848,0.2683516483516483,0.9855677655677655
4.585155790999124,2.6649816849816848,0.2683516483516483,0.9855677655677655
4.588568570999996,2.6649816849816848,0.2683516483516483,0.9855677655677655
4.588977663999685,2.6649816849816848,0.2683516483516483,0.9855677655677655
4.597110352999152,2.6649816849816848,0.2683516483516483,0.9855677655677655
4.602994290000424,2.713333333333333,1.0178021978021978,2.0557509157509157
4.60939037999924,2.713333333333333,1.0178021978021978,2.0557509157509157
4.613375124999948,3.3,0.6108424908424909,0.419047619047619
4.616387984000539,2.714945054945055,0.4625641025641025,1.2547252747252746
4.6198927290006395,2.714945054945055,0.4625641025641025,1.2547252747252746
4.631725802999426,2.714945054945055,0.4625641025641025,1.2547252747252746
4.63907556400045,2.66014652014652,0.24578754578754577,0.9702564102564102
4.645661644999564,2.66014652014652,0.24578754578754577,0.9702564102564102
4.65015513400067,2.685934065934066,0.1402197802197802,0.9960439560439559
4.650472989000264,2.685934065934066,0.1402197802197802,0.9960439560439559
4.659153942000557,2.685934065934066,0.1402197802197802,0.9960439560439559
4.6659280419989955,2.685934065934066,0.1402197802197802,0.9960439560439559
4.669904905998919,2.685934065934066,0.1402197802197802,0.9960439560439559
4.675858624999819,2.7117216117216114,0.1772893772893773,0.28285714285714286
4.683452209999814,2.7117216117216114,0.1772893772893773,0.28285714285714286
4.688849484999082,2.7117216117216114,0.1772893772893773,0.28285714285714286
4.691020266000123,2.7117216117216114,0.1772893772893773,0.28285714285714286
4.691326386999208,2.7117216117216114,0.1772893772893773,0.28285714285714286
4.6987278559990955,2.7117216117216114,0.1772893772893773,0.28285714285714286
4.702596830000402,2.7117216117216114,0.1772893772893773,0.28285714285714286
4.711396425000203,2.6665934065934067,0.15069597069597068,0.8824175824175824
4.714707414999793,2.6665934065934067,0.15069597069597068,0.8824175824175824
4.715618930000346,3.3,1.0242490842490841,0.6301831501831501
4.716546489000393,3.3,1.0242490842490841,0.6301831501831501
4.71824444000049,3.3,1.0242490842490841,0.6301831501831501
4.72167936599908,3.3,1.0242490842490841,0.6301831501831501
4.72190130799936,2.655311355311355,0.23531135531135527,0.7704029304029304
4.729406143000233,2.655311355311355,0.23531135531135527,0.7704029304029304
4.734018732999175,2.655311355311355,0.23531135531135527,0.7704029304029304
4.734345282999129,2.655311355311355,0.23531135531135527,0.7704029304029304
4.7407191500005865,2.655311355311355,0.23531135531135527,0.7704029304029304
4.74520724300055,2.655311355311355,0.23531135531135527,0.7704029304029304
4.745448089999627,2.655311355311355,0.23531135531135527,0.7704029304029304
4.75089124599981,2.655311355311355,0.23531135531135527,0.7704029304029304
4.751835659999415,2.655311355311355,0.23531135531135527,0.7704029304029304
4.752714210000704,2.655311355311355,0.23531135531135527,0.7704029304029304
4.754310341999371,2.655311355311355,0.23531135531135527,0.7704029304029304
4.760231313999611,2.655311355311355,0.23531135531135527,0.7704029304029304
4.7658588260001125,2.714945054945055,0.33926739926739924,1.514212454212454
4.766034717000366,2.714945054945055,0.33926739926739924,1.514212454212454
4.770689564998975,2.714945054945055,0.33926739926739924,1.514212454212454
4.771935885999483,2.714945054945055,0.33926739926739924,1.514212454212454
4.772188181999809,2.714945054945055,0.33926739926739924,1.514212454212454
4.779839966999134,2.714945054945055,0.33926739926739924,1.514212454212454
4.784495689998948,3.3,1.510989010989011,0.8703296703296703
4.784661965999476,3.3,1.510989010989011,0.8703296703296703
4.790088685000228,3.3,1.510989010989011,0.8703296703296703
4.795039115999316,3.1581684981684983,0.26996336996336995,0.38681318681318677
4.797564496999257,2.7455677655677655,0.4585347985347985,1.2595604395604394
4.806698938000409,2.7455677655677655,0.4585347985347985,1.2595604395604394
4.812508123999578,2.7455677655677655,0.4585347985347985,1.2595604395604394
4.817845681000108,2.7455677655677655,0.4585347985347985,1.2595604395604394
4.820151689998966,2.71010989010989,0.3972893772893773,0.9968498168498168
4.820434293998915,2.71010989010989,0.3972893772893773,0.9968498168498168
4.825881351000135,2.71010989010989,0.3972893772893773,0.9968498168498168
4.828335464999327,2.6536996336996337,2.3587545787545787,0.7284981684981684
4.837286910998955,2.6536996336996337,2.3587545787545787,0.7284981684981684
4.845650844999909,2.6536996336996337,2.3587545787545787,0.7284981684981684
4.852899954999884,2.6536996336996337,2.3587545787545787,0.7284981684981684
4.859975428000325,2.6536996336996337,2.3587545787545787,0.7284981684981684
4.863947780999297,0.5761904761904761,0.9162637362637363,0.8477655677655677
4.86790393299998,2.6746520146520147,0.15794871794871795,0.7671794871794871
4.873679877999166,2.731062271062271,0.796996336996337,0.3739194139194139
4.873804897999435,2.731062271062271,0.796996336996337,0.3739194139194139
4.879505822000283,2.731062271062271,0.796996336996337,0.3739194139194139
4.879696484998931,2.731062271062271,0.796996336996337,0.3739194139194139
4.8850305050000316,2.731062271062271,0.796996336996337,0.3739194139194139
4.887724905000141,2.6762637362637363,1.5786813186813187,0.8687179487179487
4.893106741999873,2.6762637362637363,1.5786813186813187,0.8687179487179487
4.8940227839993895,2.6762637362637363,1.5786813186813187,0.8687179487179487
4.894938805000493,2.6762637362637363,1.5786813186813187,0.8687179487179487
4.896545944000536,2.6762637362637363,1.5786813186813187,0.8687179487179487
4.900440778999837,2.6762637362637363,1.5786813186813187,0.8687179487179487
4.906452372999411,2.6762637362637363,1.5786813186813187,0.8687179487179487
4.91307254899948,2.6762637362637363,1.5786813186813187,0.8687179487179487
4.917756135000673,2.6762637362637363,1.5786813186813187,0.8687179487179487
4.929529842000193,2.6617582417582417,0.5334798534798535,1.373992673992674
4.938319340999442,2.6617582417582417,0.5334798534798535,1.373992673992674
4.944827658999202,2.6617582417582417,0.5334798534798535,1.373992673992674
4.948913259000619,2.6617582417582417,0.5334798534798535,1.373992673992674
4.952141626999946,2.6617582417582417,0.5334798534798535,1.373992673992674
4.953132919999916,2.6617582417582417,0.5334798534798535,1.373992673992674
4.954084364000664,2.6617582417582417,0.5334798534798535,1.373992673992674
4.955037274999995,2.6617582417582417,0.5334798534798535,1.373992673992674
4.956474693999553,2.6617582417582417,0.5334798534798535,1.373992673992674
4.965442292999796,2.6617582417582417,0.5334798534798535,1.373992673992674
4.97157811499892,2.6665934065934067,0.2063003663003663,0.7188278388278388
4.980017260999375,2.6665934065934067,0.2063003663003663,0.7188278388278388
4.987082792000365,3.05985347985348,1.4344322344322344,0.9356043956043956
4.994185126999582,3.05985347985348,1.4344322344322344,0.9356043956043956
4.998687377999886,3.05985347985348,1.4344322344322344,0.9356043956043956
4.9989648400005535,1.975164835164835,0.8058608058608058,1.066959706959707
5.008555771999454,1.975164835164835,0.8058608058608058,1.066959706959707
5.0174265730001935,2.6448351648351647,0.195018315018315,0.3021978021978022
5.027190941000299,2.6448351648351647,0.195018315018315,0.3021978021978022
5.037682292000682,2.6448351648351647,0.195018315018315,0.3021978021978022
5.049133327000163,2.795531135531135,0.2232234432234432,0.31509157509157504
5.060760106000089,2.795531135531135,0.2232234432234432,0.31509157509157504
5.069751885999722,2.795531135531135,0.2232234432234432,0.31509157509157504
5.077727421999953,3.112234432234432,0.24578754578754577,0.3618315018315018
5.083289492000404,3.112234432234432,0.24578754578754577,0.3618315018315018
5.083527466000305,3.112234432234432,0.24578754578754577,0.3618315018315018
5.089048493999144,3.112234432234432,0.24578754578754577,0.3618315018315018
5.090792282000621,3.112234432234432,0.24578754578754577,0.3618315018315018
5.094216401999802,2.8068131868131867,0.17003663003663003,0.26996336996336995
5.094406391999655,2.8068131868131867,0.17003663003663003,0.26996336996336995
5.101361785000336,2.8068131868131867,0.17003663003663003,0.26996336996336995
5.1050142780004535,2.8068131868131867,0.17003663003663003,0.26996336996336995
5.105172989999119,2.8068131868131867,0.17003663003663003,0.26996336996336995
5.111303628000314,2.8068131868131867,0.17003663003663003,0.26996336996336995
5.116384681999989,3.008278388278388,0.826007326007326,1.1096703296703296
5.118779717999132,3.008278388278388,0.826007326007326,1.1096703296703296
5.12769662699975,2.713333333333333,0.4174358974358974,1.4610256410256408
5.1332934080001,2.713333333333333,0.4174358974358974,1.4610256410256408
5.135825793000549,2.713333333333333,0.4174358974358974,1.4610256410256408
5.142422843999157,2.713333333333333,0.4174358974358974,1.4610256410256408
5.1460664909991465,2.6633699633699632,0.5262271062271061,1.3345054945054944
5.151960701999997,2.6633699633699632,0.5262271062271061,1.3345054945054944
5.158792136999182,2.6633699633699632,0.5262271062271061,1.3345054945054944
5.1644227859997045,2.6633699633699632,0.5262271062271061,1.3345054945054944
5.164612435999516,2.6569230769230767,0.10395604395604395,0.6350183150183151
5.171882384000128,2.6569230769230767,0.10395604395604395,0.6350183150183151
5.177310499000669,2.6569230769230767,0.10395604395604395,0.6350183150183151
5.17857789700065,2.7117216117216114,0.32556776556776557,0.8292307692307692
5.186397412999213,2.6738461538461538,0.40776556776556777,1.278901098901099
5.191802772000301,2.6738461538461538,0.40776556776556777,1.278901098901099
5.192142673999115,2.6738461538461538,0.40776556776556777,1.278901098901099
5.200285721999535,2.6738461538461538,0.40776556776556777,1.278901098901099
5.205950917999871,2.7423443223443225,0.6108424908424909,1.248278388278388
5.216025232999527,2.655311355311355,0.1386080586080586,0.6092307692307692
5.224623062000319,2.655311355311355,0.1386080586080586,0.6092307692307692
5.231605978000516,2.655311355311355,0.1386080586080586,0.6092307692307692
5.237375094999152,2.843882783882784,0.16197802197802197,0.3578021978021978
5.2442641199995705,2.843882783882784,0.16197802197802197,0.3578021978021978
5.249037498999314,2.843882783882784,0.16197802197802197,0.3578021978021978
5.249162146999879,3.3,0.5399267399267399,0.39890109890109887
5.254908478998914,3.3,0.5399267399267399,0.39890109890109887
5.262181469999632,2.7415384615384615,0.8437362637362636,1.9010256410256408
5.267986426999414,2.7415384615384615,0.8437362637362636,1.9010256410256408
5.27287281200006,2.7415384615384615,0.8437362637362636,1.9010256410256408
5.279341786999794,2.7415384615384615,0.8437362637362636,1.9010256410256408
5.284163582999099,2.7415384615384615,0.8437362637362636,1.9010256410256408
5.287541403000432,2.7415384615384615,0.8437362637362636,1.9010256410256408
5.2884321519995865,2.7415384615384615,0.8437362637362636,1.9010256410256408
5.290173486999265,2.7415384615384615,0.8437362637362636,1.9010256410256408
5.293010901999878,2.7415384615384615,0.8437362637362636,1.9010256410256408
5.296295864000058,2.7415384615384615,0.8437362637362636,1.9010256410256408
5.297206818000632,2.6536996336996337,2.3168498168498166,0.8783882783882784
5.299075246999564,2.6536996336996337,2.3168498168498166,0.8783882783882784
5.3007605980001244,2.6536996336996337,2.3168498168498166,0.8783882783882784
5.304717191000236,2.6536996336996337,2.3168498168498166,0.8783882783882784
5.309213156999249,2.6536996336996337,2.3168498168498166,0.8783882783882784
5.309691508000469,3.3,0.423076923076923,0.36827838827838827
5.316783467998903,3.3,0.423076923076923,0.36827838827838827
5.322839663000195,3.3,0.423076923076923,0.36827838827838827
5.328661330999239,3.3,0.423076923076923,0.36827838827838827
5.335815976999584,3.3,0.423076923076923,0.36827838827838827
5.339956572999654,3.3,0.423076923076923,0.36827838827838827
5.341599528999723,3.3,0.423076923076923,0.36827838827838827
5.345519955999407,3.3,0.423076923076923,0.36827838827838827
5.350105077999615,3.3,0.423076923076923,0.36827838827838827
5.350402150999798,3.3,0.423076923076923,0.36827838827838827
5.356584310000471,2.6682051282051282,1.0887179487179486,1.6262271062271063
5.362104334999458,2.6682051282051282,1.0887179487179486,1.6262271062271063
5.372864634999132,2.6682051282051282,1.0887179487179486,1.6262271062271063
5.382365954999841,2.6682051282051282,1.0887179487179486,1.6262271062271063
5.388704119999602,2.6682051282051282,1.0887179487179486,1.6262271062271063
5.395460933999857,2.6682051282051282,1.0887179487179486,1.6262271062271063
5.398750104999635,2.6682051282051282,1.0887179487179486,1.6262271062271063
5.399568992999775,2.6682051282051282,0.5302564102564102,1.39010989010989
5.401640222999049,2.6682051282051282,0.5302564102564102,1.39010989010989
5.4029602039991005,2.6682051282051282,0.5302564102564102,1.39010989010989
5.413298080999084,2.6682051282051282,0.5302564102564102,1.39010989010989
5.422453969998969,2.6682051282051282,0.5302564102564102,1.39010989010989
5.429301750999002,2.6682051282051282,0.5632967032967032,1.2861538461538462
5.434041578000688,3.3,0.21677655677655677,0.4827106227106227
5.444610997999916,2.743956043956044,0.3545787545787546,0.8904761904761904
5.449523970999508,2.743956043956044,0.3545787545787546,0.8904761904761904
5.454693518999193,2.743956043956044,0.3545787545787546,0.8904761904761904
5.459381250999286,2.743956043956044,0.3545787545787546,0.8904761904761904
5.464261103999888,2.743956043956044,0.3545787545787546,0.8904761904761904
5.469095804999597,2.743956043956044,0.3545787545787546,0.8904761904761904
5.4759728539993375,2.743956043956044,0.3545787545787546,0.8904761904761904
5.479405672000212,2.743956043956044,0.3545787545787546,0.8904761904761904
5.47965924699929,2.743956043956044,0.3545787545787546,0.8904761904761904
5.484377299000698,2.743956043956044,0.3545787545787546,0.8904761904761904
5.484480797000288,3.3,0.1523076923076923,0.4166300366300366
5.491910390999692,3.3,0.1523076923076923,0.4166300366300366
5.497513051999704,3.3,0.7534798534798535,0.4520879120879121
5.503836375999526,3.3,0.7534798534798535,0.4520879120879121
5.511543356000402,3.3,0.7534798534798535,0.4520879120879121
5.5172088839990465,3.3,0.7534798534798535,0.4520879120879121
5.528232246000698,3.3,0.7534798534798535,0.4520879120879121
5.5331618990003335,3.3,0.7534798534798535,0.4520879120879121
5.53765743599979,2.6706227106227107,1.1475457875457875,1.6931135531135528
5.53801784999996,2.6706227106227107,1.1475457875457875,1.6931135531135528
5.544730342000548,2.6706227106227107,1.1475457875457875,1.6931135531135528
5.548170310999922,2.6706227106227107,1.1475457875457875,1.6931135531135528
5.548444116999235,2.6706227106227107,1.1475457875457875,1.6931135531135528
5.553287757000362,2.6706227106227107,1.1475457875457875,1.6931135531135528
5.560131277999972,2.6706227106227107,1.1475457875457875,1.6931135531135528
5.564262833999237,2.6706227106227107,1.1475457875457875,1.6931135531135528
5.567369370999586,2.6706227106227107,1.1475457875457875,1.6931135531135528
5.5696804849994805,3.3,0.5004395604395604,0.42710622710622714
5.569800216000658,3.3,0.5004395604395604,0.42710622710622714
5.57661736099908,3.3,0.5004395604395604,0.42710622710622714
5.580582594000589,3.1170695970695967,0.7478388278388278,1.1467399267399265
5.58527904499897,3.1170695970695967,0.7478388278388278,1.1467399267399265
5.592425660999652,3.1170695970695967,0.7478388278388278,1.1467399267399265
5.596696652999526,3.1170695970695967,0.7478388278388278,1.1467399267399265
5.597542961999352,3.1170695970695967,0.7478388278388278,1.1467399267399265
5.599249308999788,3.1170695970695967,0.7478388278388278,1.1467399267399265
5.60241150299953,3.1170695970695967,0.7478388278388278,1.1467399267399265
5.604981930999202,2.698827838827839,0.26593406593406593,1.2353846153846153
5.613980230999005,3.3,0.17084249084249084,0.49721611721611714
5.619507000999874,3.3,0.17084249084249084,0.49721611721611714
5.621360582999841,3.3,0.17084249084249084,0.49721611721611714
5.625785267999163,3.3,0.17084249084249084,0.49721611721611714
5.625913023999601,3.3,0.17084249084249084,0.49721611721611714
5.630607561999568,3.3,0.17084249084249084,0.49721611721611714
5.630884140000489,2.5513553113553114,0.1789010989010989,0.24095238095238095
5.63558468500014,2.6746520146520147,1.1596336996336996,1.6367032967032966
5.635765692999485,2.6746520146520147,1.1596336996336996,1.6367032967032966
5.642663521999566,2.652087912087912,2.0847619047619044,0.9122344322344322
5.646415158000309,2.652087912087912,2.0847619047619044,0.9122344322344322
5.651024172000689,2.652087912087912,2.0847619047619044,0.9122344322344322
5.651165245999437,2.652087912087912,2.0847619047619044,0.9122344322344322
5.656987623999157,2.652087912087912,2.0847619047619044,0.9122344322344322
5.657113602999743,2.652087912087912,2.0847619047619044,0.9122344322344322
5.665319715999431,2.652087912087912,2.0847619047619044,0.9122344322344322
5.6700774429991725,2.652087912087912,2.0847619047619044,0.9122344322344322
5.677838375000647,2.652087912087912,2.0847619047619044,0.9122344322344322
5.682919202999983,2.652087912087912,2.0847619047619044,0.9122344322344322
5.686730601999443,2.652087912087912,2.0847619047619044,0.9122344322344322
5.694379390999529,2.652087912087912,2.0847619047619044,0.9122344322344322
5.697613418000401,2.652087912087912,2.0847619047619044,0.9122344322344322
5.698656996999489,1.7205128205128206,1.0065201465201465,0.664029304029304
5.699637581999923,1.7205128205128206,1.0065201465201465,0.664029304029304
5.70046334700055,1.7205128205128206,1.0065201465201465,0.664029304029304
5.703201967999121,1.7205128205128206,1.0065201465201465,0.664029304029304
5.707658994000667,1.7205128205128206,1.0065201465201465,0.664029304029304
5.708003595000264,1.7205128205128206,1.0065201465201465,0.664029304029304
5.7132293800004845,1.7205128205128206,1.0065201465201465,0.664029304029304
5.715788102999795,3.145274725274725,0.2087179487179487,0.381978021978022
5.721797124999284,3.145274725274725,0.2087179487179487,0.381978021978022
5.7342949339999905,3.145274725274725,0.2087179487179487,0.381978021978022
5.734562067998922,3.3,0.7841025641025641,0.4464468864468864
5.743927739000355,3.3,0.7841025641025641,0.4464468864468864
5.750872328000696,3.3,0.6817582417582417,1.1636630036630036
5.7554507900003955,3.2387545787545786,0.3545787545787546,0.3972893772893773
5.755879156999072,3.2387545787545786,0.3545787545787546,0.3972893772893773
5.760923305999313,3.2387545787545786,0.3545787545787546,0.3972893772893773
5.763318278999577,3.3,0.6535531135531135,1.2047619047619047
5.763428124000711,3.3,0.6535531135531135,1.2047619047619047
5.768274332000146,3.3,0.6535531135531135,1.2047619047619047
5.777515616000528,3.3,0.6535531135531135,1.2047619047619047
5.783676659999401,3.3,0.6535531135531135,1.2047619047619047
5.788501279999764,3.3,0.6535531135531135,1.2047619047619047
5.797402181000507,3.3,0.6535531135531135,1.2047619047619047
5.806280045000676,3.3,0.6535531135531135,1.2047619047619047
5.811908036999739,3.3,0.6535531135531135,1.2047619047619047
5.812037605999649,2.4586813186813186,0.15472527472527473,0.26109890109890105
5.816827335000198,2.4586813186813186,0.15472527472527473,0.26109890109890105
5.817003825999564,2.66014652014652,0.30058608058608055,0.4448351648351648
5.824082400999032,2.66014652014652,0.30058608058608055,0.4448351648351648
5.829091043999142,2.66014652014652,0.30058608058608055,0.4448351648351648
5.832291479999185,2.66014652014652,0.30058608058608055,0.4448351648351648
5.833189740000307,2.66014652014652,0.30058608058608055,0.4448351648351648
5.834121383999445,2.66014652014652,0.30058608058608055,0.4448351648351648
5.835695690999273,2.66014652014652,0.30058608058608055,0.4448351648351648
5.844803817999491,2.66014652014652,0.30058608058608055,0.4448351648351648
5.851081101000091,2.66014652014652,0.30058608058608055,0.4448351648351648
5.8575555970001005,2.66014652014652,0.30058608058608055,0.4448351648351648
5.86189936700066,2.66014652014652,0.30058608058608055,0.4448351648351648
5.862187020999045,2.66014652014652,0.30058608058608055,0.4448351648351648
5.867932799999835,2.66014652014652,0.30058608058608055,0.4448351648351648
5.868169637999017,2.648058608058608,2.1274725274725275,0.6898168498168498
5.8748913099989295,2.648058608058608,2.1274725274725275,0.6898168498168498
5.879562050000459,2.7117216117216114,1.1523809523809523,2.05010989010989
5.884417840999959,2.713333333333333,0.2683516483516483,1.552087912087912
5.889995793000708,2.6682051282051282,0.1797069597069597,1.0137728937728938
5.890268705999915,2.386153846153846,0.13377289377289378,0.2747985347985348
5.896364389000155,2.386153846153846,0.13377289377289378,0.2747985347985348
5.90094284999941,2.386153846153846,0.13377289377289378,0.2747985347985348
5.901102132000233,2.7423443223443225,0.3223443223443223,1.353040293040293
5.907424855999125,2.7423443223443225,0.3223443223443223,1.353040293040293
5.9113120490001165,3.3,0.48835164835164835,0.4488644688644688
5.9152795459995104,3.3,0.48835164835164835,0.4488644688644688
5.918616988999929,3.3,0.48835164835164835,0.4488644688644688
5.919524662000185,3.3,0.48835164835164835,0.4488644688644688
5.921158728999217,3.3,0.48835164835164835,0.4488644688644688
5.928417565999553,3.3,0.48835164835164835,0.4488644688644688
5.932217543999286,3.3,0.48835164835164835,0.4488644688644688
5.936827227000322,3.3,0.48835164835164835,0.4488644688644688
5.9371233910005685,2.7165567765567764,0.45692307692307693,1.3063003663003663
5.9443035980002605,2.7165567765567764,0.45692307692307693,1.3063003663003663
5.949034586999915,2.7165567765567764,0.45692307692307693,1.3063003663003663
5.953658581000127,2.7165567765567764,0.45692307692307693,1.3063003663003663
5.953959970000142,2.7165567765567764,0.45692307692307693,1.3063003663003663
5.960654259999501,2.7165567765567764,0.45692307692307693,1.3063003663003663
5.96382308200009,2.6665934065934067,0.2643223443223443,0.9154578754578755
5.965768082000068,2.6665934065934067,0.2643223443223443,0.9154578754578755
5.967461116999402,2.6665934065934067,0.2643223443223443,0.9154578754578755
5.972351549999075,2.6665934065934067,0.2643223443223443,0.9154578754578755
5.978178438999748,2.6698168498168497,0.1555311355311355,0.29816849816849816
5.982117026000196,2.6698168498168497,0.1555311355311355,0.29816849816849816
5.9860409110006,2.673040293040293,0.12249084249084248,0.9227106227106227
5.993026578998979,2.673040293040293,0.12249084249084248,0.9227106227106227
5.998441984000237,2.8825641025641024,0.18937728937728937,0.31750915750915754
5.998842451999735,2.8825641025641024,0.18937728937728937,0.31750915750915754
6.0074270789991715,2.681098901098901,0.39487179487179486,1.4344322344322344
6.014650705999884,3.3,0.6205128205128204,0.7397802197802198
6.022784386999774,3.3,0.6205128205128204,0.7397802197802198
6.029587172999527,2.664175824175824,0.2957509157509157,0.971062271062271
6.03399987299963,2.664175824175824,0.2957509157509157,0.971062271062271
6.034267897999598,2.664175824175824,0.2957509157509157,0.971062271062271
6.041252970999267,2.664175824175824,0.2957509157509157,0.971062271062271
6.047535675999825,2.664175824175824,0.2957509157509157,0.971062271062271
6.05084185799933,2.652087912087912,1.5117948717948717,0.8880586080586079
6.0512281020000955,2.652087912087912,1.5117948717948717,0.8880586080586079
6.058053773000211,2.652087912087912,1.5117948717948717,0.8880586080586079
6.063241173000279,2.652087912087912,1.5117948717948717,0.8880586080586079
6.064860877000683,2.673040293040293,0.14666666666666667,0.73010989010989
6.068893976000254,2.673040293040293,0.14666666666666667,0.73010989010989
6.075040285999421,3.106593406593406,0.2208058608058608,0.3755311355311355
6.0810249089990975,2.7165567765567764,0.8622710622710623,1.2216849816849817
6.08518333199936,2.714945054945055,0.3964835164835165,1.2378021978021978
6.086861584999497,2.714945054945055,0.3964835164835165,1.2378021978021978
6.093089853000492,2.714945054945055,0.3964835164835165,1.2378021978021978
6.096495466999841,2.714945054945055,0.3964835164835165,1.2378021978021978
6.096752719000506,2.714945054945055,0.3964835164835165,1.2378021978021978
6.101404242999706,2.714945054945055,0.3964835164835165,1.2378021978021978
6.101676991000204,2.714945054945055,0.3964835164835165,1.2378021978021978
6.107343382000181,2.714945054945055,0.3964835164835165,1.2378021978021978
6.109478787000626,2.714945054945055,0.3964835164835165,1.2378021978021978
6.109744675999536,2.714945054945055,0.3964835164835165,1.2378021978021978
6.118123751999519,2.714945054945055,0.3964835164835165,1.2378021978021978
6.126163941999039,2.714945054945055,0.3964835164835165,1.2378021978021978
6.12973911500012,2.6617582417582417,0.13216117216117215,0.8252014652014652
6.129905093999696,2.6617582417582417,0.13216117216117215,0.8252014652014652
6.134662562999438,2.6617582417582417,0.13216117216117215,0.8252014652014652
6.134841831999438,2.6617582417582417,0.13216117216117215,0.8252014652014652
6.140412296999784,2.6617582417582417,0.13216117216117215,0.8252014652014652
6.140740029999506,2.6746520146520147,0.3263736263736263,1.1902564102564102
6.147146108000015,2.6746520146520147,0.3263736263736263,1.1902564102564102
6.151437212000019,2.6746520146520147,0.3263736263736263,1.1902564102564102
6.1543213080003625,2.6746520146520147,0.3263736263736263,1.1902564102564102
6.158739170999979,2.6746520146520147,0.3263736263736263,1.1902564102564102
6.159108333999029,2.6746520146520147,0.3263736263736263,1.1902564102564102
6.164371831000608,2.6746520146520147,0.3263736263736263,1.1902564102564102
6.167590684999595,2.6746520146520147,0.3263736263736263,1.1902564102564102
6.168576530999417,2.6746520146520147,0.3263736263736263,1.1902564102564102
6.169478765999884,2.6746520146520147,0.3263736263736263,1.1902564102564102
6.171137045999785,2.6746520146520147,0.3263736263736263,1.1902564102564102
6.175711546999082,2.709304029304029,1.2039560439560437,1.775311355311355
6.175826999000492,2.709304029304029,1.2039560439560437,1.775311355311355
6.1805005129990604,2.709304029304029,1.2039560439560437,1.775311355311355
6.180672627000604,2.709304029304029,1.2039560439560437,1.775311355311355
6.185301620000246,2.709304029304029,1.2039560439560437,1.775311355311355
6.185618370000157,2.709304029304029,1.2039560439560437,1.775311355311355
6.190241263000644,2.709304029304029,1.2039560439560437,1.775311355311355
6.1904641239998455,2.709304029304029,1.2039560439560437,1.775311355311355
6.195089827999254,2.709304029304029,1.2039560439560437,1.775311355311355
6.1952787850004825,2.709304029304029,1.2039560439560437,1.775311355311355
6.201334336999935,2.710915750915751,2.1548717948717946,0.8663003663003663
6.201509393000379,2.710915750915751,2.1548717948717946,0.8663003663003663
6.205661673000577,2.710915750915751,2.1548717948717946,0.8663003663003663
6.207324929999231,2.710915750915751,2.1548717948717946,0.8663003663003663
6.211224710999886,2.710915750915751,2.1548717948717946,0.8663003663003663
6.215078653000091,2.710915750915751,2.1548717948717946,0.8663003663003663
6.219511647999752,2.710915750915751,2.1548717948717946,0.8663003663003663
6.2203441740002745,2.710915750915751,2.1548717948717946,0.8663003663003663
6.22262336499989,2.710915750915751,2.1548717948717946,0.8663003663003663
6.2229029560003255,2.710915750915751,2.1548717948717946,0.8663003663003663
6.227927649999401,2.710915750915751,2.1548717948717946,0.8663003663003663
6.233563495999988,3.3,0.17487179487179486,0.5157509157509157
6.234457337999629,3.3,0.17487179487179486,0.5157509157509157
6.235603484999956,3.3,0.17487179487179486,0.5157509157509157
6.235982078000234,3.3,0.17487179487179486,0.5157509157509157
6.242518941000526,3.3,0.17487179487179486,0.5157509157509157
6.246735209999315,3.3,0.17487179487179486,0.5157509157509157
6.2490952499993,2.66014652014652,0.14666666666666667,0.6334065934065934
6.2492612169990025,2.66014652014652,0.14666666666666667,0.6334065934065934
6.2556341199997405,2.66014652014652,0.14666666666666667,0.6334065934065934
6.260025644000052,3.021172161172161,0.11604395604395604,0.2804395604395604
6.260371013000622,3.021172161172161,0.11604395604395604,0.2804395604395604
