time,emg1,emg2,emg3
0.003213083000446204,2.706886446886447,0.4891575091575091,1.1483516483516483
0.009968403001039405,2.706886446886447,0.4891575091575091,1.1483516483516483
0.03155238700128393,2.706886446886447,0.4891575091575091,1.1483516483516483
0.04733707200102799,2.706886446886447,0.4891575091575091,1.1483516483516483
0.05822013800025161,2.706886446886447,0.4891575091575091,1.1483516483516483
0.06378042800133699,1.315970695970696,0.06608058608058608,0.11362637362637362
0.0647947320012463,1.315970695970696,0.06608058608058608,0.11362637362637362
0.06578919300045527,1.315970695970696,0.06608058608058608,0.11362637362637362
0.06606162400021276,1.315970695970696,0.06608058608058608,0.11362637362637362
0.07259471300130826,1.315970695970696,0.06608058608058608,0.11362637362637362
0.07704102500065346,1.315970695970696,0.06608058608058608,0.11362637362637362
0.07801832699988154,1.315970695970696,0.06608058608058608,0.11362637362637362
0.07898601200031408,1.315970695970696,0.06608058608058608,0.11362637362637362
0.07999493600073038,1.315970695970696,0.06608058608058608,0.11362637362637362
0.08101235200047086,1.315970695970696,0.06608058608058608,0.11362637362637362
0.0820360530015023,1.315970695970696,0.06608058608058608,0.11362637362637362
0.08300190699992527,1.315970695970696,0.06608058608058608,0.11362637362637362
0.08398851899983129,1.315970695970696,0.06608058608058608,0.11362637362637362
0.08499261100041622,3.287106227106227,0.20307692307692307,0.5044688644688645
0.08597185700091359,3.287106227106227,0.20307692307692307,0.5044688644688645
0.08697810600097,3.287106227106227,0.20307692307692307,0.5044688644688645
0.08728839700052049,3.287106227106227,0.20307692307692307,0.5044688644688645
0.09334579300048063,3.287106227106227,0.20307692307692307,0.5044688644688645
0.10383868900134985,3.287106227106227,0.20307692307692307,0.5044688644688645
0.11285213600058341,3.3,1.3191941391941393,0.8106959706959707
0.12068510700009938,3.3,1.3191941391941393,0.8106959706959707
0.12731104400154436,3.3,1.2273260073260073,0.83003663003663
0.13207977999991272,2.4586813186813186,0.2063003663003663,0.45369963369963373
0.13989241700073762,1.5536996336996336,0.21435897435897436,0.0838095238095238
0.14967802499995742,1.5536996336996336,0.21435897435897436,0.0838095238095238
0.15802589300074033,1.5536996336996336,0.21435897435897436,0.0838095238095238
0.16531687499991676,3.3,0.1772893772893773,0.4424175824175824
0.17307744800018554,3.3,0.1772893772893773,0.4424175824175824
0.17926490100035153,3.3,0.1772893772893773,0.4424175824175824
0.1851333419999719,3.3,0.1772893772893773,0.4424175824175824
0.1922714590000396,3.3,0.1772893772893773,0.4424175824175824
0.19875793000028352,1.8526739926739926,0.17809523809523808,0.1942124542124542
0.20358954699986498,3.3,0.09509157509157509,0.166007326007326
0.2131667390003713,3.3,0.09509157509157509,0.166007326007326
0.22364744400147174,2.137948717948718,0.0838095238095238,0.26593406593406593
0.23382097500143573,2.137948717948718,0.0838095238095238,0.26593406593406593
0.2441109570008848,2.137948717948718,0.0838095238095238,0.26593406593406593
0.2536340470014693,1.8365567765567765,0.49560439560439556,0.734139194139194
0.2632377270001598,2.3458608058608057,0.5826373626373627,0.47062271062271055
0.27302948299984564,2.3458608058608057,0.5826373626373627,0.47062271062271055
0.28016179200130864,2.3458608058608057,0.5826373626373627,0.47062271062271055
0.2877988569998706,2.3458608058608057,0.5826373626373627,0.47062271062271055
0.2924988869999652,3.3,0.1789010989010989,0.49721611721611714
0.3017503629998828,3.3,0.1789010989010989,0.49721611721611714
0.3107679360000475,3.3,1.436043956043956,0.8534065934065934
0.319617447001292,2.1806593406593406,0.13941391941391942,0.2635164835164835
0.32492403400101466,2.1806593406593406,0.13941391941391942,0.2635164835164835
0.3259976790013752,2.1806593406593406,0.13941391941391942,0.2635164835164835
0.3262230170003022,2.1806593406593406,0.13941391941391942,0.2635164835164835
0.33123956300005375,2.1806593406593406,0.13941391941391942,0.2635164835164835
0.3359804970004916,1.5827106227106227,0.08058608058608058,0.11604395604395604
0.33636153000043123,1.5827106227106227,0.08058608058608058,0.11604395604395604
0.34078461100034474,1.5827106227106227,0.08058608058608058,0.11604395604395604
0.34100872199996957,1.5827106227106227,0.08058608058608058,0.11604395604395604
0.3461378190004325,1.5827106227106227,0.08058608058608058,0.11604395604395604
0.3503807980014244,1.5827106227106227,0.08058608058608058,0.11604395604395604
0.35230497300108254,1.5827106227106227,0.08058608058608058,0.11604395604395604
0.3558179450010357,1.5827106227106227,0.08058608058608058,0.11604395604395604
0.3624876520007092,2.655311355311355,0.4754578754578754,1.0395604395604394
0.3669571480004379,1.5496703296703296,0.5794139194139193,0.7107692307692308
0.36721013600072183,2.7745787545787546,0.1418315018315018,0.361025641025641
0.3769101080015389,2.7745787545787546,0.1418315018315018,0.361025641025641
0.38462920600068173,2.652087912087912,0.6688644688644688,1.157216117216117
0.392132147000666,2.652087912087912,0.6688644688644688,1.157216117216117
0.39782167300108995,1.763223443223443,0.13216117216117215,0.08864468864468865
0.4069693550009106,1.763223443223443,0.13216117216117215,0.08864468864468865
0.41381438600001275,1.763223443223443,0.13216117216117215,0.08864468864468865
0.4196411570010241,1.763223443223443,0.13216117216117215,0.08864468864468865
0.42984073900152,0.14747252747252745,0.5971428571428571,0.6479120879120879
0.43708669600164285,2.2967032967032965,0.32798534798534795,0.23531135531135527
0.44322491200000513,2.2967032967032965,0.32798534798534795,0.23531135531135527
0.447221331000037,0.8389010989010988,0.5326739926739926,0.6632234432234432
0.45060786600151914,0.8389010989010988,0.5326739926739926,0.6632234432234432
0.4509650039999542,0.8389010989010988,0.5326739926739926,0.6632234432234432
0.45836122400032764,0.8389010989010988,0.5326739926739926,0.6632234432234432
0.4643984400008776,0.8389010989010988,0.5326739926739926,0.6632234432234432
0.46841329200105974,3.2387545787545786,0.16117216117216115,0.518974358974359
0.47528411200073606,3.216190476190476,0.8485714285714284,0.6817582417582417
0.4828488670009392,1.8945787545787542,0.2191941391941392,0.10637362637362638
0.4914851749999798,1.8945787545787542,0.2191941391941392,0.10637362637362638
0.4987500210008875,1.8945787545787542,0.2191941391941392,0.10637362637362638
0.5075029170002381,1.8945787545787542,0.2191941391941392,0.10637362637362638
0.5143524800005252,1.8945787545787542,0.2191941391941392,0.10637362637362638
0.5208977080001205,2.3555311355311352,0.3473260073260073,0.11362637362637362
0.5263637030002428,0.38358974358974357,0.5536263736263736,0.6696703296703297
0.5266176050008653,0.38358974358974357,0.5536263736263736,0.6696703296703297
0.5358170230010728,0.38358974358974357,0.5536263736263736,0.6696703296703297
0.5414666590004344,2.4514285714285715,0.381978021978022,0.10717948717948718
0.5417025220012874,0.6374358974358975,0.5536263736263736,0.49721611721611714
0.5483414999998786,0.6374358974358975,0.5536263736263736,0.49721611721611714
0.5536373120012286,0.6374358974358975,0.5536263736263736,0.49721611721611714
0.5562418310000794,2.6504761904761907,0.5471794871794872,1.046007326007326
0.5634328520009149,2.6504761904761907,0.5471794871794872,1.046007326007326
0.5679631830007565,2.6504761904761907,0.5471794871794872,1.046007326007326
0.5681663860013941,2.049304029304029,0.08542124542124542,0.23369963369963367
0.5766564460009249,2.049304029304029,0.08542124542124542,0.23369963369963367
0.5806900970001152,2.049304029304029,0.08542124542124542,0.23369963369963367
0.5838790670004528,3.3,1.236996336996337,0.8413186813186813
0.5856574730005377,3.3,1.236996336996337,0.8413186813186813
0.5900914610010659,3.3,1.236996336996337,0.8413186813186813
0.5902447330008727,3.3,1.236996336996337,0.8413186813186813
0.595003305001228,3.3,1.236996336996337,0.8413186813186813
0.5953189090014348,3.3,1.236996336996337,0.8413186813186813
0.6003044019998924,3.3,1.236996336996337,0.8413186813186813
0.6077251679998881,3.3,1.236996336996337,0.8413186813186813
0.6112234070005798,3.3,1.236996336996337,0.8413186813186813
0.6113991020010872,3.3,1.236996336996337,0.8413186813186813
0.6161159710009088,3.3,1.236996336996337,0.8413186813186813
0.6163891579999472,3.0356776556776555,0.6317948717948718,1.087106227106227
0.6243121170009545,3.0356776556776555,0.6317948717948718,1.087106227106227
0.631321636001303,3.0356776556776555,0.6317948717948718,1.087106227106227
0.637000712000372,3.0356776556776555,0.6317948717948718,1.087106227106227
0.6477327060001699,3.0356776556776555,0.6317948717948718,1.087106227106227
0.6574771720006538,2.382930402930403,0.4279120879120879,0.759120879120879
0.6660207800014177,2.382930402930403,0.4279120879120879,0.759120879120879
0.6739874280010554,2.245934065934066,0.15069597069597068,0.32073260073260074
0.6798043110011349,2.245934065934066,0.15069597069597068,0.32073260073260074
0.6862796330005949,2.245934065934066,0.15069597069597068,0.32073260073260074
0.6900553710001986,2.245934065934066,0.15069597069597068,0.32073260073260074
0.6939686290006648,2.245934065934066,0.15069597069597068,0.32073260073260074
0.698110703000566,2.245934065934066,0.15069597069597068,0.32073260073260074
0.7014832700006082,2.245934065934066,0.15069597069597068,0.32073260073260074
0.7017984950016398,2.245934065934066,0.15069597069597068,0.32073260073260074
0.712596769000811,2.245934065934066,0.15069597069597068,0.32073260073260074
0.721039058000315,2.245934065934066,0.15069597069597068,0.32073260073260074
0.7281559460006974,2.245934065934066,0.15069597069597068,0.32073260073260074
0.7327466310016462,2.5126739926739923,0.12571428571428572,0.3295970695970696
0.7332048650005163,2.5126739926739923,0.12571428571428572,0.3295970695970696
0.738768348001031,2.5126739926739923,0.12571428571428572,0.3295970695970696
0.7449428150011954,0.4794871794871795,0.5471794871794872,0.5125274725274725
0.7501927840003191,3.3,0.32476190476190475,0.7252747252747253
0.7519602380016295,3.3,0.9920146520146519,0.7357509157509158
0.756810178001615,3.3,0.9920146520146519,0.7357509157509158
0.7614162950012542,3.3,0.9920146520146519,0.7357509157509158
0.7672805630008952,0.33604395604395604,0.5536263736263736,0.6745054945054945
0.7674569120008528,0.33604395604395604,0.5536263736263736,0.6745054945054945
0.7751958710014151,0.33604395604395604,0.5536263736263736,0.6745054945054945
0.7806012510009168,0.33604395604395604,0.5536263736263736,0.6745054945054945
0.7830538950001937,0.33604395604395604,0.5536263736263736,0.6745054945054945
0.7831919390009716,0.33604395604395604,0.5536263736263736,0.6745054945054945
0.7912502939998376,0.33604395604395604,0.5536263736263736,0.6745054945054945
0.7961478100005479,0.33604395604395604,0.5536263736263736,0.6745054945054945
0.8023061390013027,0.33604395604395604,0.5536263736263736,0.6745054945054945
0.8082893340015289,0.33604395604395604,0.5536263736263736,0.6745054945054945
0.8132343870001932,0.33604395604395604,0.5536263736263736,0.6745054945054945
0.8177450340008363,0.33604395604395604,0.5536263736263736,0.6745054945054945
0.8186668540001847,3.3,0.11604395604395604,0.31509157509157504
0.8200549440007308,3.3,0.11604395604395604,0.31509157509157504
0.8202097670000512,3.3,0.11604395604395604,0.31509157509157504
0.8260213070007012,3.3,0.11604395604395604,0.31509157509157504
0.8317407980011922,2.5843956043956045,0.5649084249084249,0.6511355311355311
0.8319640110003093,1.6987545787545786,0.10717948717948718,0.048351648351648346
0.8402207200015255,3.3,0.5995604395604395,0.8953113553113552
0.8446135340000183,2.6528937728937727,0.4182417582417582,1.004102564102564
0.8455798470004083,2.6528937728937727,0.4182417582417582,1.004102564102564
0.8472640200016031,2.6528937728937727,0.4182417582417582,1.004102564102564
0.8504968570014171,2.6528937728937727,0.4182417582417582,1.004102564102564
0.8521417130014015,2.6528937728937727,0.4182417582417582,1.004102564102564
0.8589714850004384,2.6528937728937727,0.4182417582417582,1.004102564102564
0.8630408960016211,2.3635897435897433,0.5939194139194138,0.6648351648351648
0.8663308180002787,2.3635897435897433,0.5939194139194138,0.6648351648351648
0.867969119000918,2.3635897435897433,0.5939194139194138,0.6648351648351648
0.8729275330006203,2.3635897435897433,0.5939194139194138,0.6648351648351648
0.8789293780009757,2.3635897435897433,0.5939194139194138,0.6648351648351648
0.8828083820008032,2.3635897435897433,0.5939194139194138,0.6648351648351648
0.8893050500009849,2.3635897435897433,0.5939194139194138,0.6648351648351648
0.8935878500014951,2.3635897435897433,0.5939194139194138,0.6648351648351648
0.8956717470009607,2.3635897435897433,0.5939194139194138,0.6648351648351648
0.895981246001611,2.3635897435897433,0.5939194139194138,0.6648351648351648
0.9019304140001623,2.3635897435897433,0.5939194139194138,0.6648351648351648
0.9022584940012166,2.3635897435897433,0.5939194139194138,0.6648351648351648
0.9079667720016005,2.3635897435897433,0.5939194139194138,0.6648351648351648
0.9080987040015316,2.8100366300366297,0.834065934065934,0.5874725274725274
0.9142098060001445,2.8100366300366297,0.834065934065934,0.5874725274725274
0.9174893500003236,2.8100366300366297,0.834065934065934,0.5874725274725274
0.9192082919998938,2.8100366300366297,0.834065934065934,0.5874725274725274
0.9240448880009353,2.8100366300366297,0.834065934065934,0.5874725274725274
0.9275938710015907,2.8100366300366297,0.834065934065934,0.5874725274725274
0.9277161150002939,2.8100366300366297,0.834065934065934,0.5874725274725274
0.9326381770006265,2.8100366300366297,0.834065934065934,0.5874725274725274
0.9436606870003743,3.3,0.5641025641025641,0.8332600732600732
0.9527248820013483,3.3,0.5641025641025641,0.8332600732600732
0.9615053870002157,2.90029304029304,0.13054945054945052,0.3843956043956044
0.9682840170007694,2.90029304029304,0.13054945054945052,0.3843956043956044
0.9751801520014851,2.90029304029304,0.13054945054945052,0.3843956043956044
0.978697391001333,2.90029304029304,0.13054945054945052,0.3843956043956044
0.9788643870015221,0.26190476190476186,0.5923076923076923,0.6857875457875457
0.984698162001223,0.26190476190476186,0.5923076923076923,0.6857875457875457
0.9849984050015337,0.26190476190476186,0.5923076923076923,0.6857875457875457
0.9967858569998498,0.26190476190476186,0.5923076923076923,0.6857875457875457
1.0070944230010355,1.7720879120879118,0.15794871794871795,0.08703296703296703
1.016336182001396,1.7720879120879118,0.15794871794871795,0.08703296703296703
1.0229153860000224,1.684249084249084,0.16842490842490843,0.3642490842490842
1.02803835099985,1.684249084249084,0.16842490842490843,0.3642490842490842
1.0301419340012217,1.684249084249084,0.16842490842490843,0.3642490842490842
1.0310965620010393,1.8276923076923077,0.1668131868131868,0.05882783882783882
1.0321558240011655,1.8276923076923077,0.1668131868131868,0.05882783882783882
1.0324581540007784,1.8276923076923077,0.1668131868131868,0.05882783882783882
1.0402281630013022,1.8276923076923077,0.1668131868131868,0.05882783882783882
1.0463501150006778,1.8276923076923077,0.1668131868131868,0.05882783882783882
1.0528555430009874,2.394212454212454,0.11604395604395604,0.3142857142857142
1.057993977001388,2.394212454212454,0.11604395604395604,0.3142857142857142
1.0613950269998895,2.394212454212454,0.11604395604395604,0.3142857142857142
1.0707576050008356,2.5763369963369964,0.22725274725274724,0.4819047619047619
1.077134910001405,2.5763369963369964,0.22725274725274724,0.4819047619047619
1.0819135820001975,2.5763369963369964,0.22725274725274724,0.4819047619047619
1.0901490960004594,2.5763369963369964,0.22725274725274724,0.4819047619047619
1.0957860739999887,2.5763369963369964,0.22725274725274724,0.4819047619047619
1.0959561870004109,2.5763369963369964,0.22725274725274724,0.4819047619047619
1.1008246860001236,2.5763369963369964,0.22725274725274724,0.4819047619047619
1.107109942000534,2.5763369963369964,0.22725274725274724,0.4819047619047619
1.111055147001025,1.7519413919413918,0.1402197802197802,0.28527472527472525
1.1163008550011,1.7519413919413918,0.1402197802197802,0.28527472527472525
1.1209935580009187,2.6545054945054947,0.29736263736263735,0.7695970695970695
1.1268217450015072,0.6003663003663003,0.5286446886446886,0.6608058608058608
1.132155874000091,0.6003663003663003,0.5286446886446886,0.6608058608058608
1.1345991990001494,0.6003663003663003,0.5286446886446886,0.6608058608058608
1.1346964150015992,0.6003663003663003,0.5286446886446886,0.6608058608058608
1.1406335760002548,0.6003663003663003,0.5286446886446886,0.6608058608058608
1.1451115410000057,0.6003663003663003,0.5286446886446886,0.6608058608058608
1.1453439470005833,0.6003663003663003,0.5286446886446886,0.6608058608058608
1.1512731870006974,0.6003663003663003,0.5286446886446886,0.6608058608058608
1.1514142870000796,3.3,1.2531135531135529,0.7607326007326007
1.1592486850004207,3.3,1.2531135531135529,0.7607326007326007
1.1653176620002341,2.635970695970696,0.8904761904761904,0.8856410256410255
1.171753433000049,2.635970695970696,0.8904761904761904,0.8856410256410255
1.177790151001318,2.635970695970696,0.8904761904761904,0.8856410256410255
1.1840345280015754,2.249157509157509,0.4810989010989011,0.5753846153846153
1.1899235150012828,2.249157509157509,0.4810989010989011,0.5753846153846153
1.194192140001178,2.249157509157509,0.4810989010989011,0.5753846153846153
1.1958049559998472,2.249157509157509,0.4810989010989011,0.5753846153846153
1.1996954420010297,2.249157509157509,0.4810989010989011,0.5753846153846153
1.2054305440015014,2.249157509157509,0.4810989010989011,0.5753846153846153
1.2108182110005146,2.6150183150183146,0.20146520146520144,0.46498168498168496
1.2124966549999954,2.6150183150183146,0.20146520146520144,0.46498168498168496
1.2164097600016248,2.6150183150183146,0.20146520146520144,0.46498168498168496
1.2205205469999783,2.6150183150183146,0.20146520146520144,0.46498168498168496
1.2229004430009809,3.021172161172161,0.2804395604395604,0.6076190476190476
1.2231546170005458,3.3,0.2715750915750916,0.6527472527472526
1.2285132110009727,3.3,0.2715750915750916,0.6527472527472526
1.2308833920014877,3.3,0.2715750915750916,0.6527472527472526
1.231145813000694,3.3,0.2715750915750916,0.6527472527472526
1.2366342240002268,3.3,0.2715750915750916,0.6527472527472526
1.2382146420004574,3.3,0.2715750915750916,0.6527472527472526
1.2428964440005075,3.3,1.0726007326007325,0.850989010989011
1.2432054140008404,3.3,1.0726007326007325,0.850989010989011
1.248440985000343,3.3,1.0726007326007325,0.850989010989011
1.2507510280011047,2.2717216117216115,0.3505494505494505,0.09025641025641025
1.2510480390010343,2.2717216117216115,0.3505494505494505,0.09025641025641025
1.2563783550012886,2.2717216117216115,0.3505494505494505,0.09025641025641025
1.2586616380012856,2.0863736263736263,0.5109157509157509,0.6704761904761904
1.2589398159998382,2.0863736263736263,0.5109157509157509,0.6704761904761904
1.2646213860007265,2.5521611721611723,0.3642490842490842,0.6962637362637363
1.2648127620013838,3.2452014652014647,0.15633699633699633,0.4778754578754579
1.2701842679998663,3.2452014652014647,0.15633699633699633,0.4778754578754579
1.2718585880011233,3.2452014652014647,0.15633699633699633,0.4778754578754579
1.2756661110015557,3.2452014652014647,0.15633699633699633,0.4778754578754579
1.2803778140005306,3.2452014652014647,0.15633699633699633,0.4778754578754579
1.2805606500005524,3.2452014652014647,0.15633699633699633,0.4778754578754579
1.2862508400012302,3.2452014652014647,0.15633699633699633,0.4778754578754579
1.2864775600010034,2.748791208791209,0.13377289377289378,0.3723076923076923
1.2918906020004215,2.748791208791209,0.13377289377289378,0.3723076923076923
1.2935256490000029,2.748791208791209,0.13377289377289378,0.3723076923076923
1.2966835900006117,2.748791208791209,0.13377289377289378,0.3723076923076923
1.2989898310006538,2.748791208791209,0.13377289377289378,0.3723076923076923
1.2991949370007205,2.748791208791209,0.13377289377289378,0.3723076923076923
1.3045631230015715,2.748791208791209,0.13377289377289378,0.3723076923076923
1.3069878200003586,3.071135531135531,0.13699633699633698,0.43999999999999995
1.3071494060004625,3.071135531135531,0.13699633699633698,0.43999999999999995
1.312586961001216,2.9647619047619047,1.0178021978021978,0.7389743589743589
1.3143277160015714,1.6713553113553112,0.22967032967032966,0.4383882783882784
1.3175655570012168,2.6536996336996337,0.4585347985347985,1.004102564102564
1.3184207880003669,2.6536996336996337,0.4585347985347985,1.004102564102564
1.319345941001302,2.6536996336996337,0.4585347985347985,1.004102564102564
1.320980017000693,2.6536996336996337,0.4585347985347985,1.004102564102564
1.324870768999972,2.6536996336996337,0.4585347985347985,1.004102564102564
1.3288403260012274,2.6536996336996337,0.4585347985347985,1.004102564102564
1.3321547350005858,2.6536996336996337,0.4585347985347985,1.004102564102564
1.3324127129999397,2.6536996336996337,0.4585347985347985,1.004102564102564
1.3372329090016137,2.6536996336996337,0.4585347985347985,1.004102564102564
1.3373363200007589,2.6536996336996337,0.21032967032967032,0.6382417582417582
1.3420395470002404,2.6536996336996337,0.21032967032967032,0.6382417582417582
1.3422782510006073,2.6536996336996337,0.21032967032967032,0.6382417582417582
1.3479490469999291,2.6536996336996337,0.21032967032967032,0.6382417582417582
1.348176733999935,2.415164835164835,0.4126007326007326,0.6116483516483516
1.3534928150002088,2.1975824175824172,0.3344322344322344,0.06608058608058608
1.3565853770014655,2.1975824175824172,0.3344322344322344,0.06608058608058608
1.3590147940012685,2.1975824175824172,0.3344322344322344,0.06608058608058608
1.359188571001141,2.1975824175824172,0.3344322344322344,0.06608058608058608
1.368538239999907,2.1975824175824172,0.3344322344322344,0.06608058608058608
1.3774447930009046,2.1975824175824172,0.3344322344322344,0.06608058608058608
1.3865561300008267,2.6665934065934067,0.29010989010989013,0.8356776556776556
1.3943225689999963,2.4167765567765565,0.3916483516483516,0.718021978021978
1.3994270330003928,2.4167765567765565,0.3916483516483516,0.718021978021978
1.4018122880006558,2.4167765567765565,0.3916483516483516,0.718021978021978
1.4020525510004518,2.4167765567765565,0.3916483516483516,0.718021978021978
1.4084294399999635,2.4167765567765565,0.3916483516483516,0.718021978021978
1.4133541980008886,2.4167765567765565,0.3916483516483516,0.718021978021978
1.4177337790006277,2.4167765567765565,0.3916483516483516,0.718021978021978
1.4185918690000108,2.4167765567765565,0.3916483516483516,0.718021978021978
1.4203052470002149,2.4167765567765565,0.3916483516483516,0.718021978021978
1.4241787000009936,2.4167765567765565,0.3916483516483516,0.718021978021978
1.4281166860000667,2.4167765567765565,0.3916483516483516,0.718021978021978
1.4325607090013364,2.4167765567765565,0.3916483516483516,0.718021978021978
1.4328634050016262,2.4167765567765565,0.3916483516483516,0.718021978021978
1.4376581510005053,2.4167765567765565,0.3916483516483516,0.718021978021978
1.4378066950011998,2.4167765567765565,0.3916483516483516,0.718021978021978
1.4435776130012528,2.4167765567765565,0.3916483516483516,0.718021978021978
1.4438062600002013,2.4167765567765565,0.3916483516483516,0.718021978021978
1.4504586350012687,2.4167765567765565,0.3916483516483516,0.718021978021978
1.4541449600001215,2.4167765567765565,0.3916483516483516,0.718021978021978
1.4592372100014472,1.1467399267399265,0.0419047619047619,0.06446886446886446
1.4635893770009716,1.7189010989010989,0.419047619047619,0.6761172161172161
1.4659512859998358,2.6343589743589746,0.17648351648351646,0.49238095238095236
1.4715672490001452,2.9824908424908423,0.7405860805860806,0.6632234432234432
1.4731335350006702,2.9824908424908423,0.7405860805860806,0.6632234432234432
1.477148528001635,2.655311355311355,0.5447619047619047,0.9758974358974358
1.480342759999985,2.655311355311355,0.5447619047619047,0.9758974358974358
1.4818807040010142,2.655311355311355,0.5447619047619047,0.9758974358974358
1.4868267780002498,2.655311355311355,0.5447619047619047,0.9758974358974358
1.4912602380009048,2.655311355311355,0.5447619047619047,0.9758974358974358
1.4921101430009003,2.655311355311355,0.5447619047619047,0.9758974358974358
1.4943250120013545,2.655311355311355,0.5447619047619047,0.9758974358974358
1.4945551050004724,2.655311355311355,0.5447619047619047,0.9758974358974358
1.499888718000875,2.655311355311355,0.5447619047619047,0.9758974358974358
1.5021333760014386,2.655311355311355,0.5447619047619047,0.9758974358974358
1.5023856080006226,2.655311355311355,0.5447619047619047,0.9758974358974358
1.5078808930011292,2.655311355311355,0.5447619047619047,0.9758974358974358
1.5087354480001522,2.655311355311355,0.5447619047619047,0.9758974358974358
1.510634755000865,2.655311355311355,0.5447619047619047,0.9758974358974358
1.5124035400003777,2.655311355311355,0.5447619047619047,0.9758974358974358
1.515343725001003,2.655311355311355,0.5447619047619047,0.9758974358974358
1.5192689420000534,2.655311355311355,0.5447619047619047,0.9758974358974358
1.5229858260008768,0.12813186813186814,0.5278388278388277,0.6269597069597069
1.523142469000959,0.12813186813186814,0.5278388278388277,0.6269597069597069
1.528364034000333,0.12813186813186814,0.5278388278388277,0.6269597069597069
1.531238072000633,0.12813186813186814,0.5278388278388277,0.6269597069597069
1.5373873070002446,0.12813186813186814,0.5278388278388277,0.6269597069597069
1.5405371289998584,0.12813186813186814,0.5278388278388277,0.6269597069597069
1.5427337300006911,0.12813186813186814,0.5278388278388277,0.6269597069597069
1.5436072320007952,2.165347985347985,0.16036630036630037,0.3602197802197802
1.5451806720011518,2.165347985347985,0.16036630036630037,0.3602197802197802
1.5495776150000893,2.165347985347985,0.16036630036630037,0.3602197802197802
1.551080509001622,2.165347985347985,0.16036630036630037,0.3602197802197802
1.556461352000042,2.165347985347985,0.16036630036630037,0.3602197802197802
1.5582553450003616,2.165347985347985,0.16036630036630037,0.3602197802197802
1.5615318899999693,2.165347985347985,0.16036630036630037,0.3602197802197802
1.5624586490012007,2.165347985347985,0.16036630036630037,0.3602197802197802
1.5640228660013236,2.165347985347985,0.16036630036630037,0.3602197802197802
1.5700553950009635,2.71010989010989,0.13377289377289378,0.3811721611721612
1.5771798160003527,2.71010989010989,0.13377289377289378,0.3811721611721612
1.5829088059999776,2.71010989010989,0.13377289377289378,0.3811721611721612
1.5931225530002848,1.801098901098901,0.10556776556776555,0.24336996336996336
1.5999635440002749,2.3652014652014652,0.09025641025641025,0.26754578754578756
1.6086373850012023,3.3,0.1112087912087912,0.3424908424908425
1.616364600000452,3.3,0.1112087912087912,0.3424908424908425
1.6218389090008714,3.3,0.1112087912087912,0.3424908424908425
1.6229113440003857,3.3,0.1112087912087912,0.3424908424908425
1.6231856550002703,3.3,0.1112087912087912,0.3424908424908425
1.6287117970005056,3.3,0.1112087912087912,0.3424908424908425
1.6304660770001647,3.3,0.1112087912087912,0.3424908424908425
1.6328809110000293,3.3,0.1112087912087912,0.3424908424908425
1.6331730550009524,3.3,0.1112087912087912,0.3424908424908425
1.6379700030011008,3.3,0.1112087912087912,0.3424908424908425
1.6380877300016436,3.3,0.1112087912087912,0.3424908424908425
1.643788643001244,3.3,0.1112087912087912,0.3424908424908425
1.6439628090010956,3.3,0.1112087912087912,0.3424908424908425
1.6485191470001155,3.3,0.1112087912087912,0.3424908424908425
1.6488404060000903,3.3,0.1112087912087912,0.3424908424908425
1.6543439289998787,3.3,0.1112087912087912,0.3424908424908425
1.6559207730006165,1.6753846153846153,0.09589743589743589,0.06366300366300366
1.660555762000513,1.6753846153846153,0.09589743589743589,0.06366300366300366
1.6607049750000442,1.6753846153846153,0.09589743589743589,0.06366300366300366
1.6659541190001619,1.6753846153846153,0.09589743589743589,0.06366300366300366
1.6682297510014905,1.6753846153846153,0.09589743589743589,0.06366300366300366
1.6685089150014392,1.6753846153846153,0.09589743589743589,0.06366300366300366
1.673774452001453,1.6753846153846153,0.09589743589743589,0.06366300366300366
1.6770848390005995,1.6753846153846153,0.09589743589743589,0.06366300366300366
1.6779802440014464,1.6753846153846153,0.09589743589743589,0.06366300366300366
1.6796010730013222,1.7704761904761903,0.5858608058608058,0.6632234432234432
1.6834277650013973,1.7704761904761903,0.5858608058608058,0.6632234432234432
1.6880618700015475,1.7704761904761903,0.5858608058608058,0.6632234432234432
1.6883558640001866,1.7704761904761903,0.5858608058608058,0.6632234432234432
1.6937062750002951,1.7704761904761903,0.5858608058608058,0.6632234432234432
1.6961425220015371,1.7704761904761903,0.5858608058608058,0.6632234432234432
1.7018003550001595,1.7704761904761903,0.5858608058608058,0.6632234432234432
1.7033983470009844,1.7704761904761903,0.5858608058608058,0.6632234432234432
1.7071088230004534,1.7704761904761903,0.5858608058608058,0.6632234432234432
1.7122129540002788,3.1194871794871792,0.9428571428571427,0.6648351648351648
1.7157822910012328,3.1194871794871792,0.9428571428571427,0.6648351648351648
1.7159472910007025,3.1194871794871792,0.9428571428571427,0.6648351648351648
1.720847696000419,3.1194871794871792,0.9428571428571427,0.6648351648351648
1.7257319190011913,3.1194871794871792,0.9428571428571427,0.6648351648351648
1.7300199810015329,3.1194871794871792,0.9428571428571427,0.6648351648351648
1.7321730270014086,3.1194871794871792,0.9428571428571427,0.6648351648351648
1.733025069001087,3.1194871794871792,0.9428571428571427,0.6648351648351648
1.734548590000486,3.1194871794871792,0.9428571428571427,0.6648351648351648
1.7388095969999995,3.1194871794871792,0.9428571428571427,0.6648351648351648
1.7409901629998785,3.1194871794871792,0.9428571428571427,0.6648351648351648
1.7412813170012669,3.1194871794871792,0.9428571428571427,0.6648351648351648
1.7460500090001005,3.1194871794871792,0.9428571428571427,0.6648351648351648
1.7462039480014937,3.1194871794871792,0.9428571428571427,0.6648351648351648
1.7511354230009601,3.1194871794871792,0.9428571428571427,0.6648351648351648
1.7553011560012237,3.1194871794871792,0.9428571428571427,0.6648351648351648
1.7589038120004261,3.1194871794871792,0.9428571428571427,0.6648351648351648
1.7590484900010779,3.1194871794871792,0.9428571428571427,0.6648351648351648
1.765544198000498,3.1194871794871792,0.9428571428571427,0.6648351648351648
1.7708857110010285,3.1194871794871792,0.9428571428571427,0.6648351648351648
1.7712413120007113,1.7567765567765568,0.11926739926739927,0.09509157509157509
1.7792142100006458,1.7567765567765568,0.11926739926739927,0.09509157509157509
1.7863272390004568,3.3,1.1435164835164835,0.8808058608058608
1.7938639520016295,2.705274725274725,0.1087912087912088,0.3457142857142857
1.8002246120013297,2.705274725274725,0.1087912087912088,0.3457142857142857
1.8057374760010134,2.705274725274725,0.1087912087912088,0.3457142857142857
1.8060734549999324,2.335384615384615,0.14102564102564102,0.3287912087912088
1.8142912220009748,2.335384615384615,0.14102564102564102,0.3287912087912088
1.819345414000054,2.335384615384615,0.14102564102564102,0.3287912087912088
1.823336712001037,2.3120146520146516,0.6253479853479853,0.7156043956043956
1.8279879840010835,2.942197802197802,0.307032967032967,0.664029304029304
1.8352104929999769,3.1484981684981683,1.0331135531135531,0.7615384615384615
1.8396871270015254,1.872014652014652,0.20307692307692307,0.07575091575091575
1.8398766570007865,1.872014652014652,0.20307692307692307,0.07575091575091575
1.8488204599998426,1.872014652014652,0.20307692307692307,0.07575091575091575
1.8561978410016309,1.872014652014652,0.20307692307692307,0.07575091575091575
1.8625312270014547,1.872014652014652,0.20307692307692307,0.07575091575091575
1.867328112000905,2.5167032967032963,0.18454212454212454,0.43597069597069593
1.875730581001335,2.5167032967032963,0.18454212454212454,0.43597069597069593
1.8810653510008706,1.7849816849816849,0.17245421245421244,0.06366300366300366
1.8834060120007052,1.7849816849816849,0.17245421245421244,0.06366300366300366
1.8929239330009295,1.7849816849816849,0.17245421245421244,0.06366300366300366
1.9002807720007695,1.7849816849816849,0.17245421245421244,0.06366300366300366
1.9049839880008221,1.7849816849816849,0.17245421245421244,0.06366300366300366
1.912729562000095,1.7849816849816849,0.17245421245421244,0.06366300366300366
1.9177447440015385,1.7849816849816849,0.17245421245421244,0.06366300366300366
1.9217275040009554,1.7849816849816849,0.17245421245421244,0.06366300366300366
1.9250154370001837,1.7849816849816849,0.17245421245421244,0.06366300366300366
1.92532346400003,3.2258608058608056,0.14666666666666667,0.48754578754578753
1.933333153001513,3.2258608058608056,0.14666666666666667,0.48754578754578753
1.9411023460015713,3.2258608058608056,0.14666666666666667,0.48754578754578753
1.9454902080015017,3.2258608058608056,0.14666666666666667,0.48754578754578753
1.9463502490016253,3.2258608058608056,0.14666666666666667,0.48754578754578753
1.9479389250009262,3.2258608058608056,0.14666666666666667,0.48754578754578753
1.9539490810002462,3.2258608058608056,0.14666666666666667,0.48754578754578753
1.9577462710003601,3.2258608058608056,0.14666666666666667,0.48754578754578753
1.9608211710001342,3.2258608058608056,0.14666666666666667,0.48754578754578753
1.963237215000845,3.2258608058608056,0.14666666666666667,0.48754578754578753
1.9635290679998434,3.2258608058608056,0.14666666666666667,0.48754578754578753
1.9685753230005503,3.2258608058608056,0.14666666666666667,0.48754578754578753
1.9763557260012021,2.9228571428571426,0.12571428571428572,0.4222710622710622
1.9809888790005061,2.652087912087912,0.3731135531135531,0.9444688644688644
1.981235335000747,2.652087912087912,0.3731135531135531,0.9444688644688644
1.9879638040001737,2.652087912087912,0.3731135531135531,0.9444688644688644
1.9916483280012471,1.8397802197802198,0.12732600732600732,0.3287912087912088
1.9978430430001026,1.8397802197802198,0.12732600732600732,0.3287912087912088
2.0027449440003693,1.8397802197802198,0.12732600732600732,0.3287912087912088
2.0087180940008693,1.8397802197802198,0.12732600732600732,0.3287912087912088
2.012650143000428,1.8397802197802198,0.12732600732600732,0.3287912087912088
2.0173780350014567,1.8397802197802198,0.12732600732600732,0.3287912087912088
2.0175421769999957,1.8397802197802198,0.12732600732600732,0.3287912087912088
2.0263534120003897,1.8397802197802198,0.12732600732600732,0.3287912087912088
2.032325635000234,3.247619047619047,0.9871794871794871,0.6914285714285714
2.032425045999844,1.7398534798534797,0.13699633699633698,0.06205128205128205
2.0386835410008644,1.7398534798534797,0.13699633699633698,0.06205128205128205
2.042306332001317,2.647252747252747,0.22564102564102564,0.6213186813186813
2.0424143060008646,2.647252747252747,0.22564102564102564,0.6213186813186813
2.0471821170012845,2.647252747252747,0.22564102564102564,0.6213186813186813
2.0473975270015217,2.0444688644688642,0.28527472527472525,0.42710622710622714
2.0534159329999966,2.0444688644688642,0.28527472527472525,0.42710622710622714
2.0598394320004445,2.0444688644688642,0.28527472527472525,0.42710622710622714
2.0638590030011983,2.0154578754578756,0.38278388278388276,0.7236630036630036
2.068180633999873,3.0445421245421245,0.22805860805860806,0.5923076923076923
2.0704451490000793,3.0445421245421245,0.22805860805860806,0.5923076923076923
2.070727001000705,3.0445421245421245,0.22805860805860806,0.5923076923076923
2.0772346789999574,3.0445421245421245,0.22805860805860806,0.5923076923076923
2.08083353100119,3.0445421245421245,0.22805860805860806,0.5923076923076923
2.088332410001385,3.0445421245421245,0.22805860805860806,0.5923076923076923
2.0920472950001567,3.0445421245421245,0.22805860805860806,0.5923076923076923
2.0959401020008954,3.0445421245421245,0.22805860805860806,0.5923076923076923
2.100580614000137,3.0445421245421245,0.22805860805860806,0.5923076923076923
2.100874757999918,2.5134798534798533,0.34007326007326005,0.7027106227106227
2.1082078980016377,2.5134798534798533,0.34007326007326005,0.7027106227106227
2.113016861001597,2.5134798534798533,0.34007326007326005,0.7027106227106227
2.1196320280014334,1.7487179487179487,0.1926007326007326,0.09912087912087912
2.1249983289999363,1.0290842490842491,0.4351648351648352,0.6672527472527472
2.12515366200023,1.6947252747252746,0.11926739926739927,0.26109890109890105
2.1305804870007705,1.6947252747252746,0.11926739926739927,0.26109890109890105
2.1315323430007993,1.6947252747252746,0.11926739926739927,0.26109890109890105
2.132438025000738,1.6947252747252746,0.11926739926739927,0.26109890109890105
2.1343265030009206,1.6947252747252746,0.11926739926739927,0.26109890109890105
2.1374933990009595,1.6947252747252746,0.11926739926739927,0.26109890109890105
2.1380372820003686,1.6947252747252746,0.11926739926739927,0.26109890109890105
2.1424005550015863,1.6947252747252746,0.11926739926739927,0.26109890109890105
2.1433812390005187,1.6947252747252746,0.11926739926739927,0.26109890109890105
2.144442284001343,1.6947252747252746,0.11926739926739927,0.26109890109890105
2.1447764820004522,1.6947252747252746,0.11926739926739927,0.26109890109890105
2.1563534310007526,1.6947252747252746,0.11926739926739927,0.26109890109890105
2.164593262999915,2.348278388278388,0.13135531135531134,0.2683516483516483
2.1713696970000456,2.7536263736263735,0.24578754578754577,0.5592673992673992
2.1756519470000057,1.6987545787545786,0.1676190476190476,0.39809523809523806
2.1780621690013504,1.6987545787545786,0.1676190476190476,0.39809523809523806
2.1781910990011966,1.6987545787545786,0.1676190476190476,0.39809523809523806
2.1827938220012584,1.6987545787545786,0.1676190476190476,0.39809523809523806
2.183701481000753,1.6987545787545786,0.1676190476190476,0.39809523809523806
2.186375316001431,1.6987545787545786,0.1676190476190476,0.39809523809523806
2.190973065000435,1.6987545787545786,0.1676190476190476,0.39809523809523806
2.1969698930006416,1.6987545787545786,0.1676190476190476,0.39809523809523806
2.203783936000036,1.6987545787545786,0.1676190476190476,0.39809523809523806
2.2082426060005673,1.6987545787545786,0.1676190476190476,0.39809523809523806
2.2091138470004807,1.6987545787545786,0.1676190476190476,0.39809523809523806
2.2111275830011436,1.6987545787545786,0.1676190476190476,0.39809523809523806
2.212958867999987,1.6987545787545786,0.1676190476190476,0.39809523809523806
2.216291025000828,1.6987545787545786,0.1676190476190476,0.39809523809523806
2.2165857330001018,1.6987545787545786,0.1676190476190476,0.39809523809523806
2.223397128000215,1.6987545787545786,0.1676190476190476,0.39809523809523806
2.227402279000671,2.324102564102564,0.3843956043956044,0.7156043956043956
2.231958680000389,2.324102564102564,0.3843956043956044,0.7156043956043956
2.2328149620007025,1.701978021978022,0.18776556776556774,0.386007326007326
2.233747760001279,1.701978021978022,0.18776556776556774,0.386007326007326
2.236524592000933,1.701978021978022,0.18776556776556774,0.386007326007326
2.2388104520014167,2.655311355311355,0.1539194139194139,0.47142857142857136
2.2390513950012974,2.655311355311355,0.1539194139194139,0.47142857142857136
2.244012012000894,2.655311355311355,0.1539194139194139,0.47142857142857136
2.2496855680001318,3.087252747252747,0.14989010989010987,0.4464468864468864
2.2506815910001023,3.087252747252747,0.14989010989010987,0.4464468864468864
2.2511523339999258,3.087252747252747,0.14989010989010987,0.4464468864468864
2.256424933000744,3.087252747252747,0.14989010989010987,0.4464468864468864
2.2587020920000214,3.087252747252747,0.14989010989010987,0.4464468864468864
2.2589959950000775,3.087252747252747,0.14989010989010987,0.4464468864468864
2.264377601000888,3.087252747252747,0.14989010989010987,0.4464468864468864
2.2659716660000413,3.087252747252747,0.14989010989010987,0.4464468864468864
2.275970483000492,3.087252747252747,0.14989010989010987,0.4464468864468864
2.2818073090002144,3.087252747252747,0.14989010989010987,0.4464468864468864
2.2895408750009665,2.1508424908424906,0.17326007326007326,0.3424908424908425
2.2936528240006737,2.2797802197802195,0.3586080586080586,0.09186813186813186
2.296688821999851,1.3562637362637362,0.05641025641025641,0.09347985347985348
2.2990757080006006,1.3562637362637362,0.05641025641025641,0.09347985347985348
2.2992051350011025,1.3562637362637362,0.05641025641025641,0.09347985347985348
2.306993276000867,1.3562637362637362,0.05641025641025641,0.09347985347985348
2.3115205700014485,1.3562637362637362,0.05641025641025641,0.09347985347985348
2.3124002240001573,1.3562637362637362,0.05641025641025641,0.09347985347985348
2.3140097049999895,1.3562637362637362,0.05641025641025641,0.09347985347985348
2.319271682999897,1.3562637362637362,0.05641025641025641,0.09347985347985348
2.3229300340008194,1.3562637362637362,0.05641025641025641,0.09347985347985348
2.3276325240003644,1.3562637362637362,0.05641025641025641,0.09347985347985348
2.327933832000781,1.3562637362637362,0.05641025641025641,0.09347985347985348
2.3333056720002787,1.3562637362637362,0.05641025641025641,0.09347985347985348
2.337538644000233,1.3562637362637362,0.05641025641025641,0.09347985347985348
2.3386067830015236,1.3562637362637362,0.05641025641025641,0.09347985347985348
2.3398879500000476,1.3562637362637362,0.05641025641025641,0.09347985347985348
2.345912135000617,1.3562637362637362,0.05641025641025641,0.09347985347985348
2.3506001940004353,1.3562637362637362,0.05641025641025641,0.09347985347985348
2.3508334040016052,1.3562637362637362,0.05641025641025641,0.09347985347985348
2.3593511899998703,1.3562637362637362,0.05641025641025641,0.09347985347985348
2.365168652000648,1.3562637362637362,0.05641025641025641,0.09347985347985348
2.365275180000026,1.3562637362637362,0.05641025641025641,0.09347985347985348
2.3746994330012967,1.3562637362637362,0.05641025641025641,0.09347985347985348
2.3792704540010163,2.1065201465201464,0.31509157509157504,0.12893772893772892
2.37958870500006,2.1065201465201464,0.31509157509157504,0.12893772893772892
2.38544069999989,2.1065201465201464,0.31509157509157504,0.12893772893772892
2.3942424030010443,2.1065201465201464,0.31509157509157504,0.12893772893772892
2.3998353780007164,2.1065201465201464,0.31509157509157504,0.12893772893772892
2.4012605150001036,2.8293772893772893,0.3465201465201465,0.7317216117216117
2.4087114950016257,2.8293772893772893,0.3465201465201465,0.7317216117216117
2.4133259570007795,3.1484981684981683,1.021025641025641,0.7808791208791208
2.4135319710003387,3.1484981684981683,1.021025641025641,0.7808791208791208
2.419341182001517,3.1484981684981683,1.021025641025641,0.7808791208791208
2.429521340000065,3.1484981684981683,1.021025641025641,0.7808791208791208
2.4408226360010303,3.1484981684981683,1.021025641025641,0.7808791208791208
2.4499161600015213,3.1484981684981683,1.021025641025641,0.7808791208791208
2.458632663001481,3.1484981684981683,1.021025641025641,0.7808791208791208
2.4631956040011573,3.1484981684981683,1.021025641025641,0.7808791208791208
2.463473638999858,3.1484981684981683,1.021025641025641,0.7808791208791208
2.4711985180001648,3.1484981684981683,1.021025641025641,0.7808791208791208
2.4771193110009335,3.183150183150183,0.8163369963369963,0.7768498168498168
2.480700689000514,3.183150183150183,0.8163369963369963,0.7768498168498168
2.4874289910003426,3.183150183150183,0.8163369963369963,0.7768498168498168
2.4919597940006497,3.183150183150183,0.8163369963369963,0.7768498168498168
2.4929633120009385,3.183150183150183,0.8163369963369963,0.7768498168498168
2.4939403400003357,3.3,0.6019780219780219,1.0653479853479852
2.494902450000154,3.3,0.6019780219780219,1.0653479853479852
2.496627955000804,3.3,0.6019780219780219,1.0653479853479852
2.499993434001226,3.3,0.6019780219780219,1.0653479853479852
2.5002458510007273,3.3,0.6019780219780219,1.0653479853479852
2.5068797690000792,3.3,0.31186813186813184,0.7687912087912088
2.5102608780016453,3.092087912087912,0.15794871794871795,0.47142857142857136
2.5105405440008326,3.092087912087912,0.15794871794871795,0.47142857142857136
2.516263561001324,3.092087912087912,0.15794871794871795,0.47142857142857136
2.516433598000731,3.092087912087912,0.15794871794871795,0.47142857142857136
2.523877397999968,3.092087912087912,0.15794871794871795,0.47142857142857136
2.527868801000295,3.103369963369963,0.23934065934065935,0.5608791208791208
2.5309761650005385,3.103369963369963,0.23934065934065935,0.5608791208791208
2.533355034000124,3.103369963369963,0.23934065934065935,0.5608791208791208
2.5335158329999103,3.103369963369963,0.23934065934065935,0.5608791208791208
2.5419822900003055,3.103369963369963,0.23934065934065935,0.5608791208791208
2.5465035699999135,3.103369963369963,0.23934065934065935,0.5608791208791208
2.5481371240002773,3.103369963369963,0.23934065934065935,0.5608791208791208
2.5528771660010534,2.8745054945054944,0.8775824175824175,0.7123809523809523
2.559152083000299,2.8745054945054944,0.8775824175824175,0.7123809523809523
2.5631205000008777,2.8745054945054944,0.8775824175824175,0.7123809523809523
2.5669059910014767,2.8745054945054944,0.8775824175824175,0.7123809523809523
2.5744284770007653,2.8745054945054944,0.8775824175824175,0.7123809523809523
2.5789050190014677,3.051794871794872,0.5197802197802197,1.0016849816849815
2.579803685001025,3.051794871794872,0.5197802197802197,1.0016849816849815
2.581369558000006,3.051794871794872,0.5197802197802197,1.0016849816849815
2.585926655001458,3.051794871794872,0.5197802197802197,1.0016849816849815
2.586202617001618,3.051794871794872,0.5197802197802197,1.0016849816849815
2.5915925790013716,3.051794871794872,0.5197802197802197,1.0016849816849815
2.5936310610013606,3.051794871794872,0.5197802197802197,1.0016849816849815
2.5945203420014877,3.051794871794872,0.5197802197802197,1.0016849816849815
2.5962247799998295,3.051794871794872,0.5197802197802197,1.0016849816849815
2.60013627599983,3.051794871794872,0.5197802197802197,1.0016849816849815
2.6048553220007307,3.051794871794872,0.5197802197802197,1.0016849816849815
2.6106222160015022,3.051794871794872,0.5197802197802197,1.0016849816849815
2.6107445470006496,1.4860073260073259,0.07736263736263736,0.14344322344322344
2.6160967290015833,1.4860073260073259,0.07736263736263736,0.14344322344322344
2.6191840010014857,1.4860073260073259,0.07736263736263736,0.14344322344322344
2.6211837509999896,0.8195604395604396,0.4585347985347985,0.4778754578754579
2.6223044840007788,0.8195604395604396,0.4585347985347985,0.4778754578754579
2.622538698000426,0.8195604395604396,0.4585347985347985,0.4778754578754579
2.6278812300006393,0.8195604395604396,0.4585347985347985,0.4778754578754579
2.6304673300001014,3.066300366300366,0.6825641025641025,0.6624175824175824
2.6367004630010342,3.066300366300366,0.6825641025641025,0.6624175824175824
2.64051384800041,1.9332600732600733,0.21194139194139192,0.3747252747252747
2.6439978040016285,2.6488644688644687,0.29736263736263735,0.6398534798534798
2.644196183000531,2.6488644688644687,0.29736263736263735,0.6398534798534798
2.6490779030009435,2.6488644688644687,0.29736263736263735,0.6398534798534798
2.655748315000892,2.6488644688644687,0.29736263736263735,0.6398534798534798
2.659868880000431,1.373992673992674,0.08783882783882783,0.06446886446886446
2.6649700329999177,1.373992673992674,0.08783882783882783,0.06446886446886446
2.669984453001234,2.1266666666666665,0.1095970695970696,0.27641025641025635
2.6748979359999794,2.1266666666666665,0.1095970695970696,0.27641025641025635
2.6790684040006454,2.1266666666666665,0.1095970695970696,0.27641025641025635
2.6801401950015133,0.5238095238095237,0.48835164835164835,0.6608058608058608
2.6810220580009627,0.5238095238095237,0.48835164835164835,0.6608058608058608
2.6826233390002017,0.5238095238095237,0.48835164835164835,0.6608058608058608
2.68818823500078,0.5238095238095237,0.48835164835164835,0.6608058608058608
2.688561867000317,2.3265201465201466,0.10073260073260072,0.28849816849816845
2.694280861000152,2.3265201465201466,0.10073260073260072,0.28849816849816845
2.6945251880006253,2.6649816849816848,0.190989010989011,0.6084249084249085
2.702609437001229,2.6649816849816848,0.190989010989011,0.6084249084249085
2.7105205550014944,2.6649816849816848,0.190989010989011,0.6084249084249085
2.7182168850013113,1.3836630036630035,0.08703296703296703,0.09509157509157509
2.724910612001622,1.6898901098901096,0.4045421245421245,0.7083516483516483
2.729869717000838,1.6898901098901096,0.4045421245421245,0.7083516483516483
2.739706471000318,1.6463736263736264,0.07736263736263736,0.07655677655677656
2.744460889000038,1.6463736263736264,0.07736263736263736,0.07655677655677656
2.750755188000767,1.6463736263736264,0.07736263736263736,0.07655677655677656
2.757078488000843,1.36996336996337,0.03868131868131868,0.0838095238095238
2.7632881680001447,1.36996336996337,0.03868131868131868,0.0838095238095238
2.768572585000584,3.2838827838827838,0.16278388278388278,0.49076923076923074
2.7689570160000585,3.2838827838827838,0.16278388278388278,0.49076923076923074
2.7763061270015896,3.2838827838827838,0.16278388278388278,0.49076923076923074
2.7825447820014233,3.2838827838827838,0.16278388278388278,0.49076923076923074
2.788643646001219,2.652087912087912,0.2208058608058608,0.5036630036630036
2.7942538090010203,2.652087912087912,0.2208058608058608,0.5036630036630036
2.803844026000661,1.1854212454212454,0.051575091575091575,0.06285714285714286
2.8102582290011924,1.1854212454212454,0.051575091575091575,0.06285714285714286
2.8158560410010978,1.1854212454212454,0.051575091575091575,0.06285714285714286
2.8160506970016286,1.1854212454212454,0.051575091575091575,0.06285714285714286
2.8245251210009883,2.3716483516483513,0.6293772893772893,0.7123809523809523
2.8315650680015096,0.1652014652014652,0.5326739926739926,0.6519413919413919
2.837226047000513,0.1652014652014652,0.5326739926739926,0.6519413919413919
2.847421034000945,0.6350183150183151,0.4722344322344322,0.70996336996337
2.8557639150003524,0.6350183150183151,0.4722344322344322,0.70996336996337
2.863160938000874,2.6488644688644687,0.5238095238095237,1.0234432234432234
2.8674842810014525,1.652014652014652,0.13377289377289378,0.22644688644688646
2.8715049130005355,2.9647619047619047,0.13699633699633698,0.3932600732600733
2.8719435930015607,2.9647619047619047,0.13699633699633698,0.3932600732600733
2.8774093730007735,2.9647619047619047,0.13699633699633698,0.3932600732600733
2.877757037000265,2.9647619047619047,0.13699633699633698,0.3932600732600733
2.8826272780006548,2.9647619047619047,0.13699633699633698,0.3932600732600733
2.8827570770008606,2.9647619047619047,0.13699633699633698,0.3932600732600733
2.894465500001388,2.9647619047619047,0.13699633699633698,0.3932600732600733
2.9020853490001173,2.9647619047619047,0.13699633699633698,0.3932600732600733
2.909902203000456,2.4667399267399266,0.38036630036630037,0.7075457875457875
2.9166629890005424,3.3,0.14747252747252745,0.4778754578754579
2.925005091001367,3.3,0.14747252747252745,0.4778754578754579
2.9299401940006646,3.3,0.14747252747252745,0.4778754578754579
2.9300773450013367,1.7906227106227104,0.17164835164835165,0.07333333333333333
2.935549630999958,1.7906227106227104,0.17164835164835165,0.07333333333333333
2.9393601980009407,1.324029304029304,0.06608058608058608,0.07736263736263736
2.9418525130004127,1.324029304029304,0.06608058608058608,0.07736263736263736
2.9474369150011626,1.324029304029304,0.06608058608058608,0.07736263736263736
2.948273332000099,1.324029304029304,0.06608058608058608,0.07736263736263736
2.950681895001253,1.324029304029304,0.06608058608058608,0.07736263736263736
2.950820815000043,1.324029304029304,0.06608058608058608,0.07736263736263736
2.959107305001453,1.3208058608058608,0.0701098901098901,0.06446886446886446
2.964071274000162,1.3208058608058608,0.0701098901098901,0.06446886446886446
2.973521277001055,3.232307692307692,0.23531135531135527,0.6052014652014651
2.981386919000215,3.232307692307692,0.23531135531135527,0.6052014652014651
2.9883459660013614,2.3716483516483513,0.622124542124542,0.6914285714285714
2.991778518000501,2.3716483516483513,0.622124542124542,0.6914285714285714
2.9927252140005294,2.3716483516483513,0.622124542124542,0.6914285714285714
2.9936377290014207,2.3716483516483513,0.622124542124542,0.6914285714285714
2.995296347000476,2.3716483516483513,0.622124542124542,0.6914285714285714
2.998820204000367,2.3716483516483513,0.622124542124542,0.6914285714285714
2.9989751580014854,2.3716483516483513,0.622124542124542,0.6914285714285714
3.008732072999919,2.3716483516483513,0.622124542124542,0.6914285714285714
3.0162279200012563,2.415164835164835,0.1095970695970696,0.32717948717948714
3.0226794710015383,2.652087912087912,0.4005128205128205,0.929157509157509
3.026233624001179,3.0808058608058606,0.30945054945054945,0.6704761904761904
3.02641423300156,3.0808058608058606,0.30945054945054945,0.6704761904761904
3.0312212650005677,3.0808058608058606,0.30945054945054945,0.6704761904761904
3.0403154980012914,3.0808058608058606,0.30945054945054945,0.6704761904761904
3.0463008690003335,2.6633699633699632,0.4819047619047619,1.0008791208791208
3.052652759000921,2.6633699633699632,0.4819047619047619,1.0008791208791208
3.0565072980007244,2.6633699633699632,0.4819047619047619,1.0008791208791208
3.0616751540001133,2.6633699633699632,0.4819047619047619,1.0008791208791208
3.0665961089998746,1.5077655677655677,0.4448351648351648,0.6833699633699634
3.068745788999877,1.5077655677655677,0.4448351648351648,0.6833699633699634
3.0697293789999094,1.5077655677655677,0.4448351648351648,0.6833699633699634
3.0706914530001086,1.5077655677655677,0.4448351648351648,0.6833699633699634
3.071676422001474,1.5077655677655677,0.4448351648351648,0.6833699633699634
3.0726389270002983,1.5077655677655677,0.4448351648351648,0.6833699633699634
3.073969972001578,1.5077655677655677,0.4448351648351648,0.6833699633699634
3.08521143300095,1.5077655677655677,0.4448351648351648,0.6833699633699634
3.092688219001502,3.1887912087912085,0.2868864468864469,0.7083516483516483
3.099883980999948,3.1887912087912085,0.2868864468864469,0.7083516483516483
3.1046981520012196,3.1887912087912085,0.2868864468864469,0.7083516483516483
3.1108449880011904,3.1887912087912085,0.2868864468864469,0.7083516483516483
3.1133517830003257,3.1887912087912085,0.2868864468864469,0.7083516483516483
3.119161372000235,3.1887912087912085,0.2868864468864469,0.7083516483516483
3.1193656730010844,3.1887912087912085,0.2868864468864469,0.7083516483516483
3.1252283140001964,3.1887912087912085,0.2868864468864469,0.7083516483516483
3.1254432090008777,3.3,0.1797069597069597,0.5125274725274725
3.1353960560009,3.3,0.1797069597069597,0.5125274725274725
3.146267056999932,3.3,0.1797069597069597,0.5125274725274725
3.1604924510011188,3.3,0.1797069597069597,0.5125274725274725
3.1749095110008057,1.7366300366300367,0.17406593406593407,0.05318681318681319
3.199081834000026,2.905128205128205,0.1797069597069597,0.4810989010989011
3.2054459620012494,2.905128205128205,0.1797069597069597,0.4810989010989011
3.2121344189999945,2.905128205128205,0.1797069597069597,0.4810989010989011
3.219168413001171,3.3,0.6471062271062271,0.9944322344322343
3.2241964540007757,3.3,0.6471062271062271,0.9944322344322343
3.228342798000085,3.3,0.6471062271062271,0.9944322344322343
3.2302492010003334,3.3,0.6471062271062271,0.9944322344322343
3.232247570000254,1.743076923076923,0.1555311355311355,0.08139194139194139
3.234811805999925,1.743076923076923,0.1555311355311355,0.08139194139194139
3.2462796430008893,1.743076923076923,0.1555311355311355,0.08139194139194139
3.2465333840009407,1.743076923076923,0.1555311355311355,0.08139194139194139
3.254903112001557,1.743076923076923,0.1555311355311355,0.08139194139194139
3.2592407170013757,2.278168498168498,0.1418315018315018,0.31347985347985347
3.2595178580013453,2.278168498168498,0.1418315018315018,0.31347985347985347
3.2665095050015225,2.747179487179487,0.34007326007326005,0.6785347985347985
3.2735903580014565,2.6408058608058607,0.11846153846153845,0.34813186813186814
3.2794786100002966,1.7285714285714286,0.11846153846153845,0.08139194139194139
3.2846516290010186,1.7285714285714286,0.11846153846153845,0.08139194139194139
3.2893088290002197,1.7285714285714286,0.11846153846153845,0.08139194139194139
3.29803047400128,1.7285714285714286,0.11846153846153845,0.08139194139194139
3.3061477999999624,1.7285714285714286,0.11846153846153845,0.08139194139194139
3.311146133000875,1.7285714285714286,0.11846153846153845,0.08139194139194139
3.3155942330013204,3.0308424908424905,0.8985347985347985,0.6736996336996337
3.315863439000168,3.0308424908424905,0.8985347985347985,0.6736996336996337
3.3248258029998397,3.0308424908424905,0.8985347985347985,0.6736996336996337
3.332131445000414,3.0308424908424905,0.8985347985347985,0.6736996336996337
3.33984921100091,3.0308424908424905,0.8985347985347985,0.6736996336996337
3.346755970000231,3.0308424908424905,0.8985347985347985,0.6736996336996337
3.3537728210012574,3.0308424908424905,0.8985347985347985,0.6736996336996337
3.3584759530003794,2.652087912087912,0.5383150183150183,1.0049084249084248
3.3662263810001605,2.652087912087912,0.5383150183150183,1.0049084249084248
3.3749945300005493,2.652087912087912,0.5383150183150183,1.0049084249084248
3.3834971699998277,3.3,0.5786080586080585,0.9597802197802198
3.392930175999936,3.3,0.5786080586080585,0.9597802197802198
3.4027715100000933,3.3,0.5786080586080585,0.9597802197802198
3.413345109000147,0.9452747252747251,0.46739926739926735,0.6785347985347985
3.4242003980016307,2.702857142857143,0.46336996336996333,0.7421978021978022
3.4342958360011835,1.2555311355311354,0.47465201465201456,0.6793406593406592
3.44244860300023,2.3539194139194137,0.37875457875457874,0.5286446886446886
3.452272337000977,2.3539194139194137,0.37875457875457874,0.5286446886446886
3.460260797000956,2.6649816849816848,0.4222710622710622,0.9621978021978022
3.4645141380005953,2.6649816849816848,0.4222710622710622,0.9621978021978022
3.467116228001032,2.6649816849816848,0.4222710622710622,0.9621978021978022
3.475884086001315,3.3,1.1467399267399265,0.6809523809523809
3.48071295400041,3.3,1.1467399267399265,0.6809523809523809
3.4879484610009968,3.3,1.1467399267399265,0.6809523809523809
3.491639911000675,3.3,1.2579487179487179,0.7558974358974359
3.4971484530015005,3.3,1.2579487179487179,0.7558974358974359
3.500394138000047,3.3,1.2579487179487179,0.7558974358974359
3.5010367820013926,3.3,1.2579487179487179,0.7558974358974359
3.5060586650015466,3.3,1.2579487179487179,0.7558974358974359
3.508046752000155,3.3,1.2579487179487179,0.7558974358974359
3.508956842000771,1.884102564102564,0.3972893772893773,0.3352380952380952
3.5106832130004477,1.884102564102564,0.3972893772893773,0.3352380952380952
3.514370372000485,1.884102564102564,0.3972893772893773,0.3352380952380952
3.5218111440008215,1.884102564102564,0.3972893772893773,0.3352380952380952
3.5279287160010426,3.3,0.32395604395604394,0.7478388278388278
3.5312450970013742,3.3,0.18373626373626373,0.5254212454212454
3.532154619000721,3.3,0.18373626373626373,0.5254212454212454
3.535174458000256,3.3,0.18373626373626373,0.5254212454212454
3.5386704910015396,3.3,0.18373626373626373,0.5254212454212454
3.5437343710000277,2.6633699633699632,0.3473260073260073,0.7027106227106227
3.547711817000163,2.6633699633699632,0.3473260073260073,0.7027106227106227
3.553584209001201,2.087179487179487,0.2683516483516483,0.1692307692307692
3.5620313930012344,2.087179487179487,0.2683516483516483,0.1692307692307692
3.569279669000025,2.087179487179487,0.2683516483516483,0.1692307692307692
3.5737579870001355,2.087179487179487,0.2683516483516483,0.1692307692307692
3.574015991000124,2.087179487179487,0.2683516483516483,0.1692307692307692
3.579135865000353,2.087179487179487,0.2683516483516483,0.1692307692307692
3.5822969150012796,2.087179487179487,0.2683516483516483,0.1692307692307692
3.583297258001039,2.087179487179487,0.2683516483516483,0.1692307692307692
3.584916174000682,2.216117216117216,0.1643956043956044,0.3529670329670329
3.591319472001487,2.216117216117216,0.1643956043956044,0.3529670329670329
3.595537076000255,2.216117216117216,0.1643956043956044,0.3529670329670329
3.5972680620016035,2.216117216117216,0.1643956043956044,0.3529670329670329
3.602011676000984,0.5552380952380952,0.473040293040293,0.6664468864468864
3.602117326001462,0.5552380952380952,0.473040293040293,0.6664468864468864
3.6095610590000433,0.5552380952380952,0.473040293040293,0.6664468864468864
3.612795591001486,0.5552380952380952,0.473040293040293,0.6664468864468864
3.6137650100008614,2.7584615384615385,0.5898901098901098,1.0355311355311354
3.6146777980011393,2.7584615384615385,0.5898901098901098,1.0355311355311354
3.6164442410008633,2.7584615384615385,0.5898901098901098,1.0355311355311354
3.621780254999976,2.7584615384615385,0.5898901098901098,1.0355311355311354
3.622087769001155,3.3,0.3046153846153846,0.8147252747252747
3.627632817000631,3.3,0.3046153846153846,0.8147252747252747
3.6279364350011747,2.0533333333333332,0.3642490842490842,0.19018315018315018
3.632912230999864,2.0533333333333332,0.3642490842490842,0.19018315018315018
3.642177202000312,2.6545054945054947,0.5093040293040293,0.9726739926739927
3.647337154001434,2.6545054945054947,0.5093040293040293,0.9726739926739927
3.6515886380002485,2.6545054945054947,0.5093040293040293,0.9726739926739927
3.6531019040012325,2.6545054945054947,0.5093040293040293,0.9726739926739927
3.6598311270008708,2.6545054945054947,0.5093040293040293,0.9726739926739927
3.664029761001075,2.6545054945054947,0.5093040293040293,0.9726739926739927
3.6650168180003675,2.6545054945054947,0.5093040293040293,0.9726739926739927
3.666911138001524,2.6545054945054947,0.5093040293040293,0.9726739926739927
3.6697161060001235,2.6545054945054947,0.5093040293040293,0.9726739926739927
3.674542149001354,1.7527472527472527,0.15472527472527473,0.07494505494505493
3.6785807840005873,1.2845421245421245,0.0693040293040293,0.08945054945054945
3.681878573001086,3.2790476190476188,0.9871794871794871,0.7961904761904761
3.6827616170012334,3.2790476190476188,0.9871794871794871,0.7961904761904761
3.6838949550001416,3.2790476190476188,0.9871794871794871,0.7961904761904761
3.6846747560011863,3.2790476190476188,0.9871794871794871,0.7961904761904761
3.6892423300014343,3.2790476190476188,0.9871794871794871,0.7961904761904761
3.6934595400016406,3.2790476190476188,0.9871794871794871,0.7961904761904761
3.6958804189998773,3.2790476190476188,0.9871794871794871,0.7961904761904761
3.702982852000787,3.2790476190476188,0.9871794871794871,0.7961904761904761
3.70828245300072,2.8583882783882784,0.2715750915750916,0.5544322344322344
3.710026058000949,2.8583882783882784,0.2715750915750916,0.5544322344322344
3.7125158940016263,2.8583882783882784,0.2715750915750916,0.5544322344322344
3.719619530000273,2.8583882783882784,0.2715750915750916,0.5544322344322344
3.7248709539999254,2.8583882783882784,0.2715750915750916,0.5544322344322344
3.725801694999973,3.3,0.19340659340659339,0.49076923076923074
3.7275499000006675,3.3,0.19340659340659339,0.49076923076923074
3.730752860001303,3.3,0.19340659340659339,0.49076923076923074
3.7323971330006316,3.3,0.19340659340659339,0.49076923076923074
3.738269058001606,2.652087912087912,0.5052747252747253,1.0178021978021978
3.743034761000672,2.7737728937728936,0.12813186813186814,0.2772161172161172
3.7488979770005244,2.7737728937728936,0.12813186813186814,0.2772161172161172
3.749127483000848,2.7737728937728936,0.12813186813186814,0.2772161172161172
3.7572627469999134,2.7737728937728936,0.12813186813186814,0.2772161172161172
3.7626067100009095,2.7737728937728936,0.12813186813186814,0.2772161172161172
3.7660550540003896,2.7737728937728936,0.12813186813186814,0.2772161172161172
3.7662741520016425,2.7737728937728936,0.12813186813186814,0.2772161172161172
3.775608003999878,2.7737728937728936,0.12813186813186814,0.2772161172161172
3.7814387350008474,2.7737728937728936,0.12813186813186814,0.2772161172161172
3.7902181140016182,2.7737728937728936,0.12813186813186814,0.2772161172161172
3.7946727460002876,3.3,1.0468131868131867,0.718021978021978
3.796401281000726,3.3,1.0468131868131867,0.718021978021978
3.799939706001169,3.3,1.0468131868131867,0.718021978021978
3.8000866480015247,3.3,1.0468131868131867,0.718021978021978
3.8110717270010355,3.3,1.0468131868131867,0.718021978021978
3.8188203090012394,2.540879120879121,0.1942124542124542,0.40534798534798533
3.8245428480004193,2.540879120879121,0.1942124542124542,0.40534798534798533
3.8290512370003853,2.540879120879121,0.1942124542124542,0.40534798534798533
3.8294032370013156,2.004175824175824,0.2377289377289377,0.16358974358974357
3.8352389330011647,1.6866666666666665,0.12813186813186814,0.07575091575091575
3.8441056690007827,1.6866666666666665,0.12813186813186814,0.07575091575091575
3.8501167510003143,0.12168498168498168,0.5778021978021978,0.6567765567765567
3.8608267990002787,0.12168498168498168,0.5778021978021978,0.6567765567765567
3.8715335249999043,0.12168498168498168,0.5778021978021978,0.6567765567765567
3.879063701000632,1.83010989010989,0.19824175824175824,0.3852014652014652
3.886231800001042,2.652087912087912,0.17487179487179486,0.5423443223443223
3.890844833000301,3.3,0.3158974358974359,0.6454945054945055
3.898777432001225,3.3,0.3158974358974359,0.6454945054945055
3.9052647759999672,3.3,0.3158974358974359,0.6454945054945055
3.910380831001021,3.3,0.3158974358974359,0.6454945054945055
3.9134680070001195,3.3,1.2055677655677655,0.6382417582417582
3.9138698220012884,3.3,1.2055677655677655,0.6382417582417582
3.923061574001622,3.3,1.2055677655677655,0.6382417582417582
3.9293729640012316,3.3,1.2055677655677655,0.6382417582417582
3.932711189001566,3.3,1.2055677655677655,0.6382417582417582
3.932972320000772,3.3,1.2055677655677655,0.6382417582417582
3.9404214700007287,3.3,1.2055677655677655,0.6382417582417582
3.9445441360003315,3.3,1.2055677655677655,0.6382417582417582
3.94809146300031,3.3,0.18373626373626373,0.4810989010989011
3.948237649001385,3.3,0.18373626373626373,0.4810989010989011
3.955742073001602,3.3,0.18373626373626373,0.4810989010989011
3.9598549810016266,2.7906959706959706,0.448058608058608,0.7147985347985348
3.963078654000128,2.7906959706959706,0.448058608058608,0.7147985347985348
3.964017963000515,2.7906959706959706,0.448058608058608,0.7147985347985348
3.965046942999834,2.7906959706959706,0.448058608058608,0.7147985347985348
3.965968141999838,2.7906959706959706,0.448058608058608,0.7147985347985348
3.9680337280005915,2.7906959706959706,0.448058608058608,0.7147985347985348
3.9683768620016053,2.7906959706959706,0.448058608058608,0.7147985347985348
3.975004693000301,2.7906959706959706,0.448058608058608,0.7147985347985348
3.9791283430004114,2.7906959706959706,0.448058608058608,0.7147985347985348
3.9815706680001313,1.8849084249084247,0.5310622710622711,0.6873992673992674
3.981755497001359,1.8849084249084247,0.5310622710622711,0.6873992673992674
3.992154750001646,1.8849084249084247,0.5310622710622711,0.6873992673992674
3.9975748470005783,1.8849084249084247,0.5310622710622711,0.6873992673992674
3.999204654001005,1.8849084249084247,0.5310622710622711,0.6873992673992674
4.00543148900033,2.2273992673992673,0.5697435897435897,0.7913553113553113
4.009437135000553,2.2273992673992673,0.5697435897435897,0.7913553113553113
4.013515902001018,2.2273992673992673,0.5697435897435897,0.7913553113553113
4.016717606000384,2.652087912087912,0.8767765567765567,1.1934798534798534
4.01996023799984,2.652087912087912,0.8767765567765567,1.1934798534798534
4.020158749000984,2.652087912087912,0.8767765567765567,1.1934798534798534
4.025463812000453,2.652087912087912,0.8767765567765567,1.1934798534798534
4.027132301000165,2.652087912087912,0.8767765567765567,1.1934798534798534
4.031168655999863,3.3,1.3272527472527473,0.5979487179487178
4.034179188000053,3.3,1.3272527472527473,0.5979487179487178
4.038427094001236,3.3,1.3272527472527473,0.5979487179487178
4.038779019001595,3.3,1.3272527472527473,0.5979487179487178
4.043474801001139,3.3,1.3272527472527473,0.5979487179487178
4.043792857000881,3.3,1.3272527472527473,0.5979487179487178
4.048380318001364,3.3,1.3272527472527473,0.5979487179487178
4.048703504000514,3.3,1.3272527472527473,0.5979487179487178
4.056525555000917,3.3,1.3272527472527473,0.5979487179487178
4.061211305001052,3.3,1.3272527472527473,0.5979487179487178
4.061318280000705,3.3,1.3272527472527473,0.5979487179487178
4.067423585000142,3.3,1.3272527472527473,0.5979487179487178
4.073228945000665,3.0888644688644686,0.35135531135531134,0.1386080586080586
4.078579081000498,3.0888644688644686,0.35135531135531134,0.1386080586080586
4.080930426000123,3.0888644688644686,0.35135531135531134,0.1386080586080586
4.081152352000572,3.0888644688644686,0.35135531135531134,0.1386080586080586
4.088564389001476,3.0888644688644686,0.35135531135531134,0.1386080586080586
4.09319019600116,3.0888644688644686,0.35135531135531134,0.1386080586080586
4.093435146000047,3.0888644688644686,0.35135531135531134,0.1386080586080586
4.098970763001489,3.0888644688644686,0.35135531135531134,0.1386080586080586
4.099838546000683,1.3256410256410256,0.6027838827838827,0.7284981684981684
4.1021562599999015,1.3256410256410256,0.6027838827838827,0.7284981684981684
4.102396318001411,1.7761172161172158,0.15633699633699633,0.24901098901098898
4.107000597001388,1.7761172161172158,0.15633699633699633,0.24901098901098898
4.1072078610013705,1.7761172161172158,0.15633699633699633,0.24901098901098898
4.111996833000376,1.7761172161172158,0.15633699633699633,0.24901098901098898
4.11215264600105,2.0734798534798533,0.1643956043956044,0.112014652014652
4.119306262000464,2.0734798534798533,0.1643956043956044,0.112014652014652
4.123615023001548,2.0734798534798533,0.1643956043956044,0.112014652014652
4.125217620001422,3.3,0.3642490842490842,0.6575824175824176
4.129104785000891,3.3,0.3642490842490842,0.6575824175824176
4.134878516000754,1.6528205128205127,0.09912087912087912,0.08139194139194139
4.142669886001386,3.3,0.10476190476190475,0.20388278388278389
4.147350606001055,3.0147252747252744,0.3416849816849817,0.6116483516483516
4.147537868000654,3.0147252747252744,0.3416849816849817,0.6116483516483516
4.155761030000576,3.0147252747252744,0.3416849816849817,0.6116483516483516
4.161030126000696,3.0147252747252744,0.3416849816849817,0.6116483516483516
4.164601920001587,3.0147252747252744,0.3416849816849817,0.6116483516483516
4.172221958000591,3.0147252747252744,0.3416849816849817,0.6116483516483516
4.176237659001345,1.8131868131868132,0.14666666666666667,0.10556776556776555
4.180100250001487,2.655311355311355,0.1668131868131868,0.4279120879120879
4.188222464001228,2.655311355311355,0.1668131868131868,0.4279120879120879
4.195747955000115,2.655311355311355,0.1668131868131868,0.4279120879120879
4.201420414001404,2.655311355311355,0.1668131868131868,0.4279120879120879
4.208408215001327,2.655311355311355,0.1668131868131868,0.4279120879120879
4.21536678099983,2.655311355311355,0.1668131868131868,0.4279120879120879
4.222526288000154,1.494871794871795,0.10234432234432234,0.07494505494505493
4.225722025999858,1.5496703296703296,0.4964102564102564,0.7107692307692308
4.227348788001109,1.5496703296703296,0.4964102564102564,0.7107692307692308
4.231130350000967,1.5496703296703296,0.4964102564102564,0.7107692307692308
4.240613234000193,2.928498168498168,0.5463736263736263,0.7647619047619048
4.245100273001299,2.928498168498168,0.5463736263736263,0.7647619047619048
4.246846193000238,2.928498168498168,0.5463736263736263,0.7647619047619048
4.250145229001646,2.928498168498168,0.5463736263736263,0.7647619047619048
4.2515596200009895,2.928498168498168,0.5463736263736263,0.7647619047619048
4.258292325001094,3.3,0.7389743589743589,0.9847619047619047
4.263634063001518,0.17326007326007326,0.6076190476190476,0.6648351648351648
4.266482493001604,0.17326007326007326,0.6076190476190476,0.6648351648351648
4.2714278630010085,2.215311355311355,0.28608058608058606,0.42388278388278383
4.274532953000744,1.6753846153846153,0.12571428571428572,0.0846153846153846
4.276846409000427,1.6753846153846153,0.12571428571428572,0.0846153846153846
4.277128751000419,1.6753846153846153,0.12571428571428572,0.0846153846153846
4.282496047000677,1.6753846153846153,0.12571428571428572,0.0846153846153846
4.285174036000171,1.6753846153846153,0.12571428571428572,0.0846153846153846
4.290166053000576,1.6753846153846153,0.12571428571428572,0.0846153846153846
4.2940089980002085,1.6753846153846153,0.12571428571428572,0.0846153846153846
4.298528126000747,1.7543589743589743,0.11282051282051282,0.27399267399267396
4.299662649000311,2.0726739926739923,0.25223443223443226,0.4158241758241758
4.301287715001308,2.0726739926739923,0.25223443223443226,0.4158241758241758
4.305778205000024,2.0726739926739923,0.25223443223443226,0.4158241758241758
4.305900376000864,2.751208791208791,0.13619047619047617,0.3449084249084249
4.311201270000311,2.751208791208791,0.13619047619047617,0.3449084249084249
4.313460589000897,2.751208791208791,0.13619047619047617,0.3449084249084249
4.3137528150000435,2.751208791208791,0.13619047619047617,0.3449084249084249
4.321889849001309,2.751208791208791,0.13619047619047617,0.3449084249084249
4.326228948000789,2.265274725274725,0.45369963369963373,0.7494505494505495
4.328692529999898,2.265274725274725,0.45369963369963373,0.7494505494505495
4.328789944000164,2.265274725274725,0.45369963369963373,0.7494505494505495
4.336566477000815,2.265274725274725,0.45369963369963373,0.7494505494505495
4.340294778001407,2.265274725274725,0.45369963369963373,0.7494505494505495
4.3449202200008585,2.265274725274725,0.45369963369963373,0.7494505494505495
4.345202054000765,1.9477655677655676,0.12732600732600732,0.23531135531135527
4.3537264820006385,1.9477655677655676,0.12732600732600732,0.23531135531135527
4.35841053600052,3.3,1.248278388278388,0.7075457875457875
4.368200671000523,3.3,1.108058608058608,0.8364835164835164
4.375901582001461,2.6037362637362635,0.20388278388278389,0.40615384615384614
4.379689778001193,2.6037362637362635,0.20388278388278389,0.40615384615384614
4.388648412001203,2.6037362637362635,0.20388278388278389,0.40615384615384614
4.3945923570008745,2.6037362637362635,0.20388278388278389,0.40615384615384614
4.399002404001294,2.6037362637362635,0.20388278388278389,0.40615384615384614
4.400395895001566,2.07992673992674,0.448058608058608,0.7172161172161172
4.406527736000498,2.07992673992674,0.448058608058608,0.7172161172161172
4.4104344220013445,2.07992673992674,0.448058608058608,0.7172161172161172
4.414944025000295,2.07992673992674,0.448058608058608,0.7172161172161172
4.415773422000711,2.07992673992674,0.448058608058608,0.7172161172161172
4.418692576000467,2.07992673992674,0.448058608058608,0.7172161172161172
4.420969906001119,2.07992673992674,0.448058608058608,0.7172161172161172
4.421157972999936,2.07992673992674,0.448058608058608,0.7172161172161172
4.426428606000627,2.07992673992674,0.448058608058608,0.7172161172161172
4.428866382000706,2.07992673992674,0.448058608058608,0.7172161172161172
4.429066803000751,2.07992673992674,0.448058608058608,0.7172161172161172
4.434786125000755,2.07992673992674,0.448058608058608,0.7172161172161172
4.435009399001501,2.6585347985347987,0.4432234432234432,0.938021978021978
4.440571473000091,2.6585347985347987,0.4432234432234432,0.938021978021978
4.440720175000024,2.6585347985347987,0.4432234432234432,0.938021978021978
4.448317754000527,2.6585347985347987,0.4432234432234432,0.938021978021978
4.455509567000263,2.6585347985347987,0.4432234432234432,0.938021978021978
4.459339947001354,2.6585347985347987,0.4432234432234432,0.938021978021978
4.464222464001068,3.3,0.3626373626373626,0.7663736263736264
4.464355037000132,3.3,0.3626373626373626,0.7663736263736264
4.472169188000407,3.3,0.3626373626373626,0.7663736263736264
4.475977011001305,1.810769230769231,0.10073260073260072,0.15069597069597068
4.481557611001335,3.3,0.06688644688644689,0.1402197802197802
4.482463293001274,2.8019780219780217,0.22725274725274724,0.47706959706959706
4.485015247000774,2.8019780219780217,0.22725274725274724,0.47706959706959706
4.494259894001516,2.8019780219780217,0.22725274725274724,0.47706959706959706
4.499282306000168,1.7583882783882783,0.12571428571428572,0.1676190476190476
4.507753394000247,1.7583882783882783,0.12571428571428572,0.1676190476190476
4.512149828000474,1.7583882783882783,0.12571428571428572,0.1676190476190476
4.514219229000446,1.7583882783882783,0.12571428571428572,0.1676190476190476
4.515037872000903,1.7583882783882783,0.12571428571428572,0.1676190476190476
4.517892111000037,1.7583882783882783,0.12571428571428572,0.1676190476190476
4.523933243001011,1.7583882783882783,0.12571428571428572,0.1676190476190476
4.528267976000279,3.3,0.21597069597069596,0.5197802197802197
4.5291347870006575,3.3,0.21597069597069596,0.5197802197802197
4.530835297000522,3.3,0.21597069597069596,0.5197802197802197
4.536079683000935,3.3,0.21597069597069596,0.5197802197802197
4.541108696001174,3.3,0.21597069597069596,0.5197802197802197
4.544148367000162,3.3,0.21597069597069596,0.5197802197802197
4.545781812001223,3.3,0.21597069597069596,0.5197802197802197
4.551519092001399,3.3,0.21597069597069596,0.5197802197802197
4.551740476999839,3.3,0.21597069597069596,0.5197802197802197
4.561613993000719,3.3,0.21597069597069596,0.5197802197802197
4.566567995001606,0.2836630036630036,0.5439560439560439,0.7019047619047618
4.576053211001636,0.2836630036630036,0.5439560439560439,0.7019047619047618
4.581846898001459,1.5222710622710622,0.08542124542124542,0.10315018315018315
4.582041811001545,0.35135531135531134,0.5528205128205127,0.585054945054945
4.589953886999865,0.35135531135531134,0.5528205128205127,0.585054945054945
4.594700613000896,0.35135531135531134,0.5528205128205127,0.585054945054945
4.594916904999991,0.35135531135531134,0.5528205128205127,0.585054945054945
4.601314016001197,0.35135531135531134,0.5528205128205127,0.585054945054945
4.6079919380008505,2.685934065934066,0.2087179487179487,0.4287179487179487
4.612391484000909,3.1307692307692303,0.9073992673992675,0.6535531135531135
4.6126027420014,1.6624908424908424,0.07736263736263736,0.1112087912087912
4.619096260001243,1.6624908424908424,0.07736263736263736,0.1112087912087912
4.622937816000558,1.6624908424908424,0.07736263736263736,0.1112087912087912
4.627543501001128,1.6624908424908424,0.07736263736263736,0.1112087912087912
4.627800228001433,1.6624908424908424,0.07736263736263736,0.1112087912087912
4.633775839000009,1.93003663003663,0.1942124542124542,0.07816849816849816
4.639861313000438,1.93003663003663,0.1942124542124542,0.07816849816849816
4.643638045001353,1.93003663003663,0.1942124542124542,0.07816849816849816
4.649004318000152,1.93003663003663,0.1942124542124542,0.07816849816849816
4.654770046001431,1.93003663003663,0.1942124542124542,0.07816849816849816
4.6610903720011265,2.739120879120879,0.1265201465201465,0.35216117216117215
4.665346916000999,0.9839560439560439,0.5004395604395604,0.6946520146520146
4.670771644001434,0.9839560439560439,0.5004395604395604,0.6946520146520146
4.67970823900032,1.5303296703296703,0.03868131868131868,0.12007326007326008
4.688347139001053,1.5303296703296703,0.03868131868131868,0.12007326007326008
4.693515795001076,1.5303296703296703,0.03868131868131868,0.12007326007326008
4.696662970000034,1.5303296703296703,0.03868131868131868,0.12007326007326008
4.699017013001139,1.5303296703296703,0.03868131868131868,0.12007326007326008
4.699340368000776,1.5303296703296703,0.03868131868131868,0.12007326007326008
4.708045010000205,1.5303296703296703,0.03868131868131868,0.12007326007326008
4.71243493700058,1.5303296703296703,0.03868131868131868,0.12007326007326008
4.713427833999958,1.5303296703296703,0.03868131868131868,0.12007326007326008
4.7142719910007145,1.5303296703296703,0.03868131868131868,0.12007326007326008
4.716735422000056,1.5303296703296703,0.03868131868131868,0.12007326007326008
4.7238346230005845,1.5303296703296703,0.03868131868131868,0.12007326007326008
4.72839969800043,1.5303296703296703,0.03868131868131868,0.12007326007326008
4.729221382000105,1.5303296703296703,0.03868131868131868,0.12007326007326008
4.7301319090001925,1.5303296703296703,0.03868131868131868,0.12007326007326008
4.732366869000543,1.5303296703296703,0.03868131868131868,0.12007326007326008
4.732702269000583,1.5303296703296703,0.03868131868131868,0.12007326007326008
4.739675759999955,1.5303296703296703,0.03868131868131868,0.12007326007326008
4.7435855270014144,1.5303296703296703,0.03868131868131868,0.12007326007326008
4.747351006000827,1.5303296703296703,0.03868131868131868,0.12007326007326008
4.755202763000852,1.5303296703296703,0.03868131868131868,0.12007326007326008
4.759761913001057,3.3,0.7857142857142856,0.938021978021978
4.759960175000742,3.3,0.7857142857142856,0.938021978021978
4.765311066999857,3.3,0.7857142857142856,0.938021978021978
4.768957928001328,3.3,0.7857142857142856,0.938021978021978
4.773787892001565,3.3,0.7857142857142856,0.938021978021978
4.777729097000702,3.3,0.7857142857142856,0.938021978021978
4.781676745000368,3.3,0.7857142857142856,0.938021978021978
4.78789511100149,3.3,0.7857142857142856,0.938021978021978
4.7914870600016,2.6649816849816848,1.6737728937728935,0.5326739926739926
4.800373402000332,2.7117216117216114,0.06527472527472526,0.23369963369963367
4.809234584001388,2.7117216117216114,0.06527472527472526,0.23369963369963367
4.8147758970008,2.7117216117216114,0.06527472527472526,0.23369963369963367
4.815710740000213,2.7117216117216114,0.06527472527472526,0.23369963369963367
4.818490153000312,2.7117216117216114,0.06527472527472526,0.23369963369963367
4.823691238001629,2.647252747252747,1.5343589743589743,0.7389743589743589
4.825358699001299,2.647252747252747,1.5343589743589743,0.7389743589743589
4.829154887000186,2.647252747252747,1.5343589743589743,0.7389743589743589
4.836661152001398,2.647252747252747,1.5343589743589743,0.7389743589743589
4.841464449000341,2.647252747252747,1.5343589743589743,0.7389743589743589
4.845959919000961,2.647252747252747,1.5343589743589743,0.7389743589743589
4.84700677300134,2.647252747252747,1.5343589743589743,0.7389743589743589
4.847298257000148,2.647252747252747,1.5343589743589743,0.7389743589743589
4.855374415001279,2.647252747252747,1.5343589743589743,0.7389743589743589
4.86133496399998,2.647252747252747,1.5343589743589743,0.7389743589743589
4.865504571000201,2.647252747252747,1.5343589743589743,0.7389743589743589
4.867230312000174,2.647252747252747,1.5343589743589743,0.7389743589743589
4.874207040000329,2.647252747252747,1.5343589743589743,0.7389743589743589
4.8781051140013005,3.3,0.9178754578754579,1.1821978021978021
4.881917018999957,3.3,0.9178754578754579,1.1821978021978021
4.892107351000959,3.3,0.5157509157509157,0.5874725274725274
4.897274370001469,3.3,0.4738461538461538,0.6430769230769231
4.901324989001296,2.652087912087912,1.4030036630036629,0.7526739926739926
4.904002802000832,2.652087912087912,1.4030036630036629,0.7526739926739926
4.907133976001205,2.652087912087912,1.4030036630036629,0.7526739926739926
4.90881106300003,2.652087912087912,1.4030036630036629,0.7526739926739926
4.912589289000607,2.652087912087912,1.4030036630036629,0.7526739926739926
4.920606184999997,2.652087912087912,1.4030036630036629,0.7526739926739926
4.924617311000475,2.7165567765567764,0.7865201465201466,1.2353846153846153
4.9277921250013605,2.7165567765567764,0.7865201465201466,1.2353846153846153
4.929447167000035,3.3,0.3352380952380952,0.4085714285714286
4.933532375000141,3.3,0.3352380952380952,0.4085714285714286
4.939349096001024,3.3,0.3352380952380952,0.4085714285714286
4.943812030000117,3.3,0.46417582417582415,0.4996336996336996
4.944007548001537,2.673040293040293,0.689010989010989,0.9517216117216116
4.948596793001343,2.673040293040293,0.689010989010989,0.9517216117216116
4.949860696000542,2.673040293040293,0.689010989010989,0.9517216117216116
4.957972086000154,2.673040293040293,0.689010989010989,0.9517216117216116
4.963306095000007,2.673040293040293,0.689010989010989,0.9517216117216116
4.9660829580006975,2.673040293040293,0.689010989010989,0.9517216117216116
4.972270570000546,3.3,0.6156776556776556,0.5947252747252747
4.975810331001412,3.3,0.6156776556776556,0.5947252747252747
4.975908010001149,3.3,0.6156776556776556,0.5947252747252747
4.981187243000022,3.3,0.6156776556776556,0.5947252747252747
4.984470908000731,3.3,0.6156776556776556,0.5947252747252747
4.986303974999828,3.3,0.6156776556776556,0.5947252747252747
4.990470135000578,3.3,0.6156776556776556,0.5947252747252747
4.992014035000466,3.3,0.6156776556776556,0.5947252747252747
4.999249961001624,3.3,0.6156776556776556,0.5947252747252747
5.0061012280002615,3.3,0.6156776556776556,0.5947252747252747
5.011742733000574,3.3,0.6156776556776556,0.5947252747252747
5.020985852001104,3.3,0.6156776556776556,0.5947252747252747
5.026149111999985,3.3,0.6156776556776556,0.5947252747252747
5.029224186000647,3.3,0.6156776556776556,0.5947252747252747
5.0319660370005295,3.3,0.6156776556776556,0.5947252747252747
5.03967251100039,3.3,0.6156776556776556,0.5947252747252747
5.044650122001258,3.3,0.6156776556776556,0.5947252747252747
5.05366093000157,3.3,0.6156776556776556,0.5947252747252747
5.061126321999836,2.7125274725274724,1.016190476190476,1.5641758241758241
5.066440894001062,2.7125274725274724,1.016190476190476,1.5641758241758241
5.067146223000236,2.7125274725274724,1.016190476190476,1.5641758241758241
5.072111100000257,2.7125274725274724,1.016190476190476,1.5641758241758241
5.074317544000223,2.7125274725274724,1.016190476190476,1.5641758241758241
5.074574033000317,2.7125274725274724,1.016190476190476,1.5641758241758241
5.0848497550014145,2.7125274725274724,1.016190476190476,1.5641758241758241
5.092920279001191,2.7125274725274724,1.016190476190476,1.5641758241758241
5.0990430420006305,2.7125274725274724,1.016190476190476,1.5641758241758241
5.103961476001132,2.7125274725274724,1.016190476190476,1.5641758241758241
5.108260629000142,2.7125274725274724,1.016190476190476,1.5641758241758241
5.108546745001149,2.7125274725274724,1.016190476190476,1.5641758241758241
5.117223175000618,2.7125274725274724,1.016190476190476,1.5641758241758241
5.125044557000365,2.7125274725274724,1.016190476190476,1.5641758241758241
5.1314223220015265,2.6536996336996337,0.7486446886446886,0.9573626373626374
5.138038779001363,3.3,0.3884249084249084,0.734139194139194
5.1443408470004215,3.3,0.3884249084249084,0.734139194139194
5.150320228000055,3.3,0.3884249084249084,0.734139194139194
5.154843555001207,3.3,0.3884249084249084,0.734139194139194
5.155003065001438,2.673040293040293,1.5174358974358972,1.9268131868131868
5.159442513000613,2.673040293040293,1.5174358974358972,1.9268131868131868
5.1603476670006785,2.673040293040293,1.5174358974358972,1.9268131868131868
5.161876308000501,2.6665934065934067,0.9033699633699634,1.2410256410256408
5.166358675000083,2.6665934065934067,0.9033699633699634,1.2410256410256408
5.166706521000378,2.6649816849816848,0.7293040293040293,1.0105494505494506
5.17547174900028,2.6649816849816848,0.7293040293040293,1.0105494505494506
5.18181156799983,2.714139194139194,0.971062271062271,1.614139194139194
5.185998066001048,2.714139194139194,0.971062271062271,1.614139194139194
5.188119645001279,2.714139194139194,0.971062271062271,1.614139194139194
5.188392774000022,2.714139194139194,0.971062271062271,1.614139194139194
5.198026462001508,2.714139194139194,0.971062271062271,1.614139194139194
5.205226568999933,2.714139194139194,0.971062271062271,1.614139194139194
5.210442310000872,2.6617582417582417,0.938021978021978,1.3272527472527473
5.21269995700095,2.655311355311355,1.6495970695970694,0.5197802197802197
5.212967116000073,2.655311355311355,1.6495970695970694,0.5197802197802197
5.22095163800077,2.655311355311355,1.6495970695970694,0.5197802197802197
5.227881142000115,2.655311355311355,1.6495970695970694,0.5197802197802197
5.232951619000232,2.655311355311355,1.6495970695970694,0.5197802197802197
5.2366248200014525,2.655311355311355,1.6495970695970694,0.5197802197802197
5.243807607001145,2.655311355311355,1.6495970695970694,0.5197802197802197
5.248231161000149,2.655311355311355,1.6495970695970694,0.5197802197802197
5.248429656001463,2.655311355311355,1.6495970695970694,0.5197802197802197
5.257471503000488,2.655311355311355,1.6495970695970694,0.5197802197802197
5.2653871460006485,2.713333333333333,1.075018315018315,1.6165567765567763
5.272312203000183,2.713333333333333,1.075018315018315,1.6165567765567763
5.275601901999835,2.713333333333333,1.075018315018315,1.6165567765567763
5.277179738000996,2.713333333333333,1.075018315018315,1.6165567765567763
5.280953189001593,2.713333333333333,1.075018315018315,1.6165567765567763
5.285539593000067,2.713333333333333,1.075018315018315,1.6165567765567763
5.285851642000125,2.713333333333333,1.075018315018315,1.6165567765567763
5.290445716000249,2.713333333333333,1.075018315018315,1.6165567765567763
5.290769031000309,2.713333333333333,1.075018315018315,1.6165567765567763
5.295443986000464,2.713333333333333,1.075018315018315,1.6165567765567763
5.295710576001511,2.713333333333333,1.075018315018315,1.6165567765567763
5.300348646000202,2.713333333333333,1.075018315018315,1.6165567765567763
5.300527335000879,2.659340659340659,1.0564835164835162,1.523882783882784
5.305366672000673,2.659340659340659,1.0564835164835162,1.523882783882784
5.31500485000106,2.659340659340659,1.0564835164835162,1.523882783882784
5.319645374000174,2.659340659340659,1.0564835164835162,1.523882783882784
5.319873427000857,2.659340659340659,1.0564835164835162,1.523882783882784
5.324621305000619,2.659340659340659,1.0564835164835162,1.523882783882784
5.324772900001335,2.659340659340659,1.0564835164835162,1.523882783882784
5.329451946001427,2.659340659340659,1.0564835164835162,1.523882783882784
5.329652864000309,3.3,1.307106227106227,0.5786080586080585
5.3350992200012115,3.3,1.307106227106227,0.5786080586080585
5.336660754001059,3.3,1.307106227106227,0.5786080586080585
5.340485714001261,3.3,1.307106227106227,0.5786080586080585
5.3450940560014715,3.3,1.307106227106227,0.5786080586080585
5.346818848000112,2.6682051282051282,0.6503296703296703,0.7623443223443224
5.350679652001418,2.6682051282051282,0.6503296703296703,0.7623443223443224
5.354494610000984,2.6682051282051282,0.6503296703296703,0.7623443223443224
5.359344153001075,2.677069597069597,0.5318681318681319,0.7365567765567765
5.359520048001286,2.677069597069597,0.5318681318681319,0.7365567765567765
5.364450488001239,2.677069597069597,0.5318681318681319,0.7365567765567765
5.369963978000669,2.677069597069597,0.5318681318681319,0.7365567765567765
5.372458882000501,2.677069597069597,0.5318681318681319,0.7365567765567765
5.378215572000045,2.677069597069597,0.5318681318681319,0.7365567765567765
5.37832350500139,3.3,1.0927472527472526,0.6785347985347985
5.385931301001619,3.3,1.0927472527472526,0.6785347985347985
5.390206804000627,3.3,1.4287912087912087,0.5753846153846153
5.3912172190011916,3.3,1.4287912087912087,0.5753846153846153
5.3925776180003595,3.3,1.4287912087912087,0.5753846153846153
5.400953686999856,3.3,1.4287912087912087,0.5753846153846153
5.4092178940009035,3.3,1.4287912087912087,0.5753846153846153
5.415830296000422,3.3,1.4287912087912087,0.5753846153846153
5.4219590420016175,3.3,0.39406593406593404,0.7607326007326007
5.428084376000697,2.6117948717948716,0.9509157509157508,1.2152380952380952
5.433315583000876,3.3,0.4625641025641025,0.49479853479853475
5.435268967001321,3.3,0.4625641025641025,0.49479853479853475
5.4372055280000495,3.3,0.4625641025641025,0.49479853479853475
5.4388534810004785,3.3,0.4625641025641025,0.49479853479853475
5.444444464999833,3.3,0.4625641025641025,0.49479853479853475
5.454965099001129,2.6682051282051282,0.7567032967032966,1.0935531135531134
5.459676813999977,3.3,0.37150183150183147,0.49802197802197795
5.45989524200013,3.3,0.37150183150183147,0.49802197802197795
5.465189636001014,3.3,0.37150183150183147,0.49802197802197795
5.470734203001484,3.3,0.37150183150183147,0.49802197802197795
5.471018256001116,3.3,0.37150183150183147,0.49802197802197795
5.475978450000184,3.3,0.37150183150183147,0.49802197802197795
5.479299852000622,3.3,0.37150183150183147,0.49802197802197795
5.479572284000824,3.3,0.37150183150183147,0.49802197802197795
5.487175407000905,3.3,0.37150183150183147,0.49802197802197795
5.491906551000284,3.3,0.37150183150183147,0.49802197802197795
5.492051465000259,3.3,0.37150183150183147,0.49802197802197795
5.497556628000893,3.3,0.37150183150183147,0.49802197802197795
5.498464571001023,3.3,0.37150183150183147,0.49802197802197795
5.500678550000885,3.3,0.37150183150183147,0.49802197802197795
5.500999566000246,3.3,0.37150183150183147,0.49802197802197795
5.5075345460008975,3.3,0.37150183150183147,0.49802197802197795
5.511393942000723,3.3,0.37150183150183147,0.49802197802197795
5.516789493000033,3.3,0.37150183150183147,0.49802197802197795
5.519532551001248,3.3,0.37150183150183147,0.49802197802197795
5.523084761000064,3.3,0.37150183150183147,0.49802197802197795
5.523215142000481,2.9647619047619047,0.5979487179487178,0.7236630036630036
5.527729197001463,2.9647619047619047,0.5979487179487178,0.7236630036630036
5.528621840001506,2.9647619047619047,0.5979487179487178,0.7236630036630036
5.530231615000957,2.9647619047619047,0.5979487179487178,0.7236630036630036
5.536611012999856,2.9647619047619047,0.5979487179487178,0.7236630036630036
5.540652315999978,2.9647619047619047,0.5979487179487178,0.7236630036630036
5.5429429650012025,2.9647619047619047,0.5979487179487178,0.7236630036630036
5.543967364999844,2.9647619047619047,0.5979487179487178,0.7236630036630036
5.5441657880001,2.9647619047619047,0.5979487179487178,0.7236630036630036
5.54867047100015,2.9647619047619047,0.5979487179487178,0.7236630036630036
5.551002141000936,3.0066666666666664,0.08139194139194139,0.3771428571428571
5.551230559000032,3.0066666666666664,0.08139194139194139,0.3771428571428571
5.557047601001614,3.0066666666666664,0.08139194139194139,0.3771428571428571
5.5614878780015715,3.0066666666666664,0.08139194139194139,0.3771428571428571
5.561814510001568,3.0066666666666664,0.08139194139194139,0.3771428571428571
5.568101282000498,3.0066666666666664,0.08139194139194139,0.3771428571428571
5.573392890000832,2.6649816849816848,0.7502564102564102,1.0734065934065933
5.5738210340005026,3.012307692307692,0.04593406593406593,0.3884249084249084
5.578299359000084,3.012307692307692,0.04593406593406593,0.3884249084249084
5.579146951000439,3.3,1.2023443223443222,0.8219780219780219
5.5807640940001875,3.3,1.2023443223443222,0.8219780219780219
5.5864868740009115,3.3,1.2023443223443222,0.8219780219780219
5.5959884300009435,3.3,1.2023443223443222,0.8219780219780219
5.601782247000301,3.3,1.2023443223443222,0.8219780219780219
5.608661275000486,3.3,1.2023443223443222,0.8219780219780219
5.613549779000095,3.3,1.2023443223443222,0.8219780219780219
5.620432439000069,3.3,1.2023443223443222,0.8219780219780219
5.624220636000246,2.958315018315018,1.4868131868131869,0.6043956043956044
5.628770741001063,2.958315018315018,1.4868131868131869,0.6043956043956044
5.629128108001169,2.958315018315018,1.4868131868131869,0.6043956043956044
5.634782891000214,2.958315018315018,1.4868131868131869,0.6043956043956044
5.635008840999944,2.958315018315018,1.4868131868131869,0.6043956043956044
5.640898297000604,2.958315018315018,1.4868131868131869,0.6043956043956044
5.645468504000746,3.3,0.5769963369963369,0.614065934065934
5.645748738001203,3.3,0.5769963369963369,0.614065934065934
5.653895764000481,3.3,0.5769963369963369,0.614065934065934
5.660689491000085,3.3,0.5769963369963369,0.614065934065934
5.664142679001088,3.3,0.5769963369963369,0.614065934065934
5.664413469001374,3.3,0.5769963369963369,0.614065934065934
5.671521415000825,3.3,0.5769963369963369,0.614065934065934
5.675979699000891,3.3,0.5769963369963369,0.614065934065934
5.6776475200003915,3.3,0.5769963369963369,0.614065934065934
5.681465446001312,3.3,0.5769963369963369,0.614065934065934
5.690550160001294,3.3,0.5769963369963369,0.614065934065934
5.6957285850003245,2.6617582417582417,0.6664468864468864,0.8872527472527472
5.697502857001382,2.6617582417582417,0.6664468864468864,0.8872527472527472
5.702152958001534,2.6617582417582417,0.6664468864468864,0.8872527472527472
5.710455155000091,2.677069597069597,0.6269597069597069,0.7784615384615384
5.719006570001511,2.6714285714285713,1.436043956043956,0.5350915750915751
5.725631232000524,3.071135531135531,1.6729670329670328,0.6857875457875457
5.731231742000091,3.071135531135531,1.6729670329670328,0.6857875457875457
5.7315629460008495,3.071135531135531,1.6729670329670328,0.6857875457875457
5.739678705000188,3.071135531135531,1.6729670329670328,0.6857875457875457
5.744521706001251,2.2136996336996333,0.9194871794871795,1.162051282051282
5.749157005000598,2.6585347985347987,0.6712820512820512,0.9219047619047619
5.749607162000757,2.6585347985347987,0.6712820512820512,0.9219047619047619
5.755411283000285,2.6585347985347987,0.6712820512820512,0.9219047619047619
5.761123939000754,2.6585347985347987,0.6712820512820512,0.9219047619047619
5.761428782001531,2.6649816849816848,0.8437362637362636,1.124981684981685
5.766365086001315,2.6649816849816848,0.8437362637362636,1.124981684981685
5.773664785001529,2.6649816849816848,0.8437362637362636,1.124981684981685
5.77753321199998,3.0195604395604394,0.0419047619047619,0.38278388278388276
5.781527905000985,3.0195604395604394,0.0419047619047619,0.38278388278388276
5.787222308001219,3.0195604395604394,0.0419047619047619,0.38278388278388276
5.7874506320004,3.0195604395604394,0.0419047619047619,0.38278388278388276
5.795216452001114,3.0195604395604394,0.0419047619047619,0.38278388278388276
5.802852093000183,3.0195604395604394,0.0419047619047619,0.38278388278388276
5.807257462000052,0.45369963369963373,0.8139194139194139,0.896117216117216
5.808134411001447,2.655311355311355,0.9807326007326007,0.622124542124542
5.809792961001222,2.655311355311355,0.9807326007326007,0.622124542124542
5.814798447001522,2.655311355311355,0.9807326007326007,0.622124542124542
5.8222447730004205,2.655311355311355,0.9807326007326007,0.622124542124542
5.826869924001585,2.6633699633699632,1.0661538461538462,1.4062271062271061
5.8272322789998725,2.6633699633699632,1.0661538461538462,1.4062271062271061
5.831869268000446,2.6633699633699632,1.0661538461538462,1.4062271062271061
5.832141278000563,2.6633699633699632,1.0661538461538462,1.4062271062271061
5.837752759000068,2.6633699633699632,1.0661538461538462,1.4062271062271061
5.83797657300056,2.6633699633699632,1.0661538461538462,1.4062271062271061
5.842683292999936,2.6633699633699632,1.0661538461538462,1.4062271062271061
5.842858928001078,2.6633699633699632,1.0661538461538462,1.4062271062271061
5.8474352920002275,2.6633699633699632,1.0661538461538462,1.4062271062271061
5.847710761001508,2.6633699633699632,1.0661538461538462,1.4062271062271061
5.85391641500064,2.6633699633699632,1.0661538461538462,1.4062271062271061
5.858709515001465,2.6633699633699632,1.0661538461538462,1.4062271062271061
5.862550286999976,2.6633699633699632,1.0661538461538462,1.4062271062271061
5.866855356000087,2.6633699633699632,1.0661538461538462,1.4062271062271061
5.869170961001146,2.6633699633699632,1.0661538461538462,1.4062271062271061
5.869361599001422,2.6633699633699632,1.0661538461538462,1.4062271062271061
5.877961583000797,2.6633699633699632,1.0661538461538462,1.4062271062271061
5.883458232001431,3.3,0.7244688644688644,0.5423443223443223
5.884604069000488,3.3,0.7244688644688644,0.5423443223443223
5.884850577000179,3.3,0.7244688644688644,0.5423443223443223
5.890490933001274,3.3,0.7244688644688644,0.5423443223443223
5.8907521000001,3.3,0.7244688644688644,0.5423443223443223
5.896116514000823,3.3,0.7244688644688644,0.5423443223443223
5.898534202000519,3.3,0.7244688644688644,0.5423443223443223
5.898827300999983,3.3,0.7244688644688644,0.5423443223443223
5.905792822000876,3.3,0.7244688644688644,0.5423443223443223
5.910211698001149,3.3,0.7244688644688644,0.5423443223443223
5.911061363000044,3.3,0.7244688644688644,0.5423443223443223
5.912580792000881,3.3,0.7244688644688644,0.5423443223443223
5.91874342400115,3.3,0.7244688644688644,0.5423443223443223
5.92381347599985,3.3,0.7244688644688644,0.5423443223443223
5.926085058999888,3.3,0.7244688644688644,0.5423443223443223
5.926507584001229,3.3,0.7244688644688644,0.5423443223443223
5.930728616000124,3.3,0.7244688644688644,0.5423443223443223
5.932707093001227,3.3,0.7244688644688644,0.5423443223443223
5.937364584000534,3.3,0.7244688644688644,0.5423443223443223
5.94195764899996,3.3,0.7244688644688644,0.5423443223443223
5.942192967000665,3.3,0.7244688644688644,0.5423443223443223
5.94671744200059,3.3,0.7244688644688644,0.5423443223443223
5.947592372000145,3.3,0.7244688644688644,0.5423443223443223
5.949197637000907,3.3,0.7244688644688644,0.5423443223443223
5.955413088000569,3.3,0.7244688644688644,0.5423443223443223
5.95848691700121,3.3,0.7244688644688644,0.5423443223443223
5.96150791600121,3.3,0.7244688644688644,0.5423443223443223
5.963901172000988,3.3,0.7244688644688644,0.5423443223443223
5.964139077001164,3.3,0.7244688644688644,0.5423443223443223
5.973422685001424,3.3,0.7244688644688644,0.5423443223443223
5.97936369800118,3.3,0.7244688644688644,0.5423443223443223
5.979561000000103,3.3,0.7244688644688644,0.5423443223443223
5.988182779999988,3.3,0.7244688644688644,0.5423443223443223
5.993243875000189,3.3,0.7244688644688644,0.5423443223443223
5.997613598001408,3.3,0.7244688644688644,0.5423443223443223
5.999343777000831,3.3,0.9879853479853479,1.3586813186813185
6.0046009620000405,3.3,0.9879853479853479,1.3586813186813185
6.006338074001178,3.3,0.9879853479853479,1.3586813186813185
6.010562806000962,3.3,0.9879853479853479,1.3586813186813185
6.0121696700007305,2.5005860805860802,0.04271062271062271,0.2635164835164835
6.016120772001159,2.5005860805860802,0.04271062271062271,0.2635164835164835
6.02481255100065,2.5005860805860802,0.04271062271062271,0.2635164835164835
6.031432701000085,2.5005860805860802,0.04271062271062271,0.2635164835164835
6.0363891150009295,3.00989010989011,0.04029304029304029,0.3545787545787546
6.039865742000984,3.00989010989011,0.04029304029304029,0.3545787545787546
6.040202796000813,2.655311355311355,1.1854212454212454,1.506959706959707
6.044996778000495,2.655311355311355,1.1854212454212454,1.506959706959707
6.052637022001363,2.6617582417582417,0.6825641025641025,0.954945054945055
6.056536736001362,2.6617582417582417,0.6825641025641025,0.954945054945055
6.059920957000941,2.713333333333333,0.963003663003663,1.4779487179487178
6.06023829500009,2.713333333333333,0.963003663003663,1.4779487179487178
6.064909319000435,2.713333333333333,0.963003663003663,1.4779487179487178
6.065101093001431,2.6617582417582417,0.6454945054945055,0.9307692307692307
6.072313581000344,2.6617582417582417,0.6454945054945055,0.9307692307692307
6.076069242000813,2.705274725274725,1.1709157509157508,1.4489377289377288
6.081494409001607,2.713333333333333,0.7881318681318681,1.1757509157509156
6.084535889000108,2.713333333333333,0.7881318681318681,1.1757509157509156
6.086095286000273,2.713333333333333,0.7881318681318681,1.1757509157509156
6.091010277999885,2.713333333333333,0.7881318681318681,1.1757509157509156
6.0949151780005195,2.713333333333333,0.7881318681318681,1.1757509157509156
6.098770910000894,2.713333333333333,0.7881318681318681,1.1757509157509156
6.1059548860012,2.713333333333333,0.7881318681318681,1.1757509157509156
6.110235551001097,2.6536996336996337,0.6189010989010989,0.8775824175824175
6.11187981600051,2.6536996336996337,0.6189010989010989,0.8775824175824175
6.117170225001246,2.6536996336996337,0.6189010989010989,0.8775824175824175
6.120365837001373,2.6536996336996337,0.6189010989010989,0.8775824175824175
6.120652929001153,2.6536996336996337,0.6189010989010989,0.8775824175824175
6.126275995000469,2.6536996336996337,0.6189010989010989,0.8775824175824175
6.126529717001176,2.6536996336996337,0.6189010989010989,0.8775824175824175
6.132256376000441,2.6536996336996337,0.6189010989010989,0.8775824175824175
6.132396898001389,2.942197802197802,0.09428571428571428,0.3102564102564102
6.139999370001533,2.942197802197802,0.09428571428571428,0.3102564102564102
6.144338953999977,2.6617582417582417,0.8372893772893772,1.0468131868131867
6.145225303000188,2.6617582417582417,0.8372893772893772,1.0468131868131867
6.147039560000849,2.6617582417582417,0.8372893772893772,1.0468131868131867
6.152658114000587,2.6617582417582417,0.8372893772893772,1.0468131868131867
6.1613233700009005,2.6617582417582417,0.8372893772893772,1.0468131868131867
6.167995703000997,2.6617582417582417,0.8372893772893772,1.0468131868131867
6.172867709001366,3.3,0.2715750915750916,0.386007326007326
6.17718037800114,3.3,0.2715750915750916,0.386007326007326
6.178075327001352,3.3,0.2715750915750916,0.386007326007326
6.179683394000676,3.3,0.2715750915750916,0.386007326007326
6.185085802000685,2.66014652014652,0.9307692307692307,1.2273260073260073
6.186409575000653,2.66014652014652,0.9307692307692307,1.2273260073260073
6.192312101000425,2.66014652014652,0.9307692307692307,1.2273260073260073
6.198250979001386,2.66014652014652,0.9307692307692307,1.2273260073260073
6.204285384001196,2.66014652014652,0.9307692307692307,1.2273260073260073
6.208123324000553,2.6706227106227107,0.8131135531135532,1.0516483516483515
6.213804560000426,3.3,0.24901098901098898,0.3529670329670329
6.214625905000503,3.3,0.24901098901098898,0.3529670329670329
6.216197572000965,3.3,0.24901098901098898,0.3529670329670329
6.220758206000028,3.3,0.24901098901098898,0.3529670329670329
6.221631256999899,3.3,0.24901098901098898,0.3529670329670329
6.223262445000728,3.3,0.24901098901098898,0.3529670329670329
6.227370958000392,2.6536996336996337,0.6164835164835165,0.7558974358974359
6.229738265001288,2.6536996336996337,0.6164835164835165,0.7558974358974359
6.230022761001237,2.6536996336996337,0.6164835164835165,0.7558974358974359
6.235033708000628,2.6536996336996337,0.6164835164835165,0.7558974358974359
6.241864562000046,2.6536996336996337,0.6164835164835165,0.7558974358974359
6.246694348999881,2.6536996336996337,0.6164835164835165,0.7558974358974359
6.252992887000801,2.6536996336996337,0.6164835164835165,0.7558974358974359
6.256572085001608,2.3837362637362633,0.08783882783882783,0.29736263736263735
6.256721458999891,2.3837362637362633,0.08783882783882783,0.29736263736263735
6.26134009100133,2.3837362637362633,0.08783882783882783,0.29736263736263735
6.261611032001383,2.3837362637362633,0.08783882783882783,0.29736263736263735
6.26815409000119,2.3837362637362633,0.08783882783882783,0.29736263736263735
6.2716815270014195,2.3837362637362633,0.08783882783882783,0.29736263736263735
6.271921811001448,2.5312087912087913,0.1539194139194139,0.25545787545787546
6.277240043000347,2.5312087912087913,0.1539194139194139,0.25545787545787546
6.279550780000136,3.3,0.8227838827838827,0.5665201465201465
6.27981436400114,3.3,0.8227838827838827,0.5665201465201465
6.285342025001228,3.3,0.8227838827838827,0.5665201465201465
6.286356889000672,3.3,0.8227838827838827,0.5665201465201465
6.28666853300092,3.3,0.8227838827838827,0.5665201465201465
6.291778101000091,3.3,0.8227838827838827,0.5665201465201465
6.294858895000289,2.8358241758241753,0.06608058608058608,0.361025641025641
6.2976430660000915,2.8358241758241753,0.06608058608058608,0.361025641025641
6.301165006001611,2.8358241758241753,0.06608058608058608,0.361025641025641
6.301936486001068,2.6569230769230767,0.925128205128205,1.1765567765567766
6.304101262001495,2.6569230769230767,0.925128205128205,1.1765567765567766
6.304893973001526,2.6569230769230767,0.925128205128205,1.1765567765567766
6.306443881001542,2.6569230769230767,0.925128205128205,1.1765567765567766
6.310591123001359,2.6569230769230767,0.925128205128205,1.1765567765567766
6.313399272001334,2.6569230769230767,0.925128205128205,1.1765567765567766
6.316321928999969,2.6569230769230767,0.925128205128205,1.1765567765567766
6.319814673001019,2.655311355311355,0.49399267399267394,0.46739926739926735
6.320088787000714,2.655311355311355,0.49399267399267394,0.46739926739926735
6.324983058000726,2.655311355311355,0.9525274725274724,0.921098901098901
6.329886602001352,2.655311355311355,0.9525274725274724,0.921098901098901
6.334773481999946,2.655311355311355,0.9525274725274724,0.921098901098901
6.334902739999961,2.655311355311355,0.9525274725274724,0.921098901098901
6.339870907000659,2.655311355311355,0.9525274725274724,0.921098901098901
6.343366049000906,2.655311355311355,0.9525274725274724,0.921098901098901
6.343559525001183,2.655311355311355,0.9525274725274724,0.921098901098901
6.34841161300028,2.655311355311355,0.9525274725274724,0.921098901098901
6.353172813000128,2.655311355311355,0.9525274725274724,0.921098901098901
6.3534320870003285,2.655311355311355,0.9525274725274724,0.921098901098901
6.35823916100162,2.655311355311355,0.9525274725274724,0.921098901098901
6.36318198400113,2.6673992673992672,1.095164835164835,1.17010989010989
6.36824354700002,2.6673992673992672,1.095164835164835,1.17010989010989
6.371811480999895,2.6673992673992672,1.095164835164835,1.17010989010989
6.372003477001272,3.3,0.954945054945055,1.129010989010989
6.376816904001316,3.3,0.954945054945055,1.129010989010989
6.381714789000398,3.3,0.954945054945055,1.129010989010989
6.386657568000373,3.3,0.954945054945055,1.129010989010989
6.391547685001569,3.3,0.954945054945055,1.129010989010989
6.396513454999877,3.3,0.954945054945055,1.129010989010989
6.401663048000046,3.3,0.954945054945055,1.129010989010989
6.40512209300141,3.3,0.954945054945055,1.129010989010989
6.405335302000822,3.3,0.954945054945055,1.129010989010989
6.410211965001508,3.3,0.954945054945055,1.129010989010989
6.415075236000121,3.3,0.954945054945055,1.129010989010989
6.4152075790007075,2.681098901098901,0.8799999999999999,0.9065934065934066
6.420095981000486,2.681098901098901,0.8799999999999999,0.9065934065934066
6.424739030000637,2.3619780219780218,1.0822710622710623,1.0967765567765566
6.424959346000833,2.3619780219780218,1.0822710622710623,1.0967765567765566
6.429607961001238,2.3619780219780218,1.0822710622710623,1.0967765567765566
6.42992208600117,2.3128205128205126,0.10556776556776555,0.224029304029304
6.434450869001012,2.3128205128205126,0.10556776556776555,0.224029304029304
6.434829087000253,2.740732600732601,1.7833699633699631,1.9316483516483516
6.43905656700008,2.740732600732601,1.7833699633699631,1.9316483516483516
6.441949542000657,2.6827106227106228,1.4134798534798534,1.5810989010989012
6.444886580000457,2.6827106227106228,1.4134798534798534,1.5810989010989012
6.447752103000312,2.6536996336996337,0.7212454212454212,0.8469597069597068
6.450616079000611,2.6536996336996337,0.7212454212454212,0.8469597069597068
6.454812181000307,2.6536996336996337,0.7212454212454212,0.8469597069597068
6.457073721001507,3.3,1.1064468864468864,0.7164102564102564
6.457383552000465,3.3,1.1064468864468864,0.7164102564102564
6.462190276000911,3.3,1.1064468864468864,0.7164102564102564
6.4623590750015865,3.3,1.1064468864468864,0.7164102564102564
6.467358839001463,3.3,1.1064468864468864,0.7164102564102564
6.472170544000619,3.3,0.734139194139194,0.5093040293040293
6.477425390999997,2.6698168498168497,1.9123076923076923,1.696336996336996
6.480656133000593,1.9783882783882782,1.0822710622710623,1.0234432234432234
6.481586341000366,2.6665934065934067,1.2418315018315018,1.286959706959707
6.483268874000714,2.6665934065934067,1.2418315018315018,1.286959706959707
6.487179022000419,2.9824908424908423,0.684981684981685,0.6293772893772893
6.490984781001316,2.9824908424908423,0.684981684981685,0.6293772893772893
6.496370385000773,2.6617582417582417,1.7720879120879118,1.6697435897435895
6.4980571390005935,2.6617582417582417,1.7720879120879118,1.6697435897435895
6.50115041600111,2.6617582417582417,1.7720879120879118,1.6697435897435895
6.503446136001003,2.6617582417582417,1.7720879120879118,1.6697435897435895
6.503626086001532,2.6617582417582417,1.7720879120879118,1.6697435897435895
6.5091396480002,2.6617582417582417,1.7720879120879118,1.6697435897435895
6.510150755000723,2.6617582417582417,1.7720879120879118,1.6697435897435895
6.511010980000719,2.6617582417582417,1.7720879120879118,1.6697435897435895
6.512662060000366,2.6617582417582417,1.7720879120879118,1.6697435897435895
6.516630848000204,2.6883516483516483,1.9477655677655676,1.843003663003663
6.520508456000243,2.655311355311355,1.5545054945054944,0.6035897435897435
6.5245540750001965,2.655311355311355,1.5545054945054944,0.6035897435897435
6.5278416050005035,2.655311355311355,1.5545054945054944,0.6035897435897435
6.528734356999848,2.655311355311355,1.5545054945054944,0.6035897435897435
6.530516959001034,2.6617582417582417,0.04271062271062271,0.35619047619047617
6.532854932000191,2.6617582417582417,0.04271062271062271,0.35619047619047617
6.5338497160009865,2.713333333333333,1.913919413919414,1.834139194139194
6.534698371000559,2.713333333333333,1.913919413919414,1.834139194139194
6.536327645000711,2.713333333333333,1.913919413919414,1.834139194139194
6.540132891001122,2.713333333333333,1.913919413919414,1.834139194139194
6.544111597000665,2.9260805860805856,1.095164835164835,1.1338461538461537
6.548026264999862,2.9679853479853477,0.8582417582417583,0.6092307692307692
6.551119280000421,2.9679853479853477,0.8582417582417583,0.6092307692307692
6.5535529630014935,2.9679853479853477,0.8582417582417583,0.6092307692307692
6.553756230001454,2.9679853479853477,0.8582417582417583,0.6092307692307692
6.559148323000045,2.9679853479853477,0.8582417582417583,0.6092307692307692
6.561511765999967,2.9679853479853477,0.8582417582417583,0.6092307692307692
6.56170423399999,2.9679853479853477,0.8582417582417583,0.6092307692307692
6.56693060500038,2.9679853479853477,0.8582417582417583,0.6092307692307692
6.569472548000704,2.9679853479853477,0.8582417582417583,0.6092307692307692
6.574115790001088,2.242710622710623,0.1515018315018315,0.25545787545787546
6.574938350000593,2.242710622710623,0.1515018315018315,0.25545787545787546
6.576498796001033,2.242710622710623,0.1515018315018315,0.25545787545787546
6.580275706000975,2.242710622710623,0.1515018315018315,0.25545787545787546
6.585898261000693,2.6649816849816848,1.1354578754578755,1.1435164835164835
6.58686106300047,2.6649816849816848,1.1354578754578755,1.1435164835164835
6.587754703999963,2.6649816849816848,1.1354578754578755,1.1435164835164835
6.589302301001226,2.6649816849816848,1.1354578754578755,1.1435164835164835
6.593100742000388,2.6649816849816848,1.1354578754578755,1.1435164835164835
6.59774481200111,2.6649816849816848,1.1354578754578755,1.1435164835164835
6.598009141000148,2.6649816849816848,1.1354578754578755,1.1435164835164835
6.602539139001237,2.6649816849816848,1.1354578754578755,1.1435164835164835
6.603430043000117,2.9615384615384617,0.49238095238095236,0.34087912087912087
6.604968851001104,2.9615384615384617,0.49238095238095236,0.34087912087912087
6.609369174000676,2.9615384615384617,0.49238095238095236,0.34087912087912087
6.6101972510005,2.9615384615384617,0.49238095238095236,0.34087912087912087
6.611962755001514,2.9615384615384617,0.49238095238095236,0.34087912087912087
6.615131041000495,2.9615384615384617,0.49238095238095236,0.34087912087912087
6.616843134001101,2.9615384615384617,0.49238095238095236,0.34087912087912087
6.6206451320013,2.9615384615384617,0.49238095238095236,0.34087912087912087
6.625093351000032,2.9615384615384617,0.49238095238095236,0.34087912087912087
6.625408208001318,2.9615384615384617,0.49238095238095236,0.34087912087912087
6.630666549001035,2.9615384615384617,0.49238095238095236,0.34087912087912087
6.633733132000998,3.3,1.0242490842490841,1.0734065934065933
6.6360371810005745,3.3,1.0242490842490841,1.0734065934065933
6.636295014001007,3.3,1.0242490842490841,1.0734065934065933
6.641593623000517,3.3,1.0242490842490841,1.0734065934065933
6.645563996000419,2.6714285714285713,1.0766300366300365,1.0484249084249082
6.648305218001042,2.6714285714285713,1.0766300366300365,1.0484249084249082
6.6533078480006225,2.6714285714285713,1.0766300366300365,1.0484249084249082
6.656658660000176,2.3998534798534794,0.32476190476190475,0.4722344322344322
6.657534571000724,2.3998534798534794,0.32476190476190475,0.4722344322344322
6.658415945001252,2.3998534798534794,0.32476190476190475,0.4722344322344322
6.66005695900094,2.3998534798534794,0.32476190476190475,0.4722344322344322
6.6639040670015675,2.3998534798534794,0.32476190476190475,0.4722344322344322
6.668256379000013,2.3998534798534794,0.32476190476190475,0.4722344322344322
6.669236343001103,2.3998534798534794,0.32476190476190475,0.4722344322344322
6.670236875001137,2.3998534798534794,0.32476190476190475,0.4722344322344322
6.671178705000784,2.3998534798534794,0.32476190476190475,0.4722344322344322
6.67209034500047,2.3998534798534794,0.32476190476190475,0.4722344322344322
6.67393621500014,2.3998534798534794,0.32476190476190475,0.4722344322344322
6.676533476000259,2.3998534798534794,0.32476190476190475,0.4722344322344322
6.6826788390008005,2.3998534798534794,0.32476190476190475,0.4722344322344322
6.68652597000073,2.6714285714285713,1.4513553113553113,1.1676923076923076
6.690364685000532,3.3,0.40937728937728934,0.614065934065934
6.695059687001049,3.3,0.40937728937728934,0.614065934065934
6.695359635001296,2.7004395604395603,2.0855677655677654,1.838974358974359
6.699931593000656,2.7004395604395603,2.0855677655677654,1.838974358974359
6.700824150000699,2.768131868131868,0.8034432234432234,0.5778021978021978
6.7024113060015225,2.768131868131868,0.8034432234432234,0.5778021978021978
6.706149480000022,2.768131868131868,0.8034432234432234,0.5778021978021978
6.71169841200026,2.768131868131868,0.8034432234432234,0.5778021978021978
6.712731025001631,2.768131868131868,0.8034432234432234,0.5778021978021978
6.713027396001053,2.768131868131868,0.8034432234432234,0.5778021978021978
6.718447590001233,2.768131868131868,0.8034432234432234,0.5778021978021978
6.720004711000001,2.768131868131868,0.8034432234432234,0.5778021978021978
6.7238212200009,2.768131868131868,0.8034432234432234,0.5778021978021978
6.729148542000985,2.768131868131868,0.8034432234432234,0.5778021978021978
6.731438982000327,2.768131868131868,0.8034432234432234,0.5778021978021978
6.731751469000301,2.768131868131868,0.8034432234432234,0.5778021978021978
6.7370385070007615,2.768131868131868,0.8034432234432234,0.5778021978021978
6.739944902001298,2.768131868131868,0.8034432234432234,0.5778021978021978
6.743669141000282,2.768131868131868,0.8034432234432234,0.5778021978021978
6.747616706001281,2.768131868131868,0.8034432234432234,0.5778021978021978
6.752793093000946,2.768131868131868,0.8034432234432234,0.5778021978021978
6.755175450000024,2.6923809523809523,1.9558241758241757,1.68021978021978
6.755369386000893,2.6923809523809523,1.9558241758241757,1.68021978021978
6.760240865000014,3.3,1.6133333333333333,0.5141391941391941
6.764850845000183,1.0806593406593406,1.5013186813186812,0.5358974358974359
6.7657018460013205,1.0806593406593406,1.5013186813186812,0.5358974358974359
6.767623511001148,1.0806593406593406,1.5013186813186812,0.5358974358974359
6.769930442000259,1.0806593406593406,1.5013186813186812,0.5358974358974359
6.770134050000706,1.0806593406593406,1.5013186813186812,0.5358974358974359
6.775403790001292,1.0806593406593406,1.5013186813186812,0.5358974358974359
6.777888028000234,2.6722344322344322,2.1234432234432234,1.6737728937728935
6.778004454001348,2.6722344322344322,2.1234432234432234,1.6737728937728935
6.78252227700068,2.6722344322344322,2.1234432234432234,1.6737728937728935
6.782793437001601,2.6722344322344322,2.1234432234432234,1.6737728937728935
6.78735889300151,2.6722344322344322,2.1234432234432234,1.6737728937728935
6.78762658100095,2.6722344322344322,2.1234432234432234,1.6737728937728935
6.792893935000393,2.6722344322344322,2.1234432234432234,1.6737728937728935
6.795402995001496,2.6722344322344322,2.1234432234432234,1.6737728937728935
6.800654733000556,2.6722344322344322,2.1234432234432234,1.6737728937728935
6.803739832001156,2.6722344322344322,2.1234432234432234,1.6737728937728935
6.805371565000314,2.6722344322344322,2.1234432234432234,1.6737728937728935
6.809252521999952,2.6722344322344322,2.1234432234432234,1.6737728937728935
6.813720396999997,2.5110622710622708,0.09267399267399268,0.3432967032967033
