time,emg1,emg2,emg3
0.03699876700193272,1.9268131868131868,3.3,3.3
0.03762958800143679,1.9268131868131868,3.3,3.3
0.04625604900138569,0.95010989010989,0.618095238095238,0.4891575091575091
0.05353015400032746,0.95010989010989,0.618095238095238,0.4891575091575091
0.058994995000830386,0.95010989010989,0.618095238095238,0.4891575091575091
0.05926625600113766,0.95010989010989,0.618095238095238,0.4891575091575091
0.06483130800188519,0.95010989010989,0.618095238095238,0.4891575091575091
0.06586324599993532,0.95010989010989,0.618095238095238,0.4891575091575091
0.06684247500015772,0.95010989010989,0.618095238095238,0.4891575091575091
0.06714042699968559,0.95010989010989,0.618095238095238,0.4891575091575091
0.07277755099858041,0.95010989010989,0.618095238095238,0.4891575091575091
0.07297924000158673,0.95010989010989,0.618095238095238,0.4891575091575091
0.07891512399874046,0.95010989010989,0.618095238095238,0.4891575091575091
0.09009438100110856,0.95010989010989,0.618095238095238,0.4891575091575091
0.10016433000055258,0.95010989010989,0.618095238095238,0.4891575091575091
0.10510250700099277,0.95010989010989,0.618095238095238,0.4891575091575091
0.1099841799987189,0.95010989010989,0.618095238095238,0.4891575091575091
0.11564200300199445,0.95010989010989,0.618095238095238,0.4891575091575091
0.11585636000017985,0.95010989010989,0.618095238095238,0.4891575091575091
0.12134394999884535,0.95010989010989,0.618095238095238,0.4891575091575091
0.12533729400092852,0.95010989010989,0.618095238095238,0.4891575091575091
0.12563692700132378,0.95010989010989,0.618095238095238,0.4891575091575091
0.13101770499997656,0.95010989010989,0.618095238095238,0.4891575091575091
0.1328475400005118,0.95010989010989,0.618095238095238,0.4891575091575091
0.1351753259987163,0.95010989010989,0.618095238095238,0.4891575091575091
0.1353972729993984,0.95010989010989,0.618095238095238,0.4891575091575091
0.13996915800089482,0.95010989010989,0.618095238095238,0.4891575091575091
0.14028508399860584,0.95010989010989,0.618095238095238,0.4891575091575091
0.14580118600133574,0.95010989010989,0.618095238095238,0.4891575091575091
0.14683761400010553,3.3,2.8237362637362633,2.5602197802197804
0.1480165550019592,3.3,2.8237362637362633,2.5602197802197804
0.1482188199988741,3.3,2.8237362637362633,2.5602197802197804
0.15557231300044805,3.3,2.8237362637362633,2.5602197802197804
0.15875762699943152,3.3,2.8237362637362633,2.5602197802197804
0.16038636099983705,3.3,2.8237362637362633,2.5602197802197804
0.16425376199913444,3.3,2.8237362637362633,2.5602197802197804
0.1688415150019864,3.3,2.8237362637362633,2.5602197802197804
0.169132950999483,3.3,2.8237362637362633,2.5602197802197804
0.17369705999954022,3.3,2.8237362637362633,2.5602197802197804
0.17402410700015025,3.3,2.8237362637362633,2.5602197802197804
0.17884413100182428,3.3,2.8237362637362633,2.5602197802197804
0.18428100399978575,3.3,2.8237362637362633,2.5602197802197804
0.185939283001062,3.3,2.8237362637362633,2.5602197802197804
0.18974393000098644,0.18857142857142856,0.3658608058608058,0.7389743589743589
0.19432251699981862,0.18857142857142856,0.3658608058608058,0.7389743589743589
0.19458583999949042,0.18857142857142856,0.3658608058608058,0.7389743589743589
0.2000498699999298,0.18857142857142856,0.3658608058608058,0.7389743589743589
0.20251209100024425,0.5173626373626373,1.7946520146520144,0.6978754578754578
0.2092874939989997,2.0783150183150183,2.9196336996336996,3.3
0.2124200110010861,2.0783150183150183,2.9196336996336996,3.3
0.2150348329996632,2.0783150183150183,2.9196336996336996,3.3
0.21981068999957643,1.9372893772893773,3.3,3.3
0.22631463200013968,1.9372893772893773,3.3,3.3
0.2328354599994782,3.3,2.8471062271062273,2.561831501831502
0.23629087600056664,3.3,2.8471062271062273,2.561831501831502
0.23646280100001604,3.3,2.8471062271062273,2.561831501831502
0.24514508599895635,3.3,2.8471062271062273,2.561831501831502
0.2522224679996725,3.3,2.8471062271062273,2.561831501831502
0.2563158500015561,3.3,2.8471062271062273,2.561831501831502
0.25952279299963266,3.3,2.8471062271062273,2.561831501831502
0.2605804929989972,3.3,2.8471062271062273,2.561831501831502
0.26097884599948884,3.3,2.8471062271062273,2.561831501831502
0.26956235200123047,3.3,2.8471062271062273,2.561831501831502
0.2772373580010026,3.3,2.8471062271062273,2.561831501831502
0.2834368949988857,3.3,2.8471062271062273,2.561831501831502
0.2867167789991072,3.3,2.8471062271062273,2.561831501831502
0.2876331650004431,3.3,2.8471062271062273,2.561831501831502
0.28855156999998144,3.3,2.8471062271062273,2.561831501831502
0.29017778300112695,3.3,2.8471062271062273,2.561831501831502
0.29518935899977805,3.3,2.8471062271062273,2.561831501831502
0.2991739499993855,3.3,2.8471062271062273,2.561831501831502
0.3023748230007186,3.3,2.8471062271062273,2.561831501831502
0.30335813900092035,3.3,2.8471062271062273,2.561831501831502
0.30500476399902254,3.3,2.8471062271062273,2.561831501831502
0.30886229899988393,3.3,2.8471062271062273,2.561831501831502
0.3138925509992987,3.3,2.8471062271062273,2.561831501831502
0.316610033998586,3.3,2.8471062271062273,2.561831501831502
0.3207222269993508,3.3,2.8471062271062273,2.561831501831502
0.3232090989986318,3.3,2.8471062271062273,2.561831501831502
0.3316179130015371,3.3,2.8471062271062273,2.561831501831502
0.33883024800161365,2.174212454212454,3.3,3.3
0.3448424199996225,2.174212454212454,3.3,3.3
0.35095709999950486,0.3642490842490842,0.3852014652014652,0.47062271062271055
0.3567156999997678,0.08542124542124542,0.7438095238095238,0.4819047619047619
0.3669240630006243,1.7527472527472527,3.3,3.3
0.3750295999998343,0.767985347985348,0.3843956043956044,0.5197802197802197
0.3816589589987416,0.767985347985348,0.3843956043956044,0.5197802197802197
0.38537307899969164,0.767985347985348,0.3843956043956044,0.5197802197802197
0.3910557279996283,0.767985347985348,0.3843956043956044,0.5197802197802197
0.3913235979998717,0.767985347985348,0.3843956043956044,0.5197802197802197
0.39796985300199594,0.767985347985348,0.3843956043956044,0.5197802197802197
0.40164861399898655,0.767985347985348,0.3843956043956044,0.5197802197802197
0.4070531450015551,0.767985347985348,0.3843956043956044,0.5197802197802197
0.40870276400164585,0.18695970695970696,0.43274725274725273,0.7961904761904761
0.41569000800154754,0.18695970695970696,0.43274725274725273,0.7961904761904761
0.4197787490011251,1.6495970695970694,3.3,3.1138461538461537
0.42300376699859044,0.6696703296703297,0.473040293040293,0.49479853479853475
0.4246155600012571,0.6696703296703297,0.473040293040293,0.49479853479853475
0.43049622000035015,0.6696703296703297,0.473040293040293,0.49479853479853475
0.43714670600093086,0.9694505494505494,1.3143589743589743,2.0154578754578756
0.44099685399851296,0.9694505494505494,1.3143589743589743,2.0154578754578756
0.44981862300119246,0.9694505494505494,1.3143589743589743,2.0154578754578756
0.45470843899965985,0.9694505494505494,1.3143589743589743,2.0154578754578756
0.45857756799887284,0.9694505494505494,1.3143589743589743,2.0154578754578756
0.46402768600091804,0.9694505494505494,1.3143589743589743,2.0154578754578756
0.46507652700165636,0.9694505494505494,1.3143589743589743,2.0154578754578756
0.46532993800065015,0.9694505494505494,1.3143589743589743,2.0154578754578756
0.47032201700130827,0.9694505494505494,1.3143589743589743,2.0154578754578756
0.4752917799996794,1.4158974358974357,2.3772893772893773,2.573113553113553
0.48032360800061724,1.4158974358974357,2.3772893772893773,2.573113553113553
0.4836418730010337,1.4158974358974357,2.3772893772893773,2.573113553113553
0.48388651099958224,3.3,3.3,2.843882783882784
0.48880647600162774,3.3,3.3,2.843882783882784
0.4951340119987435,3.3,3.3,2.843882783882784
0.4984530959991389,3.3,2.8293772893772893,2.561831501831502
0.498661000001448,3.3,2.8293772893772893,2.561831501831502
0.5035940130001109,3.3,2.8293772893772893,2.561831501831502
0.5084705459994439,3.3,2.8293772893772893,2.561831501831502
0.5158063009985199,3.3,2.8293772893772893,2.561831501831502
0.5206129639991559,3.3,2.8293772893772893,2.561831501831502
0.527037782001571,0.6616117216117217,0.4085714285714286,0.5367032967032966
0.5316923909995239,0.6616117216117217,0.4085714285714286,0.5367032967032966
0.5365666139987297,0.9194871794871795,1.1757509157509156,2.021904761904762
0.5420988410005521,0.9194871794871795,1.1757509157509156,2.021904761904762
0.5435215780016733,0.9194871794871795,1.1757509157509156,2.021904761904762
0.5496519799999078,0.9194871794871795,1.1757509157509156,2.021904761904762
0.5536647820008511,0.9194871794871795,1.1757509157509156,2.021904761904762
0.557634347002022,0.9194871794871795,1.1757509157509156,2.021904761904762
0.5622871400009899,0.9194871794871795,1.1757509157509156,2.021904761904762
0.5624375400002464,0.3811721611721612,0.47706959706959706,0.46417582417582415
0.567834101999324,0.3811721611721612,0.47706959706959706,0.46417582417582415
0.5697083390004991,0.0,0.5012454212454212,0.5036630036630036
0.5714584029992693,0.0,0.5012454212454212,0.5036630036630036
0.574662339000497,0.0,0.5012454212454212,0.5036630036630036
0.5769076799988397,0.0,0.5012454212454212,0.5036630036630036
0.5771022859989898,0.0,0.5012454212454212,0.5036630036630036
0.5836578070011456,0.0,0.5012454212454212,0.5036630036630036
0.5877329489994736,0.0,0.5012454212454212,0.5036630036630036
0.5905610139998316,0.5721611721611721,1.2998534798534798,0.7841025641025641
0.5953257420005684,1.1854212454212454,1.7946520146520144,2.253992673992674
0.6005457819992444,2.002564102564102,3.155750915750916,3.3
0.6030880549988069,0.40534798534798533,0.42388278388278383,0.42388278388278383
0.6086096340004588,0.40534798534798533,0.42388278388278383,0.42388278388278383
0.6106566749986087,0.40534798534798533,0.42388278388278383,0.42388278388278383
0.6121867980000388,0.40534798534798533,0.42388278388278383,0.42388278388278383
0.6176337700017029,0.40534798534798533,0.42388278388278383,0.42388278388278383
0.6187682400013728,0.9396336996336996,0.9307692307692307,0.5423443223443223
0.619112086998939,0.9396336996336996,0.9307692307692307,0.5423443223443223
0.6248121749995335,0.9396336996336996,0.9307692307692307,0.5423443223443223
0.6250343009996868,2.165347985347985,3.2903296703296703,3.3
0.6316149449994555,2.165347985347985,3.2903296703296703,3.3
0.6357439419989532,0.9613919413919414,1.2305494505494505,2.095238095238095
0.6388278049998917,0.9613919413919414,1.2305494505494505,2.095238095238095
0.6405300539991003,0.9613919413919414,1.2305494505494505,2.095238095238095
0.6453078250015096,0.9613919413919414,1.2305494505494505,2.095238095238095
0.6506748770007107,0.4448351648351648,0.4996336996336996,0.8574358974358974
0.6523549300000013,0.29816849816849816,0.7438095238095238,0.5858608058608058
0.6564217429986456,0.29816849816849816,0.7438095238095238,0.5858608058608058
0.6595951199997216,0.29816849816849816,0.7438095238095238,0.5858608058608058
0.6627633749994857,0.29816849816849816,0.7438095238095238,0.5858608058608058
0.663840805998916,0.29816849816849816,0.7438095238095238,0.5858608058608058
0.6640750160004245,0.29816849816849816,0.7438095238095238,0.5858608058608058
0.6700581229997624,0.29816849816849816,0.7438095238095238,0.5858608058608058
0.674706359000993,0.29816849816849816,0.7438095238095238,0.5858608058608058
0.6749572580010863,0.29816849816849816,0.7438095238095238,0.5858608058608058
0.6823933890009357,0.29816849816849816,0.7438095238095238,0.5858608058608058
0.6877271359990118,0.29816849816849816,0.7438095238095238,0.5858608058608058
0.6901388030019007,2.5602197802197804,3.3,3.3
0.6902714569987438,2.5602197802197804,3.3,3.3
0.6974100840016035,2.5602197802197804,3.3,3.3
0.7007053240013192,2.5602197802197804,3.3,3.3
0.7016431849988294,2.5602197802197804,3.3,3.3
0.7025896019986249,2.5602197802197804,3.3,3.3
0.7042190979991574,2.5602197802197804,3.3,3.3
0.7081990750011755,2.5602197802197804,3.3,3.3
0.714089369001158,2.5602197802197804,3.3,3.3
0.7193003009997483,2.5602197802197804,3.3,3.3
0.7209550799998397,0.112014652014652,2.6166300366300366,1.6213919413919413
0.7241024389986706,0.112014652014652,2.6166300366300366,1.6213919413919413
0.7257212910008093,0.112014652014652,2.6166300366300366,1.6213919413919413
0.7311039779997373,0.112014652014652,2.6166300366300366,1.6213919413919413
0.7320939540004474,0.17245421245421244,0.7647619047619048,0.5979487179487178
0.7329961860014009,0.17245421245421244,0.7647619047619048,0.5979487179487178
0.7346528199996101,0.17245421245421244,0.7647619047619048,0.5979487179487178
0.7378814090006927,0.17245421245421244,0.7647619047619048,0.5979487179487178
0.7412695739985793,0.17245421245421244,0.7647619047619048,0.5979487179487178
0.741534541000874,0.17245421245421244,0.7647619047619048,0.5979487179487178
0.7502435329988657,0.17245421245421244,0.7647619047619048,0.5979487179487178
0.7555514460000268,0.17245421245421244,0.7647619047619048,0.5979487179487178
0.7579060190000746,0.17245421245421244,0.7647619047619048,0.5979487179487178
0.7581897919990297,0.17245421245421244,0.7647619047619048,0.5979487179487178
0.7671770589986409,0.17245421245421244,0.7647619047619048,0.5979487179487178
0.7732734509991133,0.17245421245421244,0.7647619047619048,0.5979487179487178
0.7805130300002929,0.17245421245421244,0.7647619047619048,0.5979487179487178
0.7843268620017625,0.3441025641025641,0.46659340659340653,0.5157509157509157
0.7889542060001986,0.423076923076923,0.356996336996337,0.4488644688644688
0.7897986860007222,0.21999999999999997,0.9823443223443222,0.6430769230769231
0.7914912820015161,0.21999999999999997,0.9823443223443222,0.6430769230769231
0.7974084580018825,0.21999999999999997,0.9823443223443222,0.6430769230769231
0.8029974669989315,0.21999999999999997,0.9823443223443222,0.6430769230769231
0.803286823000235,0.21999999999999997,0.9823443223443222,0.6430769230769231
0.8089226219999546,0.21999999999999997,0.9823443223443222,0.6430769230769231
0.8097675600001821,0.21999999999999997,0.9823443223443222,0.6430769230769231
0.8110995950009965,1.7213186813186814,3.3,3.2726007326007327
0.8112520200011204,1.7213186813186814,3.3,3.2726007326007327
0.8168326609993528,1.7213186813186814,3.3,3.2726007326007327
0.8171373110017157,1.7213186813186814,3.3,3.2726007326007327
0.8218512349994853,1.7213186813186814,3.3,3.2726007326007327
0.8219851940011722,1.7213186813186814,3.3,3.2726007326007327
0.8268981709989021,1.7213186813186814,3.3,3.2726007326007327
0.832262924999668,1.7213186813186814,3.3,3.2726007326007327
0.8339149790008378,1.7213186813186814,3.3,3.2726007326007327
0.8372370990000491,1.7213186813186814,3.3,3.2726007326007327
0.8375494310021168,1.0234432234432234,1.0266666666666666,0.5874725274725274
0.8421858080000675,0.8848351648351648,0.502051282051282,0.4561172161172161
0.8424405490004574,0.8848351648351648,0.502051282051282,0.4561172161172161
0.849126368000725,0.8848351648351648,0.502051282051282,0.4561172161172161
0.8531214469985571,0.8848351648351648,0.502051282051282,0.4561172161172161
0.8563598920009099,0.8848351648351648,0.502051282051282,0.4561172161172161
0.8574361840001075,0.8848351648351648,0.502051282051282,0.4561172161172161
0.857792683000298,0.8848351648351648,0.502051282051282,0.4561172161172161
0.8639534979993186,0.8848351648351648,0.502051282051282,0.4561172161172161
0.8684684309992008,0.8848351648351648,0.502051282051282,0.4561172161172161
0.8687457050000376,0.8848351648351648,0.502051282051282,0.4561172161172161
0.874237099000311,0.8848351648351648,0.502051282051282,0.4561172161172161
0.8752021190011874,1.066959706959707,1.3063003663003663,2.0863736263736263
0.8769583220018831,1.066959706959707,1.3063003663003663,2.0863736263736263
0.8807619700019131,1.066959706959707,1.3063003663003663,2.0863736263736263
0.884882017999189,1.066959706959707,1.3063003663003663,2.0863736263736263
0.8872819230018649,2.2241758241758243,2.017069597069597,2.8551648351648353
0.8874528369997279,2.2241758241758243,2.017069597069597,2.8551648351648353
0.8925348250013485,2.2241758241758243,2.017069597069597,2.8551648351648353
0.897089985999628,2.2241758241758243,2.017069597069597,2.8551648351648353
0.8972155640003621,2.2241758241758243,2.017069597069597,2.8551648351648353
0.9021633670017764,2.2241758241758243,2.017069597069597,2.8551648351648353
0.9060292079993815,2.2241758241758243,2.017069597069597,2.8551648351648353
0.9118822849995922,2.2241758241758243,2.017069597069597,2.8551648351648353
0.918101077000756,2.2241758241758243,2.017069597069597,2.8551648351648353
0.9221781759988517,0.28527472527472525,2.149230769230769,1.0443956043956042
0.9246552510012407,0.28527472527472525,2.149230769230769,1.0443956043956042
0.9248045320018718,0.28527472527472525,2.149230769230769,1.0443956043956042
0.9325075470005686,0.28527472527472525,2.149230769230769,1.0443956043956042
0.9371521760003816,0.28527472527472525,2.149230769230769,1.0443956043956042
0.937395501001447,0.28527472527472525,2.149230769230769,1.0443956043956042
0.9431810360001691,0.28527472527472525,2.149230769230769,1.0443956043956042
0.9444581489988195,0.28527472527472525,2.149230769230769,1.0443956043956042
0.9519113739988825,0.28527472527472525,2.149230769230769,1.0443956043956042
0.9567128540002159,0.3852014652014652,1.195091575091575,0.78007326007326
0.9638434250009595,0.3852014652014652,1.195091575091575,0.78007326007326
0.9671858350011462,0.3852014652014652,1.195091575091575,0.78007326007326
0.9675133679993451,0.3852014652014652,1.195091575091575,0.78007326007326
0.9729537640014314,0.3852014652014652,1.195091575091575,0.78007326007326
0.974684922999586,1.7914285714285711,2.540879120879121,3.3
0.9798180530015088,1.7914285714285711,2.540879120879121,3.3
0.9813822520009126,1.7914285714285711,2.540879120879121,3.3
0.9863672680003219,1.7914285714285711,2.540879120879121,3.3
0.989470390999486,1.7914285714285711,2.540879120879121,3.3
0.9919304009999905,1.7914285714285711,2.540879120879121,3.3
0.9998465150019911,1.7914285714285711,2.540879120879121,3.3
1.0043244959997537,1.7914285714285711,2.540879120879121,3.3
1.0052614619999076,1.7914285714285711,2.540879120879121,3.3
1.0069186330001685,1.7914285714285711,2.540879120879121,3.3
1.0112604640016798,1.7914285714285711,2.540879120879121,3.3
1.0125622279992967,1.7914285714285711,2.540879120879121,3.3
1.0187017259995628,1.7914285714285711,2.540879120879121,3.3
1.022475777001091,1.7914285714285711,2.540879120879121,3.3
1.02644629399947,1.7914285714285711,2.540879120879121,3.3
1.033891760998813,0.1418315018315018,0.39487179487179486,0.6398534798534798
1.03798540400021,1.0178021978021978,1.3095238095238093,1.934065934065934
1.041370373000973,1.0178021978021978,1.3095238095238093,1.934065934065934
1.0415552170015872,1.0178021978021978,1.3095238095238093,1.934065934065934
1.0480552400003944,1.0178021978021978,1.3095238095238093,1.934065934065934
1.0514132060015982,1.0178021978021978,1.3095238095238093,1.934065934065934
1.0516916500018851,1.0178021978021978,1.3095238095238093,1.934065934065934
1.0563443440005358,1.0178021978021978,1.3095238095238093,1.934065934065934
1.0565788860003522,1.0178021978021978,1.3095238095238093,1.934065934065934
1.0651509900017118,1.0178021978021978,1.3095238095238093,1.934065934065934
1.06919007200122,0.5318681318681319,0.5036630036630036,0.5044688644688645
1.0731923849998566,0.5318681318681319,0.5036630036630036,0.5044688644688645
1.0774140719986462,1.6012454212454212,2.544908424908425,2.5271794871794873
1.0793576719988778,0.4013186813186813,2.021098901098901,0.9122344322344322
1.0815602660004515,0.4013186813186813,2.021098901098901,0.9122344322344322
1.081739622000896,0.5874725274725274,0.6591941391941392,0.4786813186813187
1.0873280429987062,0.5874725274725274,0.6591941391941392,0.4786813186813187
1.0882625289996213,0.5874725274725274,0.6591941391941392,0.4786813186813187
1.0898552159997053,0.5874725274725274,0.6591941391941392,0.4786813186813187
1.0944136600010097,0.5874725274725274,0.6591941391941392,0.4786813186813187
1.0946558889991138,0.5874725274725274,0.6591941391941392,0.4786813186813187
1.0997213289992942,0.5874725274725274,0.6591941391941392,0.4786813186813187
1.102888752000581,0.718021978021978,1.9074725274725273,0.801025641025641
1.1045209190015157,0.718021978021978,1.9074725274725273,0.801025641025641
1.109005859001627,0.112014652014652,0.3642490842490842,0.6962637362637363
1.1100426010016236,0.112014652014652,0.3642490842490842,0.6962637362637363
1.110376205000648,1.7720879120879118,3.1654212454212454,2.872087912087912
1.115493412999058,1.7720879120879118,3.1654212454212454,2.872087912087912
1.1187160310000763,1.7720879120879118,3.1654212454212454,2.872087912087912
1.1204474930018478,1.7720879120879118,3.1654212454212454,2.872087912087912
1.1237652429990703,1.7720879120879118,3.1654212454212454,2.872087912087912
1.1246738830013783,1.7720879120879118,3.1654212454212454,2.872087912087912
1.1256398190016625,1.7720879120879118,3.1654212454212454,2.872087912087912
1.1266444550019514,1.7720879120879118,3.1654212454212454,2.872087912087912
1.1275318629996036,1.7720879120879118,3.1654212454212454,2.872087912087912
1.1291429430020798,1.7720879120879118,3.1654212454212454,2.872087912087912
1.1330934219986375,1.7720879120879118,3.1654212454212454,2.872087912087912
1.1369988049991662,0.7567032967032966,0.9517216117216116,1.9090842490842492
1.1408157229998324,0.7567032967032966,0.9517216117216116,1.9090842490842492
1.1455856620013947,0.7567032967032966,0.9517216117216116,1.9090842490842492
1.150810110000748,1.070989010989011,0.751062271062271,1.402197802197802
1.154063795998809,1.4078388278388276,2.225787545787546,2.5441025641025643
1.154944448000606,1.5722344322344322,2.8213186813186812,3.3
1.156712754000182,1.5722344322344322,2.8213186813186812,3.3
1.1591744990000734,1.5722344322344322,2.8213186813186812,3.3
1.1593212410007254,1.5722344322344322,2.8213186813186812,3.3
1.1654691770017962,0.29978021978021974,0.6189010989010989,0.5117216117216117
1.1707200320015545,0.29978021978021974,0.6189010989010989,0.5117216117216117
1.1724546840014227,0.29978021978021974,0.6189010989010989,0.5117216117216117
1.178541656001471,0.5987545787545787,0.9613919413919414,1.647985347985348
1.1823597940019681,0.5987545787545787,0.9613919413919414,1.647985347985348
1.1868413420015713,0.5987545787545787,0.9613919413919414,1.647985347985348
1.1871291690004,0.5987545787545787,0.9613919413919414,1.647985347985348
1.1935142500005895,0.5987545787545787,0.9613919413919414,1.647985347985348
1.199023920999025,0.5987545787545787,0.9613919413919414,1.647985347985348
1.199314597000921,0.5987545787545787,0.9613919413919414,1.647985347985348
1.2077362970012473,0.5987545787545787,0.9613919413919414,1.647985347985348
1.214251086999866,0.5987545787545787,0.9613919413919414,1.647985347985348
1.220142295002006,3.3,2.843882783882784,2.5666666666666664
1.223178601001564,0.3263736263736263,1.9767765567765565,0.8936996336996336
1.2255018620016926,0.3263736263736263,1.9767765567765565,0.8936996336996336
1.2257765239992295,0.3263736263736263,1.9767765567765565,0.8936996336996336
1.230966630999319,0.3263736263736263,1.9767765567765565,0.8936996336996336
1.2346910849992128,0.3263736263736263,1.9767765567765565,0.8936996336996336
1.2391336690016033,0.3263736263736263,1.9767765567765565,0.8936996336996336
1.2399861699996109,0.9436630036630036,0.6366300366300366,0.5165567765567766
1.2416271949987276,0.9436630036630036,0.6366300366300366,0.5165567765567766
1.2454159039989463,0.9436630036630036,0.6366300366300366,0.5165567765567766
1.2503290429995104,0.9436630036630036,0.6366300366300366,0.5165567765567766
1.2504669800000556,1.4843956043956044,3.3,3.3
1.2553876279998804,1.4843956043956044,3.3,3.3
1.2595764210018388,1.4843956043956044,3.3,3.3
1.2617677550006192,0.7357509157509158,0.40695970695970696,0.4625641025641025
1.2625604269996984,0.7357509157509158,0.40695970695970696,0.4625641025641025
1.2640846009999223,0.7357509157509158,0.40695970695970696,0.4625641025641025
1.2684782830001495,0.7357509157509158,0.40695970695970696,0.4625641025641025
1.269942834001995,0.7357509157509158,0.40695970695970696,0.4625641025641025
1.2749637390006683,0.7357509157509158,0.40695970695970696,0.4625641025641025
1.280253447999712,0.7357509157509158,0.40695970695970696,0.4625641025641025
1.284431695999956,0.7357509157509158,0.40695970695970696,0.4625641025641025
1.2865707269993436,0.7357509157509158,0.40695970695970696,0.4625641025641025
1.2879832870021346,0.7357509157509158,0.40695970695970696,0.4625641025641025
1.2958638589989278,0.7357509157509158,0.40695970695970696,0.4625641025641025
1.3007619689997227,0.7357509157509158,0.40695970695970696,0.4625641025641025
1.3040284839989909,0.7357509157509158,0.40695970695970696,0.4625641025641025
1.3052916400010872,0.42710622710622714,0.32556776556776557,0.4198534798534798
1.3054703540001356,0.42710622710622714,0.32556776556776557,0.4198534798534798
1.310097425001004,0.42710622710622714,0.32556776556776557,0.4198534798534798
1.3109434690013586,0.23934065934065935,0.8526007326007327,0.5302564102564102
1.3127408869986539,0.23934065934065935,0.8526007326007327,0.5302564102564102
1.3159946340019815,0.23934065934065935,0.8526007326007327,0.5302564102564102
1.316861733001133,1.3707692307692307,3.3,2.771355311355311
1.3184572700010904,0.5455677655677655,1.68021978021978,0.7478388278388278
1.3222081409985549,0.5455677655677655,1.68021978021978,0.7478388278388278
1.322410327000398,0.5455677655677655,1.68021978021978,0.7478388278388278
1.3276875840019784,0.5455677655677655,1.68021978021978,0.7478388278388278
1.330177307001577,0.5455677655677655,1.68021978021978,0.7478388278388278
1.330381267998746,0.5455677655677655,1.68021978021978,0.7478388278388278
1.336774310999317,0.5455677655677655,1.68021978021978,0.7478388278388278
1.34176082599879,0.0,2.3265201465201466,1.1894505494505494
1.345763657001953,0.0,2.3265201465201466,1.1894505494505494
1.3496713770000497,1.9606593406593404,1.6939194139194136,2.5118681318681317
1.3520304250014306,1.9606593406593404,1.6939194139194136,2.5118681318681317
1.352267637001205,1.9606593406593404,1.6939194139194136,2.5118681318681317
1.3606530469987774,1.9606593406593404,1.6939194139194136,2.5118681318681317
1.367702919000294,1.9606593406593404,1.6939194139194136,2.5118681318681317
1.3714924839987361,1.9606593406593404,1.6939194139194136,2.5118681318681317
1.3761524740002642,1.9606593406593404,1.6939194139194136,2.5118681318681317
1.376395113999024,1.9606593406593404,1.6939194139194136,2.5118681318681317
1.3810412470011215,1.9606593406593404,1.6939194139194136,2.5118681318681317
1.3812731059988437,1.9606593406593404,1.6939194139194136,2.5118681318681317
1.386293958999886,1.9606593406593404,1.6939194139194136,2.5118681318681317
1.3902228240003751,1.9606593406593404,1.6939194139194136,2.5118681318681317
1.3934021329987445,1.9606593406593404,1.6939194139194136,2.5118681318681317
1.3950412820013298,1.9606593406593404,1.6939194139194136,2.5118681318681317
1.3988504350018047,1.9606593406593404,1.6939194139194136,2.5118681318681317
1.4042112269999052,1.9606593406593404,1.6939194139194136,2.5118681318681317
1.4059709190005378,3.1130402930402927,3.3,2.8374358974358973
1.4090281919998233,3.1130402930402927,3.3,2.8374358974358973
1.4113603949990647,3.1130402930402927,3.3,2.8374358974358973
1.4115502530003141,3.1130402930402927,3.3,2.8374358974358973
1.4164539580015116,3.1130402930402927,3.3,2.8374358974358973
1.4219086129996867,3.1130402930402927,3.3,2.8374358974358973
1.4234778560021368,0.25868131868131866,0.5906959706959707,0.5399267399267399
1.4273506899990025,3.235531135531135,3.3,2.840659340659341
1.4328496749985788,0.10476190476190475,0.4464468864468864,0.7268864468864469
1.4347217059985269,0.5415384615384615,1.0887179487179486,1.779340659340659
1.4370701150000968,0.5415384615384615,1.0887179487179486,1.779340659340659
1.437232952001068,0.5415384615384615,1.0887179487179486,1.779340659340659
1.442570966999483,0.5415384615384615,1.0887179487179486,1.779340659340659
1.4450807260000147,0.5415384615384615,1.0887179487179486,1.779340659340659
1.4504313850011386,0.5415384615384615,1.0887179487179486,1.779340659340659
1.4528240149993508,0.5415384615384615,1.0887179487179486,1.779340659340659
1.4585333290015114,0.5415384615384615,1.0887179487179486,1.779340659340659
1.458688959999563,0.5415384615384615,1.0887179487179486,1.779340659340659
1.4638699450006243,0.5415384615384615,1.0887179487179486,1.779340659340659
1.4678888019989245,0.5415384615384615,1.0887179487179486,1.779340659340659
1.4703773569999612,0.5415384615384615,1.0887179487179486,1.779340659340659
1.4761129680009617,2.1766300366300366,3.3,3.3
1.4762678570004937,2.1766300366300366,3.3,3.3
1.48119394600144,2.1766300366300366,3.3,3.3
1.4857073230014066,2.1766300366300366,3.3,3.3
1.4865593329996045,2.1766300366300366,3.3,3.3
1.488254940999468,2.1766300366300366,3.3,3.3
1.4921174420014722,2.1766300366300366,3.3,3.3
1.4957406030007405,2.1766300366300366,3.3,3.3
1.4959671670003445,2.1766300366300366,3.3,3.3
1.5003514119998727,2.1766300366300366,3.3,3.3
1.5025744140002644,2.1766300366300366,3.3,3.3
1.5034025620007014,2.1484249084249085,2.9309157509157506,3.3
1.5049420499999542,2.1484249084249085,2.9309157509157506,3.3
1.5091614500015567,2.6230769230769226,2.916410256410256,3.3
1.5112391949987796,1.8905494505494502,2.5441025641025643,3.3
1.5120811390006565,0.8783882783882784,1.070989010989011,2.063003663003663
1.5141795599993202,0.8783882783882784,1.070989010989011,2.063003663003663
1.515045056999952,0.8783882783882784,1.070989010989011,2.063003663003663
1.5171914160018787,0.8783882783882784,1.070989010989011,2.063003663003663
1.517991737000557,0.9227106227106227,0.909010989010989,0.5971428571428571
1.5201390080001147,0.767985347985348,1.1644688644688646,0.581025641025641
1.520430099000805,0.767985347985348,1.1644688644688646,0.581025641025641
1.5252071649993013,0.6245421245421244,0.5197802197802197,0.4520879120879121
1.525414832001843,0.9339926739926739,0.6116483516483516,1.2498901098901098
1.530384319001314,0.9339926739926739,0.6116483516483516,1.2498901098901098
1.5345839580004395,0.9339926739926739,0.6116483516483516,1.2498901098901098
1.5367822070002148,0.9339926739926739,0.6116483516483516,1.2498901098901098
1.5376750389987137,0.9339926739926739,0.6116483516483516,1.2498901098901098
1.5391609850012173,0.9339926739926739,0.6116483516483516,1.2498901098901098
1.5433683230003226,0.9339926739926739,0.6116483516483516,1.2498901098901098
1.546157705000951,0.469010989010989,0.43113553113553116,0.42065934065934063
1.550296811001317,0.3658608058608058,0.3586080586080586,0.7945787545787546
1.5532104250014527,0.3658608058608058,0.3586080586080586,0.7945787545787546
1.5582339889988361,0.3658608058608058,0.3586080586080586,0.7945787545787546
1.5618023589995573,0.3658608058608058,0.3586080586080586,0.7945787545787546
1.5700725610004156,0.3658608058608058,0.3586080586080586,0.7945787545787546
1.5764247990009608,0.3658608058608058,0.3586080586080586,0.7945787545787546
1.581421221999335,0.9831501831501831,1.5134065934065932,1.3103296703296703
1.5851257870017434,0.9831501831501831,1.5134065934065932,1.3103296703296703
1.5899708420001843,0.9831501831501831,1.5134065934065932,1.3103296703296703
1.5959898410001188,0.9831501831501831,1.5134065934065932,1.3103296703296703
1.6011892179994902,1.0822710622710623,3.3,2.6883516483516483
1.60357589799969,1.0822710622710623,3.3,2.6883516483516483
1.6038416970004619,1.0822710622710623,3.3,2.6883516483516483
1.6088120450003771,1.0822710622710623,3.3,2.6883516483516483
1.6137710209986835,1.0822710622710623,3.3,2.6883516483516483
1.6190110349998577,1.278901098901099,1.6189743589743588,2.238681318681319
1.6216029880015412,1.278901098901099,1.6189743589743588,2.238681318681319
1.6263003870008106,1.278901098901099,1.6189743589743588,2.238681318681319
1.626581589000125,1.278901098901099,1.6189743589743588,2.238681318681319
1.6312312449990714,1.278901098901099,1.6189743589743588,2.238681318681319
1.6314135690008698,1.2047619047619047,1.4932600732600732,2.2314285714285713
1.6392141030009952,1.2047619047619047,1.4932600732600732,2.2314285714285713
1.6438849629994365,1.2047619047619047,1.4932600732600732,2.2314285714285713
1.644088193999778,1.9445421245421244,3.3,3.3
1.648718225002085,1.9445421245421244,3.3,3.3
1.6489712949987734,1.9445421245421244,3.3,3.3
1.6536532419995638,1.9445421245421244,3.3,3.3
1.6537734269986686,0.7486446886446886,0.954945054945055,1.7696703296703296
1.6588594659988303,0.7486446886446886,0.954945054945055,1.7696703296703296
1.6636140549999254,0.7486446886446886,0.954945054945055,1.7696703296703296
1.6691276880010264,3.3,2.826153846153846,2.561025641025641
1.6701119850004034,3.3,2.826153846153846,2.561025641025641
1.6709427450005023,3.3,2.826153846153846,2.561025641025641
1.6727042739985336,3.3,2.826153846153846,2.561025641025641
1.675222173002112,3.3,2.826153846153846,2.561025641025641
1.6805980690005526,3.3,2.8317948717948713,2.565054945054945
1.6831764320013463,0.6745054945054945,1.5254945054945055,0.7188278388278388
1.688800492000155,0.6745054945054945,1.5254945054945055,0.7188278388278388
1.6891000010000425,0.6745054945054945,1.5254945054945055,0.7188278388278388
1.693898107001587,0.6745054945054945,1.5254945054945055,0.7188278388278388
1.6992714270018041,0.6745054945054945,1.5254945054945055,0.7188278388278388
1.7025301110006694,0.6745054945054945,1.5254945054945055,0.7188278388278388
1.7029538930000854,0.4996336996336996,0.40534798534798533,0.49157509157509155
1.7082071479999286,0.4996336996336996,0.40534798534798533,0.49157509157509155
1.7107023499993375,1.6858608058608056,3.295970695970696,2.8543589743589743
1.7163878989995283,1.6858608058608056,3.295970695970696,2.8543589743589743
1.7165511819985113,1.6858608058608056,3.295970695970696,2.8543589743589743
1.7211507329993765,1.6858608058608056,3.295970695970696,2.8543589743589743
1.721385062999616,0.43032967032967034,0.6857875457875457,0.4851282051282051
1.7269789669990132,0.43032967032967034,0.6857875457875457,0.4851282051282051
1.7286783839990676,0.43032967032967034,0.6857875457875457,0.4851282051282051
1.7319194920019072,0.43032967032967034,0.6857875457875457,0.4851282051282051
1.7335469930003455,0.43032967032967034,0.6857875457875457,0.4851282051282051
1.7375413279987697,0.43032967032967034,0.6857875457875457,0.4851282051282051
1.741271400002006,1.3014652014652013,3.3,3.0187545787545784
1.7459898099987186,0.7188278388278388,0.41018315018315016,0.4472527472527472
1.7461138350008696,0.7188278388278388,0.41018315018315016,0.4472527472527472
1.7514776759999222,0.7188278388278388,0.41018315018315016,0.4472527472527472
1.75307016700026,0.7188278388278388,0.41018315018315016,0.4472527472527472
1.7574939240003005,0.7188278388278388,0.41018315018315016,0.4472527472527472
1.7583428680009092,0.06124542124542124,2.735897435897436,1.7342124542124542
1.7599426480010152,0.06124542124542124,2.735897435897436,1.7342124542124542
1.7643757119985821,0.06124542124542124,2.735897435897436,1.7342124542124542
1.7652235300010943,0.06124542124542124,2.735897435897436,1.7342124542124542
1.7668788699993456,0.06124542124542124,2.735897435897436,1.7342124542124542
1.7706749259996286,0.06124542124542124,2.735897435897436,1.7342124542124542
1.7753778180012887,0.06124542124542124,2.735897435897436,1.7342124542124542
1.7755349860017304,0.06124542124542124,2.735897435897436,1.7342124542124542
1.7810320110002067,0.06124542124542124,2.735897435897436,1.7342124542124542
1.7827184830020997,0.06124542124542124,2.735897435897436,1.7342124542124542
1.786837675001152,0.06124542124542124,2.735897435897436,1.7342124542124542
1.789944035001099,2.2684981684981684,1.9203663003663003,2.776190476190476
1.7915739300005953,2.2684981684981684,1.9203663003663003,2.776190476190476
1.7947358570017968,2.2684981684981684,1.9203663003663003,2.776190476190476
1.7964671299996553,1.5593406593406591,2.4119413919413915,3.3
1.7996333740011323,0.8308424908424907,1.7575824175824175,0.7188278388278388
1.801333170998987,0.8308424908424907,1.7575824175824175,0.7188278388278388
1.805138749001344,0.8308424908424907,1.7575824175824175,0.7188278388278388
1.8097917220002273,0.8308424908424907,1.7575824175824175,0.7188278388278388
1.8100157449989638,0.8308424908424907,1.7575824175824175,0.7188278388278388
1.8157759040004748,0.8308424908424907,1.7575824175824175,0.7188278388278388
1.81596610500128,0.8308424908424907,1.7575824175824175,0.7188278388278388
1.8214907860019593,0.8308424908424907,1.7575824175824175,0.7188278388278388
1.8217231419985183,0.8308424908424907,1.7575824175824175,0.7188278388278388
1.8263358090007387,0.8308424908424907,1.7575824175824175,0.7188278388278388
1.8266495700008818,0.8308424908424907,1.7575824175824175,0.7188278388278388
1.8312419159992714,0.03626373626373627,0.8832234432234431,0.5117216117216117
1.8321309570019366,0.03626373626373627,0.8832234432234431,0.5117216117216117
1.8330443960003322,0.6245421245421244,1.1846153846153846,1.7567765567765568
1.8347600630004308,0.6245421245421244,1.1846153846153846,1.7567765567765568
1.8380044180012192,0.6245421245421244,1.1846153846153846,1.7567765567765568
1.8395884450001176,0.6245421245421244,1.1846153846153846,1.7567765567765568
1.8433364759985125,0.6245421245421244,1.1846153846153846,1.7567765567765568
1.8492397430018173,3.3,2.8503296703296703,2.5666666666666664
1.857888294998702,1.8857142857142855,3.3,3.3
1.8638865149987396,1.1580219780219778,1.8236630036630037,2.4820512820512817
1.8684083980006108,0.3578021978021978,0.5632967032967032,0.48835164835164835
1.8687196200007747,0.3578021978021978,0.5632967032967032,0.48835164835164835
1.8755553720002354,0.3578021978021978,0.5632967032967032,0.48835164835164835
1.880121379999764,1.8913553113553112,3.3,3.3
1.8803839559986955,0.9275457875457875,1.1813919413919414,0.6793406593406592
1.8880202820000704,0.5761904761904761,0.506080586080586,0.46659340659340653
1.89202240600207,0.5761904761904761,0.506080586080586,0.46659340659340653
1.8961075770021125,0.5761904761904761,0.506080586080586,0.46659340659340653
1.9007016460018349,0.5761904761904761,0.506080586080586,0.46659340659340653
1.9085757339998963,0.42952380952380953,0.5939194139194138,0.5794139194139193
1.9127758489994449,0.42952380952380953,0.5939194139194138,0.5794139194139193
1.9160583220000262,2.0315750915750916,3.3,3.054212454212454
1.9169250029990508,2.0315750915750916,3.3,3.054212454212454
1.9178864919995249,2.0315750915750916,3.3,3.054212454212454
1.9195021330015152,2.0315750915750916,3.3,3.054212454212454
1.922616414998629,2.0315750915750916,3.3,3.054212454212454
1.9249779530000524,2.0315750915750916,3.3,3.054212454212454
1.92513077699914,2.0315750915750916,3.3,3.054212454212454
1.9296603930015408,2.0315750915750916,3.3,3.054212454212454
1.9300237130009918,2.0315750915750916,3.3,3.054212454212454
1.9349332790006883,2.0315750915750916,3.3,3.054212454212454
1.9396102169994265,2.0315750915750916,3.3,3.054212454212454
1.9454081650001172,2.0315750915750916,3.3,3.054212454212454
1.9455527540012554,2.0315750915750916,3.3,3.054212454212454
1.950201178999123,2.0315750915750916,3.3,3.054212454212454
1.9504688099987106,2.0315750915750916,3.3,3.054212454212454
1.9551619720004965,2.0315750915750916,3.3,3.054212454212454
1.9554018339986214,2.0315750915750916,3.3,3.054212454212454
1.9600101139985782,2.0315750915750916,3.3,3.054212454212454
1.9602185809999355,2.0315750915750916,3.3,3.054212454212454
1.9649750540011155,2.0315750915750916,3.3,3.054212454212454
1.965091014000791,2.0315750915750916,3.3,3.054212454212454
1.9697870720010542,2.0315750915750916,3.3,3.054212454212454
1.9760607809985231,0.06446886446886446,0.9154578754578755,0.46417582417582415
1.9818114600020635,0.06446886446886446,0.9154578754578755,0.46417582417582415
1.9871962309989613,1.149157509157509,1.228937728937729,0.6237362637362637
1.9881679710015305,1.149157509157509,1.228937728937729,0.6237362637362637
1.98905079099859,1.149157509157509,1.228937728937729,0.6237362637362637
1.9906565370001772,1.149157509157509,1.228937728937729,0.6237362637362637
1.9943887990011717,1.149157509157509,1.228937728937729,0.6237362637362637
1.9999918550020084,1.149157509157509,1.228937728937729,0.6237362637362637
2.0003532500013534,1.149157509157509,1.228937728937729,0.6237362637362637
2.0048330770005123,1.149157509157509,1.228937728937729,0.6237362637362637
2.005770127001597,1.149157509157509,1.228937728937729,0.6237362637362637
2.0067366040020715,1.149157509157509,1.228937728937729,0.6237362637362637
2.007681530998525,1.149157509157509,1.228937728937729,0.6237362637362637
2.009254814001906,1.149157509157509,1.228937728937729,0.6237362637362637
2.0130379180009186,1.149157509157509,1.228937728937729,0.6237362637362637
2.01314842300053,1.149157509157509,1.228937728937729,0.6237362637362637
2.0193448630016064,1.149157509157509,1.228937728937729,0.6237362637362637
2.0240817939993576,1.149157509157509,1.228937728937729,0.6237362637362637
2.0323754450000706,1.5851282051282052,1.0887179487179486,1.8623443223443221
2.0387339139997493,1.5851282051282052,1.0887179487179486,1.8623443223443221
2.041907648999768,1.5851282051282052,1.0887179487179486,1.8623443223443221
2.044199963002029,0.6043956043956044,0.7728205128205128,0.5342857142857143
2.044509397001093,3.3,2.8293772893772893,2.5586080586080584
2.0490596660019946,1.2893772893772892,0.7792673992673992,1.5214652014652015
2.050597214998561,0.1386080586080586,0.7768498168498168,0.5318681318681319
2.0546234190005634,0.1386080586080586,0.7768498168498168,0.5318681318681319
2.0584721859995625,0.1386080586080586,0.7768498168498168,0.5318681318681319
2.063119786998868,0.7446153846153846,1.801098901098901,0.8445421245421244
2.06340131899924,0.5487912087912087,0.4142124542124542,0.4279120879120879
2.0688311619996966,0.5487912087912087,0.4142124542124542,0.4279120879120879
2.0712385850019928,0.5487912087912087,0.4142124542124542,0.4279120879120879
2.0714178119997086,0.5487912087912087,0.4142124542124542,0.4279120879120879
2.077096467000956,0.5487912087912087,0.4142124542124542,0.4279120879120879
2.0774364530007006,0.772014652014652,1.6149450549450548,0.7744322344322344
2.0822416439987137,0.772014652014652,1.6149450549450548,0.7744322344322344
2.088276639999094,1.1773626373626374,1.3578754578754577,2.0154578754578756
2.0943098409989034,1.1773626373626374,1.3578754578754577,2.0154578754578756
2.1008510589999787,1.1773626373626374,1.3578754578754577,2.0154578754578756
2.106478451998555,1.1773626373626374,1.3578754578754577,2.0154578754578756
2.106696113001817,1.1773626373626374,1.3578754578754577,2.0154578754578756
2.115432630002033,1.1773626373626374,1.3578754578754577,2.0154578754578756
2.12250482500167,1.1773626373626374,1.3578754578754577,2.0154578754578756
2.1280644799990114,0.913040293040293,1.2660073260073261,0.4786813186813187
2.1375161290015967,0.913040293040293,1.2660073260073261,0.4786813186813187
2.143154176999815,0.913040293040293,1.2660073260073261,0.4786813186813187
2.1435036360016966,0.913040293040293,1.2660073260073261,0.4786813186813187
2.151727338001365,0.913040293040293,1.2660073260073261,0.4786813186813187
2.1589812349993736,0.1112087912087912,0.5576556776556777,0.5504029304029303
2.1624060190006276,0.7978021978021977,0.3489377289377289,0.5415384615384615
2.162652959999832,0.5745787545787545,0.4778754578754579,0.4996336996336996
2.1684880630018597,0.5745787545787545,0.4778754578754579,0.4996336996336996
2.1686446009989595,0.5745787545787545,0.4778754578754579,0.4996336996336996
2.175539507999929,0.5745787545787545,0.4778754578754579,0.4996336996336996
2.181404683000437,3.3,2.7866666666666666,2.556996336996337
2.1862074000018765,0.7454212454212454,0.3690842490842491,0.48432234432234433
2.1914791669987608,0.7454212454212454,0.3690842490842491,0.48432234432234433
2.1938217120004992,2.104102564102564,3.3,3.3
2.1940718609985197,2.104102564102564,3.3,3.3
2.198580211999797,2.104102564102564,3.3,3.3
2.1993998530015233,2.104102564102564,3.3,3.3
2.201001459001418,2.104102564102564,3.3,3.3
2.205591786001605,2.104102564102564,3.3,3.3
2.2057076189994405,2.9679853479853477,3.3,2.83985347985348
2.2103380209991883,2.9679853479853477,3.3,2.83985347985348
2.2106563720008126,2.9679853479853477,3.3,2.83985347985348
2.2158099400003266,2.9679853479853477,3.3,2.83985347985348
2.219887732000643,1.0097435897435898,1.2305494505494505,2.0863736263736263
2.2233639119986037,1.0097435897435898,1.2305494505494505,2.0863736263736263
2.2327830370013544,1.0097435897435898,1.2305494505494505,2.0863736263736263
2.240204020999954,1.0097435897435898,1.2305494505494505,2.0863736263736263
2.2448376060019655,1.0097435897435898,1.2305494505494505,2.0863736263736263
2.2451082250008767,1.0097435897435898,1.2305494505494505,2.0863736263736263
2.2496463259994925,1.0097435897435898,1.2305494505494505,2.0863736263736263
2.250004864999937,0.09589743589743589,0.70996336996337,0.45692307692307693
2.255371228999138,0.09589743589743589,0.70996336996337,0.45692307692307693
2.2577341579999484,0.09589743589743589,0.70996336996337,0.45692307692307693
2.2634633560010116,0.09589743589743589,0.70996336996337,0.45692307692307693
2.2643584620018373,0.09589743589743589,0.70996336996337,0.45692307692307693
2.2663955970019742,0.09589743589743589,0.70996336996337,0.45692307692307693
2.2673064490008983,0.05802197802197802,0.5882783882783883,0.49721611721611714
2.2689128540005186,0.24901098901098898,0.8292307692307692,0.6656410256410257
2.2729335090007226,0.24901098901098898,0.8292307692307692,0.6656410256410257
2.276253721000103,0.24901098901098898,0.8292307692307692,0.6656410256410257
2.2770996219987865,2.884175824175824,3.3,2.7665201465201466
2.278726282002026,2.884175824175824,3.3,2.7665201465201466
2.2826560089997656,2.884175824175824,3.3,2.7665201465201466
2.286038402999111,2.884175824175824,3.3,2.7665201465201466
2.2863510600000154,2.884175824175824,3.3,2.7665201465201466
2.2909260150008777,2.884175824175824,3.3,2.7665201465201466
2.291255385000113,1.9106959706959707,2.5424908424908423,3.3
2.2959694390010554,1.9106959706959707,2.5424908424908423,3.3
2.296082146000117,1.9106959706959707,2.5424908424908423,3.3
2.3008502400007274,1.9106959706959707,2.5424908424908423,3.3
2.3010224329991615,1.9106959706959707,2.5424908424908423,3.3
2.305579348001629,1.9106959706959707,2.5424908424908423,3.3
2.305860316999315,1.9106959706959707,2.5424908424908423,3.3
2.3111579440010246,1.9106959706959707,2.5424908424908423,3.3
2.313464376999036,1.9106959706959707,2.5424908424908423,3.3
2.313709623002069,1.9106959706959707,2.5424908424908423,3.3
2.318296546000056,1.9106959706959707,2.5424908424908423,3.3
2.3191752980019373,1.9106959706959707,2.5424908424908423,3.3
2.320784191000712,1.9106959706959707,2.5424908424908423,3.3
2.324789188998693,1.9106959706959707,2.5424908424908423,3.3
2.328030208002019,1.9106959706959707,2.5424908424908423,3.3
2.329638482999144,0.3916483516483516,0.41340659340659336,0.7849084249084248
2.3335548149989336,0.3916483516483516,0.41340659340659336,0.7849084249084248
2.3382694069987338,0.5971428571428571,0.9073992673992675,1.692307692307692
2.338395404000039,0.5971428571428571,0.9073992673992675,1.692307692307692
2.3431768020018353,0.6156776556776556,0.9525274725274724,0.6317948717948718
2.3433554180010105,0.6156776556776556,0.9525274725274724,0.6317948717948718
2.3487776389993087,0.6156776556776556,0.9525274725274724,0.6317948717948718
2.3506614830002945,0.0,0.5076923076923077,0.5778021978021978
2.353131805000885,0.0,0.5076923076923077,0.5778021978021978
2.3532357730000513,0.0,0.5076923076923077,0.5778021978021978
2.3586640680005075,0.0,0.5076923076923077,0.5778021978021978
2.359691074001603,0.0,0.5076923076923077,0.5778021978021978
2.3600182350019168,0.0,0.5076923076923077,0.5778021978021978
2.3652389720009523,0.0,0.5076923076923077,0.5778021978021978
2.3682442310018814,3.3,2.8124542124542122,2.5594139194139194
2.371315929998673,3.3,2.8124542124542122,2.5594139194139194
2.373656337000284,3.3,2.8124542124542122,2.5594139194139194
2.37378301300123,3.3,2.8124542124542122,2.5594139194139194
2.378321258001961,3.3,2.8124542124542122,2.5594139194139194
2.379147471001488,3.3,2.8124542124542122,2.5594139194139194
2.380766472000687,3.3,2.8124542124542122,2.5594139194139194
2.384757482999703,3.3,2.8124542124542122,2.5594139194139194
2.388493648999429,2.9357509157509156,3.3,2.83018315018315
2.3940864889991644,0.3731135531135531,0.3932600732600733,0.7607326007326007
2.395823405000556,0.3731135531135531,0.3932600732600733,0.7607326007326007
2.398992566999368,0.3731135531135531,0.3932600732600733,0.7607326007326007
2.4006207279999217,0.3731135531135531,0.3932600732600733,0.7607326007326007
2.404615460000059,0.3731135531135531,0.3932600732600733,0.7607326007326007
2.408632201000728,0.3731135531135531,0.3932600732600733,0.7607326007326007
2.4117448670003796,0.3731135531135531,0.3932600732600733,0.7607326007326007
2.413436193000962,0.3731135531135531,0.3932600732600733,0.7607326007326007
2.417446816001757,0.3731135531135531,0.3932600732600733,0.7607326007326007
2.420772425000905,0.3731135531135531,0.3932600732600733,0.7607326007326007
2.421029780001845,0.3731135531135531,0.3932600732600733,0.7607326007326007
2.4267813049991673,0.3731135531135531,0.3932600732600733,0.7607326007326007
2.4268807560001733,0.48432234432234433,0.469010989010989,0.8888644688644688
2.4318896049990144,0.48432234432234433,0.469010989010989,0.8888644688644688
2.4369944169993687,0.506080586080586,0.9694505494505494,1.5577289377289376
2.440246966001723,0.506080586080586,0.9694505494505494,1.5577289377289376
2.441179502999148,0.506080586080586,0.9694505494505494,1.5577289377289376
2.442285510001966,0.506080586080586,0.9694505494505494,1.5577289377289376
2.442599097001221,0.506080586080586,0.9694505494505494,1.5577289377289376
2.4477232610006467,0.506080586080586,0.9694505494505494,1.5577289377289376
2.451188787999854,0.506080586080586,0.9694505494505494,1.5577289377289376
2.4514171100017847,0.506080586080586,0.9694505494505494,1.5577289377289376
2.45668670500163,1.1419047619047618,1.4634432234432233,2.158095238095238
2.4596981440008676,1.1419047619047618,1.4634432234432233,2.158095238095238
2.462047271001211,0.9662271062271062,0.9815384615384615,0.618095238095238
2.462290123999992,0.9662271062271062,0.9815384615384615,0.618095238095238
2.467633983000269,0.9662271062271062,0.9815384615384615,0.618095238095238
2.469405285999528,2.2684981684981684,3.3,2.8060073260073257
2.4724548570011393,2.2684981684981684,3.3,2.8060073260073257
2.4740605160004634,1.9654945054945054,3.3,3.3
2.4790436459988996,2.3837362637362633,3.3,3.3
2.485213574000227,0.5673260073260072,1.7688644688644688,0.7663736263736264
2.4881359780010825,0.5673260073260072,1.7688644688644688,0.7663736263736264
2.4909924390012748,0.5673260073260072,1.7688644688644688,0.7663736263736264
2.494541649000894,0.5673260073260072,1.7688644688644688,0.7663736263736264
2.4948196320001443,0.5673260073260072,1.7688644688644688,0.7663736263736264
2.5003185310015397,1.1612454212454213,3.3,2.8624175824175824
2.501156569000159,1.1612454212454213,3.3,2.8624175824175824
2.5028057179988537,1.1612454212454213,3.3,2.8624175824175824
2.507303491998755,2.2878388278388275,3.3,2.785054945054945
2.50815454700205,0.6712820512820512,0.4964102564102564,0.8767765567765567
2.509708330999274,0.6712820512820512,0.4964102564102564,0.8767765567765567
2.5141740229992138,0.6712820512820512,0.4964102564102564,0.8767765567765567
2.514465330001258,0.6712820512820512,0.4964102564102564,0.8767765567765567
2.5196465520020865,0.6712820512820512,0.4964102564102564,0.8767765567765567
2.523368857000605,1.003296703296703,1.4618315018315018,0.6350183150183151
2.528084563000448,1.003296703296703,1.4618315018315018,0.6350183150183151
2.5282971570013615,1.361098901098901,0.855018315018315,1.6504029304029304
2.5332544250013598,1.361098901098901,0.855018315018315,1.6504029304029304
2.537127968000277,1.361098901098901,0.855018315018315,1.6504029304029304
2.540976797001349,0.28608058608058606,2.250769230769231,1.0717948717948718
2.5462833950005006,0.28608058608058606,2.250769230769231,1.0717948717948718
2.5493223599987687,0.28608058608058606,2.250769230769231,1.0717948717948718
2.551814516999002,0.28608058608058606,2.250769230769231,1.0717948717948718
2.557271721001598,0.28608058608058606,2.250769230769231,1.0717948717948718
2.558835135001573,0.28608058608058606,2.250769230769231,1.0717948717948718
2.5633616289997008,0.28608058608058606,2.250769230769231,1.0717948717948718
2.5635908440017374,0.28608058608058606,2.250769230769231,1.0717948717948718
2.5684431769986986,0.28608058608058606,2.250769230769231,1.0717948717948718
2.5685943009993935,0.28608058608058606,2.250769230769231,1.0717948717948718
2.573544994000258,0.28608058608058606,2.250769230769231,1.0717948717948718
2.581159318000573,0.28608058608058606,2.250769230769231,1.0717948717948718
2.585225396000169,0.9243223443223443,0.5068864468864469,0.5334798534798535
2.588356489999569,0.9243223443223443,0.5068864468864469,0.5334798534798535
2.5906529359999695,0.9243223443223443,0.5068864468864469,0.5334798534798535
2.5907922289989074,0.9243223443223443,0.5068864468864469,0.5334798534798535
2.596849296001892,0.9243223443223443,0.5068864468864469,0.5334798534798535
2.601390864001587,3.3,2.8511355311355313,2.5634432234432234
2.6017250250006327,0.5769963369963369,0.5004395604395604,0.4383882783882784
2.6065860939997947,0.5769963369963369,0.5004395604395604,0.4383882783882784
2.6067163670013542,0.5769963369963369,0.5004395604395604,0.4383882783882784
2.6118976210018445,0.5769963369963369,0.5004395604395604,0.4383882783882784
2.6147447080002166,0.5769963369963369,0.5004395604395604,0.4383882783882784
2.617726650001714,0.5769963369963369,0.5004395604395604,0.4383882783882784
2.6206590590009,0.5769963369963369,0.5004395604395604,0.4383882783882784
2.6236257109994767,0.5769963369963369,0.5004395604395604,0.4383882783882784
2.62719216899859,2.6448351648351647,3.3,2.8277655677655673
2.6274171639997803,2.6448351648351647,3.3,2.8277655677655673
2.632321379001951,2.6448351648351647,3.3,2.8277655677655673
2.637279870999919,2.025128205128205,2.5400732600732603,3.3
2.6415731870001764,1.1918681318681317,3.3,2.840659340659341
2.6430903250002302,1.1918681318681317,3.3,2.840659340659341
2.647342096999637,1.1918681318681317,3.3,2.840659340659341
2.6495614150007896,1.1918681318681317,3.3,2.840659340659341
2.650346354999783,1.1918681318681317,3.3,2.840659340659341
2.6519174489985744,1.1918681318681317,3.3,2.840659340659341
2.6562163890012016,1.1918681318681317,3.3,2.840659340659341
2.65835639800207,1.1918681318681317,3.3,2.840659340659341
2.6591571800017846,1.1918681318681317,3.3,2.840659340659341
2.66130179099855,1.1918681318681317,3.3,2.840659340659341
2.66209253100169,1.1918681318681317,3.3,2.840659340659341
2.6636084929996287,1.1918681318681317,3.3,2.840659340659341
2.6678216729997075,1.1918681318681317,3.3,2.840659340659341
2.6700438910011144,1.1918681318681317,3.3,2.840659340659341
2.670909839998785,1.1918681318681317,3.3,2.840659340659341
2.673016946999269,1.3208058608058608,1.8567032967032966,2.186300366300366
2.6738346089987317,1.3208058608058608,1.8567032967032966,2.186300366300366
2.675968986000953,1.3208058608058608,1.8567032967032966,2.186300366300366
2.6768355570020503,1.3208058608058608,1.8567032967032966,2.186300366300366
2.6783590109989746,1.3208058608058608,1.8567032967032966,2.186300366300366
2.6827522570019937,1.3208058608058608,1.8567032967032966,2.186300366300366
2.6843162320001284,0.5495970695970696,0.5278388278388277,0.49076923076923074
2.6897071290004533,2.924468864468864,3.3,3.3
2.6905359209995368,2.924468864468864,3.3,3.3
2.692157853001845,2.924468864468864,3.3,3.3
2.6958683830016525,2.924468864468864,3.3,3.3
2.701043420998758,2.924468864468864,3.3,3.3
2.7040578449996246,2.924468864468864,3.3,3.3
2.707074994999857,2.924468864468864,3.3,3.3
2.70937518899882,2.924468864468864,3.3,3.3
2.7096276699994633,2.924468864468864,3.3,3.3
2.7141771800015704,2.924468864468864,3.3,3.3
2.714507967000827,2.924468864468864,3.3,3.3
2.7190326939999068,2.924468864468864,3.3,3.3
2.719885891001468,0.9339926739926739,1.1024175824175824,0.6132600732600733
2.721443218000786,0.9339926739926739,1.1024175824175824,0.6132600732600733
2.7259507620001386,0.3795604395604395,0.7462271062271062,0.5197802197802197
2.726835650999419,0.3795604395604395,0.7462271062271062,0.5197802197802197
2.7284613199990417,0.3795604395604395,0.7462271062271062,0.5197802197802197
2.73239975999968,0.3795604395604395,0.7462271062271062,0.5197802197802197
2.7375605609995546,0.3795604395604395,0.7462271062271062,0.5197802197802197
2.741377760001342,0.35619047619047617,2.181465201465201,1.0637362637362637
2.746660136999708,0.9065934065934066,0.3537728937728937,0.49238095238095236
2.7498145060017123,0.9065934065934066,0.3537728937728937,0.49238095238095236
2.7521785640019516,0.9452747252747251,2.194358974358974,1.843003663003663
2.7523474720001104,1.0758241758241758,1.2998534798534798,2.025128205128205
2.756957549001527,1.0758241758241758,1.2998534798534798,2.025128205128205
2.758525056000508,1.0758241758241758,1.2998534798534798,2.025128205128205
2.7623194830011926,1.0758241758241758,1.2998534798534798,2.025128205128205
2.766843253000843,1.0758241758241758,1.2998534798534798,2.025128205128205
2.768449437000527,1.0758241758241758,1.2998534798534798,2.025128205128205
2.7722765389989945,1.0758241758241758,1.2998534798534798,2.025128205128205
2.7761567540001124,1.0758241758241758,1.2998534798534798,2.025128205128205
2.780728353001905,1.0758241758241758,1.2998534798534798,2.025128205128205
2.7810344060017087,1.0758241758241758,1.2998534798534798,2.025128205128205
2.7901116050015844,1.0758241758241758,1.2998534798534798,2.025128205128205
2.7970214289998694,1.0758241758241758,1.2998534798534798,2.025128205128205
2.8005456589999085,1.0758241758241758,1.2998534798534798,2.025128205128205
2.805854966998595,1.0758241758241758,1.2998534798534798,2.025128205128205
2.8088765790016623,1.0758241758241758,1.2998534798534798,2.025128205128205
2.8105530880020524,1.0758241758241758,1.2998534798534798,2.025128205128205
2.8143667500007723,1.8937728937728935,3.3,3.0356776556776555
2.8190803110010165,1.8937728937728935,3.3,3.0356776556776555
2.8191884190018754,0.3553846153846154,2.943003663003663,1.9840293040293038
2.825376683998911,0.3553846153846154,2.943003663003663,1.9840293040293038
2.828478930001438,0.3553846153846154,2.943003663003663,1.9840293040293038
2.83074992299953,0.3553846153846154,2.943003663003663,1.9840293040293038
2.8310184469992237,0.3553846153846154,2.943003663003663,1.9840293040293038
2.835910216999764,0.3553846153846154,2.943003663003663,1.9840293040293038
2.8428742910000437,0.3553846153846154,2.943003663003663,1.9840293040293038
2.8470632919998025,0.3553846153846154,2.943003663003663,1.9840293040293038
2.850216265000199,0.3553846153846154,2.943003663003663,1.9840293040293038
2.850536746002035,0.3553846153846154,2.943003663003663,1.9840293040293038
2.8555075740005122,0.3553846153846154,2.943003663003663,1.9840293040293038
2.8630657989997417,2.2016117216117213,3.3,3.3
2.870764790000976,2.2016117216117213,3.3,3.3
2.878990506000264,1.1338461538461537,1.523076923076923,2.158095238095238
2.8866842720017303,1.1338461538461537,1.523076923076923,2.158095238095238
2.895410858000105,1.1338461538461537,1.523076923076923,2.158095238095238
2.9001144229987403,1.1338461538461537,1.523076923076923,2.158095238095238
2.9056917010020697,1.1338461538461537,1.523076923076923,2.158095238095238
2.9058897760005493,1.838974358974359,1.4876190476190476,2.250769230769231
2.915362224001001,1.838974358974359,1.4876190476190476,2.250769230769231
2.92050283700155,1.838974358974359,1.4876190476190476,2.250769230769231
2.9283868849997816,1.838974358974359,1.4876190476190476,2.250769230769231
2.9325858439988224,1.838974358974359,1.4876190476190476,2.250769230769231
2.9342959499990684,1.838974358974359,1.4876190476190476,2.250769230769231
2.9381330290016194,1.838974358974359,1.4876190476190476,2.250769230769231
2.945414351001091,1.838974358974359,1.4876190476190476,2.250769230769231
2.9490743140013365,1.838974358974359,1.4876190476190476,2.250769230769231
2.953826213000866,1.838974358974359,1.4876190476190476,2.250769230769231
2.9607057550019817,1.838974358974359,1.4876190476190476,2.250769230769231
2.9653077969996957,1.838974358974359,1.4876190476190476,2.250769230769231
2.9655108740007563,1.838974358974359,1.4876190476190476,2.250769230769231
2.9744349690008676,1.838974358974359,1.4876190476190476,2.250769230769231
2.9819397300016135,1.6431501831501831,3.3,3.3
2.9861422130015853,0.7518681318681318,1.6302564102564103,1.0685714285714285
2.9884822339990933,0.7518681318681318,1.6302564102564103,1.0685714285714285
2.9885963939996145,0.7518681318681318,1.6302564102564103,1.0685714285714285
2.9973955620007473,0.7518681318681318,1.6302564102564103,1.0685714285714285
3.004150007000135,0.7518681318681318,1.6302564102564103,1.0685714285714285
3.009708994999528,0.7518681318681318,1.6302564102564103,1.0685714285714285
3.0172965999990993,0.7518681318681318,1.6302564102564103,1.0685714285714285
3.0226467100001173,0.7518681318681318,1.6302564102564103,1.0685714285714285
3.024287036001624,0.7518681318681318,1.6302564102564103,1.0685714285714285
3.030767617001402,3.0614652014652015,3.3,2.856776556776557
3.0348165139985213,1.9252014652014653,3.3,3.232307692307692
3.0388853500007826,1.0476190476190474,1.079047619047619,2.1427838827838825
3.0419254150001507,1.0476190476190474,1.079047619047619,2.1427838827838825
3.0461675469996408,0.5576556776556777,0.4432234432234432,0.4472527472527472
3.0473421739989135,1.6495970695970694,2.2008058608058607,3.15978021978022
3.0538186289995792,1.6495970695970694,2.2008058608058607,3.15978021978022
3.0578352470001846,0.5600732600732601,0.9952380952380951,1.5698168498168497
3.0637699130020337,0.5600732600732601,0.9952380952380951,1.5698168498168497
3.067714928998612,2.66014652014652,3.3,2.8100366300366297
3.0714671019995876,0.44402930402930396,0.4448351648351648,0.8526007326007327
3.076398879999033,0.44402930402930396,0.4448351648351648,0.8526007326007327
3.0818882630010194,0.5117216117216117,3.042124542124542,2.137948717948718
3.0821669270007988,0.5117216117216117,3.042124542124542,2.137948717948718
3.0869498220017704,0.46820512820512816,0.38681318681318677,0.45692307692307693
3.0871096340015356,0.46820512820512816,0.38681318681318677,0.45692307692307693
3.0934372619994974,0.46820512820512816,0.38681318681318677,0.45692307692307693
3.0976586479991965,1.9783882783882782,3.3,3.3
3.098808905000624,1.9783882783882782,3.3,3.3
3.0990324320009677,1.9783882783882782,3.3,3.3
3.1037106570001924,1.9783882783882782,3.3,3.3
3.1040599449988804,1.9783882783882782,3.3,3.3
3.1101767649997782,1.9783882783882782,3.3,3.3
3.11787053900116,1.9783882783882782,3.3,3.3
3.1217793799987703,1.9783882783882782,3.3,3.3
3.126674086001003,1.9783882783882782,3.3,3.3
3.1348145519987156,1.9783882783882782,3.3,3.3
3.141515191000508,1.9783882783882782,3.3,3.3
3.148807443001715,0.834065934065934,0.3344322344322344,0.4448351648351648
3.1538604669985943,0.834065934065934,0.3344322344322344,0.4448351648351648
3.1596112459992582,0.834065934065934,0.3344322344322344,0.4448351648351648
3.1660787559994787,0.834065934065934,0.3344322344322344,0.4448351648351648
3.169998100001976,0.834065934065934,0.3344322344322344,0.4448351648351648
3.176580217001174,0.834065934065934,0.3344322344322344,0.4448351648351648
3.181835896000848,0.834065934065934,0.3344322344322344,0.4448351648351648
3.183702779999294,0.834065934065934,0.3344322344322344,0.4448351648351648
3.185370649000106,0.834065934065934,0.3344322344322344,0.4448351648351648
3.1896252270016703,0.834065934065934,0.3344322344322344,0.4448351648351648
3.1924836489997688,0.834065934065934,0.3344322344322344,0.4448351648351648
3.196881291001773,0.834065934065934,0.3344322344322344,0.4448351648351648
3.1971648010003264,0.834065934065934,0.3344322344322344,0.4448351648351648
3.2022439380016294,0.834065934065934,0.3344322344322344,0.4448351648351648
3.2053318440011935,0.834065934065934,0.3344322344322344,0.4448351648351648
3.2077288379987294,0.834065934065934,0.3344322344322344,0.4448351648351648
3.207889796998643,0.834065934065934,0.3344322344322344,0.4448351648351648
3.214300029001606,0.834065934065934,0.3344322344322344,0.4448351648351648
3.218350911000016,0.834065934065934,0.3344322344322344,0.4448351648351648
3.2215267999999924,0.14586080586080585,2.390989010989011,1.2192673992673992
3.223917095001525,0.14586080586080585,2.390989010989011,1.2192673992673992
3.2240232479998667,0.14586080586080585,2.390989010989011,1.2192673992673992
3.2304007679995266,0.14586080586080585,2.390989010989011,1.2192673992673992
3.2335140600007435,0.14586080586080585,2.390989010989011,1.2192673992673992
3.2359826280007837,0.14586080586080585,2.390989010989011,1.2192673992673992
3.2361364450007386,0.14586080586080585,2.390989010989011,1.2192673992673992
3.2406996800018533,0.14586080586080585,2.390989010989011,1.2192673992673992
3.2410424270019575,0.14586080586080585,2.390989010989011,1.2192673992673992
3.248656566000136,0.14586080586080585,2.390989010989011,1.2192673992673992
3.253369254001882,0.14586080586080585,2.390989010989011,1.2192673992673992
3.253599663999921,0.14586080586080585,2.390989010989011,1.2192673992673992
3.2602311139999074,0.14586080586080585,2.390989010989011,1.2192673992673992
3.264908185999957,0.14586080586080585,2.390989010989011,1.2192673992673992
3.2650225770012185,0.14586080586080585,2.390989010989011,1.2192673992673992
3.2699011049990077,0.14586080586080585,2.390989010989011,1.2192673992673992
3.270017505001306,0.14586080586080585,2.390989010989011,1.2192673992673992
3.27485323899964,0.14586080586080585,2.390989010989011,1.2192673992673992
3.2752112349990057,0.14586080586080585,2.390989010989011,1.2192673992673992
3.280451582999376,0.14586080586080585,2.390989010989011,1.2192673992673992
3.281556891000946,0.14586080586080585,2.390989010989011,1.2192673992673992
3.2817921200003184,0.14586080586080585,2.390989010989011,1.2192673992673992
3.2867486479990475,0.14586080586080585,2.390989010989011,1.2192673992673992
3.2913084800020442,0.14586080586080585,2.390989010989011,1.2192673992673992
3.2920451700010744,0.14586080586080585,2.390989010989011,1.2192673992673992
3.297149123001873,0.14586080586080585,2.390989010989011,1.2192673992673992
3.2988643440003216,0.4964102564102564,2.002564102564102,0.8945054945054944
3.302850642001431,0.6873992673992674,1.0016849816849815,0.614065934065934
3.3066569110014825,0.6873992673992674,1.0016849816849815,0.614065934065934
3.314239888000884,0.6873992673992674,1.0016849816849815,0.614065934065934
3.318225522998546,0.6873992673992674,1.0016849816849815,0.614065934065934
3.322184707998531,0.6873992673992674,1.0016849816849815,0.614065934065934
3.328078225000354,0.6873992673992674,1.0016849816849815,0.614065934065934
3.3334120660001645,0.1643956043956044,0.9581684981684981,0.622124542124542
3.33430072000192,0.1643956043956044,0.9581684981684981,0.622124542124542
3.3359422140019888,0.1643956043956044,0.9581684981684981,0.622124542124542
3.340654830000858,0.1643956043956044,0.9581684981684981,0.622124542124542
3.3490487019989814,0.1643956043956044,0.9581684981684981,0.622124542124542
3.35357551999914,0.1643956043956044,0.9581684981684981,0.622124542124542
3.3544887579992064,0.1643956043956044,0.9581684981684981,0.622124542124542
3.3555577660008566,0.1643956043956044,0.9581684981684981,0.622124542124542
3.3564014379990113,0.1643956043956044,0.9581684981684981,0.622124542124542
3.358430590000353,0.1643956043956044,0.9581684981684981,0.622124542124542
3.3616334440011997,0.1643956043956044,0.9581684981684981,0.622124542124542
3.362963428000512,0.1643956043956044,0.9581684981684981,0.622124542124542
3.3688099940009124,0.1643956043956044,0.9581684981684981,0.622124542124542
3.368944077999913,0.0,0.6414652014652015,0.5431501831501832
3.374296878999303,0.0,0.6414652014652015,0.5431501831501832
3.3772711679994245,0.0,0.6414652014652015,0.5431501831501832
3.37982347399884,0.0,0.6414652014652015,0.5431501831501832
3.3848445330004324,0.0,0.6414652014652015,0.5431501831501832
3.389383519999683,0.0,0.6414652014652015,0.5431501831501832
3.389553035998688,0.0,0.6761172161172161,0.5689377289377289
3.3968589210016944,0.0,0.6761172161172161,0.5689377289377289
3.4010585690011794,0.0,0.6761172161172161,0.5689377289377289
3.4033481440019386,0.0,0.6761172161172161,0.5689377289377289
3.4035304120006913,0.0,0.6761172161172161,0.5689377289377289
3.4094802049985447,0.0,0.6761172161172161,0.5689377289377289
3.415805303000525,0.0,0.6761172161172161,0.5689377289377289
3.4196693539997796,0.0,0.6761172161172161,0.5689377289377289
3.426766442000371,0.0,0.6761172161172161,0.5689377289377289
3.4319268190010916,3.3,2.813260073260073,2.557802197802198
3.435241072998906,0.24901098901098898,0.8066666666666666,0.5487912087912087
3.4355748269990727,0.24901098901098898,0.8066666666666666,0.5487912087912087
3.44027333700069,0.24901098901098898,0.8066666666666666,0.5487912087912087
3.4405078790005064,0.24901098901098898,0.8066666666666666,0.5487912087912087
3.44835492600032,0.24901098901098898,0.8066666666666666,0.5487912087912087
3.453188109000621,0.24901098901098898,0.8066666666666666,0.5487912087912087
3.4595245579985203,0.24901098901098898,0.8066666666666666,0.5487912087912087
3.463973403999262,0.9992673992673992,0.5769963369963369,0.5504029304029303
3.4648750080013997,0.9992673992673992,0.5769963369963369,0.5504029304029303
3.4666751570002816,0.9992673992673992,0.5769963369963369,0.5504029304029303
3.469055974001094,0.9992673992673992,0.5769963369963369,0.5504029304029303
3.469261076999828,0.9992673992673992,0.5769963369963369,0.5504029304029303
3.47647839199999,0.9992673992673992,0.5769963369963369,0.5504029304029303
3.4822309740011406,1.6125274725274723,3.3,3.3
3.4877474189997884,0.5769963369963369,0.4899633699633699,0.48835164835164835
3.4887041820002196,0.166007326007326,0.9775091575091575,0.49721611721611714
3.4904165270017984,0.166007326007326,0.9775091575091575,0.49721611721611714
3.4963563620003697,0.166007326007326,0.9775091575091575,0.49721611721611714
3.4995446060020186,0.166007326007326,0.9775091575091575,0.49721611721611714
3.501816512001824,0.5608791208791208,1.8276923076923077,0.7897435897435897
3.5020112410020374,0.5608791208791208,1.8276923076923077,0.7897435897435897
3.5073019150004257,0.5608791208791208,1.8276923076923077,0.7897435897435897
3.509653012999479,0.5608791208791208,1.8276923076923077,0.7897435897435897
3.516415115002019,0.5608791208791208,1.8276923076923077,0.7897435897435897
3.520132267000008,0.6035897435897435,0.9178754578754579,1.6246153846153846
3.520232032999047,0.6035897435897435,0.9178754578754579,1.6246153846153846
3.528899887998705,0.3158974358974359,0.6124542124542125,0.5721611721611721
3.534835793001548,0.3158974358974359,0.6124542124542125,0.5721611721611721
3.538816404001409,0.8904761904761904,1.1999267399267397,2.0154578754578756
3.5432178379996913,0.8904761904761904,1.1999267399267397,2.0154578754578756
3.543612640001811,0.523003663003663,0.3843956043956044,0.3964835164835165
3.549191228001291,0.523003663003663,0.3843956043956044,0.3964835164835165
3.5500429610001447,0.523003663003663,0.3843956043956044,0.3964835164835165
3.551746003999142,0.523003663003663,0.3843956043956044,0.3964835164835165
3.5551042840015725,0.9404395604395603,1.1394871794871795,1.9799999999999998
3.556050249000691,0.9404395604395603,1.1394871794871795,1.9799999999999998
3.556903422999312,0.9404395604395603,1.1394871794871795,1.9799999999999998
3.559713938000641,0.9404395604395603,1.1394871794871795,1.9799999999999998
3.5639321519993246,0.9404395604395603,1.1394871794871795,1.9799999999999998
3.564240562998748,0.9404395604395603,1.1394871794871795,1.9799999999999998
3.56901130299957,0.9404395604395603,1.1394871794871795,1.9799999999999998
3.569191259000945,0.9404395604395603,1.1394871794871795,1.9799999999999998
3.574195412998961,0.9404395604395603,1.1394871794871795,1.9799999999999998
3.580820619001315,1.8333333333333333,3.3,3.249230769230769
3.5850111690015183,1.8333333333333333,3.3,3.249230769230769
3.58847431599861,1.8333333333333333,3.3,3.249230769230769
3.5886510089985677,1.8333333333333333,3.3,3.249230769230769
3.5954367279991857,1.8333333333333333,3.3,3.249230769230769
3.599154688999988,1.8333333333333333,3.3,3.249230769230769
3.6036414990012418,1.8333333333333333,3.3,3.249230769230769
3.6045310469999094,1.8333333333333333,3.3,3.249230769230769
3.6062775040009,1.8333333333333333,3.3,3.249230769230769
3.6109132429992314,1.8333333333333333,3.3,3.249230769230769
3.6189536820020294,1.8333333333333333,3.3,3.249230769230769
3.6266720189996704,0.8413186813186813,0.8211721611721612,0.5254212454212454
3.6321147980015667,0.8413186813186813,0.8211721611721612,0.5254212454212454
3.6329419040012,0.8413186813186813,0.8211721611721612,0.5254212454212454
3.634605629998987,0.8413186813186813,0.8211721611721612,0.5254212454212454
3.6385073530000227,0.8413186813186813,0.8211721611721612,0.5254212454212454
3.6435306780003884,0.8413186813186813,0.8211721611721612,0.5254212454212454
3.6485141910015955,0.8284249084249083,0.361025641025641,0.43999999999999995
3.6531667550007114,0.8284249084249083,0.361025641025641,0.43999999999999995
3.6534643400009372,0.8284249084249083,0.361025641025641,0.43999999999999995
3.6600830579991452,0.8284249084249083,0.361025641025641,0.43999999999999995
3.664082552000764,3.3,2.8390476190476193,2.569084249084249
3.6665258719986014,3.3,2.8390476190476193,2.569084249084249
3.6666374179985723,3.3,2.8390476190476193,2.569084249084249
3.6713280900003156,3.3,2.8390476190476193,2.569084249084249
3.6723569669993594,3.3,2.8390476190476193,2.569084249084249
3.6725496430008207,3.3,2.8390476190476193,2.569084249084249
3.6809600710002996,3.3,2.8390476190476193,2.569084249084249
3.6850176240004657,3.3,2.8390476190476193,2.569084249084249
3.688811859999987,1.838168498168498,2.1137728937728935,3.3
3.696901331000845,0.0838095238095238,0.39003663003663,0.6632234432234432
3.7008378530008486,0.0838095238095238,0.39003663003663,0.6632234432234432
3.704701955000928,0.7873260073260073,1.4191208791208791,0.6261538461538461
3.7111321359989233,0.7873260073260073,1.4191208791208791,0.6261538461538461
3.714634650001244,0.7873260073260073,1.4191208791208791,0.6261538461538461
3.71485661800034,0.43999999999999995,0.9347985347985347,1.4819780219780219
3.7198429119998764,0.43999999999999995,0.9347985347985347,1.4819780219780219
3.725254930999654,0.6882051282051282,0.8324542124542124,0.7542857142857142
3.725567408000643,0.6285714285714284,0.448058608058608,0.4126007326007326
3.7312671690015122,0.6285714285714284,0.448058608058608,0.4126007326007326
3.731456325000181,0.6285714285714284,0.448058608058608,0.4126007326007326
3.736800751001283,0.6285714285714284,0.448058608058608,0.4126007326007326
3.739488351999171,2.3998534798534794,3.3,3.3
3.7466392440001073,2.3998534798534794,3.3,3.3
3.7506491230014944,0.6342124542124542,0.42630036630036633,0.5391208791208791
3.7543877290008822,0.6342124542124542,0.42630036630036633,0.5391208791208791
3.7621799430016836,0.6342124542124542,0.42630036630036633,0.5391208791208791
3.7661095350013056,0.6342124542124542,0.42630036630036633,0.5391208791208791
3.7701262020018476,0.6342124542124542,0.42630036630036633,0.5391208791208791
3.77172561900079,0.007252747252747252,0.713992673992674,0.5254212454212454
3.776982171999407,0.007252747252747252,0.713992673992674,0.5254212454212454
3.7800769899986335,0.19179487179487179,2.6754578754578753,1.6117216117216115
3.7809409969995613,0.19179487179487179,2.6754578754578753,1.6117216117216115
3.7824940089994925,0.19179487179487179,2.6754578754578753,1.6117216117216115
3.7870627129996137,0.19179487179487179,2.6754578754578753,1.6117216117216115
3.7873058859986486,0.19179487179487179,2.6754578754578753,1.6117216117216115
3.793188628002099,0.13216117216117215,0.9428571428571427,0.5544322344322344
3.8004357850004453,0.13216117216117215,0.9428571428571427,0.5544322344322344
3.805271476001508,0.36747252747252745,0.5383150183150183,0.8413186813186813
3.813190457000019,0.5141391941391941,0.7075457875457875,0.5173626373626373
3.817025365999143,0.5141391941391941,0.7075457875457875,0.5173626373626373
3.8214106679988618,0.5141391941391941,0.7075457875457875,0.5173626373626373
3.8231612749987107,0.5141391941391941,0.7075457875457875,0.5173626373626373
3.8276566509994154,0.5141391941391941,0.7075457875457875,0.5173626373626373
3.827887137998914,0.5141391941391941,0.7075457875457875,0.5173626373626373
3.8327536110009532,0.5141391941391941,0.7075457875457875,0.5173626373626373
3.8372662649999256,0.5141391941391941,0.7075457875457875,0.5173626373626373
3.8391197189994273,0.5141391941391941,0.7075457875457875,0.5173626373626373
3.8416950130012992,0.5141391941391941,0.7075457875457875,0.5173626373626373
3.8476079540014325,0.5141391941391941,0.7075457875457875,0.5173626373626373
3.8514338999993925,0.5141391941391941,0.7075457875457875,0.5173626373626373
3.857085208001081,1.4223443223443224,2.313626373626373,2.3998534798534794
3.857413274999999,1.4223443223443224,2.313626373626373,2.3998534798534794
3.863533624000411,1.4223443223443224,2.313626373626373,2.3998534798534794
3.866739247001533,1.4223443223443224,2.313626373626373,2.3998534798534794
3.867717798999365,3.3,2.8358241758241753,2.5642490842490844
3.8687084699995467,3.3,2.8358241758241753,2.5642490842490844
3.8696261510012846,3.3,2.8358241758241753,2.5642490842490844
3.8713615529995877,3.3,2.8358241758241753,2.5642490842490844
3.874859411000216,3.3,2.8358241758241753,2.5642490842490844
3.8751379320019623,3.3,2.8358241758241753,2.5642490842490844
3.881861484998808,3.3,2.8358241758241753,2.5642490842490844
3.8861239200014097,3.3,2.8358241758241753,2.5642490842490844
3.887884096999187,0.6922344322344323,0.5544322344322344,1.0363369963369962
3.8921348030016816,0.6922344322344323,0.5544322344322344,1.0363369963369962
3.894028380000236,0.6922344322344323,0.5544322344322344,1.0363369963369962
3.897228533998714,0.6922344322344323,0.5544322344322344,1.0363369963369962
3.8981819090004137,0.6922344322344323,0.5544322344322344,1.0363369963369962
3.8998306069988757,0.6922344322344323,0.5544322344322344,1.0363369963369962
3.903625701001147,0.6922344322344323,0.5544322344322344,1.0363369963369962
3.907580016999418,0.43435897435897436,0.5342857142857143,0.6906227106227106
3.914398215998517,0.43435897435897436,0.5342857142857143,0.6906227106227106
3.9191933869988134,0.43435897435897436,0.5342857142857143,0.6906227106227106
3.92748653200033,0.43435897435897436,0.5342857142857143,0.6906227106227106
3.9313316289990325,0.43435897435897436,0.5342857142857143,0.6906227106227106
3.935355386998708,0.43435897435897436,0.5342857142857143,0.6906227106227106
3.9393068159988616,0.43435897435897436,0.5342857142857143,0.6906227106227106
3.9436817909991078,0.43435897435897436,0.5342857142857143,0.6906227106227106
3.944140789000812,0.43435897435897436,0.5342857142857143,0.6906227106227106
3.9496436510016792,0.43435897435897436,0.5342857142857143,0.6906227106227106
3.951151568999194,0.43435897435897436,0.5342857142857143,0.6906227106227106
3.9586004679986218,0.43435897435897436,0.5342857142857143,0.6906227106227106
3.9645990960016206,0.43435897435897436,0.5342857142857143,0.6906227106227106
3.9701257859996986,0.5721611721611721,0.4561172161172161,0.4383882783882784
3.970407205000811,0.23369963369963367,0.8219780219780219,0.5576556776556777
3.978827802999149,0.23369963369963367,0.8219780219780219,0.5576556776556777
3.9828805299985106,0.23369963369963367,0.8219780219780219,0.5576556776556777
3.9861435759994492,0.5608791208791208,0.3779487179487179,0.43597069597069593
3.987853056998574,0.5608791208791208,0.3779487179487179,0.43597069597069593
3.9909774449988618,0.1104029304029304,0.8066666666666666,0.5117216117216117
3.992847393001284,1.9131135531135532,3.3,3.3
3.9956755980019807,1.9131135531135532,3.3,3.3
3.9987972700000682,1.9131135531135532,3.3,3.3
4.000559076001082,1.9131135531135532,3.3,3.3
4.003647726000054,1.9131135531135532,3.3,3.3
4.006731149002007,2.309597069597069,3.3,3.3
4.009518578001007,3.3,2.840659340659341,2.5594139194139194
4.0147411879988795,3.3,2.840659340659341,2.5594139194139194
4.016459442998894,1.0073260073260073,1.3127472527472526,1.9526007326007324
4.019626535999123,1.0073260073260073,1.3127472527472526,1.9526007326007324
4.021241221002128,1.0073260073260073,1.3127472527472526,1.9526007326007324
4.025968180001655,1.0073260073260073,1.3127472527472526,1.9526007326007324
4.0318888619985955,1.0073260073260073,1.3127472527472526,1.9526007326007324
4.03651941499993,1.0073260073260073,1.3127472527472526,1.9526007326007324
4.0366521239993745,1.0073260073260073,1.3127472527472526,1.9526007326007324
4.0414938510002685,1.0073260073260073,1.3127472527472526,1.9526007326007324
4.041645567998785,1.0073260073260073,1.3127472527472526,1.9526007326007324
4.047878957000648,1.0073260073260073,1.3127472527472526,1.9526007326007324
4.051029337999353,1.0073260073260073,1.3127472527472526,1.9526007326007324
4.053321318999224,1.0073260073260073,1.3127472527472526,1.9526007326007324
4.053517754000495,1.0073260073260073,1.3127472527472526,1.9526007326007324
4.058969386998797,1.0073260073260073,1.3127472527472526,1.9526007326007324
4.061087234000297,1.1934798534798534,3.3,2.958315018315018
4.0614038329986215,1.1934798534798534,3.3,2.958315018315018
4.066100119001931,1.1934798534798534,3.3,2.958315018315018
4.071471835999546,1.1934798534798534,3.3,2.958315018315018
4.07377193299908,1.1934798534798534,3.3,2.958315018315018
4.073973538001155,1.1934798534798534,3.3,2.958315018315018
4.080290682999475,1.1934798534798534,3.3,2.958315018315018
4.084138735001034,1.1934798534798534,3.3,2.958315018315018
4.08791907900013,1.1934798534798534,3.3,2.958315018315018
4.0962423980017775,1.1934798534798534,3.3,2.958315018315018
4.100168668999686,1.834139194139194,3.232307692307692,3.3
4.104894811000122,1.834139194139194,3.232307692307692,3.3
4.105024764001428,1.834139194139194,3.232307692307692,3.3
4.1113505239991355,1.834139194139194,3.232307692307692,3.3
4.11487578300148,1.834139194139194,3.232307692307692,3.3
4.115115494001657,1.834139194139194,3.232307692307692,3.3
4.1197120399992855,1.834139194139194,3.232307692307692,3.3
4.120049350000045,0.8131135531135532,1.4336263736263737,0.7035164835164834
4.125759580001613,0.83003663003663,0.32798534798534795,0.473040293040293
4.125974107999355,1.8752380952380951,1.535164835164835,2.341025641025641
4.132181343000411,1.8752380952380951,1.535164835164835,2.341025641025641
4.135335294999095,1.8752380952380951,1.535164835164835,2.341025641025641
4.1369694089989935,1.8752380952380951,1.535164835164835,2.341025641025641
4.143290557,1.8752380952380951,1.535164835164835,2.341025641025641
4.146310402000381,1.8752380952380951,1.535164835164835,2.341025641025641
4.148735966999084,1.963076923076923,1.5770695970695972,2.4264468864468864
4.154232089000288,0.5093040293040293,1.6012454212454212,1.1233699633699634
4.155891319998773,0.5093040293040293,1.6012454212454212,1.1233699633699634
4.160347701999854,0.5093040293040293,1.6012454212454212,1.1233699633699634
4.16093171600005,0.7244688644688644,0.8042490842490841,0.5504029304029303
4.1646981359990605,0.7244688644688644,0.8042490842490841,0.5504029304029303
4.167907443999866,0.7244688644688644,0.8042490842490841,0.5504029304029303
4.170391144998575,0.7244688644688644,0.8042490842490841,0.5504029304029303
4.177012346000993,2.1443956043956045,2.5424908424908423,3.3
4.180891725001857,2.1443956043956045,2.5424908424908423,3.3
4.184845932999451,2.1443956043956045,2.5424908424908423,3.3
4.188865259999147,2.1443956043956045,2.5424908424908423,3.3
4.193015534001461,2.1443956043956045,2.5424908424908423,3.3
4.195413962999737,2.1443956043956045,2.5424908424908423,3.3
4.200307126000553,2.1443956043956045,2.5424908424908423,3.3
4.2049250320014835,2.1443956043956045,2.5424908424908423,3.3
4.205144153998845,2.1443956043956045,2.5424908424908423,3.3
4.212539370000741,2.1443956043956045,2.5424908424908423,3.3
4.215675172999909,2.1443956043956045,2.5424908424908423,3.3
4.2183584539998265,2.1443956043956045,2.5424908424908423,3.3
4.223182679001184,2.1443956043956045,2.5424908424908423,3.3
4.229806289000408,2.1443956043956045,2.5424908424908423,3.3
4.233711877001042,1.696336996336996,3.3,3.3
4.237459733001742,1.696336996336996,3.3,3.3
4.2441324229985185,1.696336996336996,3.3,3.3
4.247780730001978,0.7953846153846154,0.8542124542124543,0.5479853479853479
4.253315860001749,0.7953846153846154,0.8542124542124543,0.5479853479853479
4.2548815379996086,1.070989010989011,1.494871794871795,2.0984615384615384
4.260332660000131,1.070989010989011,1.494871794871795,2.0984615384615384
4.2616681789986615,1.070989010989011,1.494871794871795,2.0984615384615384
4.266482858001837,1.070989010989011,1.494871794871795,2.0984615384615384
4.276303516999178,1.070989010989011,1.494871794871795,2.0984615384615384
4.285732665000978,1.070989010989011,1.494871794871795,2.0984615384615384
4.294610150998778,1.070989010989011,1.494871794871795,2.0984615384615384
4.298746256001323,1.070989010989011,1.494871794871795,2.0984615384615384
4.301058318000287,1.070989010989011,1.494871794871795,2.0984615384615384
4.301598404999822,1.070989010989011,1.494871794871795,2.0984615384615384
4.303977433999535,1.070989010989011,1.494871794871795,2.0984615384615384
4.304214415999013,1.070989010989011,1.494871794871795,2.0984615384615384
4.311323195001023,2.7616849816849816,3.3,2.8180952380952378
4.314922687000944,2.7616849816849816,3.3,2.8180952380952378
4.3203065730012895,0.6277655677655677,0.9428571428571427,1.7583882783882783
4.321946215000935,0.6277655677655677,0.9428571428571427,1.7583882783882783
4.328083337000862,0.6277655677655677,0.9428571428571427,1.7583882783882783
4.3314634500020475,0.6277655677655677,0.9428571428571427,1.7583882783882783
4.3316880659986055,0.6277655677655677,0.9428571428571427,1.7583882783882783
4.336391977998574,0.6277655677655677,0.9428571428571427,1.7583882783882783
4.33654243500132,0.5536263736263736,1.037948717948718,1.6947252747252746
4.342452668999613,0.5536263736263736,1.037948717948718,1.6947252747252746
4.349674637000135,0.5536263736263736,1.037948717948718,1.6947252747252746
4.354291160001594,0.5536263736263736,1.037948717948718,1.6947252747252746
4.354836772999988,1.2498901098901098,1.9493772893772894,2.659340659340659
4.361097105000226,1.2498901098901098,1.9493772893772894,2.659340659340659
4.364839174999361,1.2498901098901098,1.9493772893772894,2.659340659340659
4.370837557999039,1.2498901098901098,1.9493772893772894,2.659340659340659
4.37591370500013,1.826886446886447,3.3,3.3
4.379831636000745,1.826886446886447,3.3,3.3
4.382935131001432,1.826886446886447,3.3,3.3
4.384614755999792,1.826886446886447,3.3,3.3
4.389136992998829,1.826886446886447,3.3,3.3
4.389301305000117,1.826886446886447,3.3,3.3
4.395446179001738,1.826886446886447,3.3,3.3
4.3989016890009225,1.826886446886447,3.3,3.3
4.399136715001077,0.4029304029304029,2.0009523809523806,0.8832234432234431
4.403777234001609,0.4029304029304029,2.0009523809523806,0.8832234432234431
4.404048913002043,0.4029304029304029,2.0009523809523806,0.8832234432234431
4.40914396199878,0.4029304029304029,2.0009523809523806,0.8832234432234431
4.414081664999685,0.4029304029304029,2.0009523809523806,0.8832234432234431
4.418630375999783,0.4029304029304029,2.0009523809523806,0.8832234432234431
4.418931563999649,0.4029304029304029,2.0009523809523806,0.8832234432234431
4.425509601998783,0.4029304029304029,2.0009523809523806,0.8832234432234431
4.430881408999994,0.4029304029304029,2.0009523809523806,0.8832234432234431
4.4323893770015275,0.12893772893772892,0.7405860805860806,0.48835164835164835
4.439287105000403,0.12893772893772892,0.7405860805860806,0.48835164835164835
4.446384326001862,0.12893772893772892,0.7405860805860806,0.48835164835164835
4.451743034998799,0.12893772893772892,0.7405860805860806,0.48835164835164835
4.451958099001786,0.12893772893772892,0.7405860805860806,0.48835164835164835
4.461755046999315,0.12893772893772892,0.7405860805860806,0.48835164835164835
4.466801444999874,0.12893772893772892,0.7405860805860806,0.48835164835164835
4.469998536998901,0.12893772893772892,0.7405860805860806,0.48835164835164835
4.4716970219997165,0.12893772893772892,0.7405860805860806,0.48835164835164835
4.4756291459998465,1.88007326007326,3.3,3.2822710622710622
4.480044315001578,1.88007326007326,3.3,3.2822710622710622
4.481617243000073,0.8759706959706959,0.4931868131868131,0.5544322344322344
4.486249843001133,0.8759706959706959,0.4931868131868131,0.5544322344322344
4.49648425399937,0.8759706959706959,0.4931868131868131,0.5544322344322344
4.504579215001286,0.8759706959706959,0.4931868131868131,0.5544322344322344
4.511543273998541,0.8759706959706959,0.4931868131868131,0.5544322344322344
4.515570536001178,0.1418315018315018,0.8743589743589744,0.5431501831501832
4.520362005001516,0.1418315018315018,0.8743589743589744,0.5431501831501832
4.528639946998737,0.1418315018315018,0.8743589743589744,0.5431501831501832
4.535383999002079,3.3,2.844688644688645,2.5634432234432234
4.540883514000598,3.3,2.844688644688645,2.5634432234432234
4.540997660998983,3.3,2.844688644688645,2.5634432234432234
4.547089646999666,3.3,2.844688644688645,2.5634432234432234
4.55121486400094,3.3,2.844688644688645,2.5634432234432234
4.553529955999693,0.06205128205128205,0.5238095238095237,0.5963369963369963
4.553775438998855,0.06205128205128205,0.5238095238095237,0.5963369963369963
4.564673965000111,0.06205128205128205,0.5238095238095237,0.5963369963369963
4.5714119100011885,0.06205128205128205,0.5238095238095237,0.5963369963369963
4.576773125001637,0.06205128205128205,0.5238095238095237,0.5963369963369963
4.577143190999777,0.06205128205128205,0.5238095238095237,0.5963369963369963
4.583764597999107,0.06205128205128205,0.5238095238095237,0.5963369963369963
4.587998057999357,0.06205128205128205,0.5238095238095237,0.5963369963369963
4.589757349000138,0.06205128205128205,0.5238095238095237,0.5963369963369963
4.593778422000469,0.06205128205128205,0.5238095238095237,0.5963369963369963
4.597436435000418,0.06205128205128205,0.5238095238095237,0.5963369963369963
4.606509241999447,0.06205128205128205,0.5238095238095237,0.5963369963369963
4.615886350999062,0.6479120879120879,0.4762637362637362,0.5205860805860806
4.623346852000395,0.6479120879120879,0.4762637362637362,0.5205860805860806
4.632676518998778,0.6479120879120879,0.4762637362637362,0.5205860805860806
4.639936783998564,0.95010989010989,1.1854212454212454,2.0702564102564103
4.643329079000978,0.95010989010989,1.1854212454212454,2.0702564102564103
4.661319743001513,0.95010989010989,1.1854212454212454,2.0702564102564103
4.678269710999302,0.9082051282051282,0.5874725274725274,0.518974358974359
4.692114995999873,3.2024908424908425,3.3,2.8551648351648353
4.703044951002084,3.2024908424908425,3.3,2.8551648351648353
4.712187895001989,3.3,2.8495238095238093,2.561025641025641
4.71979415000169,3.3,2.8495238095238093,2.561025641025641
4.725178737000533,0.03626373626373627,2.5989010989010985,1.4618315018315018
4.725516578000679,0.03626373626373627,2.5989010989010985,1.4618315018315018
4.73152258600021,0.03626373626373627,2.5989010989010985,1.4618315018315018
4.735788227000739,0.03626373626373627,2.5989010989010985,1.4618315018315018
4.737584466001863,0.03626373626373627,2.5989010989010985,1.4618315018315018
4.74508865000098,0.03626373626373627,2.5989010989010985,1.4618315018315018
4.750790148002125,0.03626373626373627,2.5989010989010985,1.4618315018315018
4.755494545999682,0.03626373626373627,2.5989010989010985,1.4618315018315018
4.755769076000433,0.03626373626373627,2.5989010989010985,1.4618315018315018
4.763461950999044,0.03626373626373627,2.5989010989010985,1.4618315018315018
4.76940015099899,0.03626373626373627,2.5989010989010985,1.4618315018315018
4.773911000000226,0.03626373626373627,2.5989010989010985,1.4618315018315018
4.774925516001531,0.5665201465201465,0.9017582417582416,1.6028571428571428
4.776377582998975,0.5665201465201465,0.9017582417582416,1.6028571428571428
4.781881332000921,0.5665201465201465,0.9017582417582416,1.6028571428571428
4.783456930999819,0.5665201465201465,0.9017582417582416,1.6028571428571428
4.787188536000031,0.5036630036630036,0.473040293040293,0.49157509157509155
4.797433315001399,3.3,2.834212454212454,2.561025641025641
4.802144615001453,1.7011721611721609,3.3,2.993772893772894
4.8023310210010095,0.7526739926739926,0.9750915750915751,0.5931135531135531
4.808548631001031,0.7526739926739926,0.9750915750915751,0.5931135531135531
4.815934018999542,0.7526739926739926,0.9750915750915751,0.5931135531135531
4.820845521000592,0.7526739926739926,0.9750915750915751,0.5931135531135531
4.820967809999274,0.7526739926739926,0.9750915750915751,0.5931135531135531
4.82798575400011,0.7526739926739926,0.9750915750915751,0.5931135531135531
4.831901677000133,0.7526739926739926,0.9750915750915751,0.5931135531135531
4.83581464999952,0.7526739926739926,0.9750915750915751,0.5931135531135531
4.839715777001402,0.7526739926739926,0.9750915750915751,0.5931135531135531
4.8463088079988665,0.7526739926739926,0.9750915750915751,0.5931135531135531
4.850094409001031,0.502051282051282,0.4166300366300366,0.5278388278388277
4.854737251000188,0.502051282051282,0.4166300366300366,0.5278388278388277
4.854900546000863,1.8913553113553112,3.3,3.3
4.8620052879996365,1.8913553113553112,3.3,3.3
4.866291943999386,0.46175824175824176,1.846227106227106,0.8364835164835164
4.86866412100062,0.46175824175824176,1.846227106227106,0.8364835164835164
4.875512409002113,0.46175824175824176,1.846227106227106,0.8364835164835164
4.879835600000661,0.46175824175824176,1.846227106227106,0.8364835164835164
4.881626544000028,0.46175824175824176,1.846227106227106,0.8364835164835164
4.8840071330014325,0.46175824175824176,1.846227106227106,0.8364835164835164
4.884157517000858,0.5471794871794872,0.4899633699633699,0.4448351648351648
4.888783991998935,0.5471794871794872,0.4899633699633699,0.4448351648351648
4.889162994000799,0.5471794871794872,0.4899633699633699,0.4448351648351648
4.8952529019989015,0.5471794871794872,0.4899633699633699,0.4448351648351648
4.90138436000052,0.5471794871794872,0.4899633699633699,0.4448351648351648
4.905282116000308,0.5471794871794872,0.4899633699633699,0.4448351648351648
4.911914426000294,0.5471794871794872,0.4899633699633699,0.4448351648351648
4.915745459999016,0.5471794871794872,0.4899633699633699,0.4448351648351648
4.919114421001723,2.0549450549450547,3.3,3.3
4.9199576639985025,2.0549450549450547,3.3,3.3
4.921575579999626,0.8405128205128204,0.46739926739926735,0.5415384615384615
4.926696498001547,0.8405128205128204,0.46739926739926735,0.5415384615384615
4.929034690001572,0.5117216117216117,0.4126007326007326,0.6317948717948718
4.929183147000003,0.12087912087912088,0.8364835164835164,0.49399267399267394
4.933823715000472,0.12087912087912088,0.8364835164835164,0.49399267399267394
4.934129151999514,0.12087912087912088,0.8364835164835164,0.49399267399267394
4.938881180998578,0.12087912087912088,0.8364835164835164,0.49399267399267394
4.939145685999392,0.12087912087912088,0.8364835164835164,0.49399267399267394
4.946272069999395,0.12087912087912088,0.8364835164835164,0.49399267399267394
4.950163591998717,0.7413919413919414,0.3723076923076923,0.5036630036630036
4.953951580999274,0.7413919413919414,0.3723076923076923,0.5036630036630036
4.9607092830010515,0.7413919413919414,0.3723076923076923,0.5036630036630036
4.964439981999021,0.5592673992673992,3.1170695970695967,2.19032967032967
4.970268625002063,0.5592673992673992,3.1170695970695967,2.19032967032967
4.97859934400185,0.5592673992673992,3.1170695970695967,2.19032967032967
4.98280619399884,3.3,2.8551648351648353,2.565054945054945
4.985270148001291,3.3,2.8551648351648353,2.565054945054945
4.991597779000585,3.3,2.8551648351648353,2.565054945054945
4.996386572998745,3.3,2.8551648351648353,2.565054945054945
5.001110567998694,3.3,2.8551648351648353,2.565054945054945
5.001277439001569,3.3,2.8551648351648353,2.565054945054945
5.006182027998875,3.3,2.8551648351648353,2.565054945054945
5.014078217001952,3.3,2.8551648351648353,2.565054945054945
5.018703858000663,3.3,2.8551648351648353,2.565054945054945
5.01903460000176,3.3,2.8551648351648353,2.565054945054945
5.023983887000213,3.3,2.8551648351648353,2.565054945054945
5.030174061001162,3.3,2.8551648351648353,2.565054945054945
5.033283146000031,0.0701098901098901,0.8437362637362636,0.5165567765567766
5.035810716999549,0.0701098901098901,0.8437362637362636,0.5165567765567766
5.042269532001228,0.0701098901098901,0.8437362637362636,0.5165567765567766
5.045847938999941,0.809084249084249,1.0734065934065933,0.9122344322344322
5.046028912998736,0.809084249084249,1.0734065934065933,0.9122344322344322
5.050725515000522,0.809084249084249,1.0734065934065933,0.9122344322344322
5.050888068999484,0.809084249084249,1.0734065934065933,0.9122344322344322
5.056271171000844,0.809084249084249,1.0734065934065933,0.9122344322344322
5.057957905999501,0.809084249084249,1.0734065934065933,0.9122344322344322
5.061838289999287,0.809084249084249,1.0734065934065933,0.9122344322344322
5.06561286500073,0.809084249084249,1.0734065934065933,0.9122344322344322
5.06922368099913,3.3,2.8100366300366297,2.5586080586080584
5.069368833999761,3.3,2.8100366300366297,2.5586080586080584
5.074424407001061,3.3,2.8100366300366297,2.5586080586080584
5.077985117000935,3.3,2.8100366300366297,2.5586080586080584
5.078159030999814,3.3,2.8100366300366297,2.5586080586080584
5.082564110998646,0.6495238095238095,1.6898901098901096,0.759120879120879
5.083403147000354,0.6495238095238095,1.6898901098901096,0.759120879120879
5.085604431002139,0.6495238095238095,1.6898901098901096,0.759120879120879
5.08640731000196,0.6495238095238095,1.6898901098901096,0.759120879120879
5.088662294001551,0.6495238095238095,1.6898901098901096,0.759120879120879
5.089013056000113,0.6495238095238095,1.6898901098901096,0.759120879120879
5.094163378002122,0.6495238095238095,1.6898901098901096,0.759120879120879
5.097744026999862,0.6495238095238095,1.6898901098901096,0.759120879120879
5.098006233998603,0.6495238095238095,1.6898901098901096,0.759120879120879
5.10759594800038,0.6495238095238095,1.6898901098901096,0.759120879120879
5.115698281999357,0.6495238095238095,1.6898901098901096,0.759120879120879
5.120198350999999,1.0331135531135531,1.5802930402930402,2.0468864468864467
5.121014174001175,1.0331135531135531,1.5802930402930402,2.0468864468864467
5.123439184000745,1.0331135531135531,1.5802930402930402,2.0468864468864467
5.130312158999004,1.0331135531135531,1.5802930402930402,2.0468864468864467
5.134852729999693,1.0331135531135531,1.5802930402930402,2.0468864468864467
5.135627193998516,1.0331135531135531,1.5802930402930402,2.0468864468864467
5.137101464999432,1.0331135531135531,1.5802930402930402,2.0468864468864467
5.143058222001855,1.0331135531135531,1.5802930402930402,2.0468864468864467
5.1513649959997565,1.0331135531135531,1.5802930402930402,2.0468864468864467
5.155443908999587,1.0331135531135531,1.5802930402930402,2.0468864468864467
5.158710182000505,0.4738461538461538,0.9734798534798534,1.5117948717948717
5.160345233998669,0.4738461538461538,0.9734798534798534,1.5117948717948717
5.164301191001869,0.4738461538461538,0.9734798534798534,1.5117948717948717
5.168942248001258,0.4738461538461538,0.9734798534798534,1.5117948717948717
5.169216427999345,0.4738461538461538,0.9734798534798534,1.5117948717948717
5.173980348001351,0.4738461538461538,0.9734798534798534,1.5117948717948717
5.17413295499864,0.4738461538461538,0.9734798534798534,1.5117948717948717
5.179712118999305,0.4738461538461538,0.9734798534798534,1.5117948717948717
5.179969752000034,0.4738461538461538,0.9734798534798534,1.5117948717948717
5.184823842999322,0.4738461538461538,0.9734798534798534,1.5117948717948717
5.191547471000376,0.4738461538461538,0.9734798534798534,1.5117948717948717
5.197202379000373,0.4738461538461538,0.9734798534798534,1.5117948717948717
5.206895029001316,2.9099633699633696,3.3,2.848717948717949
5.213139767001849,0.9025641025641026,0.7462271062271062,0.4488644688644688
5.221484764999332,0.9025641025641026,0.7462271062271062,0.4488644688644688
5.227015028001915,0.4859340659340659,3.079194139194139,2.125054945054945
5.22786462500153,0.4859340659340659,3.079194139194139,2.125054945054945
5.229447820001951,0.4859340659340659,3.079194139194139,2.125054945054945
5.233213274001173,0.4859340659340659,3.079194139194139,2.125054945054945
5.238510141000006,0.4859340659340659,3.079194139194139,2.125054945054945
5.241812435000611,0.4859340659340659,3.079194139194139,2.125054945054945
5.242747790998692,0.4859340659340659,3.079194139194139,2.125054945054945
5.243761951998749,0.4859340659340659,3.079194139194139,2.125054945054945
5.244821938998939,0.4859340659340659,3.079194139194139,2.125054945054945
5.245157671000925,0.4859340659340659,3.079194139194139,2.125054945054945
5.249702031000197,0.4859340659340659,3.079194139194139,2.125054945054945
5.250113430000056,0.4859340659340659,3.079194139194139,2.125054945054945
5.255341683001461,0.4859340659340659,3.079194139194139,2.125054945054945
5.259759135999047,0.4859340659340659,3.079194139194139,2.125054945054945
5.26597215700167,0.4859340659340659,3.079194139194139,2.125054945054945
5.269827482999972,2.5207326007326003,3.3,2.8019780219780217
5.274465361999319,1.991282051282051,3.3,3.3
5.274636281999847,1.991282051282051,3.3,3.3
5.279298175999429,1.991282051282051,3.3,3.3
5.279530905001593,1.991282051282051,3.3,3.3
5.2842490740004,1.991282051282051,3.3,3.3
5.284397561001242,1.991282051282051,3.3,3.3
5.29031267100072,1.991282051282051,3.3,3.3
5.294947785001568,1.991282051282051,3.3,3.3
5.2951353390017175,1.755164835164835,3.3,3.3
5.299890565001988,1.755164835164835,3.3,3.3
5.300028310000926,1.755164835164835,3.3,3.3
5.306041848998575,1.755164835164835,3.3,3.3
5.313236887999665,1.755164835164835,3.3,3.3
5.317990444000316,1.755164835164835,3.3,3.3
5.318250148000516,1.755164835164835,3.3,3.3
5.323057831999904,1.755164835164835,3.3,3.3
5.328508143000363,1.755164835164835,3.3,3.3
5.329527115998644,1.755164835164835,3.3,3.3
5.330434862000402,1.755164835164835,3.3,3.3
5.331405838998762,1.755164835164835,3.3,3.3
5.333036234998872,1.9816117216117215,3.3,3.3
5.336999330000253,1.9816117216117215,3.3,3.3
5.340163609998854,1.9816117216117215,3.3,3.3
5.3426042680002865,0.30622710622710625,2.2040293040293037,1.0186080586080586
5.34272040200085,0.28849816849816845,0.6052014652014651,0.5576556776556777
5.34810429099889,0.28849816849816845,0.6052014652014651,0.5576556776556777
5.351104303001193,0.7518681318681318,0.5310622710622711,1.070989010989011
5.354125353998825,0.7518681318681318,0.5310622710622711,1.070989010989011
5.356509274999553,0.7518681318681318,0.5310622710622711,1.070989010989011
5.356753674001084,0.7518681318681318,0.5310622710622711,1.070989010989011
5.361591254000814,0.7518681318681318,0.5310622710622711,1.070989010989011
5.361722746998566,0.7164102564102564,1.6544322344322344,0.5834432234432234
5.369671143002051,0.30139194139194136,0.7083516483516483,0.5584615384615385
5.378194519998942,0.30139194139194136,0.7083516483516483,0.5584615384615385
5.384925163001753,0.30139194139194136,0.7083516483516483,0.5584615384615385
5.388187061998906,0.3706959706959707,0.5068864468864469,0.5302564102564102
5.390224445000058,0.3706959706959707,0.5068864468864469,0.5302564102564102
5.393024166001851,0.3706959706959707,0.5068864468864469,0.5302564102564102
5.3983066830005555,0.3706959706959707,0.5068864468864469,0.5302564102564102
5.398506995999924,0.3545787545787546,2.165347985347985,0.9525274725274724
5.405905910000001,0.3545787545787546,2.165347985347985,0.9525274725274724
5.412601969001116,0.3545787545787546,2.165347985347985,0.9525274725274724
5.416679408001073,0.9065934065934066,1.2378021978021978,1.8849084249084247
5.419908856001712,0.9065934065934066,1.2378021978021978,1.8849084249084247
5.4217211510003835,0.9065934065934066,1.2378021978021978,1.8849084249084247
5.424327271000948,0.9065934065934066,1.2378021978021978,1.8849084249084247
5.428953497001203,0.9065934065934066,1.2378021978021978,1.8849084249084247
5.4291112489991065,0.02095238095238095,0.39487179487179486,0.5898901098901098
5.434380413000326,0.02095238095238095,0.39487179487179486,0.5898901098901098
5.436824053002056,0.02095238095238095,0.39487179487179486,0.5898901098901098
5.444854164001299,0.02095238095238095,0.39487179487179486,0.5898901098901098
5.448821975998726,0.02095238095238095,0.39487179487179486,0.5898901098901098
5.453220700001111,2.328131868131868,2.3684249084249083,3.3
5.4548676839986,2.328131868131868,2.3684249084249083,3.3
5.459856634999596,2.328131868131868,2.3684249084249083,3.3
5.463194404001115,2.328131868131868,2.3684249084249083,3.3
5.463503064001998,2.328131868131868,2.3684249084249083,3.3
5.468402182999853,2.328131868131868,2.3684249084249083,3.3
5.473943091001274,2.328131868131868,2.3684249084249083,3.3
5.474950783001987,2.328131868131868,2.3684249084249083,3.3
5.475289255999087,2.328131868131868,2.3684249084249083,3.3
5.482645118001528,2.328131868131868,2.3684249084249083,3.3
5.486790025999653,2.328131868131868,2.3684249084249083,3.3
5.490237725000043,2.328131868131868,2.3684249084249083,3.3
5.498226743999112,2.328131868131868,2.3684249084249083,3.3
5.503630478000559,0.4013186813186813,1.9364835164835164,1.003296703296703
5.505954279000434,0.5262271062271061,0.4045421245421245,0.4037362637362637
5.506230078000954,0.5262271062271061,0.4045421245421245,0.4037362637362637
5.514262996999605,2.189523809523809,1.8494505494505493,2.736703296703297
5.5197169950006355,1.4529670329670328,2.9075457875457875,2.4264468864468864
5.52130599299926,1.4529670329670328,2.9075457875457875,2.4264468864468864
5.526834970001801,1.4529670329670328,2.9075457875457875,2.4264468864468864
5.527106132001791,1.4529670329670328,2.9075457875457875,2.4264468864468864
5.532348089000152,1.4529670329670328,2.9075457875457875,2.4264468864468864
5.534701644999586,1.7027838827838828,3.3,3.3
5.534839549000026,1.7027838827838828,3.3,3.3
5.540427504001855,1.7027838827838828,3.3,3.3
5.540748691000772,1.7027838827838828,3.3,3.3
5.547105329998885,1.7027838827838828,3.3,3.3
5.550988437000342,1.7027838827838828,3.3,3.3
5.554902676001802,1.7027838827838828,3.3,3.3
5.562818558999425,1.7027838827838828,3.3,3.3
5.567416005000268,0.734139194139194,1.2498901098901098,0.5729670329670329
5.567646030001924,0.734139194139194,1.2498901098901098,0.5729670329670329
5.573541713998566,0.734139194139194,1.2498901098901098,0.5729670329670329
5.580266253000445,0.734139194139194,1.2498901098901098,0.5729670329670329
5.584123773998726,0.734139194139194,1.2498901098901098,0.5729670329670329
5.588790740999684,1.3602930402930402,1.4860073260073259,2.10007326007326
5.5890201139991404,0.4496703296703296,0.43677655677655675,0.8775824175824175
5.594876260998717,0.4496703296703296,0.43677655677655675,0.8775824175824175
5.600210177999543,0.4496703296703296,0.43677655677655675,0.8775824175824175
5.603443479001726,0.4496703296703296,0.43677655677655675,0.8775824175824175
5.605197667999164,0.4496703296703296,0.43677655677655675,0.8775824175824175
5.60902564099888,2.19032967032967,2.9776556776556777,3.3
5.616500696000003,2.19032967032967,2.9776556776556777,3.3
5.620869632999529,2.19032967032967,2.9776556776556777,3.3
5.6212784179988375,0.8953113553113552,0.5197802197802197,0.4819047619047619
5.631248593999771,0.8953113553113552,0.5197802197802197,0.4819047619047619
5.641018627000449,0.8953113553113552,0.5197802197802197,0.4819047619047619
5.64795602400045,1.0226373626373626,1.6246153846153846,2.008205128205128
5.653239618000953,1.0226373626373626,1.6246153846153846,2.008205128205128
5.655518581999786,1.0226373626373626,1.6246153846153846,2.008205128205128
5.655652944999019,1.0226373626373626,1.6246153846153846,2.008205128205128
5.663490203998663,1.0226373626373626,1.6246153846153846,2.008205128205128
5.668089721999422,1.0226373626373626,1.6246153846153846,2.008205128205128
5.668349539999326,1.0226373626373626,1.6246153846153846,2.008205128205128
5.6729265690009925,1.0226373626373626,1.6246153846153846,2.008205128205128
5.673259934999805,1.6165567765567763,3.3,3.3
5.680139598000096,1.6165567765567763,3.3,3.3
5.684021496999776,1.6165567765567763,3.3,3.3
5.689377924998553,0.24739926739926738,0.5697435897435897,0.51010989010989
5.691223879999598,0.0,0.49721611721611714,0.630989010989011
5.694464648000576,0.0,0.49721611721611714,0.630989010989011
5.694830569002079,0.5915018315018314,0.8799999999999999,1.7358241758241757
5.699692955000501,0.5915018315018314,0.8799999999999999,1.7358241758241757
5.704175443999702,0.08058608058608058,2.6037362637362635,1.5327472527472528
5.704531568000675,0.5568498168498168,0.42468864468864465,0.4351648351648352
5.714238895001472,0.5568498168498168,0.42468864468864465,0.4351648351648352
5.71982174599907,0.5568498168498168,0.42468864468864465,0.4351648351648352
5.720070548999502,0.5568498168498168,0.42468864468864465,0.4351648351648352
5.728044416999182,0.5568498168498168,0.42468864468864465,0.4351648351648352
5.731941670001106,0.5157509157509157,0.3771428571428571,0.48432234432234433
5.736871729000995,0.5157509157509157,0.3771428571428571,0.48432234432234433
5.743753406000906,0.5157509157509157,0.3771428571428571,0.48432234432234433
5.748662606001744,0.5157509157509157,0.3771428571428571,0.48432234432234433
5.753119070999674,0.0,0.3763369963369963,0.5874725274725274
5.7539310899992415,0.0,0.3763369963369963,0.5874725274725274
5.755731581000873,0.0,0.3763369963369963,0.5874725274725274
5.759641453001677,0.0,0.3763369963369963,0.5874725274725274
5.762642833000427,0.0,0.3763369963369963,0.5874725274725274
5.765026961998956,0.0,0.3763369963369963,0.5874725274725274
5.765237089999573,0.0,0.3763369963369963,0.5874725274725274
5.770082115999685,0.0,0.3763369963369963,0.5874725274725274
5.777873668001121,0.0,0.3763369963369963,0.5874725274725274
5.7812192929995945,0.0,0.3763369963369963,0.5874725274725274
5.782068937998702,0.6954578754578754,0.43113553113553116,0.4351648351648352
5.783659151999018,0.6954578754578754,0.43113553113553116,0.4351648351648352
5.787617420999595,0.6954578754578754,0.43113553113553116,0.4351648351648352
5.794306064999546,0.6954578754578754,0.43113553113553116,0.4351648351648352
5.797566096000082,0.6954578754578754,0.43113553113553116,0.4351648351648352
5.798427719000756,0.6954578754578754,0.43113553113553116,0.4351648351648352
5.800107462000597,0.6954578754578754,0.43113553113553116,0.4351648351648352
5.804109648001031,0.6954578754578754,0.43113553113553116,0.4351648351648352
5.810301901001367,0.6954578754578754,0.43113553113553116,0.4351648351648352
5.814128538000659,0.6954578754578754,0.43113553113553116,0.4351648351648352
5.817397448001429,1.796263736263736,2.6883516483516483,3.3
5.8184035060003225,1.796263736263736,2.6883516483516483,3.3
5.819311932998971,1.796263736263736,2.6883516483516483,3.3
5.820209566998528,1.796263736263736,2.6883516483516483,3.3
5.821992977998889,1.796263736263736,2.6883516483516483,3.3
5.82686796499911,1.796263736263736,2.6883516483516483,3.3
5.83020531800139,1.796263736263736,2.6883516483516483,3.3
5.8304282700009935,1.796263736263736,2.6883516483516483,3.3
5.835199615001329,1.796263736263736,2.6883516483516483,3.3
5.835320868001872,1.0435897435897434,1.6423443223443224,2.15003663003663
5.8401944799989,1.0435897435897434,1.6423443223443224,2.15003663003663
5.847502403001272,0.5995604395604395,1.8196336996336997,0.751062271062271
5.852598801000568,0.5995604395604395,1.8196336996336997,0.751062271062271
5.855642048001755,0.5995604395604395,1.8196336996336997,0.751062271062271
5.858742172000348,2.493333333333333,3.3,2.8495238095238093
5.860514312000305,2.493333333333333,3.3,2.8495238095238093
5.865170910001325,2.493333333333333,3.3,2.8495238095238093
5.869014199000958,2.493333333333333,3.3,2.8495238095238093
5.878210119000869,2.493333333333333,3.3,2.8495238095238093
5.883389754999371,0.5665201465201465,1.7656410256410255,0.7236630036630036
5.885918423999101,0.5665201465201465,1.7656410256410255,0.7236630036630036
5.894452085001831,0.5665201465201465,1.7656410256410255,0.7236630036630036
5.900514155000565,2.067032967032967,2.545714285714286,3.3
5.904340320001211,2.067032967032967,2.545714285714286,3.3
5.909955475999595,2.067032967032967,2.545714285714286,3.3
5.919967941001232,2.067032967032967,2.545714285714286,3.3
5.930422682999051,2.067032967032967,2.545714285714286,3.3
5.936681022001721,3.3,2.843882783882784,2.561025641025641
5.940894858998945,3.3,2.843882783882784,2.561025641025641
5.943377963001694,3.3,2.843882783882784,2.561025641025641
5.950016066999524,3.3,2.843882783882784,2.561025641025641
5.954095868000877,3.3,2.843882783882784,2.561025641025641
5.960144094999123,3.3,2.843882783882784,2.561025641025641
5.96388073900016,3.3,2.843882783882784,2.561025641025641
5.967861634999281,3.3,2.843882783882784,2.561025641025641
5.9718429730019125,3.3,2.843882783882784,2.561025641025641
5.976378917999682,3.3,2.843882783882784,2.561025641025641
5.9765782300019055,3.3,2.843882783882784,2.561025641025641
5.983900344999711,3.3,2.843882783882784,2.561025641025641
5.988549025001703,0.734139194139194,0.7147985347985348,0.5641025641025641
5.996511186000134,0.734139194139194,0.7147985347985348,0.5641025641025641
6.00126925099903,0.734139194139194,0.7147985347985348,0.5641025641025641
6.001473276999604,0.8163369963369963,0.3529670329670329,0.5552380952380952
6.005325758000254,0.8163369963369963,0.3529670329670329,0.5552380952380952
6.013051892001386,0.9976556776556775,1.1402930402930402,1.5464468864468863
6.018654168001376,0.9976556776556775,1.1402930402930402,1.5464468864468863
6.018784081999911,3.3,2.852747252747253,2.565860805860806
6.026658802999009,3.3,2.852747252747253,2.565860805860806
6.030360824999661,0.5254212454212454,0.4279120879120879,0.39567765567765567
6.035715067999263,0.11443223443223444,0.917069597069597,0.4657875457875458
6.038053865999245,0.11443223443223444,0.917069597069597,0.4657875457875458
6.038280052001937,0.11443223443223444,0.917069597069597,0.4657875457875458
6.045174959999713,0.11443223443223444,0.917069597069597,0.4657875457875458
6.049364024001989,0.11443223443223444,0.917069597069597,0.4657875457875458
6.051970044001791,0.11443223443223444,0.917069597069597,0.4657875457875458
6.06031690799864,0.11443223443223444,0.917069597069597,0.4657875457875458
6.066252024000278,0.11443223443223444,0.917069597069597,0.4657875457875458
6.0706661539989,3.3,3.3,2.8414652014652013
6.071024447999662,3.3,3.3,2.8414652014652013
6.078402676001133,3.3,3.3,2.8414652014652013
6.083939487001771,3.3,3.3,2.8414652014652013
6.084094421999907,3.3,3.3,2.8414652014652013
6.088987414001167,3.3,3.3,2.8414652014652013
6.097399153000879,3.3,3.3,2.8414652014652013
6.101970130999689,3.3,3.3,2.8414652014652013
6.102887155000644,3.3,3.3,2.8414652014652013
6.104513999998744,3.3,3.3,2.8414652014652013
6.111248461998912,0.6422710622710622,0.5052747252747253,0.4851282051282051
6.11454816100013,3.3,3.3,2.751208791208791
6.116258090001793,3.3,3.3,2.751208791208791
6.118589141999109,3.3,3.3,2.751208791208791
6.118775019000168,0.6382417582417582,1.7583882783882783,0.7704029304029304
6.125219910001761,0.6382417582417582,1.7583882783882783,0.7704029304029304
6.128980692999903,2.2056410256410253,2.9526739926739927,3.3
6.133581696001784,2.2056410256410253,2.9526739926739927,3.3
6.1338363329996355,1.1773626373626374,1.7189010989010989,2.2064468864468862
6.139982298998802,1.1773626373626374,1.7189010989010989,2.2064468864468862
6.145748254999489,1.1773626373626374,1.7189010989010989,2.2064468864468862
6.14978931099904,1.1773626373626374,1.7189010989010989,2.2064468864468862
6.152923035999265,1.1773626373626374,1.7189010989010989,2.2064468864468862
6.1545808619994204,1.1773626373626374,1.7189010989010989,2.2064468864468862
6.15991516899885,1.1773626373626374,1.7189010989010989,2.2064468864468862
6.161859309999272,1.1934798534798534,1.0452014652014652,0.5745787545787545
6.163483101001475,1.1934798534798534,1.0452014652014652,0.5745787545787545
6.1666233590003685,1.1934798534798534,1.0452014652014652,0.5745787545787545
6.168938097001956,1.1934798534798534,1.0452014652014652,0.5745787545787545
6.169210954998562,0.23853479853479853,0.386007326007326,0.6882051282051282
6.174460172002,0.23853479853479853,0.386007326007326,0.6882051282051282
6.178398706000735,0.23853479853479853,0.386007326007326,0.6882051282051282
6.181493424999644,0.23853479853479853,0.386007326007326,0.6882051282051282
6.183842451999226,0.73010989010989,0.7373626373626374,0.7147985347985348
6.184072926000226,0.3352380952380952,0.6011721611721611,0.47062271062271055
6.189977596000972,0.3352380952380952,0.6011721611721611,0.47062271062271055
6.195844988000317,0.3352380952380952,0.6011721611721611,0.47062271062271055
6.203737660001934,0.3352380952380952,0.6011721611721611,0.47062271062271055
6.210747641001944,0.3352380952380952,0.6011721611721611,0.47062271062271055
6.214927578999777,0.024175824175824173,0.788937728937729,0.5415384615384615
6.2171757760006585,0.024175824175824173,0.788937728937729,0.5415384615384615
6.217445999001939,0.024175824175824173,0.788937728937729,0.5415384615384615
6.225470422999933,0.024175824175824173,0.788937728937729,0.5415384615384615
6.232628467001632,0.024175824175824173,0.788937728937729,0.5415384615384615
6.23840144299902,0.024175824175824173,0.788937728937729,0.5415384615384615
6.246141759002057,0.32395604395604394,3.2065201465201465,2.1427838827838825
6.250222358001338,0.32395604395604394,3.2065201465201465,2.1427838827838825
6.254193271000986,0.32395604395604394,3.2065201465201465,2.1427838827838825
6.259036374998686,0.32395604395604394,3.2065201465201465,2.1427838827838825
6.264016516000993,0.32395604395604394,3.2065201465201465,2.1427838827838825
6.26707284800068,0.5979487179487178,0.3884249084249084,0.5117216117216117
6.269492447001539,0.5979487179487178,0.3884249084249084,0.5117216117216117
6.269665921001433,0.5979487179487178,0.3884249084249084,0.5117216117216117
6.275591656998586,0.5979487179487178,0.3884249084249084,0.5117216117216117
6.281030209000164,0.5979487179487178,0.3884249084249084,0.5117216117216117
6.283324975000141,0.5979487179487178,0.3884249084249084,0.5117216117216117
6.283564314999239,0.5979487179487178,0.3884249084249084,0.5117216117216117
6.288820323999971,0.5979487179487178,0.3884249084249084,0.5117216117216117
6.292075470999407,0.5979487179487178,0.3884249084249084,0.5117216117216117
6.2937055450020125,0.5979487179487178,0.3884249084249084,0.5117216117216117
6.297594587998901,0.5979487179487178,0.3884249084249084,0.5117216117216117
6.302074146999075,0.5979487179487178,0.3884249084249084,0.5117216117216117
6.303582993001328,0.5979487179487178,0.3884249084249084,0.5117216117216117
6.307917985999666,0.5979487179487178,0.3884249084249084,0.5117216117216117
6.310804733999248,0.5979487179487178,0.3884249084249084,0.5117216117216117
6.313746239000466,0.5979487179487178,0.3884249084249084,0.5117216117216117
6.317240755000967,0.5979487179487178,0.3884249084249084,0.5117216117216117
6.317550259002019,0.5979487179487178,0.3884249084249084,0.5117216117216117
6.322502489001636,0.5979487179487178,0.3884249084249084,0.5117216117216117
6.328781741001876,0.5979487179487178,0.3884249084249084,0.5117216117216117
6.332225963000383,0.5979487179487178,0.3884249084249084,0.5117216117216117
6.332538116999785,0.5979487179487178,0.3884249084249084,0.5117216117216117
6.337981303000561,0.5979487179487178,0.3884249084249084,0.5117216117216117
6.340396323001187,0.05641025641025641,2.3974358974358974,1.6326739926739926
6.3461189059999015,0.05641025641025641,2.3974358974358974,1.6326739926739926
6.346333648998552,0.05641025641025641,2.3974358974358974,1.6326739926739926
6.352416893001646,0.05641025641025641,2.3974358974358974,1.6326739926739926
6.355644633000338,0.05641025641025641,2.3974358974358974,1.6326739926739926
6.357193952000671,0.05641025641025641,2.3974358974358974,1.6326739926739926
6.361844408998877,0.05641025641025641,2.3974358974358974,1.6326739926739926
6.362098670000705,0.05641025641025641,2.3974358974358974,1.6326739926739926
6.367090345000179,0.05641025641025641,2.3974358974358974,1.6326739926739926
