time,emg1,emg2,emg3
0.013461105001624674,2.9905494505494503,2.5747252747252745,2.5634432234432234
0.03334422199986875,0.4738461538461538,0.9815384615384615,0.6229304029304029
0.0540132909991371,0.4738461538461538,0.9815384615384615,0.6229304029304029
0.06911933800074621,0.4738461538461538,0.9815384615384615,0.6229304029304029
0.06941535000078147,0.4738461538461538,0.9815384615384615,0.6229304029304029
0.07661566699971445,0.4738461538461538,0.9815384615384615,0.6229304029304029
0.08148633599921595,0.4738461538461538,0.9815384615384615,0.6229304029304029
0.08695960700060823,0.3384615384615384,3.3,3.2685714285714287
0.08717889599938644,0.3384615384615384,3.3,3.2685714285714287
0.09387626199895749,0.7526739926739926,0.6479120879120879,0.6277655677655677
0.09819962999972631,0.7526739926739926,0.6479120879120879,0.6277655677655677
0.10070590800023638,0.7526739926739926,0.6479120879120879,0.6277655677655677
0.10524030799933826,0.7526739926739926,0.6479120879120879,0.6277655677655677
0.10684056299942313,0.7526739926739926,0.6479120879120879,0.6277655677655677
0.11067919799825177,0.929157509157509,0.7695970695970695,0.5552380952380952
0.11575436700150021,0.929157509157509,0.7695970695970695,0.5552380952380952
0.11937905000013416,0.929157509157509,0.7695970695970695,0.5552380952380952
0.11953362599888351,0.929157509157509,0.7695970695970695,0.5552380952380952
0.12486831299975165,0.929157509157509,0.7695970695970695,0.5552380952380952
0.12712747199839214,1.3852747252747253,2.714945054945055,1.099194139194139
0.12737320800079033,1.3852747252747253,2.714945054945055,1.099194139194139
0.13230462399951648,1.3852747252747253,2.714945054945055,1.099194139194139
0.13657674299975042,1.3852747252747253,2.714945054945055,1.099194139194139
0.13880179799889447,1.3852747252747253,2.714945054945055,1.099194139194139
0.1396431350003695,1.3852747252747253,2.714945054945055,1.099194139194139
0.14258109900038107,1.3852747252747253,2.714945054945055,1.099194139194139
0.14500377999866032,1.3852747252747253,2.714945054945055,1.099194139194139
0.15424214499944355,1.3852747252747253,2.714945054945055,1.099194139194139
0.16105547600091086,1.3852747252747253,2.714945054945055,1.099194139194139
0.1663314889992762,1.3852747252747253,2.714945054945055,1.099194139194139
0.16972723200160544,1.3852747252747253,2.714945054945055,1.099194139194139
0.16989691799972206,1.3852747252747253,2.714945054945055,1.099194139194139
0.17481049699927098,0.4891575091575091,0.3924542124542124,0.8413186813186813
0.1797958999995899,0.4891575091575091,0.3924542124542124,0.8413186813186813
0.18408228100088309,0.4891575091575091,0.3924542124542124,0.8413186813186813
0.18673137799851247,0.4891575091575091,0.3924542124542124,0.8413186813186813
0.1902532929998415,0.5471794871794872,0.7921611721611721,0.5963369963369963
0.19056347299920162,1.3465934065934064,3.3,3.3
0.19578201699914644,1.3465934065934064,3.3,3.3
0.19804940999893006,1.3465934065934064,3.3,3.3
0.19841215799897327,1.3465934065934064,3.3,3.3
0.20300508099899162,1.3465934065934064,3.3,3.3
0.2032767499986221,1.3465934065934064,3.3,3.3
0.20754968500114046,1.3465934065934064,3.3,3.3
0.20972218099996098,1.3465934065934064,3.3,3.3
0.2105762710016279,1.3465934065934064,3.3,3.3
0.21278012399852742,1.3465934065934064,3.3,3.3
0.21307389700086787,1.3465934065934064,3.3,3.3
0.21821253899906878,1.3465934065934064,3.3,3.3
0.22403023299921188,1.5843223443223442,3.3,3.3
0.23305352099851007,1.5843223443223442,3.3,3.3
0.2401558509991446,0.755091575091575,0.5729670329670329,0.7027106227106227
0.24657533999925363,0.755091575091575,0.5729670329670329,0.7027106227106227
0.25381279200155404,1.514212454212454,2.5521611721611723,1.1515750915750915
0.2605735850011115,1.514212454212454,2.5521611721611723,1.1515750915750915
0.2662111339996045,1.0178021978021978,0.7849084249084248,1.4054212454212454
0.27365757699953974,1.0178021978021978,0.7849084249084248,1.4054212454212454
0.2780992330008303,1.0178021978021978,0.7849084249084248,1.4054212454212454
0.2791044730001886,1.6302564102564103,2.5424908424908423,3.3
0.27995567900143215,1.6302564102564103,2.5424908424908423,3.3
0.28154897000058554,1.6302564102564103,2.5424908424908423,3.3
0.2861537569988286,1.6302564102564103,2.5424908424908423,3.3
0.28629252500104485,1.6302564102564103,2.5424908424908423,3.3
0.2918555889991694,1.6302564102564103,2.5424908424908423,3.3
0.2928737469992484,1.6302564102564103,2.5424908424908423,3.3
0.2930713850000757,1.6302564102564103,2.5424908424908423,3.3
0.2983384520011896,1.6302564102564103,2.5424908424908423,3.3
0.30134080100106075,1.6302564102564103,2.5424908424908423,3.3
0.30660797800010187,1.1298168498168497,2.488498168498168,1.4634432234432233
0.3069496989992331,1.1298168498168497,2.488498168498168,1.4634432234432233
0.3120592060004128,1.1298168498168497,2.488498168498168,1.4634432234432233
0.3144018890016014,1.1298168498168497,2.488498168498168,1.4634432234432233
0.3146403159989859,1.1298168498168497,2.488498168498168,1.4634432234432233
0.3210190790014167,1.1298168498168497,2.488498168498168,1.4634432234432233
0.3246553099997982,1.1298168498168497,2.488498168498168,1.4634432234432233
0.3298325499999919,1.1298168498168497,2.488498168498168,1.4634432234432233
0.33307913899989217,1.1298168498168497,2.488498168498168,1.4634432234432233
0.3339585100002296,1.1298168498168497,2.488498168498168,1.4634432234432233
0.3364194370005862,1.1298168498168497,2.488498168498168,1.4634432234432233
0.3366121500002919,1.1298168498168497,2.488498168498168,1.4634432234432233
0.342207977999351,1.1298168498168497,2.488498168498168,1.4634432234432233
0.347495911999431,1.5295238095238095,2.2604395604395604,1.124981684981685
0.350428917001409,1.5295238095238095,2.2604395604395604,1.124981684981685
0.3552363169983437,1.5295238095238095,2.2604395604395604,1.124981684981685
0.3603374010017433,1.5295238095238095,2.2604395604395604,1.124981684981685
0.36349732500093523,1.5295238095238095,2.2604395604395604,1.124981684981685
0.36438841999915894,1.5295238095238095,2.2604395604395604,1.124981684981685
0.3666161459987052,1.5295238095238095,2.2604395604395604,1.124981684981685
0.36690392500167945,1.5295238095238095,2.2604395604395604,1.124981684981685
0.3732838530013396,1.5295238095238095,2.2604395604395604,1.124981684981685
0.37587646400061203,1.5295238095238095,2.2604395604395604,1.124981684981685
0.38024906200007536,1.5295238095238095,2.2604395604395604,1.124981684981685
0.3818635860006907,1.5295238095238095,2.2604395604395604,1.124981684981685
0.3865809429989895,1.5295238095238095,2.2604395604395604,1.124981684981685
0.39639890499893227,1.5295238095238095,2.2604395604395604,1.124981684981685
0.4050281769996218,1.5295238095238095,2.2604395604395604,1.124981684981685
0.4108841460001713,0.8654945054945055,2.3813186813186813,1.4102564102564101
0.4145591529995727,0.8654945054945055,2.3813186813186813,1.4102564102564101
0.41472100600003614,0.8654945054945055,2.3813186813186813,1.4102564102564101
0.42050901699985843,0.8654945054945055,2.3813186813186813,1.4102564102564101
0.4208204009992187,0.8654945054945055,2.3813186813186813,1.4102564102564101
0.42535486799897626,0.8654945054945055,2.3813186813186813,1.4102564102564101
0.4255814909993205,0.8654945054945055,2.3813186813186813,1.4102564102564101
0.4309333159981179,0.8654945054945055,2.3813186813186813,1.4102564102564101
0.43311135600015405,0.7744322344322344,0.61003663003663,0.5423443223443223
0.433976968000934,0.7744322344322344,0.61003663003663,0.5423443223443223
0.43664979900131584,0.7744322344322344,0.61003663003663,0.5423443223443223
0.4453247060009744,0.7744322344322344,0.61003663003663,0.5423443223443223
0.4502598719991511,0.0,3.2419780219780217,2.457875457875458
0.45912645099815563,0.23369963369963367,0.4351648351648352,0.6833699633699634
0.4644204459982575,0.23369963369963367,0.4351648351648352,0.6833699633699634
0.46609035700021195,1.1435164835164835,1.2772893772893772,0.6269597069597069
0.47166825699969195,1.1435164835164835,1.2772893772893772,0.6269597069597069
0.4735017040002276,1.1435164835164835,1.2772893772893772,0.6269597069597069
0.47518998899977305,1.1435164835164835,1.2772893772893772,0.6269597069597069
0.4811745789993438,1.1435164835164835,1.2772893772893772,0.6269597069597069
0.48460173800049233,1.1435164835164835,1.2772893772893772,0.6269597069597069
0.48499714599893196,1.1435164835164835,1.2772893772893772,0.6269597069597069
0.4932131399982609,1.1435164835164835,1.2772893772893772,0.6269597069597069
0.4972860859998036,1.1435164835164835,1.2772893772893772,0.6269597069597069
0.4995988310001849,1.1435164835164835,1.2772893772893772,0.6269597069597069
0.4998246350005502,2.8245421245421243,2.553772893772894,2.5594139194139194
0.5071064660005504,2.8245421245421243,2.553772893772894,2.5594139194139194
0.5111452439996356,2.8245421245421243,2.553772893772894,2.5594139194139194
0.5143512190006732,2.8245421245421243,2.553772893772894,2.5594139194139194
0.515319605001423,2.8245421245421243,2.553772893772894,2.5594139194139194
0.5169044260001101,2.8245421245421243,2.553772893772894,2.5594139194139194
0.5236477629987348,2.8245421245421243,2.553772893772894,2.5594139194139194
0.5290195179986767,0.10315018315018315,3.3,2.9027106227106225
0.5292418680000992,0.10315018315018315,3.3,2.9027106227106225
0.5337447849997261,0.10315018315018315,3.3,2.9027106227106225
0.5358447910002724,0.10315018315018315,3.3,2.9027106227106225
0.5370962970009714,0.10315018315018315,3.3,2.9027106227106225
0.5373504880008113,0.10315018315018315,3.3,2.9027106227106225
0.5443589239985158,0.10315018315018315,3.3,2.9027106227106225
0.5487893700010318,0.10315018315018315,3.3,2.9027106227106225
0.5496911039990664,0.10315018315018315,3.3,2.9027106227106225
0.5512224949998199,0.10315018315018315,3.3,2.9027106227106225
0.5588369159995636,0.10315018315018315,3.3,2.9027106227106225
0.5625568210016354,0.10315018315018315,3.3,2.9027106227106225
0.5627163809986087,0.10315018315018315,3.3,2.9027106227106225
0.5677893249994668,0.10315018315018315,3.3,2.9027106227106225
0.5742575020012737,0.10315018315018315,3.3,2.9027106227106225
0.5772703340007865,0.10315018315018315,3.3,2.9027106227106225
0.5796271799990791,0.10315018315018315,3.3,2.9027106227106225
0.5798711530005676,0.10315018315018315,3.3,2.9027106227106225
0.5852914919996692,0.10315018315018315,3.3,2.9027106227106225
0.5897549000001163,1.1193406593406594,1.863150183150183,0.8316483516483516
0.598367775000952,0.7502564102564102,0.7712087912087912,0.5536263736263736
0.6058413120008481,1.5037362637362637,3.3,3.3
0.6090098919994489,1.5037362637362637,3.3,3.3
0.61066819899861,1.5037362637362637,3.3,3.3
0.6143676130013773,0.17084249084249084,0.3916483516483516,0.6978754578754578
0.6145227449997037,0.17084249084249084,0.3916483516483516,0.6978754578754578
0.6207944960005989,0.17084249084249084,0.3916483516483516,0.6978754578754578
0.6262324220006121,0.3642490842490842,2.713333333333333,1.826886446886447
0.6273502629992436,0.3642490842490842,2.713333333333333,1.826886446886447
0.627635693999764,0.3642490842490842,2.713333333333333,1.826886446886447
0.6360439429990947,0.3642490842490842,2.713333333333333,1.826886446886447
0.6421304239993333,0.3642490842490842,2.713333333333333,1.826886446886447
0.6459147899986419,0.3642490842490842,2.713333333333333,1.826886446886447
0.6502695259987377,0.3642490842490842,2.713333333333333,1.826886446886447
0.6532645430015691,0.3642490842490842,2.713333333333333,1.826886446886447
0.6563015739993716,0.3642490842490842,2.713333333333333,1.826886446886447
0.6578823470008501,0.3642490842490842,2.713333333333333,1.826886446886447
0.661784328000067,0.3642490842490842,2.713333333333333,1.826886446886447
0.6664718559986795,0.3642490842490842,2.713333333333333,1.826886446886447
0.6666910979984095,0.3642490842490842,2.713333333333333,1.826886446886447
0.6739988199988147,0.3642490842490842,2.713333333333333,1.826886446886447
0.6785020149982302,0.0,0.7381684981684982,0.5898901098901098
0.6794082129999879,0.0,0.7381684981684982,0.5898901098901098
0.6816225069997017,2.851941391941392,2.5521611721611723,2.5602197802197804
0.682457989998511,2.851941391941392,2.5521611721611723,2.5602197802197804
0.684043498000392,2.851941391941392,2.5521611721611723,2.5602197802197804
0.6898609390009369,2.851941391941392,2.5521611721611723,2.5602197802197804
0.694531861001451,2.851941391941392,2.5521611721611723,2.5602197802197804
0.6947479779992136,2.851941391941392,2.5521611721611723,2.5602197802197804
0.6992304619998322,2.851941391941392,2.5521611721611723,2.5602197802197804
0.7002885750007408,2.851941391941392,2.5521611721611723,2.5602197802197804
0.7011349620006513,2.851941391941392,2.5521611721611723,2.5602197802197804
0.7038340139988577,0.39809523809523806,2.8414652014652013,1.7358241758241757
0.7069723050008179,0.39809523809523806,2.8414652014652013,1.7358241758241757
0.7093275639999774,0.39809523809523806,2.8414652014652013,1.7358241758241757
0.709543273998861,0.39809523809523806,2.8414652014652013,1.7358241758241757
0.714090950001264,0.39809523809523806,2.8414652014652013,1.7358241758241757
0.7149517479992937,1.2660073260073261,2.5336263736263738,2.5465201465201464
0.716520074998698,1.2660073260073261,2.5336263736263738,2.5465201465201464
0.7238560959995084,1.2660073260073261,2.5336263736263738,2.5465201465201464
0.7284420239993779,1.2660073260073261,2.5336263736263738,2.5465201465201464
0.7337630410002021,1.2660073260073261,2.5336263736263738,2.5465201465201464
0.7377367359986238,1.2660073260073261,2.5336263736263738,2.5465201465201464
0.7400619699983508,1.2660073260073261,2.5336263736263738,2.5465201465201464
0.7402963589993306,1.2660073260073261,2.5336263736263738,2.5465201465201464
0.7448373330007598,1.2660073260073261,2.5336263736263738,2.5465201465201464
0.7451500089991896,1.112893772893773,0.66,0.6326007326007326
0.75033322300078,1.112893772893773,0.66,0.6326007326007326
0.755704314000468,1.112893772893773,0.66,0.6326007326007326
0.7587138769995363,1.3336996336996336,3.3,3.3
0.7615668590005953,1.3336996336996336,3.3,3.3
0.7633803940007056,1.3336996336996336,3.3,3.3
0.7663098480006738,1.3336996336996336,3.3,3.3
0.7702788889982912,1.3336996336996336,3.3,3.3
0.7739709279994713,1.5383882783882783,0.967032967032967,1.9888644688644685
0.7807625169989478,1.5383882783882783,0.967032967032967,1.9888644688644685
0.7862075099983485,1.5383882783882783,0.967032967032967,1.9888644688644685
0.7863766010013933,1.5383882783882783,0.967032967032967,1.9888644688644685
0.7921869749989128,1.5383882783882783,0.967032967032967,1.9888644688644685
0.7974092900003598,1.5383882783882783,0.967032967032967,1.9888644688644685
0.7996847789981985,1.5383882783882783,0.967032967032967,1.9888644688644685
0.8004987239983166,1.3401465201465201,3.3,3.3
0.8029295119995368,1.3401465201465201,3.3,3.3
0.8106770009981119,1.3401465201465201,3.3,3.3
0.8186292270002014,0.0,0.4456410256410256,0.5165567765567766
0.8237021610002557,0.0,0.4456410256410256,0.5165567765567766
0.8275807370009716,0.5012454212454212,3.3,3.3
0.8326339769992046,0.48835164835164835,0.3553846153846154,0.3739194139194139
0.8364731850015232,0.48835164835164835,0.3553846153846154,0.3739194139194139
0.8404437630015309,0.48835164835164835,0.3553846153846154,0.3739194139194139
0.8440281990006042,0.48835164835164835,0.3553846153846154,0.3739194139194139
0.8441388259998348,0.48835164835164835,0.3553846153846154,0.3739194139194139
0.8502857759995095,0.48835164835164835,0.3553846153846154,0.3739194139194139
0.8575689749995945,0.48835164835164835,0.3553846153846154,0.3739194139194139
0.8612366019988258,0.48835164835164835,0.3553846153846154,0.3739194139194139
0.8663083350002125,0.48835164835164835,0.3553846153846154,0.3739194139194139
0.8725646899983985,0.48835164835164835,0.3553846153846154,0.3739194139194139
0.8757276319993252,0.48835164835164835,0.3553846153846154,0.3739194139194139
0.8786657029995695,0.028205128205128206,0.8131135531135532,0.842124542124542
0.8828876320003474,0.028205128205128206,0.8131135531135532,0.842124542124542
0.8832325129988021,0.028205128205128206,0.8131135531135532,0.842124542124542
0.8928917209996143,0.028205128205128206,0.8131135531135532,0.842124542124542
0.9013259079983982,0.028205128205128206,0.8131135531135532,0.842124542124542
0.9100363360012125,0.028205128205128206,0.8131135531135532,0.842124542124542
0.9158072309983254,0.8284249084249083,0.5342857142857143,0.5157509157509157
0.9160164519998943,1.5577289377289376,3.3,3.3
0.9235947790002683,1.3619047619047617,2.548937728937729,2.402271062271062
0.9288803939998616,1.3619047619047617,2.548937728937729,2.402271062271062
0.9303784859985171,1.3619047619047617,2.548937728937729,2.402271062271062
0.9347679279999284,1.3619047619047617,2.548937728937729,2.402271062271062
0.9359039480004867,1.3619047619047617,2.548937728937729,2.402271062271062
0.9362470400010352,1.3619047619047617,2.548937728937729,2.402271062271062
0.9419693359996018,1.3619047619047617,2.548937728937729,2.402271062271062
0.9488389020007162,1.7648351648351648,3.3,2.843882783882784
0.9551881820007111,1.7648351648351648,3.3,2.843882783882784
0.9595696040014445,0.8711355311355311,0.49721611721611714,0.8880586080586079
0.9599839840011555,0.8711355311355311,0.49721611721611714,0.8880586080586079
0.9686600979985087,0.8711355311355311,0.49721611721611714,0.8880586080586079
0.9762653239995416,0.8711355311355311,0.49721611721611714,0.8880586080586079
0.9807050679992244,0.8711355311355311,0.49721611721611714,0.8880586080586079
0.9809029089992691,0.8711355311355311,0.49721611721611714,0.8880586080586079
0.9894407419997151,0.9154578754578755,2.5755311355311354,1.8325274725274725
0.9968679220000922,0.9154578754578755,2.5755311355311354,1.8325274725274725
1.0005164450012671,0.9154578754578755,2.5755311355311354,1.8325274725274725
1.0007992549981282,0.9154578754578755,2.5755311355311354,1.8325274725274725
1.0082002859999193,0.9154578754578755,2.5755311355311354,1.8325274725274725
1.0124959150016366,0.9154578754578755,2.5755311355311354,1.8325274725274725
1.015403598001285,2.22981684981685,2.2169230769230768,3.3
1.0189282780011126,2.22981684981685,2.2169230769230768,3.3
1.019290992000606,2.22981684981685,2.2169230769230768,3.3
1.0248159789989586,2.22981684981685,2.2169230769230768,3.3
1.0249722189983004,0.9557509157509158,1.0452014652014652,1.1112820512820514
1.0302134769990516,0.9557509157509158,1.0452014652014652,1.1112820512820514
1.0331845000000612,0.8147252747252747,1.1596336996336996,1.7092307692307693
1.0393239490003907,0.8147252747252747,1.1596336996336996,1.7092307692307693
1.0424510129996634,0.8147252747252747,1.1596336996336996,1.7092307692307693
1.0440398639984778,0.9783150183150182,2.336190476190476,1.5907692307692307
1.0483109609995154,0.6608058608058608,0.3916483516483516,0.5254212454212454
1.0523195489986392,0.8243956043956043,0.5600732600732601,0.42388278388278383
1.056473600998288,1.1427106227106225,0.61003663003663,1.3433699633699634
1.0589592280011857,1.1427106227106225,0.61003663003663,1.3433699633699634
1.0638738999987254,1.1427106227106225,0.61003663003663,1.3433699633699634
1.067462473998603,0.7945787545787546,3.3,3.3
1.067636946998391,0.7945787545787546,3.3,3.3
1.0761815709993243,0.9138461538461539,1.0814652014652013,1.6657142857142855
1.0806736759986961,0.0,0.7123809523809523,0.5673260073260072
1.0809141479985556,0.0,0.7123809523809523,0.5673260073260072
1.0861723160014662,0.0,0.7123809523809523,0.5673260073260072
1.0898771559986926,0.0,0.7123809523809523,0.5673260073260072
1.0969009820000792,1.7841758241758239,1.4819780219780219,2.2918681318681315
1.1025391149996722,1.7084249084249086,2.5424908424908423,3.3
1.102770474000863,1.05003663003663,2.1726007326007326,1.4070329670329669
1.1098489649994008,1.05003663003663,2.1726007326007326,1.4070329670329669
1.1154649640011485,1.05003663003663,2.1726007326007326,1.4070329670329669
1.123377468000399,1.278901098901099,2.0235164835164836,1.7906227106227104
1.1277384589993744,1.278901098901099,2.0235164835164836,1.7906227106227104
1.1292400870006531,0.5898901098901098,0.5117216117216117,0.5874725274725274
1.133506711001246,0.5898901098901098,0.5117216117216117,0.5874725274725274
1.1358868399984203,0.5898901098901098,0.5117216117216117,0.5874725274725274
1.1361507820001862,0.5898901098901098,0.5117216117216117,0.5874725274725274
1.1417294880011468,0.5898901098901098,0.5117216117216117,0.5874725274725274
1.1434617769991746,0.5898901098901098,0.5117216117216117,0.5874725274725274
1.1463420369982487,0.5898901098901098,0.5117216117216117,0.5874725274725274
1.1498866609981633,0.5898901098901098,0.5117216117216117,0.5874725274725274
1.1501369629986584,0.5898901098901098,0.5117216117216117,0.5874725274725274
1.1551658880016475,0.5898901098901098,0.5117216117216117,0.5874725274725274
1.160130565000145,0.5898901098901098,0.5117216117216117,0.5874725274725274
1.1650029070005985,0.5898901098901098,0.5117216117216117,0.5874725274725274
1.1651053550012875,0.5898901098901098,0.5117216117216117,0.5874725274725274
1.1702645389996178,0.5898901098901098,0.5117216117216117,0.5874725274725274
1.1748228850010491,0.5898901098901098,0.5117216117216117,0.5874725274725274
1.1751072000006388,0.5898901098901098,0.5117216117216117,0.5874725274725274
1.1802705250011059,0.5898901098901098,0.5117216117216117,0.5874725274725274
1.1851341699984914,0.5898901098901098,0.5117216117216117,0.5874725274725274
1.1909443869990355,0.5898901098901098,0.5117216117216117,0.5874725274725274
1.1911073269984627,0.5898901098901098,0.5117216117216117,0.5874725274725274
1.1964743880016613,0.5898901098901098,0.5117216117216117,0.5874725274725274
1.1993393589982588,1.0049084249084248,1.0403663003663002,1.7994871794871792
1.2033277800001088,1.0049084249084248,1.0403663003663002,1.7994871794871792
1.2066779519991542,1.0049084249084248,1.0403663003663002,1.7994871794871792
1.206909522999922,1.0049084249084248,1.0403663003663002,1.7994871794871792
1.2114651900010358,1.0049084249084248,1.0403663003663002,1.7994871794871792
1.211930105000647,1.0049084249084248,1.0403663003663002,1.7994871794871792
1.2154709649985307,1.0049084249084248,1.0403663003663002,1.7994871794871792
1.216296112001146,1.0049084249084248,1.0403663003663002,1.7994871794871792
1.2178198389992758,1.0049084249084248,1.0403663003663002,1.7994871794871792
1.2249189440008195,0.7002930402930403,1.8446153846153845,3.0574358974358975
1.2290380500016909,0.7002930402930403,1.8446153846153845,3.0574358974358975
1.2322284660003788,0.7002930402930403,1.8446153846153845,3.0574358974358975
1.2338311759995122,0.1676190476190476,0.38278388278388276,0.6285714285714284
1.2379101650003577,0.0,0.718021978021978,0.6317948717948718
1.241116848999809,0.5028571428571429,1.274871794871795,1.9526007326007324
1.2428091670008143,0.3038095238095238,2.924468864468864,2.407106227106227
1.2465588849991036,1.0435897435897434,2.545714285714286,1.6576556776556775
1.2511897399999725,0.9968498168498168,1.1354578754578755,0.7373626373626374
1.2513935200004198,0.9968498168498168,1.1354578754578755,0.7373626373626374
1.2565706720015442,0.9968498168498168,1.1354578754578755,0.7373626373626374
1.2594529460002377,0.0,0.713992673992674,0.6753113553113552
1.2623511720012175,0.0,0.713992673992674,0.6753113553113552
1.2658797389995016,0.0,0.713992673992674,0.6753113553113552
1.2660244170001533,0.0,0.713992673992674,0.6753113553113552
1.270945997999661,0.0,0.713992673992674,0.6753113553113552
1.2759004869985802,1.3917216117216116,0.7841025641025641,1.5496703296703296
1.2808164279995253,1.3917216117216116,0.7841025641025641,1.5496703296703296
1.2860398340017127,1.3917216117216116,0.7841025641025641,1.5496703296703296
1.2893149490009819,1.2934065934065933,1.7785347985347983,1.008131868131868
1.2901755989987578,1.8252747252747252,3.2903296703296703,3.3
1.2924650130007649,1.8252747252747252,3.2903296703296703,3.3
1.2926605120010208,0.0,0.5205860805860806,0.518974358974359
1.2976138960002572,0.0419047619047619,1.2232967032967033,0.963003663003663
1.3021407009982795,0.0419047619047619,1.2232967032967033,0.963003663003663
1.3029767879997962,0.0419047619047619,1.2232967032967033,0.963003663003663
1.3044429389992729,0.0419047619047619,1.2232967032967033,0.963003663003663
1.3089445250006975,0.0419047619047619,1.2232967032967033,0.963003663003663
1.3097574290004559,0.0419047619047619,1.2232967032967033,0.963003663003663
1.3120376270017005,0.0419047619047619,1.2232967032967033,0.963003663003663
1.3128664510004455,0.0419047619047619,1.2232967032967033,0.963003663003663
1.314315818999603,0.0,0.6172893772893773,0.6583882783882784
1.3194967179988453,0.0,0.6172893772893773,0.6583882783882784
1.3224672869982896,0.0,0.6172893772893773,0.6583882783882784
1.3253201990009984,0.0,0.6172893772893773,0.6583882783882784
1.328850768000848,0.0,0.6172893772893773,0.6583882783882784
1.329048776999116,0.0,0.6172893772893773,0.6583882783882784
1.33421859399823,0.0,0.6172893772893773,0.6583882783882784
1.33783252899957,0.0,0.6172893772893773,0.6583882783882784
1.3379197050016955,0.0,0.6172893772893773,0.6583882783882784
1.342885131998628,0.0,0.6172893772893773,0.6583882783882784
1.347751089000667,0.0,0.6172893772893773,0.6583882783882784
1.3525694839991047,0.0,0.6172893772893773,0.6583882783882784
1.3526637149989256,0.0,0.6172893772893773,0.6583882783882784
1.357546942999761,0.0,0.6172893772893773,0.6583882783882784
1.3626071229991794,0.0,0.6172893772893773,0.6583882783882784
1.3662729060015408,0.0,0.6172893772893773,0.6583882783882784
1.3711681819986552,0.0,0.6172893772893773,0.6583882783882784
1.3762465940017137,0.0,0.6172893772893773,0.6583882783882784
1.3805106280015025,0.0,0.6172893772893773,0.6583882783882784
1.3816006560009555,0.0,0.6172893772893773,0.6583882783882784
1.3818736440007342,0.0,0.6172893772893773,0.6583882783882784
1.3874411450015032,0.0,0.6172893772893773,0.6583882783882784
1.3889118430015515,0.5455677655677655,0.8115018315018314,0.6825641025641025
1.3930910599992785,0.5455677655677655,0.8115018315018314,0.6825641025641025
1.3966113720016438,0.5455677655677655,0.8115018315018314,0.6825641025641025
1.3967839850010932,0.5455677655677655,0.8115018315018314,0.6825641025641025
1.4021237589986413,0.5455677655677655,0.8115018315018314,0.6825641025641025
1.405289686001197,2.5150915750915748,2.545714285714286,2.5594139194139194
1.4069010550010717,2.5150915750915748,2.545714285714286,2.5594139194139194
1.41066796800078,2.5150915750915748,2.545714285714286,2.5594139194139194
1.415141098001186,2.5150915750915748,2.545714285714286,2.5594139194139194
1.4161515939995297,0.004029304029304029,0.8848351648351648,0.7881318681318681
1.4171261679985037,0.004029304029304029,0.8848351648351648,0.7881318681318681
1.4180829229990195,0.004029304029304029,0.8848351648351648,0.7881318681318681
1.4191575740005646,0.004029304029304029,0.8848351648351648,0.7881318681318681
1.4201109069981612,0.004029304029304029,0.8848351648351648,0.7881318681318681
1.420954779998283,0.004029304029304029,0.8848351648351648,0.7881318681318681
1.4224322919981205,0.004029304029304029,0.8848351648351648,0.7881318681318681
1.4273774360008247,0.004029304029304029,0.8848351648351648,0.7881318681318681
1.4318624859988631,0.004029304029304029,0.8848351648351648,0.7881318681318681
1.4327671120008745,0.004029304029304029,0.8848351648351648,0.7881318681318681
1.433608508999896,0.004029304029304029,0.8848351648351648,0.7881318681318681
1.4351371939992532,0.004029304029304029,0.8848351648351648,0.7881318681318681
1.4400092770010815,0.004029304029304029,0.8848351648351648,0.7881318681318681
1.4452674970016233,1.51018315018315,3.3,3.3
1.448109574001137,1.51018315018315,3.3,3.3
1.4516158970000106,1.51018315018315,3.3,3.3
1.451872990000993,1.51018315018315,3.3,3.3
1.4561369430011837,1.51018315018315,3.3,3.3
1.4583083750003425,1.51018315018315,3.3,3.3
1.4591170290004811,1.51018315018315,3.3,3.3
1.4612698659984744,1.51018315018315,3.3,3.3
1.4620697319987812,1.51018315018315,3.3,3.3
1.4636208269985218,1.51018315018315,3.3,3.3
1.4677622349990997,1.51018315018315,3.3,3.3
1.4699644229986006,1.51018315018315,3.3,3.3
1.4707644789996266,1.51018315018315,3.3,3.3
1.4729996739988565,1.51018315018315,3.3,3.3
1.4732882409989543,1.51018315018315,3.3,3.3
1.4781743439998536,1.51018315018315,3.3,3.3
1.482683371999883,1.51018315018315,3.3,3.3
1.4834795360002317,1.51018315018315,3.3,3.3
1.4857672370017099,1.51018315018315,3.3,3.3
1.4859480710001662,1.51018315018315,3.3,3.3
1.4909217210006318,1.51018315018315,3.3,3.3
1.4964856090009562,1.51018315018315,3.3,3.3
1.4973045340011595,1.046007326007326,2.1057142857142854,2.1234432234432234
1.4990864460014564,0.7438095238095238,0.7317216117216117,1.386080586080586
1.5021160989999771,0.7438095238095238,0.7317216117216117,1.386080586080586
1.504326938000304,0.5495970695970696,3.3,3.2903296703296703
1.505166379000002,0.5495970695970696,3.3,3.2903296703296703
1.506667142999504,0.5495970695970696,3.3,3.2903296703296703
1.5109116710009403,0.5495970695970696,3.3,3.2903296703296703
1.5132695590000367,0.5495970695970696,3.3,3.2903296703296703
1.5135067400005937,0.5495970695970696,3.3,3.2903296703296703
1.5183814480005822,0.5495970695970696,3.3,3.2903296703296703
1.5184822939991136,0.5495970695970696,3.3,3.2903296703296703
1.5236685370000487,0.5495970695970696,3.3,3.2903296703296703
1.5261949599989748,0.5495970695970696,3.3,3.2903296703296703
1.531219805998262,0.5495970695970696,3.3,3.2903296703296703
1.535613806998299,0.5495970695970696,3.3,3.2903296703296703
1.5364935040015553,1.2627838827838826,2.545714285714286,3.3
1.5380004879989428,1.2627838827838826,2.545714285714286,3.3
1.542541351998807,1.2627838827838826,2.545714285714286,3.3
1.542819515998417,1.2627838827838826,2.545714285714286,3.3
1.5478536260015971,1.2627838827838826,2.545714285714286,3.3
1.552341026999784,0.5753846153846153,0.5084981684981685,0.5552380952380952
1.5531529879990558,0.5753846153846153,0.5084981684981685,0.5552380952380952
1.5553719870003988,0.5753846153846153,0.5084981684981685,0.5552380952380952
1.5556308790000912,1.3232234432234433,3.3,3.3
1.560054877998482,1.3232234432234433,3.3,3.3
1.5609661290000076,1.3232234432234433,3.3,3.3
1.562486404000083,1.3232234432234433,3.3,3.3
1.566688417999103,1.3232234432234433,3.3,3.3
1.5689794309982972,1.3232234432234433,3.3,3.3
1.5692884540003433,1.3232234432234433,3.3,3.3
1.5743551000014122,1.3232234432234433,3.3,3.3
1.5778966549987672,1.3232234432234433,3.3,3.3
1.578100971000822,1.4610256410256408,3.3,3.3
1.5832140499987872,1.4610256410256408,3.3,3.3
1.586956556999212,1.4610256410256408,3.3,3.3
1.5911583870001778,1.4610256410256408,3.3,3.3
1.5940145809981914,1.4610256410256408,3.3,3.3
1.597087187001307,1.4610256410256408,3.3,3.3
1.5993523920005828,1.6125274725274723,3.3,3.3
1.5996425170014845,1.6125274725274723,3.3,3.3
1.6047431650004,1.6125274725274723,3.3,3.3
1.6077343719989585,1.6125274725274723,3.3,3.3
1.61054176199832,1.6125274725274723,3.3,3.3
1.6140420779993292,1.6125274725274723,3.3,3.3
1.6142888510003104,1.6125274725274723,3.3,3.3
1.6193542719993275,1.6125274725274723,3.3,3.3
1.6222341479988245,1.6125274725274723,3.3,3.3
1.6258976950011856,1.6125274725274723,3.3,3.3
1.6309050650015706,1.6125274725274723,3.3,3.3
1.6351055220002308,1.668131868131868,3.3,2.7778021978021976
1.6379500090006331,1.2942124542124542,2.5400732600732603,2.5465201465201464
1.6408400389991584,1.2942124542124542,2.5400732600732603,2.5465201465201464
1.6443316110016895,2.9518681318681317,2.561831501831502,2.5666666666666664
1.6445361559999583,0.8413186813186813,2.075091575091575,1.1064468864468864
1.6494584840002062,0.8413186813186813,2.075091575091575,1.1064468864468864
1.6537398459986434,0.8413186813186813,2.075091575091575,1.1064468864468864
1.6552649629993539,0.8413186813186813,2.075091575091575,1.1064468864468864
1.65953040200111,0.8413186813186813,2.075091575091575,1.1064468864468864
1.6617277490004199,0.8413186813186813,2.075091575091575,1.1064468864468864
1.6625773580017267,0.8074725274725274,2.0154578754578756,1.0798534798534798
1.6641164159991604,0.8074725274725274,2.0154578754578756,1.0798534798534798
1.6684228820013232,0.8074725274725274,2.0154578754578756,1.0798534798534798
1.6706240739986242,0.8074725274725274,2.0154578754578756,1.0798534798534798
1.6714318910017028,0.8074725274725274,2.0154578754578756,1.0798534798534798
1.6735886599999503,0.8074725274725274,2.0154578754578756,1.0798534798534798
1.6743954170015058,0.8074725274725274,2.0154578754578756,1.0798534798534798
1.6760534349996306,0.8074725274725274,2.0154578754578756,1.0798534798534798
1.6789922839998326,0.8074725274725274,2.0154578754578756,1.0798534798534798
1.6821069090001401,0.8074725274725274,2.0154578754578756,1.0798534798534798
1.6843691379981465,0.0,2.9357509157509156,2.323296703296703
1.6852169699996011,0.0,2.9357509157509156,2.323296703296703
1.68686287699893,0.3916483516483516,0.8534065934065934,0.6728937728937728
1.6904143169995223,0.3916483516483516,0.8534065934065934,0.6728937728937728
1.6906661339999118,2.3813186813186813,3.3,2.8535531135531134
1.6958013900002697,2.3813186813186813,3.3,2.8535531135531134
1.6995934609985852,2.3813186813186813,3.3,2.8535531135531134
1.7038187250000192,2.3813186813186813,3.3,2.8535531135531134
1.705412333998538,2.3813186813186813,3.3,2.8535531135531134
1.70971992900013,2.3813186813186813,3.3,2.8535531135531134
1.7112425300001632,2.3813186813186813,3.3,2.8535531135531134
1.7155692769993038,2.3813186813186813,3.3,2.8535531135531134
1.7171017049986403,2.3813186813186813,3.3,2.8535531135531134
1.7222456349991262,2.3813186813186813,3.3,2.8535531135531134
1.7259535410012177,2.868058608058608,2.5513553113553114,2.5634432234432234
1.7303986519982573,2.868058608058608,2.5513553113553114,2.5634432234432234
1.7312262039995403,2.868058608058608,2.5513553113553114,2.5634432234432234
1.733372253998823,2.868058608058608,2.5513553113553114,2.5634432234432234
1.7341661360005673,2.868058608058608,2.5513553113553114,2.5634432234432234
1.735707611998805,2.868058608058608,2.5513553113553114,2.5634432234432234
1.7399032210014411,2.868058608058608,2.5513553113553114,2.5634432234432234
1.742581196998799,2.868058608058608,2.5513553113553114,2.5634432234432234
1.7470796259985946,2.868058608058608,2.5513553113553114,2.5634432234432234
1.7484843550009828,2.868058608058608,2.5513553113553114,2.5634432234432234
1.7530125429984764,2.868058608058608,2.5513553113553114,2.5634432234432234
1.7537347100005718,2.868058608058608,2.5513553113553114,2.5634432234432234
1.7558098869994865,2.868058608058608,2.5513553113553114,2.5634432234432234
1.7571984300011536,2.868058608058608,2.5513553113553114,2.5634432234432234
1.7618304659990827,2.868058608058608,2.5513553113553114,2.5634432234432234
1.7625719739990018,2.868058608058608,2.5513553113553114,2.5634432234432234
1.7646014120000473,2.868058608058608,2.5513553113553114,2.5634432234432234
1.7660417430015514,2.868058608058608,2.5513553113553114,2.5634432234432234
1.7708444970012351,2.868058608058608,2.5513553113553114,2.5634432234432234
1.7710076340008527,1.7688644688644688,2.6279120879120876,3.3
1.7762480419987696,1.7688644688644688,2.6279120879120876,3.3
1.7797540059982566,1.7688644688644688,2.6279120879120876,3.3
1.779911980000179,1.7688644688644688,2.6279120879120876,3.3
1.7847504530000151,1.7688644688644688,2.6279120879120876,3.3
1.7848539449987584,1.7688644688644688,2.6279120879120876,3.3
1.789133012000093,1.7688644688644688,2.6279120879120876,3.3
1.7913172230000782,0.8526007326007327,1.4158974358974357,2.2088644688644687
1.7921785789985734,0.8526007326007327,1.4158974358974357,2.2088644688644687
1.794305601000815,0.8526007326007327,1.4158974358974357,2.2088644688644687
1.7951184890007426,0.8526007326007327,1.4158974358974357,2.2088644688644687
1.796671141000843,0.8526007326007327,1.4158974358974357,2.2088644688644687
1.8008225090015912,0.8526007326007327,1.4158974358974357,2.2088644688644687
1.8037785749984323,0.8526007326007327,1.4158974358974357,2.2088644688644687
1.8066871439987153,0.6745054945054945,1.4674725274725273,1.008131868131868
1.8094780100000207,0.6745054945054945,1.4674725274725273,1.008131868131868
1.8129645400003938,0.6745054945054945,1.4674725274725273,1.008131868131868
1.8131476529997599,0.6745054945054945,1.4674725274725273,1.008131868131868
1.8180416799987142,0.6745054945054945,1.4674725274725273,1.008131868131868
1.8234154780002427,0.6745054945054945,1.4674725274725273,1.008131868131868
1.825855290000618,0.8888644688644688,3.3,3.3
1.8309919400016952,0.8888644688644688,3.3,3.3
1.8346840220001468,0.0,0.6882051282051282,0.5504029304029303
1.8348185249997186,0.0,0.6882051282051282,0.5504029304029303
1.8401030280001578,1.303076923076923,3.3,3.3
1.8432447919985862,1.3723809523809525,3.1646153846153844,2.9075457875457875
1.8441202319991135,1.3723809523809525,3.1646153846153844,2.9075457875457875
1.8464399139993475,1.3723809523809525,3.1646153846153844,2.9075457875457875
1.8465908170001057,1.3723809523809525,3.1646153846153844,2.9075457875457875
1.8515241919994878,1.3723809523809525,3.1646153846153844,2.9075457875457875
1.8558216390010784,2.46029304029304,2.932527472527472,3.3
1.8573020629992243,2.46029304029304,2.932527472527472,3.3
1.8616684769986023,2.46029304029304,2.932527472527472,3.3
1.8632942680014821,2.46029304029304,2.932527472527472,3.3
1.8670517959981225,2.46029304029304,2.932527472527472,3.3
1.8715132209981675,2.46029304029304,2.932527472527472,3.3
1.872505014998751,0.0,0.42388278388278383,0.6809523809523809
1.8733473930005857,0.0,0.42388278388278383,0.6809523809523809
1.8756857920016046,0.0,0.42388278388278383,0.6809523809523809
1.8758702960003575,0.0,0.42388278388278383,0.6809523809523809
1.881024056001479,0.0,0.42388278388278383,0.6809523809523809
1.8839747560014075,0.07655677655677656,3.029230769230769,2.324102564102564
1.8868396760008181,0.07655677655677656,3.029230769230769,2.324102564102564
1.8905706059995282,0.5721611721611721,0.46417582417582415,0.49238095238095236
1.8906994610006223,0.4553113553113553,0.5068864468864469,0.8163369963369963
1.8956368430008297,0.4553113553113553,0.5068864468864469,0.8163369963369963
1.900202614000591,0.4553113553113553,0.5068864468864469,0.8163369963369963
1.9005323579985998,0.78007326007326,0.846153846153846,1.5408058608058608
1.9056873699992138,0.78007326007326,0.846153846153846,1.5408058608058608
1.9088241979989107,0.78007326007326,0.846153846153846,1.5408058608058608
1.9103593030013144,0.78007326007326,0.846153846153846,1.5408058608058608
1.9147816119984782,0.78007326007326,0.846153846153846,1.5408058608058608
1.9155913229988073,0.78007326007326,0.846153846153846,1.5408058608058608
1.917758611998579,1.1580219780219778,2.8914285714285715,2.6690109890109888
1.9180458779992478,1.1580219780219778,2.8914285714285715,2.6690109890109888
1.923277263998898,1.1580219780219778,2.8914285714285715,2.6690109890109888
1.9264112819982984,0.3545787545787546,3.3,2.706886446886447
1.927895881999575,0.3545787545787546,3.3,2.706886446886447
1.9328531579994888,0.6422710622710622,0.5109157509157509,0.4778754578754579
1.9375586989990552,0.6422710622710622,0.5109157509157509,0.4778754578754579
1.9378049779988942,0.6422710622710622,0.5109157509157509,0.4778754578754579
1.9425853620014095,0.6422710622710622,0.5109157509157509,0.4778754578754579
1.9428240490015014,0.6422710622710622,0.5109157509157509,0.4778754578754579
1.9473294989984424,0.6422710622710622,0.5109157509157509,0.4778754578754579
1.9487351089992444,0.6422710622710622,0.5109157509157509,0.4778754578754579
1.9488173860008828,0.6422710622710622,0.5109157509157509,0.4778754578754579
1.9533661429995846,0.6422710622710622,0.5109157509157509,0.4778754578754579
1.9547424679985852,0.6422710622710622,0.5109157509157509,0.4778754578754579
1.959317626999109,0.6422710622710622,0.5109157509157509,0.4778754578754579
1.9601021829985257,0.6422710622710622,0.5109157509157509,0.4778754578754579
1.9621584470005473,0.6422710622710622,0.5109157509157509,0.4778754578754579
1.9641868250000698,0.6422710622710622,0.5109157509157509,0.4778754578754579
1.9662099099987245,0.6422710622710622,0.5109157509157509,0.4778754578754579
1.968181383999763,0.7107692307692308,0.6084249084249085,0.6632234432234432
1.9701575379986025,0.7107692307692308,0.6084249084249085,0.6632234432234432
1.9715769329995965,0.7107692307692308,0.6084249084249085,0.6632234432234432
1.976184415001626,0.0,0.5286446886446886,0.6197069597069597
1.977518930001679,0.0,0.5286446886446886,0.6197069597069597
1.9820552279998083,0.0,0.5286446886446886,0.6197069597069597
1.9828889640011766,0.0,0.5286446886446886,0.6197069597069597
1.9848862629987707,0.0,0.5286446886446886,0.6197069597069597
1.9876168049995613,0.0,0.5286446886446886,0.6197069597069597
1.9904383219982265,0.0,0.5286446886446886,0.6197069597069597
1.9938722670012794,0.0,0.5286446886446886,0.6197069597069597
1.994078603998787,0.0,0.5286446886446886,0.6197069597069597
1.999014561999502,0.0,0.5286446886446886,0.6197069597069597
1.9990941260002728,0.0,0.5286446886446886,0.6197069597069597
2.004443978999916,1.8784615384615382,3.3,3.3
2.007219270999485,0.8171428571428572,0.6543589743589743,0.6358241758241758
2.0105079589993693,0.8171428571428572,0.6543589743589743,0.6358241758241758
2.011311753998598,0.8171428571428572,0.6543589743589743,0.6358241758241758
2.0133206879982026,0.0,0.3997069597069597,0.6035897435897435
2.0146632350006257,0.0,0.3997069597069597,0.6035897435897435
2.014755129999685,0.0,0.3997069597069597,0.6035897435897435
2.01930677099881,0.0,0.3997069597069597,0.6035897435897435
2.0200422140005685,0.0,0.3997069597069597,0.6035897435897435
2.0220956849989307,0.0,0.3997069597069597,0.6035897435897435
2.023513994001405,0.0,0.3997069597069597,0.6035897435897435
2.0236015660011617,0.0,0.3997069597069597,0.6035897435897435
2.02810821499952,0.0,0.3997069597069597,0.6035897435897435
2.029458060998877,0.0,0.3997069597069597,0.6035897435897435
2.0295565000014903,0.0,0.3997069597069597,0.6035897435897435
2.034053049999784,0.0,0.3997069597069597,0.6035897435897435
2.0348822669984656,0.0,0.3997069597069597,0.6035897435897435
2.036933080999006,0.0,0.3997069597069597,0.6035897435897435
2.0383481520002533,0.0,0.3997069597069597,0.6035897435897435
2.0429042969990405,0.0,0.3997069597069597,0.6035897435897435
2.043605940998532,0.0,0.3997069597069597,0.6035897435897435
2.045613784001034,0.0,0.3997069597069597,0.6035897435897435
2.0476220390009985,0.6616117216117217,1.0065201465201465,0.6277655677655677
2.0491483969999535,0.6616117216117217,1.0065201465201465,0.6277655677655677
2.053690620999987,0.6616117216117217,1.0065201465201465,0.6277655677655677
2.053966676998243,0.0,0.40695970695970696,0.697069597069597
2.058533316001558,0.0,0.40695970695970696,0.697069597069597
2.0592801560014777,0.0,0.40695970695970696,0.697069597069597
2.0613033670015284,0.0,0.40695970695970696,0.697069597069597
2.062744795999606,0.0,0.40695970695970696,0.697069597069597
2.06728569400002,1.3143589743589743,2.0090109890109886,0.9243223443223443
2.0680704490005155,1.3143589743589743,2.0090109890109886,0.9243223443223443
2.069590729999618,1.7930402930402929,3.3,3.3
2.0741985290005687,1.7930402930402929,3.3,3.3
2.075017693998234,1.7930402930402929,3.3,3.3
2.0764936509986,1.7930402930402929,3.3,3.3
2.081077162998554,0.618095238095238,0.842124542124542,1.4142857142857141
2.0813860449998174,0.618095238095238,0.842124542124542,1.4142857142857141
2.0858887290014536,0.618095238095238,0.842124542124542,1.4142857142857141
2.087273531000392,0.618095238095238,0.842124542124542,1.4142857142857141
2.0919369389994245,1.36996336996337,1.9614652014652014,2.540879120879121
2.092283262998535,1.36996336996337,1.9614652014652014,2.540879120879121
2.0967808140012494,1.36996336996337,1.9614652014652014,2.540879120879121
2.0975300099999004,1.36996336996337,1.9614652014652014,2.540879120879121
2.0995889859987074,1.36996336996337,1.9614652014652014,2.540879120879121
2.1009494429999904,1.36996336996337,1.9614652014652014,2.540879120879121
2.105737166999461,1.36996336996337,1.9614652014652014,2.540879120879121
2.1058661440001742,0.6946520146520146,1.0975824175824174,0.6817582417582417
2.111120959998516,0.6946520146520146,1.0975824175824174,0.6817582417582417
2.114144708000822,0.6946520146520146,1.0975824175824174,0.6817582417582417
2.1165001150002354,0.6946520146520146,1.0975824175824174,0.6817582417582417
2.116776271999697,0.6946520146520146,1.0975824175824174,0.6817582417582417
2.1218490899991593,0.6946520146520146,1.0975824175824174,0.6817582417582417
2.12541619699914,2.9389743589743587,2.5602197802197804,2.5666666666666664
2.125615454999206,2.9389743589743587,2.5602197802197804,2.5666666666666664
2.130546199001401,2.9389743589743587,2.5602197802197804,2.5666666666666664
2.13476694199926,2.9389743589743587,2.5602197802197804,2.5666666666666664
2.1369286490007653,2.9389743589743587,2.5602197802197804,2.5666666666666664
2.137715314998786,2.9389743589743587,2.5602197802197804,2.5666666666666664
2.1393829459993867,2.9389743589743587,2.5602197802197804,2.5666666666666664
2.143180836999818,2.9389743589743587,2.5602197802197804,2.5666666666666664
2.147489800998301,2.9389743589743587,2.5602197802197804,2.5666666666666664
2.149779180999758,0.6785347985347985,0.4996336996336996,0.4698168498168498
2.1500033080010326,0.6785347985347985,0.4996336996336996,0.4698168498168498
2.1550893429994176,0.6785347985347985,0.4996336996336996,0.4698168498168498
2.159665065999434,1.5174358974358972,3.3,3.3
2.159968684998603,1.5174358974358972,3.3,3.3
2.1651015569987067,1.5174358974358972,3.3,3.3
2.1688990549992013,0.9758974358974358,1.8567032967032966,0.9791208791208791
2.1731258209983935,0.70996336996337,0.5632967032967032,0.5463736263736263
2.1753995079998276,0.70996336996337,0.5632967032967032,0.5463736263736263
2.175798620999558,1.436043956043956,2.5521611721611723,3.3
2.1800525600010587,1.436043956043956,2.5521611721611723,3.3
2.1823789390000456,1.436043956043956,2.5521611721611723,3.3
2.1826397420009016,1.436043956043956,2.5521611721611723,3.3
2.18755743300062,1.2047619047619047,1.2821245421245422,0.6954578754578754
2.191938433999894,1.2047619047619047,1.2821245421245422,0.6954578754578754
2.1928365620005934,1.2047619047619047,1.2821245421245422,0.6954578754578754
2.194299172999308,1.2047619047619047,1.2821245421245422,0.6954578754578754
2.1986382930008403,1.3208058608058608,2.540879120879121,3.3
2.200245605999953,3.074358974358974,2.581172161172161,2.5682783882783884
2.2039469330011343,0.5125274725274725,2.6738461538461538,1.6987545787545786
2.209289608999825,0.5125274725274725,2.6738461538461538,1.6987545787545786
2.2122219000011683,0.5125274725274725,2.6738461538461538,1.6987545787545786
2.215113635000307,0.5125274725274725,2.6738461538461538,1.6987545787545786
2.2189288929985196,0.5125274725274725,2.6738461538461538,1.6987545787545786
2.223172402998898,0.5125274725274725,2.6738461538461538,1.6987545787545786
2.2261636030016234,0.5125274725274725,2.6738461538461538,1.6987545787545786
2.2291548979992513,0.5125274725274725,2.6738461538461538,1.6987545787545786
2.231427000999247,0.6229304029304029,0.4013186813186813,0.4698168498168498
2.2322299240004213,1.2515018315018314,0.8663003663003663,1.4852014652014651
2.2343683610015432,1.2515018315018314,0.8663003663003663,1.4852014652014651
2.235208098998555,1.2515018315018314,0.8663003663003663,1.4852014652014651
2.236679138000909,1.2515018315018314,0.8663003663003663,1.4852014652014651
2.24110889000076,1.2515018315018314,0.8663003663003663,1.4852014652014651
2.24265813799866,1.2515018315018314,0.8663003663003663,1.4852014652014651
2.2464151399981347,1.2515018315018314,0.8663003663003663,1.4852014652014651
2.2513216480001574,0.838095238095238,0.4794871794871795,0.5383150183150183
2.2515075119990797,2.8793406593406594,2.5553846153846154,2.5594139194139194
2.2565756760013755,2.8793406593406594,2.5553846153846154,2.5594139194139194
2.260254698998324,0.9194871794871795,1.4432967032967032,1.771282051282051
2.2604037409982993,0.9194871794871795,1.4432967032967032,1.771282051282051
2.265275636000297,0.9194871794871795,1.4432967032967032,1.771282051282051
2.2699941659993783,0.9815384615384615,0.8115018315018314,0.5358974358974359
2.270226554999681,0.9815384615384615,0.8115018315018314,0.5358974358974359
2.274747166000452,0.9815384615384615,0.8115018315018314,0.5358974358974359
2.2755166069982806,0.9815384615384615,0.8115018315018314,0.5358974358974359
2.2774984249990666,0.9815384615384615,0.8115018315018314,0.5358974358974359
2.278930855998624,0.9815384615384615,0.8115018315018314,0.5358974358974359
2.283456015000411,0.9815384615384615,0.8115018315018314,0.5358974358974359
2.2848242719992413,0.9815384615384615,0.8115018315018314,0.5358974358974359
2.2893677559986827,0.9815384615384615,0.8115018315018314,0.5358974358974359
2.2913555609993637,0.9815384615384615,0.8115018315018314,0.5358974358974359
2.2927866099998937,0.9815384615384615,0.8115018315018314,0.5358974358974359
2.2974095460012904,0.9815384615384615,0.8115018315018314,0.5358974358974359
2.2982119100015552,0.9815384615384615,0.8115018315018314,0.5358974358974359
2.300236530998518,0.9815384615384615,0.8115018315018314,0.5358974358974359
2.302183479998348,0.09509157509157509,3.3,2.698827838827839
2.304162907999853,0.09509157509157509,3.3,2.698827838827839
2.306283980000444,0.09509157509157509,3.3,2.698827838827839
2.3070571620010014,0.09509157509157509,3.3,2.698827838827839
2.309096322998812,0.09509157509157509,3.3,2.698827838827839
2.3110937839992403,0.09509157509157509,3.3,2.698827838827839
2.3131096069992054,1.361098901098901,1.0395604395604394,1.7640293040293038
2.314540807001322,1.361098901098901,1.0395604395604394,1.7640293040293038
2.319064644001628,1.361098901098901,1.0395604395604394,1.7640293040293038
2.3205221870011883,1.361098901098901,1.0395604395604394,1.7640293040293038
2.3206330920002074,0.9968498168498168,3.3,3.3
2.3251349279998976,0.9968498168498168,3.3,3.3
2.325942759998725,0.9968498168498168,3.3,3.3
2.327374291999149,0.9968498168498168,3.3,3.3
2.331937889000983,0.9968498168498168,3.3,3.3
2.3327610380001715,0.9968498168498168,3.3,3.3
2.3347564809992036,0.9968498168498168,3.3,3.3
2.3362443830010307,0.9968498168498168,3.3,3.3
2.3408044690004317,0.9968498168498168,3.3,3.3
2.3415782320007565,0.9968498168498168,3.3,3.3
2.3436467940009607,0.9968498168498168,3.3,3.3
2.3450369050005975,0.9968498168498168,3.3,3.3
2.349613408998266,0.9968498168498168,3.3,3.3
2.3503627559985034,0.9968498168498168,3.3,3.3
2.352389324001706,0.9968498168498168,3.3,3.3
2.3543785129986645,0.06285714285714286,0.8219780219780219,0.6350183150183151
2.3563686560009955,0.06285714285714286,0.8219780219780219,0.6350183150183151
2.3583660160002182,0.06285714285714286,0.8219780219780219,0.6350183150183151
2.359759513998142,0.06285714285714286,0.8219780219780219,0.6350183150183151
2.36422482800117,0.06285714285714286,0.8219780219780219,0.6350183150183151
2.3656081310000445,0.06285714285714286,0.8219780219780219,0.6350183150183151
2.370119932998932,0.8775824175824175,1.1918681318681317,0.7228571428571429
2.3721030769993376,2.755238095238095,2.5521611721611723,2.557802197802198
2.3735176599984698,2.755238095238095,2.5521611721611723,2.557802197802198
2.378004714999406,2.755238095238095,2.5521611721611723,2.557802197802198
2.3793815190001624,2.755238095238095,2.5521611721611723,2.557802197802198
2.383924894998927,2.755238095238095,2.5521611721611723,2.557802197802198
2.3847087750000355,2.755238095238095,2.5521611721611723,2.557802197802198
2.386171234000358,2.755238095238095,2.5521611721611723,2.557802197802198
2.386282316998404,2.755238095238095,2.5521611721611723,2.557802197802198
2.3907724730015616,2.755238095238095,2.5521611721611723,2.557802197802198
2.391093661000923,2.755238095238095,2.5521611721611723,2.557802197802198
2.39558997900167,2.755238095238095,2.5521611721611723,2.557802197802198
2.396936992998235,2.755238095238095,2.5521611721611723,2.557802197802198
2.4014909959987563,2.755238095238095,2.5521611721611723,2.557802197802198
2.4022980599984294,2.755238095238095,2.5521611721611723,2.557802197802198
2.4037311100000807,2.755238095238095,2.5521611721611723,2.557802197802198
2.4088065799987817,2.755238095238095,2.5521611721611723,2.557802197802198
2.4125047150009777,2.755238095238095,2.5521611721611723,2.557802197802198
2.417593976999342,2.755238095238095,2.5521611721611723,2.557802197802198
2.421257958998467,2.755238095238095,2.5521611721611723,2.557802197802198
2.4262032250007906,2.755238095238095,2.5521611721611723,2.557802197802198
2.430768892998458,2.755238095238095,2.5521611721611723,2.557802197802198
2.4315764940001827,2.755238095238095,2.5521611721611723,2.557802197802198
2.433957314999134,2.755238095238095,2.5521611721611723,2.557802197802198
2.4341023289998702,2.755238095238095,2.5521611721611723,2.557802197802198
2.439004202999058,2.755238095238095,2.5521611721611723,2.557802197802198
2.443531439999788,2.755238095238095,2.5521611721611723,2.557802197802198
2.4443739650014322,2.755238095238095,2.5521611721611723,2.557802197802198
2.4466625210006896,2.755238095238095,2.5521611721611723,2.557802197802198
2.4468923679996806,2.755238095238095,2.5521611721611723,2.557802197802198
2.45188938299907,2.755238095238095,2.5521611721611723,2.557802197802198
2.455737575000967,2.755238095238095,2.5521611721611723,2.557802197802198
2.460091254000872,2.755238095238095,2.5521611721611723,2.557802197802198
2.4616271179984324,2.755238095238095,2.5521611721611723,2.557802197802198
2.465881950000039,1.0403663003663002,1.5770695970695972,0.8743589743589744
2.4674151910003275,1.0403663003663002,1.5770695970695972,0.8743589743589744
2.4725330629989912,1.0403663003663002,1.5770695970695972,0.8743589743589744
2.475377169001149,1.0403663003663002,1.5770695970695972,0.8743589743589744
2.479514119000669,1.0403663003663002,1.5770695970695972,0.8743589743589744
2.481712664000952,2.453040293040293,2.54974358974359,2.5561904761904763
2.482524975999695,2.453040293040293,2.54974358974359,2.5561904761904763
2.484045037999749,2.453040293040293,2.54974358974359,2.5561904761904763
2.488301688001229,2.453040293040293,2.54974358974359,2.5561904761904763
2.4905185409988917,2.453040293040293,2.54974358974359,2.5561904761904763
2.491325617000257,2.453040293040293,2.54974358974359,2.5561904761904763
2.4934759530005977,2.453040293040293,2.54974358974359,2.5561904761904763
2.4943524000009347,2.453040293040293,2.54974358974359,2.5561904761904763
2.4952417530003004,2.453040293040293,2.54974358974359,2.5561904761904763
2.4967936870016274,2.453040293040293,2.54974358974359,2.5561904761904763
2.500769322999986,0.8276190476190476,0.8663003663003663,1.523882783882784
2.5045964249984536,0.8276190476190476,0.8663003663003663,1.523882783882784
2.5090701839981193,0.8276190476190476,0.8663003663003663,1.523882783882784
2.5098935069981962,0.6656410256410257,0.5358974358974359,0.5705494505494505
2.5121249129988428,0.6656410256410257,0.5358974358974359,0.5705494505494505
2.5123670670000138,0.6656410256410257,0.5358974358974359,0.5705494505494505
2.5172384360012074,0.6656410256410257,0.5358974358974359,0.5705494505494505
2.517387570998835,0.6656410256410257,0.5358974358974359,0.5705494505494505
2.5224963649998244,0.6656410256410257,0.5358974358974359,0.5705494505494505
2.5261640030003036,0.6656410256410257,0.5358974358974359,0.5705494505494505
2.526273207000486,0.6656410256410257,0.5358974358974359,0.5705494505494505
2.5312862700011465,0.6656410256410257,0.5358974358974359,0.5705494505494505
2.535619072001282,0.6656410256410257,0.5358974358974359,0.5705494505494505
2.5377315980003914,0.6656410256410257,0.5358974358974359,0.5705494505494505
2.5393300780015124,0.6656410256410257,0.5358974358974359,0.5705494505494505
2.543465404000017,0.6656410256410257,0.5358974358974359,0.5705494505494505
2.5463253919988347,0.6656410256410257,0.5358974358974359,0.5705494505494505
2.5504755379988637,0.6656410256410257,0.5358974358974359,0.5705494505494505
2.5533297209985903,0.6656410256410257,0.5358974358974359,0.5705494505494505
2.557482088999677,0.6656410256410257,0.5358974358974359,0.5705494505494505
2.5603364999988116,0.6656410256410257,0.5358974358974359,0.5705494505494505
2.564642063000065,0.6656410256410257,0.5358974358974359,0.5705494505494505
2.56608658299956,0.6656410256410257,0.5358974358974359,0.5705494505494505
2.5710156909990474,0.6656410256410257,0.5358974358974359,0.5705494505494505
2.57622863099823,0.6656410256410257,0.5358974358974359,0.5705494505494505
2.580654630000936,0.6656410256410257,0.5358974358974359,0.5705494505494505
2.5822489999991376,0.6656410256410257,0.5358974358974359,0.5705494505494505
2.586769499001093,0.6656410256410257,0.5358974358974359,0.5705494505494505
2.587062341001001,0.6656410256410257,0.5358974358974359,0.5705494505494505
2.592300285999954,0.6656410256410257,0.5358974358974359,0.5705494505494505
2.5951674329990055,2.3652014652014652,3.3,2.855970695970696
2.5984712450008374,2.3652014652014652,3.3,2.855970695970696
2.599215946000186,2.3652014652014652,3.3,2.855970695970696
2.6014048979996005,2.3652014652014652,3.3,2.855970695970696
2.6017337560006126,2.3652014652014652,3.3,2.855970695970696
2.6058458810002776,2.3652014652014652,3.3,2.855970695970696
2.60917225799858,2.3652014652014652,3.3,2.855970695970696
2.610521673999756,2.3652014652014652,3.3,2.855970695970696
2.6151420930000313,2.3652014652014652,3.3,2.855970695970696
2.615430630998162,2.3652014652014652,3.3,2.855970695970696
2.6204553589996067,2.3652014652014652,3.3,2.855970695970696
2.6241191609988164,2.3652014652014652,3.3,2.855970695970696
2.6242392380008823,2.3652014652014652,3.3,2.855970695970696
2.629265634001058,2.3652014652014652,3.3,2.855970695970696
2.6327985989992158,2.3652014652014652,3.3,2.855970695970696
2.6329897600007826,2.3652014652014652,3.3,2.855970695970696
2.637798252999346,0.7873260073260073,2.9454212454212456,3.151721611721612
2.6379935260010825,0.7873260073260073,2.9454212454212456,3.151721611721612
2.6428289229988877,0.7873260073260073,2.9454212454212456,3.151721611721612
2.6477865199994994,0.7873260073260073,2.9454212454212456,3.151721611721612
2.6526490750002267,1.6399267399267399,3.3,3.3
2.656962469998689,0.026593406593406595,0.9436630036630036,0.6906227106227106
2.6599822729986045,0.026593406593406595,0.9436630036630036,0.6906227106227106
2.6621577109981445,0.026593406593406595,0.9436630036630036,0.6906227106227106
2.663002362998668,0.026593406593406595,0.9436630036630036,0.6906227106227106
2.664478381000663,0.026593406593406595,0.9436630036630036,0.6906227106227106
2.6695244920010737,0.026593406593406595,0.9436630036630036,0.6906227106227106
2.673161822000111,0.026593406593406595,0.9436630036630036,0.6906227106227106
2.673335921001126,0.026593406593406595,0.9436630036630036,0.6906227106227106
2.6782987199985655,0.026593406593406595,0.9436630036630036,0.6906227106227106
2.6825767699992866,0.026593406593406595,0.9436630036630036,0.6906227106227106
2.6846937219997926,0.026593406593406595,0.9436630036630036,0.6906227106227106
2.6861370529986743,0.026593406593406595,0.9436630036630036,0.6906227106227106
2.691181862999656,0.6503296703296703,0.47142857142857136,0.5213919413919413
2.6953582179994555,0.0,0.4738461538461538,0.5794139194139193
2.698159723000572,0.0,0.4738461538461538,0.5794139194139193
2.701701336998667,0.0,0.4738461538461538,0.5794139194139193
2.7019318739985465,0.5568498168498168,2.3877655677655674,1.4505494505494505
2.7068739979986276,0.5568498168498168,2.3877655677655674,1.4505494505494505
2.7113745360002213,0.5568498168498168,2.3877655677655674,1.4505494505494505
2.712221812998905,0.5568498168498168,2.3877655677655674,1.4505494505494505
2.7143521389989473,0.5568498168498168,2.3877655677655674,1.4505494505494505
2.7152327350013366,0.5568498168498168,2.3877655677655674,1.4505494505494505
2.717486141998961,0.5568498168498168,2.3877655677655674,1.4505494505494505
2.717736859998695,0.5568498168498168,2.3877655677655674,1.4505494505494505
2.723099476999778,0.5568498168498168,2.3877655677655674,1.4505494505494505
2.7254558579988952,0.5568498168498168,2.3877655677655674,1.4505494505494505
2.7256558219996805,0.5568498168498168,2.3877655677655674,1.4505494505494505
2.730675014001463,0.5568498168498168,2.3877655677655674,1.4505494505494505
2.734994030000962,0.5568498168498168,2.3877655677655674,1.4505494505494505
2.736605004000012,1.394139194139194,3.3,3.3
2.740191259999847,1.394139194139194,3.3,3.3
2.740373037999234,1.394139194139194,3.3,3.3
2.745265065001149,1.394139194139194,3.3,3.3
2.749475255001016,1.394139194139194,3.3,3.3
2.7517138889998023,1.913919413919414,3.3,2.834212454212454
2.7520498339981714,1.913919413919414,3.3,2.834212454212454
2.7564234290002787,1.913919413919414,3.3,2.834212454212454
2.7579433899991272,1.913919413919414,3.3,2.834212454212454
2.7626653279985476,1.913919413919414,3.3,2.834212454212454
2.7627895600016927,1.913919413919414,3.3,2.834212454212454
2.767695842001558,1.913919413919414,3.3,2.834212454212454
2.772030279000319,1.913919413919414,3.3,2.834212454212454
2.7736090830003377,1.913919413919414,3.3,2.834212454212454
2.7777193500005524,1.913919413919414,3.3,2.834212454212454
2.781285432000004,1.3014652014652013,3.3,3.3
2.781433479998668,1.3014652014652013,3.3,3.3
2.785817069998302,1.3014652014652013,3.3,3.3
2.7873582930005796,1.3014652014652013,3.3,3.3
2.7916041989992664,1.3014652014652013,3.3,3.3
2.793771425000159,1.3014652014652013,3.3,3.3
2.7945857960003195,1.3014652014652013,3.3,3.3
2.7967364770011045,1.3014652014652013,3.3,3.3
2.7975281860017276,1.3014652014652013,3.3,3.3
2.7991596139981993,1.3014652014652013,3.3,3.3
2.8028041750003467,1.4102564102564101,3.3,3.3
2.802951526999095,1.4102564102564101,3.3,3.3
2.8129081049992237,1.4102564102564101,3.3,3.3
2.8165882200009946,1.4102564102564101,3.3,3.3
2.8216552769990813,1.4102564102564101,3.3,3.3
2.825431387998833,1.4102564102564101,3.3,3.3
2.8305204780008353,1.4102564102564101,3.3,3.3
2.8342802219995065,0.4625641025641025,0.5205860805860806,0.9057875457875458
2.839547888001107,0.4625641025641025,0.5205860805860806,0.9057875457875458
2.8427121819986496,0.4625641025641025,0.5205860805860806,0.9057875457875458
2.844202021999081,1.0863003663003663,1.3079120879120878,0.776043956043956
2.8488789930015628,1.0863003663003663,1.3079120879120878,0.776043956043956
2.849155416999565,1.0863003663003663,1.3079120879120878,0.776043956043956
2.8540505079981813,1.0863003663003663,1.3079120879120878,0.776043956043956
2.854234449001524,1.0863003663003663,1.3079120879120878,0.776043956043956
2.8595322469991515,1.0863003663003663,1.3079120879120878,0.776043956043956
2.8617915009999706,1.0863003663003663,1.3079120879120878,0.776043956043956
2.8626199050013383,1.0863003663003663,1.3079120879120878,0.776043956043956
2.864388032001443,1.0863003663003663,1.3079120879120878,0.776043956043956
2.8680807710006775,1.0863003663003663,1.3079120879120878,0.776043956043956
2.87262581899995,1.9090842490842492,3.3,2.851941391941392
2.8729483950010035,1.9090842490842492,3.3,2.851941391941392
2.878576646999136,1.9090842490842492,3.3,2.851941391941392
2.879787033998582,1.5424175824175823,3.3,3.291941391941392
2.879975600000762,1.5424175824175823,3.3,3.291941391941392
2.8868993200012483,1.5424175824175823,3.3,3.291941391941392
2.890927846001432,1.5424175824175823,3.3,3.291941391941392
2.895402981001098,1.5424175824175823,3.3,3.291941391941392
2.895664971001679,1.5424175824175823,3.3,3.291941391941392
2.904293602998223,1.5424175824175823,3.3,3.291941391941392
2.91017315299905,0.8292307692307692,2.0186813186813186,1.0435897435897434
2.9137478599986935,1.9977289377289376,3.3,2.8454945054945053
2.9139433210002608,0.23369963369963367,1.0532600732600732,0.9106227106227106
2.9210525609996694,0.23369963369963367,1.0532600732600732,0.9106227106227106
2.9259735390005517,0.23369963369963367,1.0532600732600732,0.9106227106227106
2.928910722999717,0.23369963369963367,1.0532600732600732,0.9106227106227106
2.931862983998144,0.6342124542124542,0.5487912087912087,0.5673260073260072
2.935830508999061,0.0,0.4222710622710622,0.6398534798534798
2.939201116001641,0.0,0.4222710622710622,0.6398534798534798
2.939490101998672,0.0,0.4222710622710622,0.6398534798534798
2.944623577001039,0.8598534798534798,3.3,3.3
2.9483043559994258,0.8598534798534798,3.3,3.3
2.948505707001459,0.718021978021978,0.7397802197802198,0.6503296703296703
2.952442492998671,0.718021978021978,0.7397802197802198,0.6503296703296703
2.957680422998237,0.718021978021978,0.7397802197802198,0.6503296703296703
2.960609667999961,1.452161172161172,3.3,3.1154578754578752
2.962845781999931,1.452161172161172,3.3,3.1154578754578752
2.963636004998989,1.452161172161172,3.3,3.1154578754578752
2.9659033530006127,1.452161172161172,3.3,3.1154578754578752
2.966207581001072,1.452161172161172,3.3,3.1154578754578752
2.9734018269991793,1.452161172161172,3.3,3.1154578754578752
2.977515422000579,1.452161172161172,3.3,3.1154578754578752
2.981057585999224,1.2595604395604394,3.274212454212454,2.8164835164835162
2.987738083000295,1.2595604395604394,3.274212454212454,2.8164835164835162
2.992018040000403,1.2595604395604394,3.274212454212454,2.8164835164835162
2.9935588849984924,1.2595604395604394,3.274212454212454,2.8164835164835162
2.9978967600000033,0.2836630036630036,1.8164102564102564,1.4860073260073259
2.998756705001142,0.2836630036630036,1.8164102564102564,1.4860073260073259
3.000370590001694,0.2836630036630036,1.8164102564102564,1.4860073260073259
3.008670169998368,0.6043956043956044,3.3,3.3
3.0136793720012065,0.6043956043956044,3.3,3.3
3.01659187399855,0.09267399267399268,0.8695238095238095,0.7002930402930403
3.020100783000089,0.792967032967033,1.2845421245421245,1.6665201465201465
3.0204737890016986,0.792967032967033,1.2845421245421245,1.6665201465201465
3.0245940649983822,0.792967032967033,1.2845421245421245,1.6665201465201465
3.0267804579998483,0.792967032967033,1.2845421245421245,1.6665201465201465
3.0282276469988574,0.792967032967033,1.2845421245421245,1.6665201465201465
3.0343506450008135,0.792967032967033,1.2845421245421245,1.6665201465201465
3.0387833819986554,0.792967032967033,1.2845421245421245,1.6665201465201465
3.039080884998839,0.792967032967033,1.2845421245421245,1.6665201465201465
3.0435227410016523,0.792967032967033,1.2845421245421245,1.6665201465201465
3.044373557000654,0.792967032967033,1.2845421245421245,1.6665201465201465
3.046524819001206,0.792967032967033,1.2845421245421245,1.6665201465201465
3.0473288069988484,0.792967032967033,1.2845421245421245,1.6665201465201465
3.049524113001098,0.792967032967033,1.2845421245421245,1.6665201465201465
3.050426850000804,0.792967032967033,1.2845421245421245,1.6665201465201465
3.0536526789983327,0.792967032967033,1.2845421245421245,1.6665201465201465
3.0541917059999832,1.3369230769230769,2.536849816849817,2.5481318681318683
3.0584611640006187,1.0999999999999999,2.545714285714286,2.5465201465201464
3.0599482780016842,1.0999999999999999,2.545714285714286,2.5465201465201464
3.0645233770010236,1.0999999999999999,2.545714285714286,2.5465201465201464
3.064728428998933,0.5536263736263736,0.4472527472527472,0.4754578754578754
3.0736104089992295,0.5536263736263736,0.4472527472527472,0.4754578754578754
3.0794065590016544,1.3079120879120878,1.1789743589743589,2.006593406593406
3.0867469330005406,1.3079120879120878,1.1789743589743589,2.006593406593406
3.090860011001496,1.3079120879120878,1.1789743589743589,2.006593406593406
3.0940465470011986,0.0016117216117216117,0.4416117216117216,0.43597069597069593
3.0949828929988143,0.0016117216117216117,0.4416117216117216,0.43597069597069593
3.0966168669983745,0.0016117216117216117,0.4416117216117216,0.43597069597069593
3.101054725000722,0.0016117216117216117,0.4416117216117216,0.43597069597069593
3.101498817999527,0.0016117216117216117,0.4416117216117216,0.43597069597069593
3.106549289001123,0.6583882783882784,2.424029304029304,1.5448351648351648
3.1121867619986006,0.6583882783882784,2.424029304029304,1.5448351648351648
3.12181629800034,0.0,0.7986080586080586,0.49076923076923074
3.1264089069991314,0.0,0.7986080586080586,0.49076923076923074
3.1266280419986288,0.0,0.7986080586080586,0.49076923076923074
3.1321945449999475,0.0,0.7986080586080586,0.49076923076923074
3.13335075500072,0.051575091575091575,1.0975824175824174,0.8042490842490841
3.1335833550001553,0.051575091575091575,1.0975824175824174,0.8042490842490841
3.1443369619992154,0.051575091575091575,1.0975824175824174,0.8042490842490841
3.1528556129997014,1.4868131868131869,3.3,2.83985347985348
3.1597643599998264,1.4868131868131869,3.3,2.83985347985348
3.1636464149996755,1.4868131868131869,3.3,2.83985347985348
3.166756274000363,1.4868131868131869,3.3,2.83985347985348
3.169351011998515,1.4868131868131869,3.3,2.83985347985348
3.1758700589998625,1.4868131868131869,3.3,2.83985347985348
3.180267638999794,1.2595604395604394,2.548937728937729,3.3
3.1811914060017443,1.2595604395604394,2.548937728937729,3.3
3.182688231998327,1.2595604395604394,2.548937728937729,3.3
3.191954480000277,1.2595604395604394,2.548937728937729,3.3
3.197178938000434,1.2595604395604394,2.548937728937729,3.3
3.2004369310016045,1.2595604395604394,2.548937728937729,3.3
3.2006984149993514,1.2595604395604394,2.548937728937729,3.3
3.207258901999012,1.2595604395604394,2.548937728937729,3.3
3.2108298300008755,0.5858608058608058,0.8284249084249083,0.6712820512820512
3.2111083019990474,0.5858608058608058,0.8284249084249083,0.6712820512820512
3.21537293000074,0.5858608058608058,0.8284249084249083,0.6712820512820512
3.2178996020011255,0.5858608058608058,0.8284249084249083,0.6712820512820512
3.2278168320008263,0.5858608058608058,0.8284249084249083,0.6712820512820512
3.236162869998225,0.5858608058608058,0.8284249084249083,0.6712820512820512
3.242172070000379,0.5858608058608058,0.8284249084249083,0.6712820512820512
3.2459067449999566,0.5858608058608058,0.8284249084249083,0.6712820512820512
3.2495357129992044,0.5858608058608058,0.8284249084249083,0.6712820512820512
3.24993821499811,0.5858608058608058,0.8284249084249083,0.6712820512820512
3.2562598080003227,0.5858608058608058,0.8284249084249083,0.6712820512820512
3.259193598998536,0.5858608058608058,0.8284249084249083,0.6712820512820512
3.262706667999737,0.5858608058608058,0.8284249084249083,0.6712820512820512
3.262931956000102,0.5858608058608058,0.8284249084249083,0.6712820512820512
3.269104684000922,0.5858608058608058,0.8284249084249083,0.6712820512820512
3.275245436001569,0.73010989010989,0.5737728937728938,0.5576556776556777
3.278354115998809,1.2821245421245422,3.3,3.3
3.2808110020014283,1.2821245421245422,3.3,3.3
3.28766298499977,1.2821245421245422,3.3,3.3
3.290638966998813,1.2821245421245422,3.3,3.3
3.2935030560001906,1.2821245421245422,3.3,3.3
3.296465121999063,1.2821245421245422,3.3,3.3
3.299336931999278,1.2821245421245422,3.3,3.3
3.303620411999873,1.2821245421245422,3.3,3.3
3.30468211400148,1.2821245421245422,3.3,3.3
3.304887725000299,0.5713553113553113,0.5931135531135531,0.5399267399267399
3.3098982720002823,0.5713553113553113,0.5931135531135531,0.5399267399267399
3.3136214100013603,2.028351648351648,3.3,2.847912087912088
3.313722301998496,0.0,0.8179487179487179,0.5278388278388277
3.3202532139985124,0.0,0.8179487179487179,0.5278388278388277
3.32421761599835,0.0,0.8179487179487179,0.5278388278388277
3.327130487999966,0.0,0.8179487179487179,0.5278388278388277
3.33062206500108,0.0,0.8179487179487179,0.5278388278388277
3.3308263159997296,0.0,0.8179487179487179,0.5278388278388277
3.3382200589985587,0.0,0.8179487179487179,0.5278388278388277
3.3427964910006267,2.4199999999999995,2.5473260073260073,2.5602197802197804
3.3430812769984186,2.4199999999999995,2.5473260073260073,2.5602197802197804
3.3479996230016695,2.4199999999999995,2.5473260073260073,2.5602197802197804
3.3557554530016205,2.4199999999999995,2.5473260073260073,2.5602197802197804
3.359342283998558,2.4199999999999995,2.5473260073260073,2.5602197802197804
3.35958460600159,2.4199999999999995,2.5473260073260073,2.5602197802197804
3.365133319999586,0.3602197802197802,2.897069597069597,1.9493772893772894
3.3660971200006315,0.3602197802197802,2.897069597069597,1.9493772893772894
3.3670926929989946,0.3602197802197802,2.897069597069597,1.9493772893772894
3.368766761999723,0.3602197802197802,2.897069597069597,1.9493772893772894
3.372891648999939,0.3602197802197802,2.897069597069597,1.9493772893772894
3.37450780799918,0.3602197802197802,2.897069597069597,1.9493772893772894
3.379285274000722,0.3602197802197802,2.897069597069597,1.9493772893772894
3.38384582299841,0.3602197802197802,2.897069597069597,1.9493772893772894
3.38415022800109,0.3602197802197802,2.897069597069597,1.9493772893772894
3.3931314000001294,0.3602197802197802,2.897069597069597,1.9493772893772894
3.3997423490000074,0.3602197802197802,2.897069597069597,1.9493772893772894
3.404562560001068,0.3602197802197802,2.897069597069597,1.9493772893772894
3.408277640999586,0.3602197802197802,2.897069597069597,1.9493772893772894
3.41328866099866,0.3602197802197802,2.897069597069597,1.9493772893772894
3.4178283719993487,0.8098901098901098,0.7687912087912088,1.2805128205128204
3.418185934999201,0.8098901098901098,0.7687912087912088,1.2805128205128204
3.4241979520011228,0.8098901098901098,0.7687912087912088,1.2805128205128204
3.429219869998633,0.8098901098901098,0.7687912087912088,1.2805128205128204
3.432609847001004,0.8098901098901098,0.7687912087912088,1.2805128205128204
3.4328622079992783,0.8098901098901098,0.7687912087912088,1.2805128205128204
3.440058502001193,0.8098901098901098,0.7687912087912088,1.2805128205128204
3.444517782998446,0.8098901098901098,0.7687912087912088,1.2805128205128204
3.446221013000468,0.8098901098901098,0.7687912087912088,1.2805128205128204
3.4492323189988383,0.8098901098901098,0.7687912087912088,1.2805128205128204
3.452670163998846,2.0742857142857143,2.752014652014652,3.3
3.452939585000422,2.0742857142857143,2.752014652014652,3.3
3.4575978909997502,2.0742857142857143,2.752014652014652,3.3
3.4577233599993633,2.0742857142857143,2.752014652014652,3.3
3.462110150998342,2.0742857142857143,2.752014652014652,3.3
3.464294574001542,2.0742857142857143,2.752014652014652,3.3
3.4646168040017074,2.0742857142857143,2.752014652014652,3.3
3.470661791998282,2.0742857142857143,2.752014652014652,3.3
3.475389955998253,0.6567765567765567,0.5987545787545787,0.7712087912087912
3.4755332739987352,0.11765567765567764,0.9017582417582416,0.6801465201465201
3.480394884998532,0.11765567765567764,0.9017582417582416,0.6801465201465201
3.4805800130015996,0.11765567765567764,0.9017582417582416,0.6801465201465201
3.4865268760004255,0.11765567765567764,0.9017582417582416,0.6801465201465201
3.4922899749981298,0.9267399267399267,0.6672527472527472,0.5705494505494505
3.492499920001137,0.9267399267399267,0.6672527472527472,0.5705494505494505
3.4967714000013075,0.9267399267399267,0.6672527472527472,0.5705494505494505
3.4997803709993605,0.9267399267399267,0.6672527472527472,0.5705494505494505
3.5038378850003937,0.3642490842490842,3.3,3.05985347985348
3.5057056559999182,0.3642490842490842,3.3,3.05985347985348
3.507450984998286,0.3642490842490842,3.3,3.05985347985348
3.510388131999207,0.3642490842490842,3.3,3.05985347985348
3.5138799829983327,0.3642490842490842,3.3,3.05985347985348
3.5140445830002136,0.3642490842490842,3.3,3.05985347985348
3.5219733480007562,0.3642490842490842,3.3,3.05985347985348
3.525741483001184,0.3642490842490842,3.3,3.05985347985348
3.5308025630001794,1.0468131868131867,0.6124542124542125,0.5391208791208791
3.5354334949988697,0.0,0.7317216117216117,0.5802197802197803
3.535754544998781,0.0,0.7317216117216117,0.5802197802197803
3.5412327259982703,0.0,0.7317216117216117,0.5802197802197803
3.5421359290012333,0.0,0.7317216117216117,0.5802197802197803
3.5429669299992383,0.0,0.7317216117216117,0.5802197802197803
3.544477667001047,0.0,0.7317216117216117,0.5802197802197803
3.549555212000996,0.0,0.7317216117216117,0.5802197802197803
3.5543737029984186,0.0,0.7317216117216117,0.5802197802197803
3.558657581001171,0.0,0.7317216117216117,0.5802197802197803
3.5614073789984104,0.0,0.7317216117216117,0.5802197802197803
3.563691328999994,0.0,0.7317216117216117,0.5802197802197803
3.5639728819987795,0.0,0.7317216117216117,0.5802197802197803
3.56999604000157,0.0,0.7317216117216117,0.5802197802197803
3.5744333190014004,0.7212454212454212,0.8630769230769231,1.2700366300366301
3.575316530001146,0.7212454212454212,0.8630769230769231,1.2700366300366301
3.5770180379986414,0.7212454212454212,0.8630769230769231,1.2700366300366301
3.5800856159985415,0.7212454212454212,0.8630769230769231,1.2700366300366301
3.5823835900009726,0.7212454212454212,0.8630769230769231,1.2700366300366301
3.583365220001724,0.7212454212454212,0.8630769230769231,1.2700366300366301
3.5841972189991793,1.2095970695970695,0.9968498168498168,0.7131868131868132
3.5861885129997972,1.2095970695970695,0.9968498168498168,0.7131868131868132
3.5879624970002624,1.2095970695970695,0.9968498168498168,0.7131868131868132
3.5904002499992203,1.2095970695970695,0.9968498168498168,0.7131868131868132
3.5905683009987115,1.2095970695970695,0.9968498168498168,0.7131868131868132
3.594874737998907,1.2095970695970695,0.9968498168498168,0.7131868131868132
3.597088704998896,1.2095970695970695,0.9968498168498168,0.7131868131868132
3.5979154909982753,1.2095970695970695,0.9968498168498168,0.7131868131868132
3.599471524001274,1.2095970695970695,0.9968498168498168,0.7131868131868132
3.6051362110010814,1.2095970695970695,0.9968498168498168,0.7131868131868132
3.6053299790000892,1.2095970695970695,0.9968498168498168,0.7131868131868132
3.609747326001525,1.2095970695970695,0.9968498168498168,0.7131868131868132
3.6105991740005265,0.622124542124542,0.4778754578754579,0.5173626373626373
3.612742265999259,0.622124542124542,0.4778754578754579,0.5173626373626373
3.61300349999874,0.622124542124542,0.4778754578754579,0.5173626373626373
3.6202769890005584,0.622124542124542,0.4778754578754579,0.5173626373626373
3.625561936998565,0.622124542124542,0.4778754578754579,0.5173626373626373
3.6263829409981554,0.622124542124542,0.4778754578754579,0.5173626373626373
3.6280684470002598,0.622124542124542,0.4778754578754579,0.5173626373626373
3.6315673349999997,0.622124542124542,0.4778754578754579,0.5173626373626373
3.6318756209984713,0.622124542124542,0.4778754578754579,0.5173626373626373
3.6391576409987465,0.083003663003663,1.0516483516483515,0.8574358974358974
3.6433059699993464,0.083003663003663,1.0516483516483515,0.8574358974358974
3.645623241998692,0.083003663003663,1.0516483516483515,0.8574358974358974
3.645975848998205,0.083003663003663,1.0516483516483515,0.8574358974358974
3.651508497998293,0.083003663003663,1.0516483516483515,0.8574358974358974
3.654428704001475,0.083003663003663,1.0516483516483515,0.8574358974358974
3.656200910001644,0.083003663003663,1.0516483516483515,0.8574358974358974
3.6592199629994866,0.083003663003663,1.0516483516483515,0.8574358974358974
3.662189053000475,0.083003663003663,1.0516483516483515,0.8574358974358974
3.665088268000545,0.083003663003663,1.0516483516483515,0.8574358974358974
3.6700824670006114,1.0065201465201465,0.6728937728937728,0.6011721611721611
3.6737554210012604,1.0065201465201465,0.6728937728937728,0.6011721611721611
3.678911358001642,1.0065201465201465,0.6728937728937728,0.6011721611721611
3.683175787999062,1.0065201465201465,0.6728937728937728,0.6011721611721611
3.686586542000441,0.17648351648351646,2.9615384615384617,2.216117216117216
3.6868489180014876,0.17648351648351646,2.9615384615384617,2.216117216117216
3.6916645240016805,0.17648351648351646,2.9615384615384617,2.216117216117216
3.6968214599983185,0.17648351648351646,2.9615384615384617,2.216117216117216
3.7008999429999676,0.17648351648351646,2.9615384615384617,2.216117216117216
3.70609198099919,0.17648351648351646,2.9615384615384617,2.216117216117216
3.7077566490006575,0.929157509157509,1.722930402930403,0.9541391941391941
3.711326830998587,0.929157509157509,1.722930402930403,0.9541391941391941
3.711589976999676,0.929157509157509,1.722930402930403,0.9541391941391941
3.7181070299993735,0.929157509157509,1.722930402930403,0.9541391941391941
3.7235442089986464,0.929157509157509,1.722930402930403,0.9541391941391941
3.724733497998386,0.929157509157509,1.722930402930403,0.9541391941391941
3.7250444530000095,0.929157509157509,1.722930402930403,0.9541391941391941
3.7346998770008213,0.6156776556776556,1.149157509157509,0.7405860805860806
3.7407634439987305,0.6156776556776556,1.149157509157509,0.7405860805860806
3.7459681510008522,0.6156776556776556,1.149157509157509,0.7405860805860806
3.748466422999627,0.6156776556776556,1.149157509157509,0.7405860805860806
3.7563860420013953,0.6156776556776556,1.149157509157509,0.7405860805860806
3.760879910998483,0.6156776556776556,1.149157509157509,0.7405860805860806
3.7611448380012007,0.6156776556776556,1.149157509157509,0.7405860805860806
3.7671452419999696,0.6156776556776556,1.149157509157509,0.7405860805860806
3.7742155539999658,0.6156776556776556,1.149157509157509,0.7405860805860806
3.7787161769992963,1.282930402930403,2.5465201465201464,3.3
3.7795826949986804,1.4578021978021978,3.3,3.3
3.781741400998726,1.4578021978021978,3.3,3.3
3.782557333001023,1.4578021978021978,3.3,3.3
3.7851968409995607,1.4578021978021978,3.3,3.3
3.7933130579986027,0.7583150183150182,1.087106227106227,0.6873992673992674
3.797716359000333,0.7583150183150182,1.087106227106227,0.6873992673992674
3.7985846160008805,0.7583150183150182,1.087106227106227,0.6873992673992674
3.801550034000684,0.7583150183150182,1.087106227106227,0.6873992673992674
3.804880528998183,0.7583150183150182,1.087106227106227,0.6873992673992674
3.8050015500011796,0.7583150183150182,1.087106227106227,0.6873992673992674
3.8095523990014044,0.6664468864468864,1.0814652014652013,0.7067399267399267
3.811066487000062,0.6664468864468864,1.0814652014652013,0.7067399267399267
3.8154622459987877,0.6664468864468864,1.0814652014652013,0.7067399267399267
3.8177248270003474,0.6664468864468864,1.0814652014652013,0.7067399267399267
3.818047063999984,0.6664468864468864,1.0814652014652013,0.7067399267399267
3.8245167169989145,0.6664468864468864,1.0814652014652013,0.7067399267399267
3.829136080999888,0.6664468864468864,1.0814652014652013,0.7067399267399267
3.82936251999854,0.6664468864468864,1.0814652014652013,0.7067399267399267
3.8372746339991863,0.6664468864468864,1.0814652014652013,0.7067399267399267
3.841183126998658,1.4384615384615385,3.3,3.3
3.8454810039984295,1.4384615384615385,3.3,3.3
3.8470154919996276,1.4384615384615385,3.3,3.3
3.8523862900001404,1.6076923076923075,3.3,2.785054945054945
3.8555224209994776,1.6076923076923075,3.3,2.785054945054945
3.8557465890007734,1.6076923076923075,3.3,2.785054945054945
3.864057328999479,0.697069597069597,1.4312087912087912,1.8236630036630037
3.872364352999284,0.8485714285714284,2.079120879120879,1.091135531135531
3.879109319001145,2.752014652014652,3.3,2.7786080586080586
3.8840185269982612,2.752014652014652,3.3,2.7786080586080586
3.8880508030015335,2.752014652014652,3.3,2.7786080586080586
3.890239008000208,0.6616117216117217,1.1902564102564102,0.7446153846153846
3.891039477999584,0.3731135531135531,0.4279120879120879,0.809084249084249
3.8925956880011654,0.3731135531135531,0.4279120879120879,0.809084249084249
3.8968301019995124,0.3731135531135531,0.4279120879120879,0.809084249084249
3.8998244879985577,0.5939194139194138,0.7051282051282051,1.3312820512820513
3.9049780540008214,0.5939194139194138,0.7051282051282051,1.3312820512820513
3.9066741189999448,0.8219780219780219,1.9356776556776556,0.9960439560439559
3.9102937079987896,0.6777289377289377,0.5818315018315018,0.7502564102564102
3.910441026000626,2.536849816849817,3.3,2.8454945054945053
3.914733020999847,2.536849816849817,3.3,2.8454945054945053
3.9191451049991883,0.14263736263736262,1.05003663003663,0.8219780219780219
3.926819185999193,0.6906227106227106,1.5206593406593405,1.9453479853479854
3.932099819998257,0.6906227106227106,1.5206593406593405,1.9453479853479854
3.9369533309982216,0.6906227106227106,1.5206593406593405,1.9453479853479854
3.9413620109990006,0.6906227106227106,1.5206593406593405,1.9453479853479854
3.9423156500015466,0.7542857142857142,2.3265201465201466,1.3022710622710623
3.943249084000854,0.7542857142857142,2.3265201465201466,1.3022710622710623
3.944827636998525,0.7542857142857142,2.3265201465201466,1.3022710622710623
3.9490228229988134,0.7542857142857142,2.3265201465201466,1.3022710622710623
3.9525425139981962,0.7542857142857142,2.3265201465201466,1.3022710622710623
3.958562740001071,0.7542857142857142,2.3265201465201466,1.3022710622710623
3.962388634998206,0.7542857142857142,2.3265201465201466,1.3022710622710623
3.9669030500008375,0.4835164835164835,2.581978021978022,1.6213919413919413
3.968894513000123,0.4835164835164835,2.581978021978022,1.6213919413919413
3.970604555001046,0.4835164835164835,2.581978021978022,1.6213919413919413
3.9738218909988063,0.4835164835164835,2.581978021978022,1.6213919413919413
3.974665413999901,0.4835164835164835,2.581978021978022,1.6213919413919413
3.9766113689984195,0.4835164835164835,2.581978021978022,1.6213919413919413
3.978260053001577,0.4835164835164835,2.581978021978022,1.6213919413919413
3.9829175009981554,0.4835164835164835,2.581978021978022,1.6213919413919413
3.983066624998173,1.1241758241758242,1.1709157509157508,0.73010989010989
3.990203269000631,1.1241758241758242,1.1709157509157508,0.73010989010989
3.9945852989985724,1.1241758241758242,1.1709157509157508,0.73010989010989
3.9961044500014395,1.1241758241758242,1.1709157509157508,0.73010989010989
4.001188504000311,1.1241758241758242,1.1709157509157508,0.73010989010989
4.006484477999038,1.1241758241758242,1.1709157509157508,0.73010989010989
4.0073785970016615,1.1241758241758242,1.1709157509157508,0.73010989010989
4.008905484999559,1.1241758241758242,1.1709157509157508,0.73010989010989
4.0127610490017105,1.88007326007326,1.959047619047619,2.822124542124542
4.0183655910004745,1.88007326007326,1.959047619047619,2.822124542124542
4.018767589001072,1.88007326007326,1.959047619047619,2.822124542124542
4.023520609000116,1.88007326007326,1.959047619047619,2.822124542124542
4.028424044998246,1.88007326007326,1.959047619047619,2.822124542124542
4.033483131999674,1.88007326007326,1.959047619047619,2.822124542124542
4.037818085998879,1.88007326007326,1.959047619047619,2.822124542124542
4.038722877001419,1.88007326007326,1.959047619047619,2.822124542124542
4.0402762689991505,1.88007326007326,1.959047619047619,2.822124542124542
4.044667441998172,1.88007326007326,1.959047619047619,2.822124542124542
4.0455409189999045,1.88007326007326,1.959047619047619,2.822124542124542
4.047078593001061,1.88007326007326,1.959047619047619,2.822124542124542
4.051798543998302,1.88007326007326,1.959047619047619,2.822124542124542
4.058027254999615,1.88007326007326,1.959047619047619,2.822124542124542
4.062795325000479,1.88007326007326,1.959047619047619,2.822124542124542
4.068394035999518,1.88007326007326,1.959047619047619,2.822124542124542
4.068747541001358,3.00989010989011,2.5553846153846154,2.5626373626373624
4.073705704999156,3.00989010989011,2.5553846153846154,2.5626373626373624
4.077322728000581,1.3917216117216116,2.5473260073260073,2.5473260073260073
4.077447824998671,0.630989010989011,0.7317216117216117,1.4513553113553113
4.082356102000631,0.630989010989011,0.7317216117216117,1.4513553113553113
4.0918971770006465,1.2603663003663002,1.814798534798535,0.8816117216117215
4.098817082998721,1.2603663003663002,1.814798534798535,0.8816117216117215
4.105420091000269,1.2603663003663002,1.814798534798535,0.8816117216117215
4.108958683998935,0.05882783882783882,2.937362637362637,2.2096703296703293
4.113861472000281,1.9413186813186813,1.9397069597069596,2.9027106227106225
4.113976139000442,1.9413186813186813,1.9397069597069596,2.9027106227106225
4.122937798998464,1.9413186813186813,1.9397069597069596,2.9027106227106225
4.127961494999909,1.9413186813186813,1.9397069597069596,2.9027106227106225
4.132100072998583,1.9413186813186813,1.9397069597069596,2.9027106227106225
4.134288228000514,1.9413186813186813,1.9397069597069596,2.9027106227106225
4.135117527999682,1.9413186813186813,1.9397069597069596,2.9027106227106225
4.137385803998768,1.9413186813186813,1.9397069597069596,2.9027106227106225
4.137569285998325,0.5786080586080585,0.929157509157509,1.5633699633699631
4.142133958001068,0.5786080586080585,0.929157509157509,1.5633699633699631
4.142402139001206,0.5786080586080585,0.929157509157509,1.5633699633699631
4.147522193998157,0.5786080586080585,0.929157509157509,1.5633699633699631
4.15239149899935,0.5786080586080585,0.929157509157509,1.5633699633699631
4.157597861998511,0.5786080586080585,0.929157509157509,1.5633699633699631
4.159747644000163,0.5786080586080585,0.929157509157509,1.5633699633699631
4.1605487579981855,0.5786080586080585,0.929157509157509,1.5633699633699631
4.1625022500011255,0.5786080586080585,0.929157509157509,1.5633699633699631
4.163991320998321,0.5786080586080585,0.929157509157509,1.5633699633699631
4.1713345349999145,0.5786080586080585,0.929157509157509,1.5633699633699631
4.176342872000532,2.1234432234432234,3.3,2.840659340659341
4.179391903999203,2.1234432234432234,3.3,2.840659340659341
4.181915494998975,2.1234432234432234,3.3,2.840659340659341
4.186942438998813,2.1234432234432234,3.3,2.840659340659341
4.191421603998606,2.1234432234432234,3.3,2.840659340659341
4.191630331999477,2.1234432234432234,3.3,2.840659340659341
4.196105382998212,2.1234432234432234,3.3,2.840659340659341
4.196974701000727,2.1234432234432234,3.3,2.840659340659341
4.1984889619998285,2.1234432234432234,3.3,2.840659340659341
4.205252494000888,2.1234432234432234,3.3,2.840659340659341
4.209328903001733,2.1234432234432234,3.3,2.840659340659341
4.212227267998969,1.531135531135531,1.4763369963369963,2.2644688644688644
4.218467945000157,1.531135531135531,1.4763369963369963,2.2644688644688644
4.221724242001073,0.8719413919413919,2.166153846153846,3.3
4.2220232389991,0.9484981684981684,2.046080586080586,1.1539926739926738
4.226594157000363,0.9484981684981684,2.046080586080586,1.1539926739926738
4.227388242998131,0.9484981684981684,2.046080586080586,1.1539926739926738
4.229717469999741,0.9484981684981684,2.046080586080586,1.1539926739926738
4.229919074998179,0.9484981684981684,2.046080586080586,1.1539926739926738
4.237290140001278,0.9484981684981684,2.046080586080586,1.1539926739926738
4.242729255998711,0.9476923076923076,2.3506959706959707,2.2056410256410253
4.243002436000097,0.9476923076923076,2.3506959706959707,2.2056410256410253
4.247363196998776,0.9476923076923076,2.3506959706959707,2.2056410256410253
4.2490810269991925,0.9476923076923076,2.3506959706959707,2.2056410256410253
4.253563809001207,0.9476923076923076,2.3506959706959707,2.2056410256410253
4.253762549000385,0.9476923076923076,2.3506959706959707,2.2056410256410253
4.258383342999878,0.9476923076923076,2.3506959706959707,2.2056410256410253
4.259233265998773,0.7623443223443224,1.6447619047619046,1.9646886446886445
4.260069127998577,0.7623443223443224,1.6447619047619046,1.9646886446886445
4.261642255998595,0.7623443223443224,1.6447619047619046,1.9646886446886445
4.266085077000753,0.7623443223443224,1.6447619047619046,1.9646886446886445
4.267552040000737,0.7623443223443224,1.6447619047619046,1.9646886446886445
4.273332576998655,0.7623443223443224,1.6447619047619046,1.9646886446886445
4.278523476001283,1.2531135531135529,2.5441025641025643,2.5473260073260073
4.281400977000885,1.2531135531135529,2.5441025641025643,2.5473260073260073
4.287057382000057,0.8437362637362636,2.3547252747252747,1.3208058608058608
4.29179965000003,0.8437362637362636,2.3547252747252747,1.3208058608058608
4.291954255000746,0.8437362637362636,2.3547252747252747,1.3208058608058608
4.296539833001589,0.8437362637362636,2.3547252747252747,1.3208058608058608
4.297348460000649,0.8437362637362636,2.3547252747252747,1.3208058608058608
4.29969042599987,0.8437362637362636,2.3547252747252747,1.3208058608058608
4.299932051999349,2.345054945054945,2.5400732600732603,2.5626373626373624
4.306069187998219,2.345054945054945,2.5400732600732603,2.5626373626373624
4.309240601000056,1.2079853479853477,1.108058608058608,0.7405860805860806
4.310777018999943,1.4626373626373625,3.3,3.3
4.31436911000128,1.4626373626373625,3.3,3.3
4.314562743998977,1.4626373626373625,3.3,3.3
4.321459836999566,1.4626373626373625,3.3,3.3
4.32509477900021,1.4626373626373625,3.3,3.3
4.325301479999325,1.4626373626373625,3.3,3.3
4.329489348001516,1.4626373626373625,3.3,3.3
4.331850515998667,0.33282051282051284,0.4279120879120879,0.792967032967033
4.332065236001654,0.33282051282051284,0.4279120879120879,0.792967032967033
4.3398138740012655,0.33282051282051284,0.4279120879120879,0.792967032967033
4.344158006999351,0.33282051282051284,0.4279120879120879,0.792967032967033
4.346353329001431,0.33282051282051284,0.4279120879120879,0.792967032967033
4.347204467998381,0.6334065934065934,0.4698168498168498,0.5641025641025641
4.34940300100061,0.6334065934065934,0.4698168498168498,0.5641025641025641
4.350633284000651,0.6334065934065934,0.4698168498168498,0.5641025641025641
4.350926024999353,0.6334065934065934,0.4698168498168498,0.5641025641025641
4.356378066000616,0.6334065934065934,0.4698168498168498,0.5641025641025641
4.356598407001002,0.6334065934065934,0.4698168498168498,0.5641025641025641
4.361479466999299,0.6334065934065934,0.4698168498168498,0.5641025641025641
4.36159576800128,0.3876190476190476,3.3,3.1605860805860804
4.366586903001007,0.3876190476190476,3.3,3.1605860805860804
4.374831938999705,0.6076190476190476,0.5205860805860806,0.6414652014652015
4.382116731998394,0.6076190476190476,0.5205860805860806,0.6414652014652015
4.38932028599811,0.6076190476190476,0.5205860805860806,0.6414652014652015
4.3942232619992865,0.6076190476190476,0.5205860805860806,0.6414652014652015
4.3992245420013205,0.0,0.9138461538461539,0.6366300366300366
4.404603489001602,0.0,0.9138461538461539,0.6366300366300366
4.405253174998506,0.0,0.9138461538461539,0.6366300366300366
4.408844517998659,0.0,0.9138461538461539,0.6366300366300366
4.418608989999484,2.464322344322344,3.3,2.756043956043956
4.429833235000842,2.464322344322344,3.3,2.756043956043956
4.4433707850002975,2.464322344322344,3.3,2.756043956043956
4.45569912299834,1.2837362637362637,3.3,3.3
4.464736385998549,1.2837362637362637,3.3,3.3
4.471763233999809,1.2837362637362637,3.3,3.3
4.478359754000849,1.2837362637362637,3.3,3.3
4.481803006001428,1.2837362637362637,3.3,3.3
4.482016800000565,1.2837362637362637,3.3,3.3
4.4890619549987605,1.2837362637362637,3.3,3.3
4.49295278900172,1.2837362637362637,3.3,3.3
4.497035434000281,1.3417582417582417,2.5400732600732603,2.54974358974359
4.5009633189984015,0.8590476190476191,2.112161172161172,1.9082783882783882
4.504653733998566,0.8590476190476191,2.112161172161172,1.9082783882783882
4.508741177000047,0.8590476190476191,2.112161172161172,1.9082783882783882
4.51119575499979,0.8590476190476191,2.112161172161172,1.9082783882783882
4.511365515998477,0.8590476190476191,2.112161172161172,1.9082783882783882
4.515971749999153,0.06366300366300366,1.0258608058608059,0.8252014652014652
4.516299347000313,0.06366300366300366,1.0258608058608059,0.8252014652014652
4.523387676999846,0.06366300366300366,1.0258608058608059,0.8252014652014652
4.527460244000395,0.06366300366300366,1.0258608058608059,0.8252014652014652
4.530792682999163,0.06366300366300366,1.0258608058608059,0.8252014652014652
4.531719878999866,0.06366300366300366,1.0258608058608059,0.8252014652014652
4.533503664999444,0.06366300366300366,1.0258608058608059,0.8252014652014652
4.538206422999792,0.06366300366300366,1.0258608058608059,0.8252014652014652
4.543832300998474,0.06366300366300366,1.0258608058608059,0.8252014652014652
4.554045100998337,1.2015384615384614,2.2282051282051283,1.0484249084249082
4.560384667998733,0.8082783882783882,0.7583150183150182,0.6164835164835165
4.5640534259982815,0.8082783882783882,0.7583150183150182,0.6164835164835165
4.564229761999741,0.8082783882783882,0.7583150183150182,0.6164835164835165
4.571569455001736,0.8082783882783882,0.7583150183150182,0.6164835164835165
4.574517347999063,0.8082783882783882,0.7583150183150182,0.6164835164835165
4.5774628079998365,0.8082783882783882,0.7583150183150182,0.6164835164835165
4.580374361001304,0.8082783882783882,0.7583150183150182,0.6164835164835165
4.585549366998748,0.8082783882783882,0.7583150183150182,0.6164835164835165
4.588769912999851,0.8308424908424907,1.1564102564102563,0.7816849816849816
4.589060668000457,0.8308424908424907,1.1564102564102563,0.7816849816849816
4.593830712001363,0.8308424908424907,1.1564102564102563,0.7816849816849816
4.594021550001344,0.0,0.6882051282051282,0.6390476190476191
4.599071397999069,1.2144322344322345,3.3,3.3
4.604116938000516,1.2144322344322345,3.3,3.3
4.607052583000041,1.2144322344322345,3.3,3.3
4.609474026001408,1.5835164835164834,3.3,2.813260073260073
4.609665207000944,1.5835164835164834,3.3,2.813260073260073
4.614358471000742,1.5835164835164834,3.3,2.813260073260073
4.614557835000596,1.5835164835164834,3.3,2.813260073260073
4.622512727000867,1.5835164835164834,3.3,2.813260073260073
4.626857562001533,0.21999999999999997,2.904322344322344,2.0525274725274723
4.628337479000038,0.21999999999999997,2.904322344322344,2.0525274725274723
4.634441499998502,0.21999999999999997,2.904322344322344,2.0525274725274723
4.6385137860015675,1.324029304029304,2.5473260073260073,3.3
4.640727379999589,1.324029304029304,2.5473260073260073,3.3
4.641811811001389,1.324029304029304,2.5473260073260073,3.3
4.642130911001004,1.324029304029304,2.5473260073260073,3.3
4.647117325999716,1.324029304029304,2.5473260073260073,3.3
4.653271642000618,1.324029304029304,2.5473260073260073,3.3
4.658355483999912,1.324029304029304,2.5473260073260073,3.3
4.663482457999635,1.432014652014652,3.3,3.3
4.665283186001034,1.432014652014652,3.3,3.3
4.670396189001622,1.432014652014652,3.3,3.3
4.6707171329981065,1.432014652014652,3.3,3.3
4.6760450239999045,1.432014652014652,3.3,3.3
4.678261615001247,1.432014652014652,3.3,3.3
4.678528898999502,1.2974358974358973,3.1283516483516483,3.3
4.682727481998882,1.2974358974358973,3.1283516483516483,3.3
4.685714019000443,0.8316483516483516,2.5070329670329667,1.506153846153846
4.688874864001264,0.8316483516483516,2.5070329670329667,1.506153846153846
4.689158447999944,0.8316483516483516,2.5070329670329667,1.506153846153846
4.694067198000994,0.8316483516483516,2.5070329670329667,1.506153846153846
4.700021704000392,1.4167032967032966,3.3,3.3
4.707227083999896,1.4167032967032966,3.3,3.3
4.71152508600062,1.4167032967032966,3.3,3.3
4.713695493999694,1.4167032967032966,3.3,3.3
4.714548142001149,1.4167032967032966,3.3,3.3
4.717555619998166,1.2901831501831502,3.3,3.3
4.719667278000998,1.2901831501831502,3.3,3.3
4.719976033000421,1.2901831501831502,3.3,3.3
4.7258933470002376,1.2901831501831502,3.3,3.3
4.730148758000723,1.0943589743589743,1.1177289377289377,0.689010989010989
4.73254655799974,1.51018315018315,1.5198534798534797,2.352307692307692
4.7328534180014685,1.51018315018315,1.5198534798534797,2.352307692307692
4.737970673999371,1.51018315018315,1.5198534798534797,2.352307692307692
4.740201729000546,0.7083516483516483,1.4964835164835164,1.904249084249084
4.741017275999184,0.7083516483516483,1.4964835164835164,1.904249084249084
4.742622188998212,0.7083516483516483,1.4964835164835164,1.904249084249084
4.746386691000225,0.7083516483516483,1.4964835164835164,1.904249084249084
4.752179710001656,0.5729670329670329,0.49882783882783877,0.5286446886446886
4.752291487999173,0.0975091575091575,0.9347985347985347,0.8364835164835164
4.758403484000155,0.0975091575091575,0.9347985347985347,0.8364835164835164
4.763029997000558,0.0975091575091575,0.9347985347985347,0.8364835164835164
4.763134647000697,0.0410989010989011,2.905128205128205,2.2322344322344323
4.770653889998357,0.0410989010989011,2.905128205128205,2.2322344322344323
4.776736788000562,1.8123809523809524,2.714139194139194,3.3
4.781371994999063,1.8123809523809524,2.714139194139194,3.3
4.7917940609986545,1.8123809523809524,2.714139194139194,3.3
4.796324309998454,1.0903296703296703,1.1314285714285715,0.751062271062271
4.797088202998566,1.0903296703296703,1.1314285714285715,0.751062271062271
4.798702546999266,1.0903296703296703,1.1314285714285715,0.751062271062271
4.809732599998824,1.0903296703296703,1.1314285714285715,0.751062271062271
4.817624184001033,0.7857142857142856,0.46498168498168496,0.5415384615384615
4.823689756998647,0.7857142857142856,0.46498168498168496,0.5415384615384615
4.828743187001237,0.7857142857142856,0.46498168498168496,0.5415384615384615
4.831092743999761,0.7857142857142856,0.46498168498168496,0.5415384615384615
4.8313538459988195,0.7857142857142856,0.46498168498168496,0.5415384615384615
4.839696482998988,0.7857142857142856,0.46498168498168496,0.5415384615384615
4.844948377998662,0.7857142857142856,0.46498168498168496,0.5415384615384615
4.848292825001408,0.46820512820512816,0.5931135531135531,0.46820512820512816
4.848580593999941,2.9808791208791208,2.552967032967033,2.5626373626373624
4.856634684998426,2.9808791208791208,2.552967032967033,2.5626373626373624
4.860980353001651,0.51010989010989,1.2966300366300365,1.9985347985347983
4.862589565000235,0.51010989010989,1.2966300366300365,1.9985347985347983
4.867753189999348,0.51010989010989,1.2966300366300365,1.9985347985347983
4.87207438599944,0.51010989010989,1.2966300366300365,1.9985347985347983
4.8723842899999,0.51010989010989,1.2966300366300365,1.9985347985347983
4.8767380280005455,0.51010989010989,1.2966300366300365,1.9985347985347983
4.878320227999211,0.51010989010989,1.2966300366300365,1.9985347985347983
4.88324201100113,0.51010989010989,1.2966300366300365,1.9985347985347983
4.890887172998191,0.51010989010989,1.2966300366300365,1.9985347985347983
4.896039273000497,0.51010989010989,1.2966300366300365,1.9985347985347983
4.900662356001703,0.3626373626373626,1.4634432234432233,1.290989010989011
4.9008484830010275,0.381978021978022,2.4087179487179484,1.3836630036630035
4.906987487000151,0.381978021978022,2.4087179487179484,1.3836630036630035
4.91066439199858,1.5835164835164834,3.3,3.3
4.910888221998903,0.0,0.7623443223443224,0.6116483516483516
4.91610462799872,0.0,0.7623443223443224,0.6116483516483516
4.921301644000778,0.0,0.7623443223443224,0.6116483516483516
4.923112960001163,0.0,0.7623443223443224,0.6116483516483516
4.925330669000687,0.0,0.7623443223443224,0.6116483516483516
4.926144708999345,0.7284981684981684,0.4198534798534798,0.5157509157509157
4.92768400299974,0.7284981684981684,0.4198534798534798,0.5157509157509157
4.93283701800101,0.7284981684981684,0.4198534798534798,0.5157509157509157
4.937628370000311,0.7284981684981684,0.4198534798534798,0.5157509157509157
4.942250372001581,0.6132600732600733,1.6794139194139193,1.7890109890109889
4.942418834998534,0.6132600732600733,1.6794139194139193,1.7890109890109889
4.947163344000728,0.6132600732600733,1.6794139194139193,1.7890109890109889
4.947298155999306,0.6132600732600733,1.6794139194139193,1.7890109890109889
4.954390664999664,0.6132600732600733,1.6794139194139193,1.7890109890109889
4.959664248999616,0.1095970695970696,0.9025641025641026,0.722051282051282
4.960823370998696,0.1095970695970696,0.9025641025641026,0.722051282051282
4.96116723600062,0.1095970695970696,0.9025641025641026,0.722051282051282
4.970097125999018,0.1095970695970696,0.9025641025641026,0.722051282051282
4.977275550998456,0.6068131868131869,0.5463736263736263,0.5963369963369963
4.9820921440004895,0.6068131868131869,0.5463736263736263,0.5963369963369963
4.9917214720007905,0.6068131868131869,0.5463736263736263,0.5963369963369963
5.000893035001354,0.6148717948717949,1.0782417582417583,0.747032967032967
5.00611913800094,0.5906959706959707,0.8066666666666666,1.751135531135531
5.008276314001705,1.0258608058608059,0.9694505494505494,0.6124542124542125
5.009955089000869,1.0258608058608059,0.9694505494505494,0.6124542124542125
5.012934286998643,1.270842490842491,1.2353846153846153,2.063003663003663
5.015972755001712,1.270842490842491,1.2353846153846153,2.063003663003663
5.019653560000734,1.270842490842491,1.2353846153846153,2.063003663003663
5.024578053998994,0.28124542124542123,2.6633699633699632,1.851062271062271
5.028887284999655,0.28124542124542123,2.6633699633699632,1.851062271062271
5.030490479999571,0.28124542124542123,2.6633699633699632,1.851062271062271
5.0364638210012345,0.28124542124542123,2.6633699633699632,1.851062271062271
5.040970840000227,0.6390476190476191,1.2506959706959706,1.8567032967032966
5.041159276999679,0.6390476190476191,1.2506959706959706,1.8567032967032966
5.046747298998525,0.6390476190476191,1.2506959706959706,1.8567032967032966
5.048210831999313,0.6390476190476191,1.2506959706959706,1.8567032967032966
5.054482860999997,0.6390476190476191,1.2506959706959706,1.8567032967032966
5.059705945001042,0.6390476190476191,1.2506959706959706,1.8567032967032966
5.061232836000272,0.6390476190476191,1.2506959706959706,1.8567032967032966
5.0680089609995775,0.6390476190476191,1.2506959706959706,1.8567032967032966
5.073974768998596,0.5471794871794872,0.5068864468864469,0.5302564102564102
5.078766253998765,0.5471794871794872,0.5068864468864469,0.5302564102564102
5.085764831001143,1.5206593406593405,3.3,2.8253479853479853
5.091140625001572,1.5206593406593405,3.3,2.8253479853479853
5.092634772001475,1.7076190476190476,3.3,2.840659340659341
5.098601319001318,1.7076190476190476,3.3,2.840659340659341
5.104320547998213,1.7076190476190476,3.3,2.840659340659341
5.112311859000329,1.0435897435897434,1.3369230769230769,0.8453479853479853
5.119262596999761,1.0435897435897434,1.3369230769230769,0.8453479853479853
5.12428220899892,1.0435897435897434,1.3369230769230769,0.8453479853479853
5.129940300001181,1.0532600732600732,1.0476190476190474,0.6301831501831501
5.138489904999005,1.7769230769230768,1.7656410256410255,2.647252747252747
5.142717434999213,1.7769230769230768,1.7656410256410255,2.647252747252747
5.144269157000963,1.7769230769230768,1.7656410256410255,2.647252747252747
5.148663003001275,0.6438827838827839,0.42388278388278383,0.6511355311355311
5.151495997000893,0.6438827838827839,0.42388278388278383,0.6511355311355311
5.156705983001302,0.6438827838827839,0.42388278388278383,0.6511355311355311
5.15822562899848,1.008131868131868,2.3877655677655674,3.163003663003663
5.162246308998874,1.008131868131868,2.3877655677655674,3.163003663003663
5.165950544000225,1.008131868131868,2.3877655677655674,3.163003663003663
5.1729103610014135,1.008131868131868,2.3877655677655674,3.163003663003663
5.176858539998648,0.08703296703296703,0.7365567765567765,0.6938461538461538
5.180617181998969,0.08703296703296703,0.7365567765567765,0.6938461538461538
5.180729913998221,0.08703296703296703,0.7365567765567765,0.6938461538461538
5.1858264910006255,0.755091575091575,2.1919413919413917,1.1862271062271061
5.189537056001427,0.755091575091575,2.1919413919413917,1.1862271062271061
5.194553930999973,0.755091575091575,2.1919413919413917,1.1862271062271061
5.1989921200001845,0.8074725274725274,2.840659340659341,2.7697435897435896
5.199791071998334,0.8074725274725274,2.840659340659341,2.7697435897435896
5.201950227998168,0.8074725274725274,2.840659340659341,2.7697435897435896
5.202747750998242,0.8074725274725274,2.840659340659341,2.7697435897435896
5.204869078999764,0.8074725274725274,2.840659340659341,2.7697435897435896
5.205685838998761,0.8074725274725274,2.840659340659341,2.7697435897435896
5.207826273999672,0.8074725274725274,2.840659340659341,2.7697435897435896
5.2086827979983354,0.8074725274725274,2.840659340659341,2.7697435897435896
5.21005726400108,0.8074725274725274,2.840659340659341,2.7697435897435896
5.210233368001354,0.8074725274725274,2.840659340659341,2.7697435897435896
5.2152033769998525,0.8074725274725274,2.840659340659341,2.7697435897435896
5.219111566999345,1.4449084249084247,3.3,3.3
5.222824653999851,1.4449084249084247,3.3,3.3
5.227283063999494,1.4449084249084247,3.3,3.3
5.228123903998494,1.4449084249084247,3.3,3.3
5.2304822740006784,1.4449084249084247,3.3,3.3
5.2306679020002775,2.1024908424908424,2.331355311355311,3.3
5.236291950001032,2.1024908424908424,2.331355311355311,3.3
5.236512044000847,0.32073260073260074,1.547252747252747,1.2837362637362637
5.24145855900133,1.2958241758241758,3.1541391941391943,3.3
5.244984485001623,0.9597802197802198,1.4835897435897436,0.838095238095238
5.245291762999841,0.9597802197802198,1.4835897435897436,0.838095238095238
5.250173070999153,0.9597802197802198,1.4835897435897436,0.838095238095238
5.254434340000444,0.9597802197802198,1.4835897435897436,0.838095238095238
5.256593949001399,0.9597802197802198,1.4835897435897436,0.838095238095238
5.257427100001223,0.9597802197802198,1.4835897435897436,0.838095238095238
5.259600868001144,0.9597802197802198,1.4835897435897436,0.838095238095238
5.260377556998719,0.9597802197802198,1.4835897435897436,0.838095238095238
5.261902430000191,0.9597802197802198,1.4835897435897436,0.838095238095238
5.266176867000468,0.9597802197802198,1.4835897435897436,0.838095238095238
5.268316541001695,0.7518681318681318,0.8824175824175824,0.581025641025641
5.269161824999173,0.7518681318681318,0.8824175824175824,0.581025641025641
5.270698765001725,0.7518681318681318,0.8824175824175824,0.581025641025641
5.274995866999234,0.7518681318681318,0.8824175824175824,0.581025641025641
5.27664387799814,0.7518681318681318,0.8824175824175824,0.581025641025641
5.280748493998544,0.4021245421245421,1.1483516483516483,1.8446153846153845
5.28398155800096,2.013040293040293,3.3,2.855970695970696
5.284921572998428,2.013040293040293,3.3,2.855970695970696
5.286478779999015,0.5552380952380952,0.8888644688644688,0.7599267399267399
5.290801692000969,0.5552380952380952,0.8888644688644688,0.7599267399267399
5.292423514998518,0.5552380952380952,0.8888644688644688,0.7599267399267399
5.296133386000292,0.5552380952380952,0.8888644688644688,0.7599267399267399
5.296280506001494,0.5552380952380952,0.8888644688644688,0.7599267399267399
5.301223062000645,0.5552380952380952,0.8888644688644688,0.7599267399267399
5.306322030999581,0.5552380952380952,0.8888644688644688,0.7599267399267399
5.31049416300084,0.5552380952380952,0.8888644688644688,0.7599267399267399
5.313297517001047,0.5552380952380952,0.8888644688644688,0.7599267399267399
5.316864117998193,0.5552380952380952,0.8888644688644688,0.7599267399267399
5.317072906000249,0.7655677655677655,1.9864468864468863,2.8245421245421243
5.32212507299846,0.7655677655677655,1.9864468864468863,2.8245421245421243
5.326434507998783,1.606080586080586,3.3,3.3
5.32874676999927,1.606080586080586,3.3,3.3
5.328955286000564,1.606080586080586,3.3,3.3
5.334063602000242,1.606080586080586,3.3,3.3
5.3381425959996704,1.606080586080586,3.3,3.3
5.339801312999043,1.606080586080586,3.3,3.3
5.343380725000316,0.19985347985347984,2.8326007326007323,2.1105494505494504
5.343487253001513,0.19985347985347984,2.8326007326007323,2.1105494505494504
5.34838297999886,0.19985347985347984,2.8326007326007323,2.1105494505494504
5.352632269001333,0.19985347985347984,2.8326007326007323,2.1105494505494504
5.3547960959986085,0.19985347985347984,2.8326007326007323,2.1105494505494504
5.355655043000297,0.19985347985347984,2.8326007326007323,2.1105494505494504
5.357162488999165,0.19985347985347984,2.8326007326007323,2.1105494505494504
5.36143457900107,0.19985347985347984,2.8326007326007323,2.1105494505494504
5.363752029999887,0.2208058608058608,2.9035164835164835,2.0904029304029303
5.363914475001366,0.2208058608058608,2.9035164835164835,2.0904029304029303
5.368909644999803,0.2208058608058608,2.9035164835164835,2.0904029304029303
5.373358316999656,0.2208058608058608,2.9035164835164835,2.0904029304029303
5.37489422499857,0.2208058608058608,2.9035164835164835,2.0904029304029303
5.379607426999428,0.2208058608058608,2.9035164835164835,2.0904029304029303
5.379790882001544,0.2208058608058608,2.9035164835164835,2.0904029304029303
5.384998034998716,0.2208058608058608,2.9035164835164835,2.0904029304029303
5.3880460420004965,0.7647619047619048,0.4827106227106227,0.5818315018315018
5.391336610999133,0.7647619047619048,0.4827106227106227,0.5818315018315018
5.391716056998121,1.3868864468864468,1.2563369963369961,2.1008791208791204
5.397035082998627,1.3868864468864468,1.2563369963369961,2.1008791208791204
5.398578461001307,1.3119413919413918,3.3,3.3
5.405930772001739,2.399047619047619,2.541684981684982,2.5545787545787544
5.411702153000078,2.399047619047619,2.541684981684982,2.5545787545787544
5.41872441400119,1.137069597069597,1.0339194139194139,1.7438827838827837
5.423075984999741,1.137069597069597,1.0339194139194139,1.7438827838827837
5.423977637998178,1.137069597069597,1.0339194139194139,1.7438827838827837
5.4262743379986205,1.137069597069597,1.0339194139194139,1.7438827838827837
5.426528658001189,1.137069597069597,1.0339194139194139,1.7438827838827837
5.431644022999535,1.137069597069597,1.0339194139194139,1.7438827838827837
5.434864049999305,1.137069597069597,1.0339194139194139,1.7438827838827837
5.4360909839997476,1.137069597069597,1.0339194139194139,1.7438827838827837
5.436385493998387,1.137069597069597,1.0339194139194139,1.7438827838827837
5.440771793000749,1.137069597069597,1.0339194139194139,1.7438827838827837
5.441634818998864,1.137069597069597,1.0339194139194139,1.7438827838827837
5.443193710001651,1.137069597069597,1.0339194139194139,1.7438827838827837
5.447409161999531,1.137069597069597,1.0339194139194139,1.7438827838827837
5.449714177000715,1.137069597069597,1.0339194139194139,1.7438827838827837
5.450065936998726,1.137069597069597,1.0339194139194139,1.7438827838827837
5.458407378999254,1.137069597069597,1.0339194139194139,1.7438827838827837
5.465182896998158,1.137069597069597,1.0339194139194139,1.7438827838827837
5.468898537001223,1.137069597069597,1.0339194139194139,1.7438827838827837
5.474054299000272,1.137069597069597,1.0339194139194139,1.7438827838827837
5.476933178000763,1.137069597069597,1.0339194139194139,1.7438827838827837
5.479869108999992,1.137069597069597,1.0339194139194139,1.7438827838827837
5.482986191000236,1.137069597069597,1.0339194139194139,1.7438827838827837
5.486151321001671,1.137069597069597,1.0339194139194139,1.7438827838827837
5.486483918000886,0.6801465201465201,1.1314285714285715,0.7397802197802198
5.490536506000353,0.6801465201465201,1.1314285714285715,0.7397802197802198
5.493422376999661,0.6801465201465201,1.1314285714285715,0.7397802197802198
5.497441935000097,0.6801465201465201,1.1314285714285715,0.7397802197802198
5.503421327000979,0.6801465201465201,1.1314285714285715,0.7397802197802198
5.506733431000612,0.6801465201465201,1.1314285714285715,0.7397802197802198
5.507039980999252,0.6801465201465201,1.1314285714285715,0.7397802197802198
5.511998040998151,0.6801465201465201,1.1314285714285715,0.7397802197802198
5.512095488000341,0.10476190476190475,0.9686446886446887,0.7623443223443224
5.51890382000056,0.10476190476190475,0.9686446886446887,0.7623443223443224
5.522497663001559,2.56989010989011,2.540879120879121,2.5594139194139194
5.527723168001103,2.56989010989011,2.540879120879121,2.5594139194139194
5.531366210998385,2.56989010989011,2.540879120879121,2.5594139194139194
5.531494268001552,2.56989010989011,2.540879120879121,2.5594139194139194
5.538558069001738,2.56989010989011,2.540879120879121,2.5594139194139194
5.542279402998247,1.6205860805860803,3.3,3.3
5.547545238998282,1.6205860805860803,3.3,3.3
5.551780147998215,1.6205860805860803,3.3,3.3
5.553023193999252,1.6205860805860803,3.3,3.3
5.5531937570012815,1.6205860805860803,3.3,3.3
5.558971628001018,1.6205860805860803,3.3,3.3
5.564398570000776,1.058901098901099,2.958315018315018,2.5312087912087913
5.569671518998803,0.9243223443223443,1.9566300366300364,1.0508424908424907
5.569889015001536,0.9243223443223443,1.9566300366300364,1.0508424908424907
5.574939162001101,0.9243223443223443,1.9566300366300364,1.0508424908424907
5.578620527998282,0.9243223443223443,1.9566300366300364,1.0508424908424907
5.5850091819993395,0.9243223443223443,1.9566300366300364,1.0508424908424907
5.589882909000153,0.9243223443223443,1.9566300366300364,1.0508424908424907
5.59548570699917,0.9243223443223443,1.9566300366300364,1.0508424908424907
5.605528879001213,0.9243223443223443,1.9566300366300364,1.0508424908424907
5.610184522000054,0.7583150183150182,1.959047619047619,1.02021978021978
5.610462024000299,0.7583150183150182,1.959047619047619,1.02021978021978
5.615615301001526,0.7583150183150182,1.959047619047619,1.02021978021978
5.6208391430009215,0.7583150183150182,1.959047619047619,1.02021978021978
5.621864797998569,0.7583150183150182,1.959047619047619,1.02021978021978
5.622237342999142,0.7583150183150182,1.959047619047619,1.02021978021978
5.627219336998678,0.7583150183150182,1.959047619047619,1.02021978021978
5.631492642998637,0.7583150183150182,1.959047619047619,1.02021978021978
5.634840197999438,0.7583150183150182,1.959047619047619,1.02021978021978
5.635088765000546,0.7583150183150182,1.959047619047619,1.02021978021978
5.641064194998762,0.7583150183150182,1.959047619047619,1.02021978021978
5.641168179001397,0.7583150183150182,1.959047619047619,1.02021978021978
5.6466183949996775,0.7583150183150182,1.959047619047619,1.02021978021978
5.648779603998264,0.7583150183150182,1.959047619047619,1.02021978021978
5.649893087000237,0.7583150183150182,1.959047619047619,1.02021978021978
5.6504960150014085,0.7583150183150182,1.959047619047619,1.02021978021978
5.655638424999779,0.7583150183150182,1.959047619047619,1.02021978021978
5.658431413001381,0.7583150183150182,1.959047619047619,1.02021978021978
5.662118714000826,0.7583150183150182,1.959047619047619,1.02021978021978
5.667782389999047,0.7583150183150182,1.959047619047619,1.02021978021978
5.667947887999617,0.7583150183150182,1.959047619047619,1.02021978021978
5.674436011999205,2.8414652014652013,2.5521611721611723,2.5586080586080584
5.678275133999705,2.8414652014652013,2.5521611721611723,2.5586080586080584
5.682786311001109,2.8414652014652013,2.5521611721611723,2.5586080586080584
5.684447986001032,2.8414652014652013,2.5521611721611723,2.5586080586080584
5.690884601001017,2.8414652014652013,2.5521611721611723,2.5586080586080584
5.694100954999158,2.8414652014652013,2.5521611721611723,2.5586080586080584
5.695727669000917,2.8414652014652013,2.5521611721611723,2.5586080586080584
5.69943477400011,2.8414652014652013,2.5521611721611723,2.5586080586080584
5.7071420200009015,1.2434432234432233,2.735897435897436,3.3
5.711438504000398,1.2434432234432233,2.735897435897436,3.3
5.713232668000273,1.2434432234432233,2.735897435897436,3.3
5.716594327001076,1.2434432234432233,2.735897435897436,3.3
5.717163064000488,1.2434432234432233,2.735897435897436,3.3
5.7204852780014335,1.2434432234432233,2.735897435897436,3.3
5.7207845660013845,3.0066666666666664,2.5594139194139194,2.569084249084249
5.72515848400144,3.0066666666666664,2.5594139194139194,2.569084249084249
5.72668621900084,3.0066666666666664,2.5594139194139194,2.569084249084249
5.7313756399998965,3.0066666666666664,2.5594139194139194,2.569084249084249
5.73157092800102,3.0066666666666664,2.5594139194139194,2.569084249084249
5.738024870999652,3.0066666666666664,2.5594139194139194,2.569084249084249
5.741088162001688,3.0066666666666664,2.5594139194139194,2.569084249084249
5.743340770000941,3.0066666666666664,2.5594139194139194,2.569084249084249
5.744130443999893,0.7776556776556776,1.0282783882783881,0.9388278388278387
5.74569942800008,0.7776556776556776,1.0282783882783881,0.9388278388278387
5.751286523998715,0.7776556776556776,1.0282783882783881,0.9388278388278387
5.751589883999259,2.2717216117216115,3.3,2.855970695970696
5.757218736998766,2.2717216117216115,3.3,2.855970695970696
5.757408945999487,2.2717216117216115,3.3,2.855970695970696
5.761934729998757,2.2717216117216115,3.3,2.855970695970696
5.7622940900000685,2.2717216117216115,3.3,2.855970695970696
5.768422107001243,2.2717216117216115,3.3,2.855970695970696
5.77360760800002,2.2717216117216115,3.3,2.855970695970696
5.775103050000325,0.21274725274725276,0.921098901098901,0.7784615384615384
5.779324855000596,0.8622710622710623,2.449010989010989,2.1685714285714286
5.7822123510013625,0.8622710622710623,2.449010989010989,2.1685714285714286
5.788016095000785,0.8622710622710623,2.449010989010989,2.1685714285714286
5.792870492001384,0.8622710622710623,2.449010989010989,2.1685714285714286
5.797159188998194,0.8622710622710623,2.449010989010989,2.1685714285714286
5.799354784998286,0.8622710622710623,2.449010989010989,2.1685714285714286
