time,emg1,emg2,emg3
0.030724182000994915,1.1983150183150182,0.5109157509157509,0.6753113553113552
0.031040866000694223,1.7873992673992671,0.43758241758241756,0.6052014652014651
0.03997972800061689,1.7873992673992671,0.43758241758241756,0.6052014652014651
0.04902247800055193,1.8639560439560439,0.6559706959706959,0.70996336996337
0.057392439997784095,1.8027106227106224,0.3658608058608058,0.5399267399267399
0.06540355199831538,1.8027106227106224,0.3658608058608058,0.5399267399267399
0.0699839000008069,2.1516483516483516,0.6801465201465201,0.6543589743589743
0.07015961800061632,2.1516483516483516,0.6801465201465201,0.6543589743589743
0.07533336599954055,2.1516483516483516,0.6801465201465201,0.6543589743589743
0.07875344499916537,2.1516483516483516,0.6801465201465201,0.6543589743589743
0.07892732899927069,2.1516483516483516,0.6801465201465201,0.6543589743589743
0.08420007599852397,2.1516483516483516,0.6801465201465201,0.6543589743589743
0.08958085799895343,1.9719413919413917,0.39567765567765567,0.689010989010989
0.08986308599924087,1.9719413919413917,0.39567765567765567,0.689010989010989
0.09619179099900066,1.9719413919413917,0.39567765567765567,0.689010989010989
0.10011998499976471,2.6682051282051282,3.0276190476190474,3.3
0.10392138099996373,3.3,3.106593406593406,2.5868131868131865
0.1083697129979555,2.698021978021978,0.5971428571428571,0.7623443223443224
0.1092754729979788,2.698021978021978,0.5971428571428571,0.7623443223443224
0.11087198400127818,2.698021978021978,0.5971428571428571,0.7623443223443224
0.11453689300105907,2.698021978021978,0.5971428571428571,0.7623443223443224
0.11473204999856534,2.698021978021978,0.5971428571428571,0.7623443223443224
0.11989351599913789,2.698021978021978,0.5971428571428571,0.7623443223443224
0.12280982100128313,2.698021978021978,0.5971428571428571,0.7623443223443224
0.12571352300074068,2.698021978021978,0.5971428571428571,0.7623443223443224
0.12863289799861377,2.698021978021978,0.5971428571428571,0.7623443223443224
0.13153648200022872,2.685934065934066,3.3,3.3
0.1345053069999267,2.6875457875457873,2.548937728937729,2.5642490842490844
0.13751468600094086,2.6875457875457873,2.548937728937729,2.5642490842490844
0.14009843399981037,2.6875457875457873,2.548937728937729,2.5642490842490844
0.14853550200132304,2.6875457875457873,2.548937728937729,2.5642490842490844
0.15260056799888844,2.6875457875457873,2.548937728937729,2.5642490842490844
0.15625397599796997,2.6875457875457873,2.548937728937729,2.5642490842490844
0.16150084000037168,2.6875457875457873,2.548937728937729,2.5642490842490844
0.1652121109982545,2.6875457875457873,2.548937728937729,2.5642490842490844
0.1695885150002141,2.6875457875457873,2.548937728937729,2.5642490842490844
0.1711248780011374,2.6875457875457873,2.548937728937729,2.5642490842490844
0.17537938600071357,2.6875457875457873,2.548937728937729,2.5642490842490844
0.17777595900042797,2.6875457875457873,2.548937728937729,2.5642490842490844
0.17789532499955385,2.6875457875457873,2.548937728937729,2.5642490842490844
0.18274946399833425,2.6875457875457873,2.548937728937729,2.5642490842490844
0.18291142999805743,2.6875457875457873,2.548937728937729,2.5642490842490844
0.18759171100100502,2.6875457875457873,2.548937728937729,2.5642490842490844
0.1877757379988907,2.7165567765567764,3.3,3.3
0.19236657800138346,2.7165567765567764,3.3,3.3
0.19264320300135296,3.3,3.0808058608058606,3.3
0.19759978499860154,3.3,3.0808058608058606,3.3
0.20309306700073648,3.3,3.0808058608058606,3.3
0.20336346899784985,1.5488644688644688,0.5076923076923077,0.6156776556776556
0.2106802880007308,1.5488644688644688,0.5076923076923077,0.6156776556776556
0.21547857200130238,1.5488644688644688,0.5076923076923077,0.6156776556776556
0.22650935199999367,1.5488644688644688,0.5076923076923077,0.6156776556776556
0.23560266200001934,2.313626373626373,0.38358974358974357,0.7212454212454212
0.24158615399937844,2.6956043956043954,3.248424908424908,3.3
0.24753249900095398,2.6956043956043954,3.248424908424908,3.3
0.2519268819996796,2.6956043956043954,3.248424908424908,3.3
0.2535064939984295,3.3,3.2387545787545786,2.5924542124542125
0.2587671559995215,3.3,3.2387545787545786,2.5924542124542125
0.2596646199999668,3.3,3.2387545787545786,2.5924542124542125
0.26211288400008925,3.3,3.2387545787545786,2.5924542124542125
0.2681699659988226,3.3,3.2387545787545786,2.5924542124542125
0.2744577029989159,3.3,3.2387545787545786,2.5924542124542125
0.27795726000113063,3.3,3.2387545787545786,2.5924542124542125
0.278083023000363,3.3,3.2387545787545786,2.5924542124542125
0.2846718319997308,3.3,3.2387545787545786,2.5924542124542125
0.29078077699887217,3.3,3.2387545787545786,2.5924542124542125
0.2950519059995713,2.6577289377289377,1.1177289377289377,1.7446886446886447
0.2953520259979996,2.6577289377289377,1.1177289377289377,1.7446886446886447
0.30065147200002684,2.6577289377289377,1.1177289377289377,1.7446886446886447
0.30431426799987094,2.6577289377289377,1.1177289377289377,1.7446886446886447
0.30983282499801135,2.6577289377289377,1.1177289377289377,1.7446886446886447
0.3099847619996581,2.6577289377289377,1.1177289377289377,1.7446886446886447
0.3147815320007794,2.6577289377289377,1.1177289377289377,1.7446886446886447
0.31492082299882895,2.6617582417582417,2.320879120879121,2.3257142857142856
0.3220582350004406,2.6617582417582417,2.320879120879121,2.3257142857142856
0.32754958100122167,2.6617582417582417,2.320879120879121,2.3257142857142856
0.32790470300096786,2.718168498168498,3.3,3.3
0.33440978300131974,2.718168498168498,3.3,3.3
0.33985029199902783,2.713333333333333,2.5441025641025643,2.5674725274725274
0.34002527600023313,0.6511355311355311,0.3997069597069597,0.5665201465201465
0.3456627679988742,0.6511355311355311,0.3997069597069597,0.5665201465201465
0.3459297820008942,3.3,0.5632967032967032,0.5786080586080585
0.3507837869983632,3.3,0.5632967032967032,0.5786080586080585
0.3509374819986988,3.3,0.5632967032967032,0.5786080586080585
0.3568995929999801,3.3,0.5632967032967032,0.5786080586080585
0.36263843000051565,3.3,0.5632967032967032,0.5786080586080585
0.3628876599977957,0.5205860805860806,0.929157509157509,2.141978021978022
0.3674867240006279,0.5205860805860806,0.929157509157509,2.141978021978022
0.3677640989990323,2.690769230769231,2.3926007326007324,3.00989010989011
0.3741284950010595,2.690769230769231,2.3926007326007324,3.00989010989011
0.37749110399818164,2.690769230769231,2.3926007326007324,3.00989010989011
0.37837439500071923,2.690769230769231,2.3926007326007324,3.00989010989011
0.3793247780013189,2.690769230769231,2.3926007326007324,3.00989010989011
0.3809727970001404,2.690769230769231,2.3926007326007324,3.00989010989011
0.38415700900077354,2.690769230769231,2.3926007326007324,3.00989010989011
0.38641625400123303,3.3,0.7816849816849816,0.7897435897435897
0.3867238909988373,3.3,0.7816849816849816,0.7897435897435897
0.3933507000001555,3.3,0.7816849816849816,0.7897435897435897
0.39732460899904254,3.3,0.7816849816849816,0.7897435897435897
0.40203313600068213,3.3,0.7816849816849816,0.7897435897435897
0.40215252000052715,3.3,0.7816849816849816,0.7897435897435897
0.40909065500090946,3.3,0.7816849816849816,0.7897435897435897
0.4130587010004092,2.6923809523809523,1.1757509157509156,1.4884249084249084
0.41688678200080176,2.6923809523809523,1.1757509157509156,1.4884249084249084
0.4222087769994687,2.6923809523809523,1.1757509157509156,1.4884249084249084
0.4232972290010366,2.6923809523809523,1.1757509157509156,1.4884249084249084
0.4242017830001714,2.6923809523809523,1.1757509157509156,1.4884249084249084
0.4252464940000209,2.6923809523809523,1.1757509157509156,1.4884249084249084
0.42622166799992556,2.6923809523809523,1.1757509157509156,1.4884249084249084
0.42717597799855866,2.6923809523809523,1.1757509157509156,1.4884249084249084
0.4281674989979365,2.6923809523809523,1.1757509157509156,1.4884249084249084
0.42916151299868943,2.6923809523809523,1.1757509157509156,1.4884249084249084
0.43016220400022576,2.6923809523809523,1.1757509157509156,1.4884249084249084
0.43101704999935464,2.6923809523809523,1.1757509157509156,1.4884249084249084
0.43258070899901213,2.6923809523809523,1.1757509157509156,1.4884249084249084
0.4374482960010937,2.681098901098901,2.797142857142857,3.00989010989011
0.443142992000503,0.4142124542124542,0.32395604395604394,0.5093040293040293
0.44336525199832977,0.4142124542124542,0.32395604395604394,0.5093040293040293
0.44873057099903235,0.4142124542124542,0.32395604395604394,0.5093040293040293
0.45169541200084495,0.4142124542124542,0.32395604395604394,0.5093040293040293
0.4558070269995369,2.6956043956043954,2.545714285714286,2.561831501831502
0.458649094998691,2.6956043956043954,2.545714285714286,2.561831501831502
0.46185568700093427,2.8245421245421243,0.6833699633699634,0.7478388278388278
0.4627851439981896,2.8245421245421243,0.6833699633699634,0.7478388278388278
0.4644791130012891,2.8245421245421243,0.6833699633699634,0.7478388278388278
0.4684180100011872,2.8245421245421243,0.6833699633699634,0.7478388278388278
0.47775816899957135,2.8245421245421243,0.6833699633699634,0.7478388278388278
0.4842590209991613,2.8245421245421243,0.6833699633699634,0.7478388278388278
0.4905346279992955,1.502930402930403,0.48432234432234433,0.5971428571428571
0.4960688540013507,2.689157509157509,2.772161172161172,3.3
0.5060155249993841,2.689157509157509,2.772161172161172,3.3
0.5144066290013143,2.689157509157509,2.772161172161172,3.3
0.5225781890003418,2.6778754578754578,3.3,2.8382417582417583
0.5272672860010061,2.6778754578754578,3.3,2.8382417582417583
0.5273902160006401,2.6778754578754578,3.3,2.8382417582417583
0.5321533409987751,2.6778754578754578,3.3,2.8382417582417583
0.539265137998882,2.693992673992674,2.5473260073260073,2.5626373626373624
0.5438407580004423,2.693992673992674,2.5473260073260073,2.5626373626373624
0.5440922929992666,2.655311355311355,3.3,2.8414652014652013
0.5487489999977697,2.655311355311355,3.3,2.8414652014652013
0.5489807300000393,2.655311355311355,3.3,2.8414652014652013
0.5560552460010513,2.655311355311355,3.3,2.8414652014652013
0.5616117489989847,2.6964102564102563,2.548937728937729,2.561025641025641
0.561884768998425,2.6964102564102563,2.548937728937729,2.561025641025641
0.5684614649981086,2.6964102564102563,2.548937728937729,2.561025641025641
0.5754812310005946,1.551282051282051,0.3658608058608058,0.9057875457875458
0.5812900800010539,1.551282051282051,0.3658608058608058,0.9057875457875458
0.5899080790004518,1.551282051282051,0.3658608058608058,0.9057875457875458
0.5959059419983532,2.66014652014652,2.1669597069597066,2.8277655677655673
0.59907899099926,2.66014652014652,2.1669597069597066,2.8277655677655673
0.60076146999927,2.66014652014652,2.1669597069597066,2.8277655677655673
0.6071423789981054,2.66014652014652,2.1669597069597066,2.8277655677655673
0.6119823080007336,2.66014652014652,2.1669597069597066,2.8277655677655673
0.6175360209999781,2.689157509157509,2.5400732600732603,2.565860805860806
0.6177259789983509,2.689157509157509,2.5400732600732603,2.565860805860806
0.6280390419997275,2.689157509157509,2.5400732600732603,2.565860805860806
0.6336581389987259,2.6585347985347987,3.3,2.8374358974358973
0.6340451739997661,2.6585347985347987,3.3,2.8374358974358973
0.6414317609996942,2.6585347985347987,3.3,2.8374358974358973
0.6472417320001114,2.6585347985347987,3.3,2.8374358974358973
0.6526591809997626,2.6585347985347987,3.3,2.8374358974358973
0.6540540839996538,2.6585347985347987,3.3,2.8374358974358973
0.6601107610003965,2.6585347985347987,3.3,2.8374358974358973
0.6638077829993563,2.6585347985347987,3.3,2.8374358974358973
0.6681737850012723,2.6585347985347987,3.3,2.8374358974358973
0.6712108729989268,2.6585347985347987,3.3,2.8374358974358973
0.6737145609986328,2.6585347985347987,3.3,2.8374358974358973
0.6783104349997302,3.3,1.5077655677655677,1.0580952380952382
0.6785280529984448,3.3,1.5077655677655677,1.0580952380952382
0.6829776459999266,1.5335531135531135,0.5866666666666667,0.6334065934065934
0.6844868189982662,1.5335531135531135,0.5866666666666667,0.6334065934065934
0.6903608959983103,1.5335531135531135,0.5866666666666667,0.6334065934065934
0.6956276509990857,1.5335531135531135,0.5866666666666667,0.6334065934065934
0.6979574190008861,3.3,1.4070329670329669,0.9742857142857142
0.6981828489988402,3.3,1.4070329670329669,0.9742857142857142
0.7039415670005837,3.3,1.4070329670329669,0.9742857142857142
0.704101006998826,0.8131135531135532,0.42065934065934063,1.0242490842490841
0.7098667030004435,0.8131135531135532,0.42065934065934063,1.0242490842490841
0.7099801900003513,0.8131135531135532,0.42065934065934063,1.0242490842490841
0.7146434179994685,0.8131135531135532,0.42065934065934063,1.0242490842490841
0.7148985079984413,0.8131135531135532,0.42065934065934063,1.0242490842490841
0.7209472779977659,0.8131135531135532,0.42065934065934063,1.0242490842490841
0.7271366179993493,0.8131135531135532,0.42065934065934063,1.0242490842490841
0.7303267999996024,0.8131135531135532,0.42065934065934063,1.0242490842490841
0.7321004500008712,3.3,0.9138461538461539,1.5746520146520147
0.7352801269989868,3.3,0.9138461538461539,1.5746520146520147
0.7397908159982762,3.3,0.9138461538461539,1.5746520146520147
0.7446306390011159,1.7189010989010989,0.630989010989011,0.6052014652014651
0.7498162160009088,1.7189010989010989,0.630989010989011,0.6052014652014651
0.754076981000253,1.7189010989010989,0.630989010989011,0.6052014652014651
0.7557714840004337,1.7189010989010989,0.630989010989011,0.6052014652014651
0.7613844109982892,3.2065201465201465,1.3852747252747253,0.9525274725274724
0.767164477998449,2.3579487179487177,1.3425641025641024,2.9647619047619047
0.7758559510002669,2.3579487179487177,1.3425641025641024,2.9647619047619047
0.7800208170010592,2.921245421245421,2.4788278388278386,3.3
0.7830576289998135,2.921245421245421,2.4788278388278386,3.3
0.7900219219991413,2.921245421245421,2.4788278388278386,3.3
0.7939205020011286,2.921245421245421,2.4788278388278386,3.3
0.7982425619993592,2.921245421245421,2.4788278388278386,3.3
0.7993972599979315,1.8333333333333333,0.6809523809523809,0.6994871794871794
0.7997671779994562,1.8333333333333333,0.6809523809523809,0.6994871794871794
0.8084230120002758,1.8333333333333333,0.6809523809523809,0.6994871794871794
0.812358667000808,0.6446886446886446,0.41018315018315016,1.0097435897435898
0.8171976470002846,0.6446886446886446,0.41018315018315016,1.0097435897435898
0.8274866569990991,0.1668131868131868,0.28285714285714286,0.45369963369963373
0.8332769709995773,0.1668131868131868,0.28285714285714286,0.45369963369963373
0.8333704190008575,0.1668131868131868,0.28285714285714286,0.45369963369963373
0.8403397670008417,0.1668131868131868,0.28285714285714286,0.45369963369963373
0.84458973800065,0.1668131868131868,0.28285714285714286,0.45369963369963373
0.8455144740000833,2.5199267399267398,0.5987545787545787,0.5439560439560439
0.8473286219996226,2.5199267399267398,0.5987545787545787,0.5439560439560439
0.8503101540009084,2.5199267399267398,0.5987545787545787,0.5439560439560439
0.8554295020003337,3.3,3.034065934065934,3.3
0.8574298769999587,3.3,3.034065934065934,3.3
0.8583699480004725,3.3,3.034065934065934,3.3
0.8600308780005435,3.3,3.034065934065934,3.3
0.8639103499990597,3.3,3.034065934065934,3.3
0.8675401069995132,3.3,3.034065934065934,3.3
0.867654951998702,2.5795604395604395,0.630989010989011,0.722051282051282
0.8733744550008851,2.5795604395604395,0.630989010989011,0.722051282051282
0.8736165090012946,2.5795604395604395,0.630989010989011,0.722051282051282
0.8791064149991143,2.5795604395604395,0.630989010989011,0.722051282051282
0.8799590730013733,2.5795604395604395,0.630989010989011,0.722051282051282
0.8815221109980484,0.3312087912087912,0.3852014652014652,0.5173626373626373
0.886512066997966,0.3312087912087912,0.3852014652014652,0.5173626373626373
0.8953743790007138,2.693992673992674,3.3,3.3
0.9002518759989471,2.693992673992674,3.3,3.3
0.9069426770001883,2.693992673992674,3.3,3.3
0.9109413090009184,2.681098901098901,2.3668131868131868,2.9704029304029302
0.914826845000789,2.681098901098901,2.3668131868131868,2.9704029304029302
0.9178423849989485,2.681098901098901,2.3668131868131868,2.9704029304029302
0.9217624480006634,2.681098901098901,2.3668131868131868,2.9704029304029302
0.925204898998345,1.9977289377289376,0.6680586080586081,0.630989010989011
0.9350774669983366,1.9977289377289376,0.6680586080586081,0.630989010989011
0.943082689998846,1.9977289377289376,0.6680586080586081,0.630989010989011
0.9483453159991768,1.9977289377289376,0.6680586080586081,0.630989010989011
0.9499418449995574,2.693186813186813,3.1388278388278383,3.3
0.9539200069993967,2.693186813186813,3.1388278388278383,3.3
0.9596432529979211,2.693186813186813,3.1388278388278383,3.3
0.9598287799999525,3.0195604395604394,0.9912087912087911,0.7430036630036629
0.9643591940002807,3.0195604395604394,0.9912087912087911,0.7430036630036629
0.9652324829985446,3.0195604395604394,0.9912087912087911,0.7430036630036629
0.9668032490008045,3.0195604395604394,0.9912087912087911,0.7430036630036629
0.9737483380013146,3.0195604395604394,0.9912087912087911,0.7430036630036629
0.9804944360002992,3.0195604395604394,0.9912087912087911,0.7430036630036629
0.9842891349981073,3.0195604395604394,0.9912087912087911,0.7430036630036629
0.990839699999924,1.5947985347985347,0.36827838827838827,0.7768498168498168
0.9947252050005773,1.5947985347985347,0.36827838827838827,0.7768498168498168
0.9991377090009337,1.5947985347985347,0.36827838827838827,0.7768498168498168
1.000697848998243,1.5947985347985347,0.36827838827838827,0.7768498168498168
1.0061182919998828,1.5947985347985347,0.36827838827838827,0.7768498168498168
1.0070343139996112,1.5947985347985347,0.36827838827838827,0.7768498168498168
1.0087056490010582,1.5947985347985347,0.36827838827838827,0.7768498168498168
1.0127993380010594,1.5947985347985347,0.36827838827838827,0.7768498168498168
1.0157707489997847,2.1153846153846154,0.8735531135531135,1.3957509157509156
1.0188273200001277,2.1153846153846154,0.8735531135531135,1.3957509157509156
1.0217183519998798,2.1153846153846154,0.8735531135531135,1.3957509157509156
1.0242103679993306,2.1153846153846154,0.8735531135531135,1.3957509157509156
1.0298850930012122,2.1153846153846154,0.8735531135531135,1.3957509157509156
1.0300954060003278,2.1153846153846154,0.8735531135531135,1.3957509157509156
1.0347555240005022,2.1153846153846154,0.8735531135531135,1.3957509157509156
1.0350341909979761,2.693992673992674,3.3,2.8366300366300368
1.0407254620004096,2.693992673992674,3.3,2.8366300366300368
1.0409355749980023,2.693992673992674,3.3,2.8366300366300368
1.0458550629991805,2.693992673992674,3.3,2.8366300366300368
1.0503653160012618,2.693992673992674,3.3,2.8366300366300368
1.0511919849996048,2.693992673992674,3.3,2.8366300366300368
1.0521528940007556,2.693992673992674,3.3,2.8366300366300368
1.054097902000649,2.690769230769231,2.544908424908425,2.5634432234432234
1.0560619220013905,2.690769230769231,2.544908424908425,2.5634432234432234
1.0576923330008867,2.690769230769231,2.544908424908425,2.5634432234432234
1.061501814998337,2.690769230769231,2.544908424908425,2.5634432234432234
1.0658651449994068,2.690769230769231,2.544908424908425,2.5634432234432234
1.0667369189977762,2.690769230769231,2.544908424908425,2.5634432234432234
1.0683649419988797,2.690769230769231,2.544908424908425,2.5634432234432234
1.0730560650008556,2.6682051282051282,1.099194139194139,1.9606593406593404
1.0788904809996893,2.6682051282051282,1.099194139194139,1.9606593406593404
1.079035582999495,2.6682051282051282,1.099194139194139,1.9606593406593404
1.0834530270003597,2.6682051282051282,1.099194139194139,1.9606593406593404
1.0850164740004402,2.6682051282051282,1.099194139194139,1.9606593406593404
1.0890054000010423,2.6682051282051282,1.099194139194139,1.9606593406593404
1.091966861000401,3.3,0.9952380952380951,1.6931135531135528
1.0950219510013994,3.3,0.9952380952380951,1.6931135531135528
1.0976211439992767,2.6585347985347987,1.8704029304029302,1.4038095238095236
1.1027190249988053,2.6585347985347987,1.8704029304029302,1.4038095238095236
1.1068116019996523,1.3288644688644689,0.4383882783882784,0.9412454212454211
1.1102271390009264,3.032454212454212,0.5882783882783883,0.5447619047619047
1.1109999879990937,3.032454212454212,0.5882783882783883,0.5447619047619047
1.1130874859991309,3.032454212454212,0.5882783882783883,0.5447619047619047
1.1139142030006042,3.032454212454212,0.5882783882783883,0.5447619047619047
1.1159446329984348,3.032454212454212,0.5882783882783883,0.5447619047619047
1.117391661999136,3.032454212454212,0.5882783882783883,0.5447619047619047
1.1222087499991176,3.032454212454212,0.5882783882783883,0.5447619047619047
1.1270014910005557,3.032454212454212,0.5882783882783883,0.5447619047619047
1.1272519839985762,3.032454212454212,0.5882783882783883,0.5447619047619047
1.1320487709999725,3.032454212454212,0.5882783882783883,0.5447619047619047
1.1322124379985326,3.032454212454212,0.5882783882783883,0.5447619047619047
1.1369814530007716,3.032454212454212,0.5882783882783883,0.5447619047619047
1.1371140880000894,2.897069597069597,0.6882051282051282,0.6366300366300366
1.1418390139988333,2.897069597069597,0.6882051282051282,0.6366300366300366
1.1421611959995062,2.897069597069597,0.6882051282051282,0.6366300366300366
1.1477309750007407,2.897069597069597,0.6882051282051282,0.6366300366300366
1.1497212670001318,3.2306959706959706,0.6922344322344323,0.9299633699633699
1.151508693001233,3.2306959706959706,0.6922344322344323,0.9299633699633699
1.1542254029991454,3.2306959706959706,0.6922344322344323,0.9299633699633699
1.1583417619985994,3.2306959706959706,0.6922344322344323,0.9299633699633699
1.1608338980004191,3.2306959706959706,0.6922344322344323,0.9299633699633699
1.1660812910013192,1.3997802197802196,0.47465201465201456,0.6253479853479853
1.1689916450013698,1.3997802197802196,0.47465201465201456,0.6253479853479853
1.1717606969978078,1.3997802197802196,0.47465201465201456,0.6253479853479853
1.1756745040001988,1.3997802197802196,0.47465201465201456,0.6253479853479853
1.1800645689982048,3.3,1.0726007326007325,0.8252014652014652
1.1804088190001494,0.6551648351648351,0.3811721611721612,0.5592673992673992
1.18693921600061,0.6551648351648351,0.3811721611721612,0.5592673992673992
1.1926639169978444,0.6551648351648351,0.3811721611721612,0.5592673992673992
1.202244072999747,0.6551648351648351,0.3811721611721612,0.5592673992673992
1.21112344300127,0.6551648351648351,0.3811721611721612,0.5592673992673992
1.2175362489979307,0.6551648351648351,0.3811721611721612,0.5592673992673992
1.2233314100012649,0.6551648351648351,0.3811721611721612,0.5592673992673992
1.2304149869996763,2.0734798534798533,0.35135531135531134,0.8066666666666666
1.2341015649981273,2.0734798534798533,0.35135531135531134,0.8066666666666666
1.2391555510002945,2.0734798534798533,0.35135531135531134,0.8066666666666666
1.243532745000266,2.0734798534798533,0.35135531135531134,0.8066666666666666
1.2451174710004125,2.31040293040293,0.3384615384615384,0.693040293040293
1.2494810739990498,2.31040293040293,0.3384615384615384,0.693040293040293
1.251055914999597,2.6778754578754578,1.7487179487179487,2.1959706959706957
1.2554227789987635,2.6778754578754578,1.7487179487179487,2.1959706959706957
1.256357868998748,2.681098901098901,2.0476923076923077,1.8325274725274725
1.2579610399989178,2.681098901098901,2.0476923076923077,1.8325274725274725
1.2609719899992342,2.681098901098901,2.0476923076923077,1.8325274725274725
1.2634266540007957,2.681098901098901,2.0476923076923077,1.8325274725274725
1.2636094500012405,2.681098901098901,2.0476923076923077,1.8325274725274725
1.267977848998271,2.681098901098901,2.0476923076923077,1.8325274725274725
1.269486555000185,2.6786813186813188,2.0581684981684982,2.8616117216117214
1.2741322769979888,2.6786813186813188,2.0581684981684982,2.8616117216117214
1.2744237820006674,2.6786813186813188,2.0581684981684982,2.8616117216117214
1.278960540999833,2.6786813186813188,2.0581684981684982,2.8616117216117214
1.2797954769994249,2.6786813186813188,2.0581684981684982,2.8616117216117214
1.2813805609985138,2.6786813186813188,2.0581684981684982,2.8616117216117214
1.2852586820008582,2.6786813186813188,2.0581684981684982,2.8616117216117214
1.2896357549980166,2.6786813186813188,2.0581684981684982,2.8616117216117214
1.2913409479988331,2.6786813186813188,2.0581684981684982,2.8616117216117214
1.2943255600002885,2.6786813186813188,2.0581684981684982,2.8616117216117214
1.2973211710013857,2.6786813186813188,2.0581684981684982,2.8616117216117214
1.2994910289999098,2.6786813186813188,2.0581684981684982,2.8616117216117214
1.3009618539981602,2.6786813186813188,2.0581684981684982,2.8616117216117214
1.3050423999993654,2.6786813186813188,2.0581684981684982,2.8616117216117214
1.30858202699892,2.6786813186813188,2.0581684981684982,2.8616117216117214
1.3088592419990164,2.6964102564102563,3.3,3.3
1.3137856370012742,2.6964102564102563,3.3,3.3
1.3180224139978236,2.6714285714285713,2.4627106227106226,2.4175824175824174
1.320458594000229,2.6714285714285713,2.4627106227106226,2.4175824175824174
1.3206435579995741,2.6714285714285713,2.4627106227106226,2.4175824175824174
1.3251451729993278,2.6714285714285713,2.4627106227106226,2.4175824175824174
1.325951228998747,2.6714285714285713,2.4627106227106226,2.4175824175824174
1.327509390997875,2.6714285714285713,2.4627106227106226,2.4175824175824174
1.3318307219997223,2.6714285714285713,2.4627106227106226,2.4175824175824174
1.3334106199981761,2.6714285714285713,2.4627106227106226,2.4175824175824174
1.3378625759978604,2.6714285714285713,2.4627106227106226,2.4175824175824174
1.3381000539993693,2.655311355311355,1.5416117216117216,1.016996336996337
1.3426468789984938,2.655311355311355,1.5416117216117216,1.016996336996337
1.343491677998827,2.655311355311355,1.5416117216117216,1.016996336996337
1.345029510997847,2.655311355311355,1.5416117216117216,1.016996336996337
1.3487624449990108,2.655311355311355,1.5416117216117216,1.016996336996337
1.3488701850001235,2.655311355311355,1.5416117216117216,1.016996336996337
1.353537104998395,2.655311355311355,1.5416117216117216,1.016996336996337
1.3537519560013607,2.6746520146520147,2.4095238095238094,2.324908424908425
1.3581465899987961,2.6746520146520147,2.4095238095238094,2.324908424908425
1.359667934000754,2.6746520146520147,2.4095238095238094,2.324908424908425
1.3641816319977806,2.6746520146520147,2.4095238095238094,2.324908424908425
1.364454417998786,2.6746520146520147,2.4095238095238094,2.324908424908425
1.3689074040012201,2.6746520146520147,2.4095238095238094,2.324908424908425
1.3697989649990632,2.6746520146520147,2.4095238095238094,2.324908424908425
1.3715190059992892,2.6746520146520147,2.4095238095238094,2.324908424908425
1.3752896990008594,2.6746520146520147,2.4095238095238094,2.324908424908425
1.3803709239982709,2.6746520146520147,2.4095238095238094,2.324908424908425
1.3840707989984367,2.6746520146520147,2.4095238095238094,2.324908424908425
1.389143445998343,2.6069597069597066,0.4472527472527472,0.5874725274725274
1.3928182519994152,2.6069597069597066,0.4472527472527472,0.5874725274725274
1.3930207829980645,2.6069597069597066,0.4472527472527472,0.5874725274725274
1.3980973479992826,2.6069597069597066,0.4472527472527472,0.5874725274725274
1.4017794219980715,2.6069597069597066,0.4472527472527472,0.5874725274725274
1.407009028000175,2.6665934065934067,3.3,2.8535531135531134
1.4100107499980368,2.713333333333333,3.3,3.3
1.412280811000528,2.713333333333333,3.3,3.3
1.4125714689980668,2.713333333333333,3.3,3.3
1.4171592710008554,2.713333333333333,3.3,3.3
1.4174245450012677,2.713333333333333,3.3,3.3
1.4216561059984087,2.713333333333333,3.3,3.3
1.4243966249996447,2.713333333333333,3.3,3.3
1.428366451000329,2.713333333333333,3.3,3.3
1.4317753549985355,2.713333333333333,3.3,3.3
1.4325178489998507,2.713333333333333,3.3,3.3
1.4345674209980643,2.713333333333333,3.3,3.3
1.4359630340004514,2.713333333333333,3.3,3.3
1.4406087389979803,2.713333333333333,3.3,3.3
1.4408378750013071,2.713333333333333,3.3,3.3
1.4455288930003007,2.713333333333333,3.3,3.3
1.4457171009999001,2.713333333333333,3.3,3.3
1.4503409040007682,2.713333333333333,3.3,3.3
1.450586906998069,2.713333333333333,3.3,3.3
1.4552268139996158,2.713333333333333,3.3,3.3
1.45544095799778,2.713333333333333,3.3,3.3
1.460129221999523,2.713333333333333,3.3,3.3
1.4604168299993034,2.713333333333333,3.3,3.3
1.4650840520007478,2.713333333333333,3.3,3.3
1.4652296239983116,2.713333333333333,3.3,3.3
1.4699491780011158,2.713333333333333,3.3,3.3
1.4701452420013084,2.713333333333333,3.3,3.3
1.475142055998731,2.713333333333333,3.3,3.3
1.4815488300009747,2.6746520146520147,2.0847619047619044,1.751135531135531
1.4860039089981,2.6746520146520147,2.0847619047619044,1.751135531135531
1.486186326997995,1.9252014652014653,0.3884249084249084,0.5931135531135531
1.4938885839983413,1.9252014652014653,0.3884249084249084,0.5931135531135531
1.5007687319994147,2.6698168498168497,1.6076923076923075,1.157216117216117
1.5042009620010504,2.9986080586080583,3.3,2.7939194139194137
1.504423817001225,2.9986080586080583,3.3,2.7939194139194137
1.5098947070000577,2.9986080586080583,3.3,2.7939194139194137
1.5126445659989258,2.9986080586080583,3.3,2.7939194139194137
1.5176227449992439,2.9986080586080583,3.3,2.7939194139194137
1.521146265000425,2.9986080586080583,3.3,2.7939194139194137
1.530299093999929,2.9986080586080583,3.3,2.7939194139194137
1.5371825529982743,2.9986080586080583,3.3,2.7939194139194137
1.5423035610001534,2.9986080586080583,3.3,2.7939194139194137
1.5456152229999134,2.9986080586080583,3.3,2.7939194139194137
1.5459023609982978,2.9986080586080583,3.3,2.7939194139194137
1.551183616000344,2.9986080586080583,3.3,2.7939194139194137
1.5540333280005143,2.9986080586080583,3.3,2.7939194139194137
1.5574508659992716,2.652087912087912,2.1008791208791204,1.6504029304029304
1.5576428909989772,2.697216117216117,1.9936996336996335,1.3369230769230769
1.5656552559994452,2.697216117216117,1.9936996336996335,1.3369230769230769
1.5733287209986884,2.697216117216117,1.9936996336996335,1.3369230769230769
1.5813042219997442,2.697216117216117,1.9936996336996335,1.3369230769230769
1.5877789939986542,1.2853479853479852,0.5117216117216117,0.5568498168498168
1.5920624069985934,1.2853479853479852,0.5117216117216117,0.5568498168498168
1.5932582860004914,1.2853479853479852,0.5117216117216117,0.5568498168498168
1.593501039998955,1.2853479853479852,0.5117216117216117,0.5568498168498168
1.5985483420008677,1.2853479853479852,0.5117216117216117,0.5568498168498168
1.6036213599982148,1.2853479853479852,0.5117216117216117,0.5568498168498168
1.6073560469994845,1.2853479853479852,0.5117216117216117,0.5568498168498168
1.6125103749982372,1.2853479853479852,0.5117216117216117,0.5568498168498168
1.6154055650004011,1.2853479853479852,0.5117216117216117,0.5568498168498168
1.6189966079982696,1.2853479853479852,0.5117216117216117,0.5568498168498168
1.624514826999075,1.2853479853479852,0.5117216117216117,0.5568498168498168
1.6253778520003834,0.4504761904761904,0.39406593406593404,0.9315750915750916
1.6269768710008066,0.4504761904761904,0.39406593406593404,0.9315750915750916
1.63133080300031,2.71010989010989,3.3,3.3
1.6328578229986306,2.71010989010989,3.3,3.3
1.6365291779984545,2.71010989010989,3.3,3.3
1.6366419519981719,2.71010989010989,3.3,3.3
1.6410582629978308,2.71010989010989,3.3,3.3
1.6419469579996075,2.71010989010989,3.3,3.3
1.6436621120010386,2.71010989010989,3.3,3.3
1.6472922940010903,2.71010989010989,3.3,3.3
1.6525481940007012,2.71010989010989,3.3,3.3
1.6554844040001626,2.71010989010989,3.3,3.3
1.6584342300011485,2.71010989010989,3.3,3.3
1.6613861340010772,2.71010989010989,3.3,3.3
1.6636907969987078,2.71010989010989,3.3,3.3
1.6639526260005368,2.71010989010989,3.3,3.3
1.6706792439981655,2.71010989010989,3.3,3.3
1.6746828350005671,2.415164835164835,0.6043956043956044,0.7961904761904761
1.6770048090002092,2.868058608058608,1.1789743589743589,0.8985347985347985
1.6772363780000887,2.771355311355311,0.8977289377289376,0.8558241758241758
1.682422272999247,2.771355311355311,0.8977289377289376,0.8558241758241758
1.6855247979983687,2.771355311355311,0.8977289377289376,0.8558241758241758
1.687094982000417,2.771355311355311,0.8977289377289376,0.8558241758241758
1.6909321450002608,2.771355311355311,0.8977289377289376,0.8558241758241758
1.6953012220001256,2.771355311355311,0.8977289377289376,0.8558241758241758
1.696835111000837,2.6875457875457873,3.3,2.8430769230769233
1.7013263480002934,2.6875457875457873,3.3,2.8430769230769233
1.7016538829993806,2.6875457875457873,3.3,2.8430769230769233
1.7095273599989014,2.66014652014652,3.3,2.8430769230769233
1.7162715419981396,0.19824175824175824,0.5254212454212454,1.3715750915750915
1.7210471520011197,0.19824175824175824,0.5254212454212454,1.3715750915750915
1.7284721510004601,0.19824175824175824,0.5254212454212454,1.3715750915750915
1.7331082040000183,0.19824175824175824,0.5254212454212454,1.3715750915750915
1.7334111310010485,0.19824175824175824,0.5254212454212454,1.3715750915750915
1.7385754179995274,0.19824175824175824,0.5254212454212454,1.3715750915750915
1.742306642998301,0.19824175824175824,0.5254212454212454,1.3715750915750915
1.747570662999351,0.19824175824175824,0.5254212454212454,1.3715750915750915
1.7513366419989325,0.19824175824175824,0.5254212454212454,1.3715750915750915
1.7565913299986278,2.689157509157509,3.3,2.8422710622710623
1.7589996179995069,2.689157509157509,3.3,2.8422710622710623
1.7591288820003683,2.689157509157509,3.3,2.8422710622710623
1.7664237700009835,2.689157509157509,3.3,2.8422710622710623
1.7711556750000454,2.6649816849816848,3.3,2.763296703296703
1.7713701840002614,2.6649816849816848,3.3,2.763296703296703
1.775956823999877,2.6649816849816848,3.3,2.763296703296703
1.776238916998409,2.6649816849816848,3.3,2.763296703296703
1.7814340879995143,2.6649816849816848,3.3,2.763296703296703
1.7839694329995837,2.6762637362637363,3.3,2.8471062271062273
1.7891936279993388,2.6762637362637363,3.3,2.8471062271062273
1.791545824999048,3.1807326007326004,1.025054945054945,1.739047619047619
1.7917673230003857,3.1807326007326004,1.025054945054945,1.739047619047619
1.7964055039992672,3.1807326007326004,1.025054945054945,1.739047619047619
1.797151146998658,3.1807326007326004,1.025054945054945,1.739047619047619
1.7986301419987285,3.1807326007326004,1.025054945054945,1.739047619047619
1.8034383579979476,3.1807326007326004,1.025054945054945,1.739047619047619
1.8081139749992872,2.6585347985347987,3.3,2.8430769230769233
1.8084142589978,2.6585347985347987,3.3,2.8430769230769233
1.813033001999429,3.3,1.1902564102564102,1.8744322344322342
1.813253173000703,3.3,1.1902564102564102,1.8744322344322342
1.8179216559983615,3.3,1.1902564102564102,1.8744322344322342
1.8181100469992089,1.195091575091575,0.46014652014652013,0.6736996336996337
1.8231086320010945,1.195091575091575,0.46014652014652013,0.6736996336996337
1.8273165930004325,1.195091575091575,0.46014652014652013,0.6736996336996337
1.8300240719981957,1.195091575091575,0.46014652014652013,0.6736996336996337
1.8343574149985216,3.016336996336996,0.8896703296703296,1.5214652014652015
1.8358470509992912,3.016336996336996,0.8896703296703296,1.5214652014652015
1.8402760130011302,3.016336996336996,0.8896703296703296,1.5214652014652015
1.8411135479982477,3.016336996336996,0.8896703296703296,1.5214652014652015
1.8426374699993175,3.016336996336996,0.8896703296703296,1.5214652014652015
1.8477027699991595,0.7019047619047618,0.4085714285714286,0.8453479853479853
1.8523397139979352,2.685934065934066,0.6471062271062271,0.6833699633699634
1.852564626999083,3.3,1.0524542124542122,1.822857142857143
1.857063842999196,3.3,1.0524542124542122,1.822857142857143
1.8578808179991029,3.3,1.0524542124542122,1.822857142857143
1.8594277349984623,3.3,1.0524542124542122,1.822857142857143
1.863819837999472,3.3,1.0524542124542122,1.822857142857143
1.8647076089982875,3.3,1.0524542124542122,1.822857142857143
1.8663108849978016,3.3,1.0524542124542122,1.822857142857143
1.8706929789987043,3.3,1.0524542124542122,1.822857142857143
1.8715682559995912,2.714945054945055,3.3,3.3
1.8738043029989058,2.714945054945055,3.3,3.3
1.8741003049981373,2.714945054945055,3.3,3.3
1.878649389000202,2.714945054945055,3.3,3.3
1.880325381000148,3.2226373626373626,1.0403663003663002,0.7776556776556776
1.8839888289985538,3.2226373626373626,1.0403663003663002,0.7776556776556776
1.8891343289978977,3.2226373626373626,1.0403663003663002,0.7776556776556776
1.8929650600002788,2.697216117216117,3.3,2.856776556776557
1.897432113000832,2.697216117216117,3.3,2.856776556776557
1.8982648249984777,2.697216117216117,3.3,2.856776556776557
1.8997956599996542,2.9695970695970697,0.8018315018315018,0.6978754578754578
1.9042552430000796,2.9695970695970697,0.8018315018315018,0.6978754578754578
1.9057439850002993,2.9695970695970697,0.8018315018315018,0.6978754578754578
1.910261452998384,2.9695970695970697,0.8018315018315018,0.6978754578754578
1.911095422001381,2.6746520146520147,1.9163369963369963,2.424029304029304
1.9126085819989385,2.6746520146520147,1.9163369963369963,2.424029304029304
1.918123122999532,2.6746520146520147,1.9163369963369963,2.424029304029304
1.9184497479982383,3.3,1.0814652014652013,0.7832967032967032
1.9262227779981913,3.3,1.0814652014652013,0.7832967032967032
1.932799508998869,3.3,1.0814652014652013,0.7832967032967032
1.938045743998373,3.3,1.0814652014652013,0.7832967032967032
1.9394268079995527,3.3,1.0814652014652013,0.7832967032967032
1.9465761030005524,2.787472527472527,0.7349450549450549,0.61003663003663
1.9514892689985572,2.787472527472527,0.7349450549450549,0.61003663003663
1.9564423499978147,2.787472527472527,0.7349450549450549,0.61003663003663
1.959895134998078,2.6746520146520147,2.013846153846154,1.506153846153846
1.9601465849991655,2.6746520146520147,2.013846153846154,1.506153846153846
1.9647655449989543,2.6746520146520147,2.013846153846154,1.506153846153846
1.9655199720000383,2.6746520146520147,2.013846153846154,1.506153846153846
1.9679980520013487,2.6746520146520147,2.013846153846154,1.506153846153846
1.9732187439985864,2.6746520146520147,2.013846153846154,1.506153846153846
1.976307271001133,2.6673992673992672,2.5392673992673993,2.473186813186813
1.9798759349978354,2.6673992673992672,2.5392673992673993,2.473186813186813
1.985233657000208,2.6673992673992672,2.5392673992673993,2.473186813186813
1.9877563539994298,2.6673992673992672,2.5392673992673993,2.473186813186813
1.9943226229988795,2.6673992673992672,2.5392673992673993,2.473186813186813
1.9998097850002523,2.6673992673992672,2.5392673992673993,2.473186813186813
2.0000692100002198,2.468351648351648,0.6479120879120879,0.7204395604395604
2.006009212000208,2.468351648351648,0.6479120879120879,0.7204395604395604
2.006116969998402,2.9728205128205127,3.3,2.8148717948717947
2.010770113000035,2.9728205128205127,3.3,2.8148717948717947
2.0110316249993048,2.9728205128205127,3.3,2.8148717948717947
2.0156079570006113,2.9728205128205127,3.3,2.8148717948717947
2.0159028119996947,2.9728205128205127,3.3,2.8148717948717947
2.0204197300008673,2.9728205128205127,3.3,2.8148717948717947
2.0212694149995514,1.3038827838827838,0.4351648351648352,0.5689377289377289
2.022802283998317,1.3038827838827838,0.4351648351648352,0.5689377289377289
2.0273268790006114,1.3038827838827838,0.4351648351648352,0.5689377289377289
2.0281557499984046,1.3038827838827838,0.4351648351648352,0.5689377289377289
2.029713392999838,1.3038827838827838,0.4351648351648352,0.5689377289377289
2.0342929149992415,1.3038827838827838,0.4351648351648352,0.5689377289377289
2.0345777639995504,1.3038827838827838,0.4351648351648352,0.5689377289377289
2.0395580219992553,1.3038827838827838,0.4351648351648352,0.5689377289377289
2.043974497999443,1.3038827838827838,0.4351648351648352,0.5689377289377289
2.0454947609978262,1.3038827838827838,0.4351648351648352,0.5689377289377289
2.0505720649998693,3.00021978021978,0.5632967032967032,0.6076190476190476
2.05434358599814,3.00021978021978,0.5632967032967032,0.6076190476190476
2.0594072290004988,3.00021978021978,0.5632967032967032,0.6076190476190476
2.0638274800003273,3.00021978021978,0.5632967032967032,0.6076190476190476
2.0646674769996025,3.00021978021978,0.5632967032967032,0.6076190476190476
2.0662018270013505,3.00021978021978,0.5632967032967032,0.6076190476190476
2.0707297349981673,2.6923809523809523,3.3,3.3
2.0709854189990438,2.6956043956043954,2.1887179487179487,2.5997069597069595
2.0755318509982317,2.6956043956043954,2.1887179487179487,2.5997069597069595
2.0758458729978884,2.6956043956043954,2.1887179487179487,2.5997069597069595
2.0802922020011465,2.6956043956043954,2.1887179487179487,2.5997069597069595
2.0818070040004386,2.729450549450549,0.6463003663003662,0.6978754578754578
2.0863454999998794,2.729450549450549,0.6463003663003662,0.6978754578754578
2.0871684160010773,2.729450549450549,0.6463003663003662,0.6978754578754578
2.0888146910001524,2.697216117216117,3.3,3.3
2.0926336929987883,2.697216117216117,3.3,3.3
2.0970918550010538,2.697216117216117,3.3,3.3
2.0974233870001626,2.697216117216117,3.3,3.3
2.1018771470007778,2.697216117216117,3.3,3.3
2.103382743000111,2.697216117216117,3.3,3.3
2.1070866999980353,2.697216117216117,3.3,3.3
2.1122957529987616,2.718168498168498,3.3,3.3
2.1154710250011703,2.718168498168498,3.3,3.3
2.1169798009977967,2.718168498168498,3.3,3.3
2.1215941720001865,0.24659340659340656,0.2957509157509157,0.518974358974359
2.121885590000602,0.24659340659340656,0.2957509157509157,0.518974358974359
2.1298547699989285,0.24659340659340656,0.2957509157509157,0.518974358974359
2.135957761998725,0.24659340659340656,0.2957509157509157,0.518974358974359
2.1410423509987595,0.24659340659340656,0.2957509157509157,0.518974358974359
2.1439457849992323,0.24659340659340656,0.2957509157509157,0.518974358974359
2.146211723000306,0.24659340659340656,0.2957509157509157,0.518974358974359
2.1470704509993084,0.24659340659340656,0.2957509157509157,0.518974358974359
2.1486311509979714,0.24659340659340656,0.2957509157509157,0.518974358974359
2.15335284899993,0.24659340659340656,0.2957509157509157,0.518974358974359
2.1536193620013364,2.6875457875457873,2.4828571428571427,2.3926007326007324
2.157966832000966,2.6875457875457873,2.4828571428571427,2.3926007326007324
2.1594983779978065,2.6875457875457873,2.4828571428571427,2.3926007326007324
2.164031091000652,1.622197802197802,0.4778754578754579,0.5455677655677655
2.164360767001199,1.622197802197802,0.4778754578754579,0.5455677655677655
2.169480789998488,1.622197802197802,0.4778754578754579,0.5455677655677655
2.1733340930004488,2.6746520146520147,1.444102564102564,1.9227838827838828
2.177159146998747,1.5464468864468863,1.3756043956043955,1.9203663003663003
2.181617318001372,1.5464468864468863,1.3756043956043955,1.9203663003663003
2.182484293000016,1.5464468864468863,1.3756043956043955,1.9203663003663003
2.1841002549990662,1.5464468864468863,1.3756043956043955,1.9203663003663003
2.188416926001082,1.5464468864468863,1.3756043956043955,1.9203663003663003
2.190110621999338,1.5464468864468863,1.3756043956043955,1.9203663003663003
2.193228870000894,1.5464468864468863,1.3756043956043955,1.9203663003663003
2.194857694001257,1.5464468864468863,1.3756043956043955,1.9203663003663003
2.198592623000877,1.5464468864468863,1.3756043956043955,1.9203663003663003
2.198703439000383,1.5464468864468863,1.3756043956043955,1.9203663003663003
2.203449881999404,1.5464468864468863,1.3756043956043955,1.9203663003663003
2.2036958190001315,2.6649816849816848,3.3,2.8543589743589743
2.2081180089990085,2.6649816849816848,3.3,2.8543589743589743
2.209065514998656,2.6649816849816848,3.3,2.8543589743589743
2.210563306998665,2.6649816849816848,3.3,2.8543589743589743
2.2148544539995783,2.6649816849816848,3.3,2.8543589743589743
2.217094042000099,2.6649816849816848,3.3,2.8543589743589743
2.2174320400008583,2.6649816849816848,3.3,2.8543589743589743
2.22194473700074,2.6649816849816848,3.3,2.8543589743589743
2.222788658000354,2.6649816849816848,3.3,2.8543589743589743
2.2245187549997354,2.6649816849816848,3.3,2.8543589743589743
2.2287983799978974,3.296776556776557,0.6648351648351648,0.6382417582417582
2.2304843069978233,2.6964102564102563,3.3,3.3
2.234342233998177,2.6964102564102563,3.3,3.3
2.2380665759992553,2.6964102564102563,3.3,3.3
2.243203262998577,0.9009523809523808,0.4021245421245421,0.5802197802197803
2.247065764000581,0.9009523809523808,0.4021245421245421,0.5802197802197803
2.2515368060012406,3.1323809523809523,0.6374358974358975,0.622124542124542
2.251828229000239,3.1323809523809523,0.6374358974358975,0.622124542124542
2.2570269589996315,3.1323809523809523,0.6374358974358975,0.622124542124542
2.260823396998603,3.1323809523809523,0.6374358974358975,0.622124542124542
2.2660603069998615,3.1323809523809523,0.6374358974358975,0.622124542124542
2.2691320429985353,3.274212454212454,0.751062271062271,0.8767765567765567
2.2707935229991563,3.274212454212454,0.751062271062271,0.8767765567765567
2.2752908619986556,3.3,0.9654212454212454,1.6246153846153846
2.275589654000214,3.3,0.9654212454212454,1.6246153846153846
2.2799902529986866,3.3,0.9654212454212454,1.6246153846153846
2.2815232619977905,3.3,0.9654212454212454,1.6246153846153846
2.2858199490001425,3.3,0.9654212454212454,1.6246153846153846
2.2875395869996282,3.3,0.9654212454212454,1.6246153846153846
2.290521529997932,2.6964102564102563,3.3,3.3
2.293438259999675,2.6964102564102563,3.3,3.3
2.2957155469994177,2.6964102564102563,3.3,3.3
2.2960060219993466,2.6964102564102563,3.3,3.3
2.300546504000522,2.6964102564102563,3.3,3.3
2.3014002870004333,2.6964102564102563,3.3,3.3
2.3030235879996326,2.6964102564102563,3.3,3.3
2.306763611999486,2.6964102564102563,3.3,3.3
2.3117709559992363,2.6964102564102563,3.3,3.3
2.316353682999761,2.6964102564102563,3.3,3.3
2.3165964359977806,2.6722344322344322,2.795531135531135,2.9075457875457875
2.3209566949990403,2.6722344322344322,2.795531135531135,2.9075457875457875
2.3224937720005983,2.6722344322344322,2.795531135531135,2.9075457875457875
2.3266153869990376,2.6722344322344322,2.795531135531135,2.9075457875457875
2.3292669629990996,2.6722344322344322,2.795531135531135,2.9075457875457875
2.3339734289984335,2.6722344322344322,2.795531135531135,2.9075457875457875
2.334124011998938,2.6722344322344322,2.795531135531135,2.9075457875457875
2.338790475998394,2.6722344322344322,2.795531135531135,2.9075457875457875
2.3390686210004787,2.6722344322344322,2.795531135531135,2.9075457875457875
2.3437139009984094,2.6722344322344322,2.795531135531135,2.9075457875457875
2.3444604180003807,2.6722344322344322,2.795531135531135,2.9075457875457875
2.346616612998332,2.6722344322344322,2.795531135531135,2.9075457875457875
2.3474205790007545,2.6722344322344322,2.795531135531135,2.9075457875457875
2.3495174439995026,2.6722344322344322,2.795531135531135,2.9075457875457875
2.3509440749985515,2.6722344322344322,2.795531135531135,2.9075457875457875
2.355059148998407,2.6722344322344322,2.795531135531135,2.9075457875457875
2.3585524119989714,2.6722344322344322,2.795531135531135,2.9075457875457875
2.3588221019999764,2.6722344322344322,2.795531135531135,2.9075457875457875
2.363520934999542,2.6722344322344322,2.795531135531135,2.9075457875457875
2.363688651999837,2.6722344322344322,2.795531135531135,2.9075457875457875
2.3684333470009733,2.6722344322344322,2.795531135531135,2.9075457875457875
2.3685978739995335,2.5199267399267398,0.5890842490842491,0.7317216117216117
2.3733451929983858,2.5199267399267398,0.5890842490842491,0.7317216117216117
2.3734550459994352,2.5199267399267398,0.5890842490842491,0.7317216117216117
2.3781148150010267,2.5199267399267398,0.5890842490842491,0.7317216117216117
2.3783535990005475,2.5199267399267398,0.5890842490842491,0.7317216117216117
2.382983608000359,2.5199267399267398,0.5890842490842491,0.7317216117216117
2.383237146997999,2.5199267399267398,0.5890842490842491,0.7317216117216117
2.3880960639980913,2.5199267399267398,0.5890842490842491,0.7317216117216117
2.3882121380011085,2.5199267399267398,0.5890842490842491,0.7317216117216117
2.3929987470000924,2.5199267399267398,0.5890842490842491,0.7317216117216117
2.3977400939984364,2.5199267399267398,0.5890842490842491,0.7317216117216117
2.3985342699998,2.5199267399267398,0.5890842490842491,0.7317216117216117
2.400627391998569,2.5199267399267398,0.5890842490842491,0.7317216117216117
2.402111903000332,2.5199267399267398,0.5890842490842491,0.7317216117216117
2.4069120210006076,2.5199267399267398,0.5890842490842491,0.7317216117216117
2.407040007998148,2.5199267399267398,0.5890842490842491,0.7317216117216117
2.411697503001051,2.5199267399267398,0.5890842490842491,0.7317216117216117
2.411966809999285,2.6956043956043954,2.718974358974359,3.3
2.4167340050007624,2.6956043956043954,2.718974358974359,3.3
2.4216366539985756,3.3,1.672161172161172,1.2063736263736262
2.4270710019991384,3.3,2.399047619047619,3.3
2.428465873999812,3.3,2.399047619047619,3.3
2.4332090839998273,3.3,2.399047619047619,3.3
2.433364894000988,3.3,2.399047619047619,3.3
2.4380137949992786,3.3,2.399047619047619,3.3
2.438369708997925,3.3,2.399047619047619,3.3
2.4430416920004063,3.3,2.399047619047619,3.3
2.4434149420012545,3.3,2.399047619047619,3.3
2.448031366999203,3.3,2.399047619047619,3.3
2.448364420000871,3.3,2.399047619047619,3.3
2.453057421000267,3.3,2.399047619047619,3.3
2.4531721499988635,3.3,2.399047619047619,3.3
2.4579485670001304,3.3,2.399047619047619,3.3
2.4581707329998608,3.3,2.399047619047619,3.3
2.4629554050006846,3.3,2.399047619047619,3.3
2.4678579089995765,1.2966300366300365,0.4254945054945055,0.7865201465201466
2.472812645999511,2.157289377289377,0.4279120879120879,0.48432234432234433
2.4782390809996286,2.157289377289377,0.4279120879120879,0.48432234432234433
2.479774744999304,2.157289377289377,0.4279120879120879,0.48432234432234433
2.483647060998919,1.2934065934065933,0.5068864468864469,0.5608791208791208
2.4879104669998924,1.2934065934065933,0.5068864468864469,0.5608791208791208
2.4901491140008147,1.2934065934065933,0.5068864468864469,0.5608791208791208
2.490527354999358,1.2934065934065933,0.5068864468864469,0.5608791208791208
2.4958079759999237,1.2934065934065933,0.5068864468864469,0.5608791208791208
2.498208053999406,1.2934065934065933,0.5068864468864469,0.5608791208791208
2.5036443030003284,1.2934065934065933,0.5068864468864469,0.5608791208791208
2.5060374639979273,1.2934065934065933,0.5068864468864469,0.5608791208791208
2.5061699799989583,1.2934065934065933,0.5068864468864469,0.5608791208791208
2.5115055089991074,1.2934065934065933,0.5068864468864469,0.5608791208791208
2.514759827998205,1.2934065934065933,0.5068864468864469,0.5608791208791208
2.5156670440010203,3.3,1.6294505494505493,1.191062271062271
2.5172640800010413,3.3,1.6294505494505493,1.191062271062271
2.523592589001055,3.3,1.6294505494505493,1.191062271062271
2.5272594460002438,0.5665201465201465,0.3553846153846154,0.5689377289377289
2.5273498710012063,0.5665201465201465,0.3553846153846154,0.5689377289377289
2.531918141998176,0.5665201465201465,0.3553846153846154,0.5689377289377289
2.5321291489999567,0.5665201465201465,0.3553846153846154,0.5689377289377289
2.5368149079986324,0.5665201465201465,0.3553846153846154,0.5689377289377289
2.537551841000095,0.5665201465201465,0.3553846153846154,0.5689377289377289
2.5400508979982988,0.5665201465201465,0.3553846153846154,0.5689377289377289
2.5451051269992604,0.5665201465201465,0.3553846153846154,0.5689377289377289
2.54961190999893,0.5665201465201465,0.3553846153846154,0.5689377289377289
2.5499612339990563,0.5665201465201465,0.3553846153846154,0.5689377289377289
2.5545688679994782,0.5665201465201465,0.3553846153846154,0.5689377289377289
2.554745539000578,2.714945054945055,3.3,3.3
2.55914901199867,2.714945054945055,3.3,3.3
2.5607926769989717,2.331355311355311,0.8284249084249083,0.7599267399267399
2.5645969699980924,2.331355311355311,0.8284249084249083,0.7599267399267399
2.5689497429993935,2.331355311355311,0.8284249084249083,0.7599267399267399
2.5706194169979426,2.6956043956043954,3.3,3.3
2.574208087000443,2.6956043956043954,3.3,3.3
2.574373185998411,2.6956043956043954,3.3,3.3
2.5788136500013934,2.6956043956043954,3.3,3.3
2.5806940459988255,2.6956043956043954,3.3,3.3
2.582965550998779,2.6956043956043954,3.3,3.3
2.5832510760010337,2.6956043956043954,3.3,3.3
2.5885399529979622,2.6956043956043954,3.3,3.3
2.5903116330009652,2.6956043956043954,3.3,3.3
2.5940941129993007,2.805201465201465,2.3756776556776553,3.3
2.5983959279983537,2.805201465201465,2.3756776556776553,3.3
2.6000639209996734,2.805201465201465,2.3756776556776553,3.3
2.6038672479990055,2.544908424908425,2.0855677655677654,3.051794871794872
2.60756497300099,2.544908424908425,2.0855677655677654,3.051794871794872
2.6076725069979148,2.544908424908425,2.0855677655677654,3.051794871794872
2.6122953349986346,2.544908424908425,2.0855677655677654,3.051794871794872
2.612578846998076,2.6714285714285713,2.54974358974359,2.5626373626373624
2.6169983990002947,2.6714285714285713,2.54974358974359,2.5626373626373624
2.6178450849984074,2.6714285714285713,2.54974358974359,2.5626373626373624
2.619454481999128,2.6714285714285713,2.54974358974359,2.5626373626373624
2.6236481859996275,0.27076923076923076,0.3747252747252747,0.5109157509157509
2.626403501999448,1.971135531135531,0.37875457875457874,0.7107692307692308
2.630437575000542,1.971135531135531,0.37875457875457874,0.7107692307692308
2.6338203749983222,2.6682051282051282,1.332087912087912,1.999340659340659
2.6341006869988632,2.6682051282051282,1.332087912087912,1.999340659340659
2.6386900690013135,2.6682051282051282,1.332087912087912,1.999340659340659
2.6389728629983438,2.6682051282051282,1.332087912087912,1.999340659340659
2.6437044519989286,2.6682051282051282,1.332087912087912,1.999340659340659
2.643838706000679,2.6682051282051282,1.332087912087912,1.999340659340659
2.6484479089995148,2.6682051282051282,1.332087912087912,1.999340659340659
2.649212190997787,2.6682051282051282,1.332087912087912,1.999340659340659
2.650707106000482,2.6682051282051282,1.332087912087912,1.999340659340659
2.6553597259990056,1.51018315018315,1.3643223443223442,1.8567032967032966
2.655588434998208,1.51018315018315,1.3643223443223442,1.8567032967032966
2.6603408839982876,1.51018315018315,1.3643223443223442,1.8567032967032966
2.6605237559997477,1.51018315018315,1.3643223443223442,1.8567032967032966
2.665198593000241,1.51018315018315,1.3643223443223442,1.8567032967032966
2.665416161999019,1.51018315018315,1.3643223443223442,1.8567032967032966
2.6700502630010305,1.51018315018315,1.3643223443223442,1.8567032967032966
2.670364197998424,1.51018315018315,1.3643223443223442,1.8567032967032966
2.67630529699818,1.51018315018315,1.3643223443223442,1.8567032967032966
2.6807842179987347,1.51018315018315,1.3643223443223442,1.8567032967032966
2.6816726610013575,2.1927472527472527,0.7647619047619048,0.713992673992674
2.6840409680007724,2.1927472527472527,0.7647619047619048,0.713992673992674
2.6842488609981956,2.1927472527472527,0.7647619047619048,0.713992673992674
2.6893811269983416,2.1927472527472527,0.7647619047619048,0.713992673992674
2.6932303680005134,2.1927472527472527,0.7647619047619048,0.713992673992674
2.697600551000505,2.706886446886447,2.5521611721611723,2.5666666666666664
2.699169493000227,2.706886446886447,2.5521611721611723,2.5666666666666664
2.703724480001256,2.706886446886447,2.5521611721611723,2.5666666666666664
2.703948162001325,2.706886446886447,2.5521611721611723,2.5666666666666664
2.7083690939980443,2.706886446886447,2.5521611721611723,2.5666666666666664
2.710615127998608,2.693992673992674,3.0276190476190474,3.3
2.710830077998253,2.693992673992674,3.0276190476190474,3.3
2.7153538390011818,2.693992673992674,3.0276190476190474,3.3
2.7162460789986653,2.693992673992674,3.0276190476190474,3.3
2.7178155699984927,2.693992673992674,3.0276190476190474,3.3
2.7240481080007157,2.693992673992674,3.0276190476190474,3.3
2.7304239320001216,2.693992673992674,3.0276190476190474,3.3
2.736338861999684,2.6964102564102563,2.8664468864468864,3.3
2.741985845997988,3.3,1.468278388278388,1.0621245421245422
2.7421780500008026,3.3,2.7536263736263735,3.3
2.7470636990001367,3.3,2.7536263736263735,3.3
2.7510612010009936,3.3,2.7536263736263735,3.3
2.7542194919988106,2.690769230769231,3.3,2.8583882783882784
2.755900133000978,2.690769230769231,3.3,2.8583882783882784
2.7591265009978088,2.690769230769231,3.3,2.8583882783882784
2.760763058999146,2.690769230769231,3.3,2.8583882783882784
2.764584944998205,2.690769230769231,3.3,2.8583882783882784
2.7692105130008713,2.690769230769231,3.3,2.8583882783882784
2.7694090789991606,2.690769230769231,3.3,2.8583882783882784
2.7741278049979883,2.690769230769231,3.3,2.8583882783882784
2.7816177729982883,2.690769230769231,3.3,2.8583882783882784
2.7853789709988632,2.690769230769231,3.3,2.8583882783882784
2.7907536599996092,2.690769230769231,3.3,2.8583882783882784
2.793197358998441,2.690769230769231,3.3,2.8583882783882784
2.7934266080010275,2.690769230769231,3.3,2.8583882783882784
2.7980088100011926,2.690769230769231,3.3,2.8583882783882784
2.7982378669985337,2.690769230769231,3.3,2.8583882783882784
2.8038005730013538,2.690769230769231,3.3,2.8583882783882784
2.8049346529987815,2.690769230769231,3.3,2.8583882783882784
2.805200611001055,2.690769230769231,3.3,2.8583882783882784
2.8127913389980677,2.690769230769231,3.3,2.8583882783882784
2.8201443319994723,2.690769230769231,3.3,2.8583882783882784
2.829100128998107,2.690769230769231,3.3,2.8583882783882784
2.8376688829994237,2.690769230769231,3.3,2.8583882783882784
2.8439646830011043,2.690769230769231,3.3,2.8583882783882784
2.849213116998726,2.690769230769231,3.3,2.8583882783882784
2.8543027800005802,2.690769230769231,3.3,3.2814652014652013
2.857154844998149,2.690769230769231,3.3,3.2814652014652013
2.8588786639993486,2.652087912087912,1.6778021978021975,1.0999999999999999
2.862677557997813,2.652087912087912,1.6778021978021975,1.0999999999999999
2.8733560660002695,2.652087912087912,1.6778021978021975,1.0999999999999999
2.882288594999409,2.6923809523809523,3.3,3.3
2.890796096999111,2.6923809523809523,3.3,3.3
2.8954467519979517,2.718168498168498,3.3,3.3
2.895650750000641,2.718168498168498,3.3,3.3
2.9011621620011283,2.718168498168498,3.3,3.3
2.9030978009977844,3.3,2.6408058608058607,3.3
2.9047627939980885,3.3,2.6408058608058607,3.3
2.9082153489980556,3.3,2.6408058608058607,3.3
2.9084690529998625,2.673040293040293,2.2201465201465203,2.6206593406593406
2.9131319260013697,2.673040293040293,2.2201465201465203,2.6206593406593406
2.9132948459991894,2.6488644688644687,1.199120879120879,1.7664468864468863
2.919386662000761,2.6488644688644687,1.199120879120879,1.7664468864468863
2.9260434819989314,2.6488644688644687,1.199120879120879,1.7664468864468863
2.930530212001031,3.3,3.3,2.7536263736263735
2.9314368439991085,3.3,3.3,2.7536263736263735
2.932977652999398,3.3,3.3,2.7536263736263735
2.943684615998791,3.3,3.3,2.7536263736263735
2.95135624699833,3.3,3.3,2.7536263736263735
2.957661458000075,3.3,3.3,2.7536263736263735
2.9613519189988438,3.3,3.3,2.7536263736263735
2.966756900001201,3.3,3.3,2.7536263736263735
2.9692093769990606,0.49721611721611714,0.5254212454212454,1.2450549450549449
2.9751833849986724,0.49721611721611714,0.5254212454212454,1.2450549450549449
2.9814513009987422,2.66014652014652,2.319267399267399,1.987252747252747
2.9861888000014005,3.3,2.992967032967033,3.3
2.99034785099866,3.3,2.992967032967033,3.3
2.992567377001251,3.3,2.992967032967033,3.3
2.9934234259999357,3.3,2.992967032967033,3.3
2.995701388997986,3.3,2.992967032967033,3.3
2.9959004080010345,3.3,2.992967032967033,3.3
3.000488376001158,3.3,2.992967032967033,3.3
3.0013569869988714,3.3,2.992967032967033,3.3
3.002514116000384,3.3,3.3,2.7375091575091575
3.002771194998786,3.3,3.3,2.7375091575091575
3.007864421000704,3.3,3.3,2.7375091575091575
3.011548906000826,2.740732600732601,0.5947252747252747,0.7687912087912088
3.016844529000082,2.740732600732601,0.5947252747252747,0.7687912087912088
3.0214495369982615,2.740732600732601,0.5947252747252747,0.7687912087912088
3.021702458998334,2.740732600732601,0.5947252747252747,0.7687912087912088
3.0261930289998418,2.740732600732601,0.5947252747252747,0.7687912087912088
3.027118537000206,2.740732600732601,0.5947252747252747,0.7687912087912088
3.0287090560013894,2.740732600732601,0.5947252747252747,0.7687912087912088
3.0336237419978715,2.740732600732601,0.5947252747252747,0.7687912087912088
3.0393836719995306,2.740732600732601,0.5947252747252747,0.7687912087912088
3.044606561001274,2.988937728937729,0.801025641025641,0.6519413919413919
3.0476859269983834,2.988937728937729,0.801025641025641,0.6519413919413919
3.050387249000778,2.988937728937729,0.801025641025641,0.6519413919413919
3.055964597999264,2.988937728937729,0.801025641025641,0.6519413919413919
3.0561621070010005,3.3,1.3135531135531133,0.8284249084249083
3.060792432999733,3.3,1.3135531135531133,0.8284249084249083
3.061007629999949,3.3,1.3135531135531133,0.8284249084249083
3.065447544999188,3.3,1.3135531135531133,0.8284249084249083
3.0663359829995898,3.3,1.3135531135531133,0.8284249084249083
3.068791280998994,3.3,1.3135531135531133,0.8284249084249083
3.074413985999854,3.3,1.3135531135531133,0.8284249084249083
3.0752889520008466,2.681098901098901,2.5521611721611723,2.5602197802197804
3.0769583449982747,2.681098901098901,2.5521611721611723,2.5602197802197804
3.0800593130006746,2.681098901098901,2.5521611721611723,2.5602197802197804
3.082320453999273,2.681098901098901,2.5521611721611723,2.5602197802197804
3.0826231749997532,2.6649816849816848,3.3,2.840659340659341
3.088276780999877,2.6649816849816848,3.3,2.840659340659341
3.089574959998572,2.6649816849816848,3.3,2.840659340659341
3.0947795840002073,2.6649816849816848,3.3,2.840659340659341
3.097060022999358,2.6649816849816848,3.3,2.840659340659341
3.097423199000332,2.6649816849816848,3.3,2.840659340659341
3.104695645000902,2.6649816849816848,3.3,2.840659340659341
3.1088309149999986,1.1338461538461537,0.4931868131868131,1.0701831501831502
3.1103391270007705,1.1338461538461537,0.4931868131868131,1.0701831501831502
3.114833023999381,1.1338461538461537,0.4931868131868131,1.0701831501831502
3.1151187069990556,2.6746520146520147,2.286227106227106,1.9936996336996335
3.1221723839989863,2.6746520146520147,2.286227106227106,1.9936996336996335
3.1272611169988522,2.6746520146520147,2.286227106227106,1.9936996336996335
3.130619044000923,2.6746520146520147,2.286227106227106,1.9936996336996335
3.1308744130001287,2.714945054945055,3.3,3.3
3.1370347359988955,2.714945054945055,3.3,3.3
3.141232163998211,3.3,1.49003663003663,1.4626373626373625
3.1428641530001187,3.3,2.896263736263736,3.3
3.146542660000705,3.3,2.896263736263736,3.3
3.152377147998777,3.3,2.896263736263736,3.3
3.1609452060001786,3.3,2.896263736263736,3.3
3.1665958909979963,3.3,2.896263736263736,3.3
3.166772905999096,3.3,2.896263736263736,3.3
3.174151229999552,3.3,2.896263736263736,3.3
3.1787746959998913,1.5851282051282052,1.0218315018315018,1.5496703296703296
3.1789833180009737,1.5851282051282052,1.0218315018315018,1.5496703296703296
3.1837412040003983,1.5851282051282052,1.0218315018315018,1.5496703296703296
3.183938688998751,1.5851282051282052,1.0218315018315018,1.5496703296703296
3.191216085000633,1.5851282051282052,1.0218315018315018,1.5496703296703296
3.196111656998255,1.5851282051282052,1.0218315018315018,1.5496703296703296
3.2007058640010655,1.5851282051282052,1.0218315018315018,1.5496703296703296
3.2010433340001327,1.5851282051282052,1.0218315018315018,1.5496703296703296
3.2078132739989087,1.5851282051282052,1.0218315018315018,1.5496703296703296
3.211561107000307,1.5851282051282052,1.0218315018315018,1.5496703296703296
3.2167312300007325,1.5851282051282052,1.0218315018315018,1.5496703296703296
3.2239365499990527,1.5851282051282052,1.0218315018315018,1.5496703296703296
3.2280297209981654,2.6746520146520147,3.3,2.8390476190476193
3.230496796000807,2.6746520146520147,3.3,2.8390476190476193
3.230711166997935,2.6746520146520147,3.3,2.8390476190476193
3.236471274998621,1.6455677655677654,1.3054945054945053,2.0694505494505493
3.2365880149991426,1.6455677655677654,1.3054945054945053,2.0694505494505493
3.242259008999099,1.6455677655677654,1.3054945054945053,2.0694505494505493
3.2424274920012977,1.6455677655677654,1.3054945054945053,2.0694505494505493
3.247024729000259,1.6455677655677654,1.3054945054945053,2.0694505494505493
3.2472826480006916,1.6455677655677654,1.3054945054945053,2.0694505494505493
3.2560248449990468,1.6455677655677654,1.3054945054945053,2.0694505494505493
3.261044850998587,1.6455677655677654,1.3054945054945053,2.0694505494505493
3.2644056319986703,3.1484981684981683,3.3,3.3
3.265272880998964,3.1484981684981683,3.3,3.3
3.2668255040007352,3.1484981684981683,3.3,3.3
3.2716897559985227,3.1484981684981683,3.3,3.3
3.2775621979999414,3.1484981684981683,3.3,3.3
3.2833088129991665,3.1484981684981683,3.3,3.3
3.2940000239977962,2.655311355311355,3.3,2.8503296703296703
3.299769044999266,2.655311355311355,3.3,2.8503296703296703
3.2999754800002847,3.2186080586080585,1.0806593406593406,0.6962637362637363
3.3105732219992206,3.2186080586080585,1.0806593406593406,0.6962637362637363
3.319232319998264,0.419047619047619,0.7002930402930403,1.7857875457875456
3.326768978000473,0.419047619047619,0.7002930402930403,1.7857875457875456
3.331423765997897,0.419047619047619,0.7002930402930403,1.7857875457875456
3.331635867998557,0.419047619047619,0.7002930402930403,1.7857875457875456
3.3377336129997275,0.419047619047619,0.7002930402930403,1.7857875457875456
3.3437985199998366,2.655311355311355,2.382930402930403,2.079120879120879
3.347285132000252,2.655311355311355,2.382930402930403,2.079120879120879
3.347537382000155,2.655311355311355,2.382930402930403,2.079120879120879
3.352855589000683,2.655311355311355,2.382930402930403,2.079120879120879
3.3554945120013144,2.655311355311355,2.382930402930403,2.079120879120879
3.359210882001207,2.655311355311355,2.382930402930403,2.079120879120879
3.3636914960006834,1.3643223443223442,0.4585347985347985,0.5012454212454212
3.364575263000006,1.3643223443223442,0.4585347985347985,0.5012454212454212
3.366146675998607,1.3643223443223442,0.4585347985347985,0.5012454212454212
3.3710521789980703,2.9905494505494503,1.652014652014652,2.017875457875458
3.3749369340002886,2.693992673992674,2.5666666666666664,3.3
3.3791282909987785,3.3,1.4304029304029304,0.95010989010989
3.380863059999683,3.3,1.4304029304029304,0.95010989010989
3.384066526999959,3.3,1.4304029304029304,0.95010989010989
3.3849830190010834,2.6585347985347987,3.3,2.851941391941392
3.3874557169983746,2.6585347985347987,3.3,2.851941391941392
3.3921741579979425,2.6585347985347987,3.3,2.851941391941392
3.392291804000706,2.706886446886447,2.274139194139194,2.736703296703297
3.3974978049991478,2.706886446886447,2.274139194139194,2.736703296703297
3.400639699000749,2.706886446886447,2.274139194139194,2.736703296703297
3.40179898399947,2.589230769230769,0.7994139194139194,0.6591941391941392
3.4020938169996953,2.589230769230769,0.7994139194139194,0.6591941391941392
3.410052874998655,2.589230769230769,0.7994139194139194,0.6591941391941392
3.4143651999984286,2.693186813186813,2.723003663003663,3.3
3.4159441699994204,2.685934065934066,3.3,2.8471062271062273
3.420349226998951,2.685934065934066,3.3,2.8471062271062273
3.420773696998367,2.685934065934066,3.3,2.8471062271062273
3.4254583769979945,2.685934065934066,3.3,2.8471062271062273
3.430809940000472,2.685934065934066,3.3,2.8471062271062273
3.4323617599984573,1.5448351648351648,1.4255677655677657,2.3764835164835163
3.440106800000649,2.6778754578754578,2.309597069597069,2.933333333333333
3.4439911090012174,2.6778754578754578,2.309597069597069,2.933333333333333
3.4477637150012015,2.6778754578754578,2.309597069597069,2.933333333333333
3.455104583998036,2.6778754578754578,2.309597069597069,2.933333333333333
3.458805720998498,2.6778754578754578,2.309597069597069,2.933333333333333
3.464190676000726,2.6778754578754578,2.309597069597069,2.933333333333333
3.465351014998305,0.6551648351648351,0.6430769230769231,1.3796336996336995
3.4655982299991592,0.6551648351648351,0.6430769230769231,1.3796336996336995
3.4726300340007583,0.6551648351648351,0.6430769230769231,1.3796336996336995
3.475788083000225,0.6551648351648351,0.6430769230769231,1.3796336996336995
3.4773978359989997,0.6551648351648351,0.6430769230769231,1.3796336996336995
3.48247311799787,0.6551648351648351,0.6430769230769231,1.3796336996336995
3.488139196000702,2.7455677655677655,0.4859340659340659,0.5616849816849817
3.4883837119996315,2.0847619047619044,0.32556776556776557,0.5383150183150183
3.493133748001128,2.0847619047619044,0.32556776556776557,0.5383150183150183
3.498593563999748,2.0847619047619044,0.32556776556776557,0.5383150183150183
3.501311789997999,2.0847619047619044,0.32556776556776557,0.5383150183150183
3.508421719998296,0.5415384615384615,0.419047619047619,0.5794139194139193
3.5121337060008955,0.5415384615384615,0.419047619047619,0.5794139194139193
3.5174682840006426,2.6923809523809523,2.855970695970696,3.3
3.522465006000857,2.6633699633699632,2.2515750915750914,2.804395604395604
3.5265787489988725,2.6633699633699632,2.2515750915750914,2.804395604395604
3.528082959997846,2.6633699633699632,2.2515750915750914,2.804395604395604
3.5321696259998134,2.6633699633699632,2.2515750915750914,2.804395604395604
3.534903702999145,1.448131868131868,0.9444688644688644,1.2877655677655677
3.5397999019987765,1.448131868131868,0.9444688644688644,1.2877655677655677
3.5435389779995603,1.5641758241758241,0.5778021978021978,0.6454945054945055
3.5488973569990776,1.3401465201465201,1.0693772893772893,2.5505494505494504
3.553176221001195,2.690769230769231,3.299194139194139,3.3
3.553484991000005,2.690769230769231,3.299194139194139,3.3
3.560416799999075,2.690769230769231,3.299194139194139,3.3
3.5641966490002233,2.690769230769231,3.299194139194139,3.3
3.5691520840009616,2.690769230769231,3.299194139194139,3.3
3.5752493740001228,2.6956043956043954,3.3,3.3
3.5789889429979667,2.6956043956043954,3.3,3.3
3.5851765260013053,2.6956043956043954,3.3,3.3
3.588945863000845,2.6956043956043954,3.3,3.3
3.594216416000563,2.6956043956043954,3.3,3.3
3.5971948119986337,2.6956043956043954,3.3,3.3
3.599497082999733,2.6956043956043954,3.3,3.3
3.599751469999319,2.6956043956043954,3.3,3.3
3.6067113499993866,2.6956043956043954,3.3,3.3
3.6104643670005316,2.6956043956043954,3.3,3.3
3.61061669099945,2.690769230769231,3.3,3.3
3.615137656001025,2.690769230769231,3.3,3.3
3.6154939420011942,2.690769230769231,3.3,3.3
3.6210042649981915,2.690769230769231,3.3,3.3
3.622536996997951,2.690769230769231,3.3,3.3
3.626427295999747,2.690769230769231,3.3,3.3
3.6296259539994935,2.955091575091575,0.7373626373626374,0.6366300366300366
3.631169273998239,3.3,1.1467399267399265,1.8712087912087911
3.6361048850012594,3.3,0.9146520146520146,1.5222710622710622
3.640620714999386,3.3,0.9146520146520146,1.5222710622710622
3.6415015749989834,3.3,0.9146520146520146,1.5222710622710622
3.643107351999788,3.3,0.9146520146520146,1.5222710622710622
3.647246680000535,3.3,0.9146520146520146,1.5222710622710622
3.6499094200007676,3.3,0.9146520146520146,1.5222710622710622
3.6555006849994243,3.3,0.9146520146520146,1.5222710622710622
3.6557738359988434,3.3,0.9146520146520146,1.5222710622710622
3.660604094999144,3.3,0.9146520146520146,1.5222710622710622
3.666668657999253,3.274212454212454,2.5441025641025643,3.3
3.672307644999819,2.988937728937729,1.8091575091575092,2.1887179487179487
3.677515946001222,2.988937728937729,1.8091575091575092,2.1887179487179487
3.6814016999996966,2.988937728937729,1.8091575091575092,2.1887179487179487
3.684435282000777,2.6069597069597066,0.8308424908424907,0.684981684981685
3.6890508989999944,1.967106227106227,0.38358974358974357,0.6422710622710622
3.6939674470013415,1.967106227106227,0.38358974358974357,0.6422710622710622
3.6990949909995834,1.967106227106227,0.38358974358974357,0.6422710622710622
3.7064154590007092,2.9180219780219776,0.9887912087912087,0.684981684981685
3.710797151998122,2.9180219780219776,0.9887912087912087,0.684981684981685
3.7116562129995145,2.9180219780219776,0.9887912087912087,0.684981684981685
3.7132516329984355,2.9180219780219776,0.9887912087912087,0.684981684981685
3.717638866000925,2.9180219780219776,0.9887912087912087,0.684981684981685
3.7201396390009904,2.9180219780219776,0.9887912087912087,0.684981684981685
3.7250889540009666,2.9180219780219776,0.9887912087912087,0.684981684981685
3.7288887559989234,2.848717948717949,0.6720879120879121,0.6156776556776556
3.7342638049995003,2.848717948717949,0.6720879120879121,0.6156776556776556
3.738977998000337,2.848717948717949,0.6720879120879121,0.6156776556776556
3.7445864350011107,1.5891575091575092,0.49076923076923074,0.527032967032967
3.7447090499990736,1.5891575091575092,0.49076923076923074,0.527032967032967
3.7505483770000865,1.5891575091575092,0.49076923076923074,0.527032967032967
3.750675709998177,1.5891575091575092,0.49076923076923074,0.527032967032967
3.7582902549984283,1.5891575091575092,0.49076923076923074,0.527032967032967
3.76274691800063,2.6673992673992672,2.5473260073260073,2.5561904761904763
3.7637763829989126,2.6673992673992672,2.5473260073260073,2.5561904761904763
3.764661655000964,2.6673992673992672,2.5473260073260073,2.5561904761904763
3.767149954997876,2.6673992673992672,2.5473260073260073,2.5561904761904763
3.7745767119995435,2.6673992673992672,2.5473260073260073,2.5561904761904763
3.7783219250013644,2.6673992673992672,2.5473260073260073,2.5561904761904763
3.7847635250000167,2.6673992673992672,2.5473260073260073,2.5561904761904763
3.7899068129991065,2.6673992673992672,2.5473260073260073,2.5561904761904763
3.791561826998077,2.702857142857143,0.606007326007326,0.7849084249084248
3.795351610999205,2.702857142857143,0.606007326007326,0.7849084249084248
3.8042641780011763,2.702857142857143,0.606007326007326,0.7849084249084248
3.811356108999462,2.702857142857143,0.606007326007326,0.7849084249084248
3.8157197820000874,2.6794871794871793,2.548937728937729,2.561025641025641
3.816035396997904,2.6682051282051282,2.501391941391941,2.2918681318681315
3.826309358999424,2.6682051282051282,2.501391941391941,2.2918681318681315
3.8309240150010737,3.3,3.3,2.764102564102564
3.831307674998243,3.3,3.3,2.764102564102564
3.836731913001131,3.3,3.3,2.764102564102564
3.838136628000939,3.3,3.3,2.764102564102564
3.8430193690001033,0.19663003663003664,0.3344322344322344,0.4391941391941392
3.8481389119988307,0.19663003663003664,0.3344322344322344,0.4391941391941392
3.851399606999621,0.19663003663003664,0.3344322344322344,0.4391941391941392
3.8524557070013543,0.19663003663003664,0.3344322344322344,0.4391941391941392
3.852823206998437,0.19663003663003664,0.3344322344322344,0.4391941391941392
3.858559542000876,0.19663003663003664,0.3344322344322344,0.4391941391941392
3.858755724999355,0.19663003663003664,0.3344322344322344,0.4391941391941392
3.864227859001403,0.19663003663003664,0.3344322344322344,0.4391941391941392
3.865811855001084,0.19663003663003664,0.3344322344322344,0.4391941391941392
3.872524047001207,0.19663003663003664,0.3344322344322344,0.4391941391941392
3.876486387998739,0.19663003663003664,0.3344322344322344,0.4391941391941392
3.880335017998732,0.19663003663003664,0.3344322344322344,0.4391941391941392
3.885816370999237,0.19663003663003664,0.3344322344322344,0.4391941391941392
3.8861344719989575,2.6665934065934067,2.545714285714286,2.561025641025641
3.8938742659993295,2.6665934065934067,2.545714285714286,2.561025641025641
3.899517597998056,2.6956043956043954,2.6762637362637363,3.009084249084249
3.899767653998424,2.6956043956043954,2.6762637362637363,3.009084249084249
3.906850323997787,2.6956043956043954,2.6762637362637363,3.009084249084249
3.910635457999888,2.6956043956043954,2.6762637362637363,3.009084249084249
3.91604201500013,2.6956043956043954,2.6762637362637363,3.009084249084249
3.922098012000788,2.655311355311355,2.4038827838827834,2.0855677655677654
3.925337741999101,2.655311355311355,2.4038827838827834,2.0855677655677654
3.926229610999144,2.655311355311355,2.4038827838827834,2.0855677655677654
3.92719988799945,2.655311355311355,2.4038827838827834,2.0855677655677654
3.928133106997848,2.655311355311355,2.4038827838827834,2.0855677655677654
3.9292050699987158,2.655311355311355,2.4038827838827834,2.0855677655677654
3.9301061119986116,2.655311355311355,2.4038827838827834,2.0855677655677654
3.931675372998143,2.655311355311355,2.4038827838827834,2.0855677655677654
3.936513589000242,2.655311355311355,2.4038827838827834,2.0855677655677654
3.9413396999989345,2.655311355311355,2.4038827838827834,2.0855677655677654
3.9464667690008355,2.9905494505494503,3.3,2.8108424908424907
3.9514438769983826,1.6576556776556775,0.4182417582417582,0.763956043956044
3.9570677709998563,1.6576556776556775,0.4182417582417582,0.763956043956044
3.9614592479993007,1.6576556776556775,0.4182417582417582,0.763956043956044
3.9637232050008606,3.2290842490842486,0.5649084249084249,0.6213186813186813
3.9640395269998407,3.2290842490842486,0.5649084249084249,0.6213186813186813
3.9725367659993935,3.2290842490842486,0.5649084249084249,0.6213186813186813
3.979292822001298,3.2290842490842486,0.5649084249084249,0.6213186813186813
3.984246912001254,3.2290842490842486,0.5649084249084249,0.6213186813186813
3.9897089199985203,0.8348717948717947,0.7107692307692308,1.402197802197802
3.989935907000472,0.8348717948717947,0.7107692307692308,1.402197802197802
3.994319753997843,0.8348717948717947,0.7107692307692308,1.402197802197802
3.9964818299995386,0.8348717948717947,0.7107692307692308,1.402197802197802
3.996790442000929,0.8348717948717947,0.7107692307692308,1.402197802197802
4.003030568997929,0.8348717948717947,0.7107692307692308,1.402197802197802
4.006225492998055,0.8348717948717947,0.7107692307692308,1.402197802197802
4.007901905999461,0.8348717948717947,0.7107692307692308,1.402197802197802
4.011804437999672,2.6762637362637363,1.814798534798535,2.6238827838827836
4.015052339000249,2.6762637362637363,1.814798534798535,2.6238827838827836
4.015936611998768,2.6762637362637363,1.814798534798535,2.6238827838827836
4.017532190999191,2.6762637362637363,1.814798534798535,2.6238827838827836
4.023525556000095,2.6762637362637363,1.814798534798535,2.6238827838827836
4.030672509998112,2.6762637362637363,1.814798534798535,2.6238827838827836
4.036575444999471,2.9776556776556777,1.2756776556776557,1.971135531135531
4.041217671998311,2.9776556776556777,1.2756776556776557,1.971135531135531
4.046864567000739,3.3,2.4828571428571427,3.3
4.047102790998906,3.3,2.4828571428571427,3.3
4.0543720470013795,3.3,2.4828571428571427,3.3
4.058032486998854,3.3,2.4828571428571427,3.3
4.063539020000462,3.3,0.5512087912087912,0.664029304029304
4.065221674998611,3.3,0.5512087912087912,0.664029304029304
4.0723742759983,3.3,0.5512087912087912,0.664029304029304
4.076366934001271,1.6971428571428568,0.8856410256410255,1.3828571428571428
4.079255070999352,1.6971428571428568,0.8856410256410255,1.3828571428571428
4.08310786400034,1.6971428571428568,0.8856410256410255,1.3828571428571428
4.089144677000149,1.6971428571428568,0.8856410256410255,1.3828571428571428
4.092291332999594,2.698827838827839,2.681098901098901,3.3
4.094944175998535,2.698827838827839,2.681098901098901,3.3
4.099569146997965,2.698827838827839,2.681098901098901,3.3
4.099724209998385,2.698827838827839,2.681098901098901,3.3
4.1052013609987625,2.698827838827839,2.681098901098901,3.3
4.106119928997941,2.698827838827839,2.681098901098901,3.3
4.10704614000133,2.698827838827839,2.681098901098901,3.3
4.108593976998236,2.698827838827839,2.681098901098901,3.3
4.113024196998595,2.698827838827839,2.681098901098901,3.3
4.113851328998862,2.698827838827839,2.681098901098901,3.3
4.115443046997825,2.698827838827839,2.681098901098901,3.3
4.119826430000103,2.698827838827839,2.681098901098901,3.3
4.1212985450001725,2.698827838827839,2.681098901098901,3.3
4.1264989339979365,3.3,3.3,2.748791208791209
4.128807375000179,3.3,3.3,2.748791208791209
4.129048630999023,3.3,3.3,2.748791208791209
4.133521469000698,3.3,3.3,2.748791208791209
4.136447747998318,3.3,3.3,2.748791208791209
4.140420895000716,3.3,3.3,2.748791208791209
4.143376022999291,3.3,3.3,2.748791208791209
4.146326573998522,3.3,3.3,2.748791208791209
4.149203380999097,3.3,3.3,2.748791208791209
4.1534627660003025,3.3,3.3,2.748791208791209
4.157027189001383,3.3,3.3,2.748791208791209
4.160956994997832,3.3,3.3,2.748791208791209
4.16541617799885,1.6238095238095236,0.37150183150183147,0.4496703296703296
4.166228567999497,1.9268131868131868,0.47465201465201456,0.8791941391941391
4.16815708699869,1.9268131868131868,0.47465201465201456,0.8791941391941391
4.171560280999984,1.9268131868131868,0.47465201465201456,0.8791941391941391
4.177058334000321,1.9687179487179485,0.8985347985347985,1.4118681318681316
4.179751379000663,2.723003663003663,0.9057875457875458,0.8558241758241758
4.185295731000224,2.723003663003663,0.9057875457875458,0.8558241758241758
4.185557928998605,2.723003663003663,0.9057875457875458,0.8558241758241758
4.190502481000294,2.723003663003663,0.9057875457875458,0.8558241758241758
4.193471649999992,2.723003663003663,0.9057875457875458,0.8558241758241758
4.1966120270008105,2.698827838827839,2.685128205128205,3.3
4.197482523999497,2.698827838827839,2.685128205128205,3.3
4.199069480000617,2.698827838827839,2.685128205128205,3.3
4.203956350000226,2.698827838827839,2.685128205128205,3.3
4.208099379000487,0.14586080586080585,0.3231501831501831,0.502051282051282
4.210365982999065,0.14586080586080585,0.3231501831501831,0.502051282051282
4.211240892000205,0.14586080586080585,0.3231501831501831,0.502051282051282
4.212809302000096,0.14586080586080585,0.3231501831501831,0.502051282051282
4.217861085999175,0.14586080586080585,0.3231501831501831,0.502051282051282
4.224262421001185,0.14586080586080585,0.3231501831501831,0.502051282051282
4.22811448399807,0.14586080586080585,0.3231501831501831,0.502051282051282
4.232588475999364,0.14586080586080585,0.3231501831501831,0.502051282051282
4.234514052001032,0.14586080586080585,0.3231501831501831,0.502051282051282
4.237843541999609,2.6488644688644687,0.9984615384615383,0.8799999999999999
4.2381215839996,2.6488644688644687,0.9984615384615383,0.8799999999999999
4.242752720998396,2.6488644688644687,0.9984615384615383,0.8799999999999999
4.243039387998579,2.6488644688644687,0.9984615384615383,0.8799999999999999
4.247634129998914,2.6488644688644687,0.9984615384615383,0.8799999999999999
4.247934684000938,2.6488644688644687,0.9984615384615383,0.8799999999999999
4.252855142000044,2.693992673992674,2.685934065934066,3.3
4.26044332499805,2.693992673992674,2.685934065934066,3.3
4.265322155999456,2.693992673992674,2.685934065934066,3.3
4.269081903999904,2.693992673992674,2.685934065934066,3.3
4.27815014099906,2.693992673992674,2.685934065934066,3.3
4.287532965998253,2.9599267399267397,3.3,2.8277655677655673
4.292760170999827,3.3,3.1968498168498165,2.6424175824175826
4.294293486000242,2.6617582417582417,3.3,2.852747252747253
4.298843759999727,2.6617582417582417,3.3,2.852747252747253
4.299115190999146,2.6617582417582417,3.3,2.852747252747253
4.307526294000127,2.6617582417582417,3.3,2.852747252747253
4.312172478999855,2.6617582417582417,3.3,2.852747252747253
4.318525792998116,2.6617582417582417,3.3,2.852747252747253
4.322701417000644,2.6617582417582417,3.3,2.852747252747253
4.324392971000634,2.6617582417582417,3.3,2.852747252747253
4.328180905999034,2.6617582417582417,3.3,2.852747252747253
4.33279303299787,2.2999267399267396,0.2957509157509157,0.5342857142857143
4.333093031000317,3.042124542124542,3.3,2.8197069597069593
4.33904275399982,3.042124542124542,3.3,2.8197069597069593
4.343727774998115,3.042124542124542,3.3,2.8197069597069593
4.343888990999403,3.042124542124542,3.3,2.8197069597069593
4.348375642999599,3.042124542124542,3.3,2.8197069597069593
4.3492247850008425,3.042124542124542,3.3,2.8197069597069593
4.351486192001175,3.042124542124542,3.3,2.8197069597069593
4.351749858000403,3.042124542124542,3.3,2.8197069597069593
4.359170084000652,2.6875457875457873,3.3,2.7576556776556775
4.366621869001392,2.6875457875457873,3.3,2.7576556776556775
4.372561668998969,2.6875457875457873,3.3,2.7576556776556775
4.377073831001326,2.6875457875457873,3.3,2.7576556776556775
4.377375019997999,2.6875457875457873,3.3,2.7576556776556775
4.381861650999781,2.6875457875457873,3.3,2.7576556776556775
4.3827215479977895,2.6875457875457873,3.3,2.7576556776556775
4.3843270819998,2.6875457875457873,3.3,2.7576556776556775
4.389459422000073,2.6875457875457873,3.3,2.7576556776556775
4.3917927849979606,2.714945054945055,2.618241758241758,3.3
4.392002283999318,2.714945054945055,2.618241758241758,3.3
4.396758251001302,2.714945054945055,2.618241758241758,3.3
4.396918153001025,2.9776556776556777,0.46659340659340653,0.5834432234432234
4.402889770000911,2.9776556776556777,0.46659340659340653,0.5834432234432234
4.409069082001224,1.5206593406593405,0.39890109890109887,0.4810989010989011
4.412715124999522,1.5206593406593405,0.39890109890109887,0.4810989010989011
4.412918338999589,1.5206593406593405,0.39890109890109887,0.4810989010989011
4.417504706998443,1.5206593406593405,0.39890109890109887,0.4810989010989011
4.418384376000176,1.5206593406593405,0.39890109890109887,0.4810989010989011
4.4205581530004565,1.5206593406593405,0.39890109890109887,0.4810989010989011
4.420840561000659,1.5206593406593405,0.39890109890109887,0.4810989010989011
4.426255983998999,1.5206593406593405,0.39890109890109887,0.4810989010989011
4.4284436429989,1.5206593406593405,0.39890109890109887,0.4810989010989011
4.429264750000584,1.5206593406593405,0.39890109890109887,0.4810989010989011
4.431837317999452,1.5206593406593405,0.39890109890109887,0.4810989010989011
4.437507292997907,1.5206593406593405,0.39890109890109887,0.4810989010989011
4.43766264900114,1.5206593406593405,0.39890109890109887,0.4810989010989011
4.44279995299803,1.5206593406593405,0.39890109890109887,0.4810989010989011
4.445688548999897,1.5206593406593405,0.39890109890109887,0.4810989010989011
4.448685809999006,1.5206593406593405,0.39890109890109887,0.4810989010989011
4.4511083729994425,1.5206593406593405,0.39890109890109887,0.4810989010989011
4.451380859998608,1.5206593406593405,0.39890109890109887,0.4810989010989011
4.456667677000951,1.5206593406593405,0.39890109890109887,0.4810989010989011
4.458233175999339,1.5206593406593405,0.39890109890109887,0.4810989010989011
4.462663201000396,1.5206593406593405,0.39890109890109887,0.4810989010989011
4.4641949760007265,3.3,3.3,2.8237362637362633
4.4692912040009105,1.1104761904761904,0.5552380952380952,1.0580952380952382
4.472805640998558,1.1104761904761904,0.5552380952380952,1.0580952380952382
4.478061468998931,1.1104761904761904,0.5552380952380952,1.0580952380952382
4.481369488999917,2.655311355311355,0.9952380952380951,0.921098901098901
4.482249688000593,2.655311355311355,0.9952380952380951,0.921098901098901
4.484120282999356,2.655311355311355,0.9952380952380951,0.921098901098901
4.4861592929992185,2.655311355311355,0.9952380952380951,0.921098901098901
4.48749388899887,2.655311355311355,0.9952380952380951,0.921098901098901
4.4876280360003875,2.655311355311355,0.9952380952380951,0.921098901098901
4.492149519999657,2.655311355311355,0.9952380952380951,0.921098901098901
4.493081390999578,2.655311355311355,0.9952380952380951,0.921098901098901
4.494630405999487,2.655311355311355,0.9952380952380951,0.921098901098901
4.498325282998849,2.655311355311355,0.9952380952380951,0.921098901098901
4.505662881998433,2.655311355311355,0.9952380952380951,0.921098901098901
4.510926848997769,2.655311355311355,0.9952380952380951,0.921098901098901
4.511993227999483,2.655311355311355,0.9952380952380951,0.921098901098901
4.512373343000945,2.655311355311355,0.9952380952380951,0.921098901098901
4.521255695999571,2.655311355311355,0.9952380952380951,0.921098901098901
4.52856976700059,3.3,0.755091575091575,0.759120879120879
4.533628688997851,3.3,0.755091575091575,0.759120879120879
4.53712466199795,3.3,0.755091575091575,0.759120879120879
4.542601091998222,3.3,0.755091575091575,0.759120879120879
4.544241392999538,3.3,0.755091575091575,0.759120879120879
4.548091826000018,3.3,0.755091575091575,0.759120879120879
4.5522164440008055,3.3,0.755091575091575,0.759120879120879
4.557489226997859,3.3,0.755091575091575,0.759120879120879
4.5583311789996515,2.6915750915750913,3.3,3.3
4.559961262999423,2.6915750915750913,3.3,3.3
4.563198101001035,0.5157509157509157,0.4504761904761904,0.5713553113553113
4.564833944001293,0.5157509157509157,0.4504761904761904,0.5713553113553113
4.569616529999621,0.5157509157509157,0.4504761904761904,0.5713553113553113
4.5756620510001085,0.5157509157509157,0.4504761904761904,0.5713553113553113
4.5793121899987455,1.423956043956044,1.2643956043956044,1.7180952380952381
4.5794229460007045,1.423956043956044,1.2643956043956044,1.7180952380952381
4.584773779999523,1.423956043956044,1.2643956043956044,1.7180952380952381
4.589251526998851,1.423956043956044,1.2643956043956044,1.7180952380952381
4.589517428998079,1.423956043956044,1.2643956043956044,1.7180952380952381
4.596716506999655,1.423956043956044,1.2643956043956044,1.7180952380952381
4.600411519000772,1.423956043956044,1.2643956043956044,1.7180952380952381
4.608440304000396,1.4102564102564101,0.3158974358974359,0.43435897435897436
4.614532314000826,1.361098901098901,0.5157509157509157,0.9428571428571427
4.623762089999218,2.6714285714285713,1.3401465201465201,1.423956043956044
4.630030862001149,2.6714285714285713,1.3401465201465201,1.423956043956044
4.633868410001014,2.697216117216117,2.5360439560439563,3.3
4.641726703001041,2.697216117216117,2.5360439560439563,3.3
4.649192237000534,2.332967032967033,0.45692307692307693,0.5109157509157509
4.655933794998418,1.6624908424908424,1.7857875457875456,3.017142857142857
4.65902938599902,1.6624908424908424,1.7857875457875456,3.017142857142857
4.6613220869985525,1.6624908424908424,1.7857875457875456,3.017142857142857
4.6616431519978505,0.24578754578754577,0.46175824175824176,0.7147985347985348
4.667100708000362,0.24578754578754577,0.46175824175824176,0.7147985347985348
4.668669057999068,0.3384615384615384,1.0726007326007325,2.029157509157509
4.674376122999092,0.3384615384615384,1.0726007326007325,2.029157509157509
4.678967148000083,2.7197802197802194,3.021978021978022,3.3
4.679143885998201,2.7197802197802194,3.021978021978022,3.3
4.6837588859998505,2.7197802197802194,3.021978021978022,3.3
4.684637946000294,2.7197802197802194,3.021978021978022,3.3
4.685784180001065,2.7197802197802194,3.021978021978022,3.3
4.686172343997896,2.7197802197802194,3.021978021978022,3.3
4.69076630699783,2.7197802197802194,3.021978021978022,3.3
4.690983701999357,2.7197802197802194,3.021978021978022,3.3
4.695460456998262,2.7197802197802194,3.021978021978022,3.3
4.697028085000056,2.7197802197802194,3.021978021978022,3.3
4.701871381999808,2.7197802197802194,3.021978021978022,3.3
4.709055643001193,2.2926739926739925,0.46498168498168496,0.5036630036630036
4.713684652000666,2.2926739926739925,0.46498168498168496,0.5036630036630036
4.713923023999087,2.6762637362637363,2.9776556776556777,3.3
4.718871974000649,2.6762637362637363,2.9776556776556777,3.3
4.725880621997931,2.6762637362637363,2.9776556776556777,3.3
4.73034105500119,2.6649816849816848,3.3,2.86
4.731225496998377,2.6956043956043954,2.121831501831502,3.195238095238095
4.73282678599935,2.6956043956043954,2.121831501831502,3.195238095238095
4.739847402001033,2.6956043956043954,2.121831501831502,3.195238095238095
4.7428540059991064,2.6956043956043954,2.121831501831502,3.195238095238095
4.745817086000898,2.6956043956043954,2.121831501831502,3.195238095238095
4.74817383700065,2.6956043956043954,2.121831501831502,3.195238095238095
4.748443802000111,2.6956043956043954,2.121831501831502,3.195238095238095
4.755350346000341,2.6956043956043954,2.121831501831502,3.195238095238095
4.7584587300007115,2.6956043956043954,2.121831501831502,3.195238095238095
4.7608605030000035,2.6956043956043954,2.121831501831502,3.195238095238095
4.760999133999576,2.6956043956043954,2.121831501831502,3.195238095238095
4.765564892000839,0.8880586080586079,0.9178754578754579,1.5553113553113551
4.766469895999762,2.253186813186813,0.32073260073260074,0.5326739926739926
4.768925633001345,2.253186813186813,0.32073260073260074,0.5326739926739926
4.775954180000554,2.698021978021978,2.6069597069597066,3.3
4.780798687999777,2.698021978021978,2.6069597069597066,3.3
4.7884609079992515,2.1879120879120877,0.5125274725274725,0.6406593406593406
4.792315185000916,2.1879120879120877,0.5125274725274725,0.6406593406593406
4.796842314997775,2.9486446886446886,2.449010989010989,3.3
4.797102085998631,2.6778754578754578,1.0226373626373626,1.0137728937728938
4.803001946998847,2.6778754578754578,1.0226373626373626,1.0137728937728938
4.810392660998332,3.3,3.3,2.747179487179487
4.815558559999772,3.3,3.3,2.747179487179487
4.822051629998896,3.3,3.3,2.747179487179487
4.827400479000062,3.3,3.3,2.747179487179487
4.828526591998525,3.3,3.3,2.747179487179487
4.82877613799792,3.3,3.3,2.747179487179487
4.833387770999252,3.3,3.3,2.747179487179487
4.833662396998989,3.3,3.3,2.747179487179487
4.841232442999171,3.3,3.3,2.747179487179487
4.845676705001097,3.3,3.3,2.747179487179487
4.847254533000523,3.3,3.3,2.7737728937728936
4.85268110999823,2.844688644688645,0.3626373626373626,0.6350183150183151
4.852980488998583,2.844688644688645,0.3626373626373626,0.6350183150183151
4.858628089001286,2.844688644688645,0.3626373626373626,0.6350183150183151
4.859438548999606,2.6585347985347987,1.4723076923076923,1.6189743589743588
4.861063809999905,2.6585347985347987,1.4723076923076923,1.6189743589743588
4.864724680999643,3.2548717948717947,3.0348717948717945,3.3
4.8725297749988385,2.212087912087912,0.303003663003663,0.6269597069597069
4.877190158000303,2.212087912087912,0.303003663003663,0.6269597069597069
4.882125410000299,2.212087912087912,0.303003663003663,0.6269597069597069
4.890401876000396,2.212087912087912,0.303003663003663,0.6269597069597069
4.894207524001104,3.3,0.7913553113553113,1.174139194139194
4.89856576999955,3.3,0.7913553113553113,1.174139194139194
4.9003243330007535,3.3,0.7913553113553113,1.174139194139194
4.905482507998386,3.3,0.7913553113553113,1.174139194139194
4.908576459998585,3.3,0.7913553113553113,1.174139194139194
4.909900249000202,2.4909157509157507,0.30139194139194136,0.4520879120879121
4.915575062997959,2.4909157509157507,0.30139194139194136,0.4520879120879121
4.916387929999473,2.4909157509157507,0.30139194139194136,0.4520879120879121
4.918974497999443,2.4909157509157507,0.30139194139194136,0.4520879120879121
4.925415323999914,3.235531135531135,0.5294505494505495,0.5858608058608058
4.929138854000485,3.235531135531135,0.5294505494505495,0.5858608058608058
4.9350343410005735,2.6923809523809523,2.868864468864469,3.3
4.9427957919979235,2.7084981684981684,0.9646153846153847,0.9106227106227106
4.949355370001285,0.32476190476190475,0.28769230769230764,0.4037362637362637
4.956066537000879,2.1395604395604395,0.3142857142857142,0.4698168498168498
4.95934975199998,2.6536996336996337,1.224908424908425,1.199120879120879
4.961072131998662,1.6358974358974359,0.4416117216117216,0.5906959706959707
4.964917675999459,1.6358974358974359,0.4416117216117216,0.5906959706959707
4.969773828001053,1.6358974358974359,0.4416117216117216,0.5906959706959707
4.974027511998429,1.6358974358974359,0.4416117216117216,0.5906959706959707
4.975585550000687,1.6358974358974359,0.4416117216117216,0.5906959706959707
4.980684857000597,1.6358974358974359,0.4416117216117216,0.5906959706959707
4.984687164000206,1.6358974358974359,0.4416117216117216,0.5906959706959707
4.988978747998772,1.6358974358974359,0.4416117216117216,0.5906959706959707
4.989253768999333,1.6358974358974359,0.4416117216117216,0.5906959706959707
4.994848287999048,1.6358974358974359,0.4416117216117216,0.5906959706959707
4.995668275998469,2.8873992673992674,2.5876190476190475,3.3
4.997349242999917,2.8873992673992674,2.5876190476190475,3.3
5.001157267997769,2.8873992673992674,2.5876190476190475,3.3
5.007122840001102,2.8873992673992674,2.5876190476190475,3.3
5.0102954329995555,2.8873992673992674,2.5876190476190475,3.3
5.012653975998546,2.8873992673992674,2.5876190476190475,3.3
5.012801570999727,2.8873992673992674,2.5876190476190475,3.3
5.017608138001378,2.8873992673992674,2.5876190476190475,3.3
5.024476580998453,2.6569230769230767,1.436043956043956,1.5851282051282052
5.0281711839998025,2.6569230769230767,1.436043956043956,1.5851282051282052
5.028373941000609,2.6569230769230767,1.436043956043956,1.5851282051282052
5.033155028999317,2.6569230769230767,1.436043956043956,1.5851282051282052
5.039251865000551,2.6706227106227107,1.7108424908424908,2.0557509157509157
5.04383367599803,2.6706227106227107,1.7108424908424908,2.0557509157509157
5.044069020997995,2.6706227106227107,1.7108424908424908,2.0557509157509157
5.048538742998062,2.6706227106227107,1.7108424908424908,2.0557509157509157
5.049435042998084,2.714945054945055,2.3668131868131868,3.3
5.051319988000614,2.714945054945055,2.3668131868131868,3.3
5.053978985000867,2.714945054945055,2.3668131868131868,3.3
5.0577080420007405,2.690769230769231,2.540879120879121,2.5634432234432234
5.0629109340006835,2.690769230769231,2.540879120879121,2.5634432234432234
5.066119993000029,2.690769230769231,2.540879120879121,2.5634432234432234
5.06698837300064,2.2056410256410253,0.3602197802197802,0.5923076923076923
5.068603358999098,2.2056410256410253,0.3602197802197802,0.5923076923076923
5.072279445997992,2.6923809523809523,3.055018315018315,3.3
5.077601873999811,2.9389743589743587,1.2386080586080586,1.9961172161172158
5.079901986999175,2.9389743589743587,1.2386080586080586,1.9961172161172158
5.080227861999447,2.9389743589743587,1.2386080586080586,1.9961172161172158
5.084640517998196,2.9389743589743587,1.2386080586080586,1.9961172161172158
5.085541903998092,2.9389743589743587,1.2386080586080586,1.9961172161172158
5.087190346999705,2.9389743589743587,1.2386080586080586,1.9961172161172158
5.0909611099996255,2.9389743589743587,1.2386080586080586,1.9961172161172158
5.095368779999262,2.9389743589743587,1.2386080586080586,1.9961172161172158
5.097781837001094,2.9389743589743587,1.2386080586080586,1.9961172161172158
5.102929204000247,2.9389743589743587,1.2386080586080586,1.9961172161172158
5.107466852998186,2.9389743589743587,1.2386080586080586,1.9961172161172158
5.107617818001017,2.9389743589743587,1.2386080586080586,1.9961172161172158
5.11281709999821,2.9389743589743587,1.2386080586080586,1.9961172161172158
5.115865824998764,3.111428571428571,2.8229304029304028,3.3
5.11934050399941,3.111428571428571,2.8229304029304028,3.3
5.126389720000589,3.111428571428571,2.8229304029304028,3.3
5.1308278430005885,3.111428571428571,2.8229304029304028,3.3
5.131689638998068,3.111428571428571,2.8229304029304028,3.3
5.133266190998256,3.3,3.3,3.3
5.140078783999343,3.3,3.3,3.3
5.14386925099825,0.42065934065934063,0.30139194139194136,0.4802930402930403
5.148857754000346,0.42065934065934063,0.30139194139194136,0.4802930402930403
5.14898193100089,0.42065934065934063,0.30139194139194136,0.4802930402930403
5.1540573940001195,0.42065934065934063,0.30139194139194136,0.4802930402930403
5.157656917999702,2.714945054945055,3.3,2.8414652014652013
5.157911245998548,2.714945054945055,3.3,2.8414652014652013
5.1623913799994625,2.714945054945055,3.3,2.8414652014652013
5.163295313999697,1.5722344322344322,0.473040293040293,0.5173626373626373
5.16480922899791,1.5722344322344322,0.473040293040293,0.5173626373626373
5.169064748999517,1.5722344322344322,0.473040293040293,0.5173626373626373
5.1707086989990785,1.5722344322344322,0.473040293040293,0.5173626373626373
5.174371395998605,1.5722344322344322,0.473040293040293,0.5173626373626373
5.179476926998177,1.5722344322344322,0.473040293040293,0.5173626373626373
5.183967246997781,1.5722344322344322,0.473040293040293,0.5173626373626373
5.184772213000542,1.5722344322344322,0.473040293040293,0.5173626373626373
5.186341446998995,1.5722344322344322,0.473040293040293,0.5173626373626373
5.19097525899997,1.5722344322344322,0.473040293040293,0.5173626373626373
5.191254329998628,1.5722344322344322,0.473040293040293,0.5173626373626373
5.196585244000744,1.5722344322344322,0.473040293040293,0.5173626373626373
5.199573627000063,3.3,0.9372161172161171,0.8663003663003663
5.201968795998255,3.3,0.9372161172161171,0.8663003663003663
5.202078267000616,3.3,0.9372161172161171,0.8663003663003663
5.206518621998839,3.3,0.9372161172161171,0.8663003663003663
5.208721028000582,3.3,0.9372161172161171,0.8663003663003663
5.208954763998918,3.3,0.9372161172161171,0.8663003663003663
5.213252491001185,3.3,0.9372161172161171,0.8663003663003663
5.2156115010002395,2.697216117216117,3.3,2.8293772893772893
5.21577870100009,2.697216117216117,3.3,2.8293772893772893
5.2202703260009,2.697216117216117,3.3,2.8293772893772893
5.221129822999501,2.697216117216117,3.3,2.8293772893772893
5.22267150100015,2.697216117216117,3.3,2.8293772893772893
5.227153412000916,2.697216117216117,3.3,2.8293772893772893
5.2280805900009,2.697216117216117,3.3,2.8293772893772893
5.229612732000533,2.697216117216117,3.3,2.8293772893772893
5.234002111999871,2.697216117216117,3.3,2.8293772893772893
5.235544146999018,2.697216117216117,3.3,2.8293772893772893
5.239913878998777,2.697216117216117,3.3,2.8293772893772893
5.241453138998622,2.697216117216117,3.3,2.8293772893772893
5.245805904000008,2.697216117216117,3.3,2.8293772893772893
5.246697851998761,2.697216117216117,3.3,2.8293772893772893
5.248271797998314,2.697216117216117,3.3,2.8293772893772893
5.252804495001328,2.697216117216117,3.3,2.8293772893772893
5.253087871999014,2.697216117216117,3.3,2.8293772893772893
5.2576191689986445,2.697216117216117,3.3,2.8293772893772893
5.258503231998475,2.697216117216117,3.3,2.8293772893772893
5.260171197998716,2.697216117216117,3.3,2.8293772893772893
5.263720943999942,2.697216117216117,3.3,2.8293772893772893
5.268884204000642,2.697216117216117,3.3,2.8293772893772893
5.2725926249986514,2.6117948717948716,0.506080586080586,0.5117216117216117
5.277740377998271,2.6117948717948716,0.506080586080586,0.5117216117216117
5.282049377001385,3.1968498168498165,0.6720879120879121,0.8558241758241758
5.28361552899878,2.237875457875458,1.6810256410256408,2.3619780219780218
5.287990398999682,2.237875457875458,1.6810256410256408,2.3619780219780218
5.288865161001013,2.237875457875458,1.6810256410256408,2.3619780219780218
5.290431404999254,2.237875457875458,1.6810256410256408,2.3619780219780218
5.294773780999094,2.237875457875458,1.6810256410256408,2.3619780219780218
5.296301364000101,2.6956043956043954,3.3,3.3
5.300694161000138,2.6956043956043954,3.3,3.3
5.3015448010010005,2.6956043956043954,3.3,3.3
5.303080830999534,2.6956043956043954,3.3,3.3
5.30771213099797,2.6956043956043954,3.3,3.3
5.30863404900083,2.6956043956043954,3.3,3.3
5.310270963000221,2.6956043956043954,3.3,3.3
5.317182650000177,1.9123076923076923,0.8767765567765567,1.3441758241758242
5.32189889700021,2.718168498168498,2.548937728937729,2.5666666666666664
5.322111875000701,2.718168498168498,2.548937728937729,2.5666666666666664
5.326635375000478,2.718168498168498,2.548937728937729,2.5666666666666664
5.327480758998718,2.718168498168498,2.548937728937729,2.5666666666666664
5.329024752998521,2.718168498168498,2.548937728937729,2.5666666666666664
5.33366080199994,2.718168498168498,2.548937728937729,2.5666666666666664
5.33380335900074,2.718168498168498,2.548937728937729,2.5666666666666664
5.338365491999866,2.718168498168498,2.548937728937729,2.5666666666666664
5.339901274001022,2.705274725274725,0.8767765567765567,0.834065934065934
5.3436936770012835,2.705274725274725,0.8767765567765567,0.834065934065934
5.348216739999771,2.705274725274725,0.8767765567765567,0.834065934065934
5.348539602000528,2.705274725274725,0.8767765567765567,0.834065934065934
5.3530913069989765,2.705274725274725,0.8767765567765567,0.834065934065934
5.353428178998001,2.22981684981685,0.9750915750915751,1.543223443223443
5.357852068998909,2.22981684981685,0.9750915750915751,1.543223443223443
5.3587313829993946,2.22981684981685,0.9750915750915751,1.543223443223443
5.360439211999619,2.22981684981685,0.9750915750915751,1.543223443223443
5.366634728001372,2.22981684981685,0.9750915750915751,1.543223443223443
5.371199165998405,2.22981684981685,0.9750915750915751,1.543223443223443
5.377078500998323,2.22981684981685,0.9750915750915751,1.543223443223443
5.389487590000499,2.22981684981685,0.9750915750915751,1.543223443223443
5.399163525999029,2.22981684981685,0.9750915750915751,1.543223443223443
5.406336132000433,2.22981684981685,0.9750915750915751,1.543223443223443
5.410036356999626,2.22981684981685,0.9750915750915751,1.543223443223443
5.4151558080011455,2.22981684981685,0.9750915750915751,1.543223443223443
5.4200693359998695,2.22981684981685,0.9750915750915751,1.543223443223443
5.427543015997799,2.22981684981685,0.9750915750915751,1.543223443223443
5.431916286997875,1.4755311355311356,0.5165567765567766,1.0008791208791208
5.4339388699991105,3.3,3.0356776556776555,3.3
5.435478248000436,3.3,3.0356776556776555,3.3
5.440859802998602,3.3,3.0356776556776555,3.3
5.441048624998075,0.4037362637362637,0.5221978021978021,0.5520146520146519
5.446095382998465,0.4037362637362637,0.5221978021978021,0.5520146520146519
5.450575708000542,0.4037362637362637,0.5221978021978021,0.5520146520146519
5.450842473997909,0.4037362637362637,0.5221978021978021,0.5520146520146519
5.459943228001066,0.4037362637362637,0.5221978021978021,0.5520146520146519
5.464351000999159,0.4037362637362637,0.5221978021978021,0.5520146520146519
5.468245543997909,0.4037362637362637,0.5221978021978021,0.5520146520146519
5.472141301001102,3.208131868131868,0.8453479853479853,0.8219780219780219
5.474338158997853,3.208131868131868,0.8453479853479853,0.8219780219780219
5.4747075890009,3.208131868131868,0.8453479853479853,0.8219780219780219
5.481300201998238,3.208131868131868,0.8453479853479853,0.8219780219780219
5.4870432909992815,0.946080586080586,0.5157509157509157,0.5987545787545787
5.492894696999429,3.0195604395604394,0.7284981684981684,0.6898168498168498
5.499230172001262,3.0195604395604394,0.7284981684981684,0.6898168498168498
5.507623443998455,2.6528937728937727,1.8494505494505493,1.3433699633699634
5.5137150660011685,2.6528937728937727,1.8494505494505493,1.3433699633699634
5.517466188000981,2.6528937728937727,1.8494505494505493,1.3433699633699634
5.526460473000043,2.6528937728937727,1.8494505494505493,1.3433699633699634
5.531452660998184,3.3,3.0348717948717945,3.3
5.539765567998984,3.3,3.0348717948717945,3.3
5.545287393000763,3.3,3.0348717948717945,3.3
5.5453966519999085,2.6673992673992672,2.548937728937729,2.5626373626373624
5.55000845199902,2.6673992673992672,2.548937728937729,2.5626373626373624
5.550316656997893,2.6673992673992672,2.548937728937729,2.5626373626373624
5.556596786998853,2.6673992673992672,2.548937728937729,2.5626373626373624
5.5605308339982,2.6673992673992672,2.548937728937729,2.5626373626373624
5.564189447999524,2.6673992673992672,2.548937728937729,2.5626373626373624
5.570923151000898,2.6673992673992672,2.548937728937729,2.5626373626373624
5.574058008998691,2.6673992673992672,2.548937728937729,2.5626373626373624
5.575609338000504,2.6673992673992672,2.548937728937729,2.5626373626373624
5.580340314998466,2.6673992673992672,2.548937728937729,2.5626373626373624
5.580492459001107,0.12329670329670328,0.29413919413919415,0.36747252747252745
5.589290202999109,0.12329670329670328,0.29413919413919415,0.36747252747252745
5.595142189999024,0.12329670329670328,0.29413919413919415,0.36747252747252745
5.599473559999751,0.12329670329670328,0.29413919413919415,0.36747252747252745
5.60232910600098,3.1259340659340658,1.0758241758241758,0.8163369963369963
5.604532247998577,3.1259340659340658,1.0758241758241758,0.8163369963369963
5.604790866000258,3.1259340659340658,1.0758241758241758,0.8163369963369963
5.60952481500135,3.1259340659340658,1.0758241758241758,0.8163369963369963
5.609850329998153,3.1259340659340658,1.0758241758241758,0.8163369963369963
5.614201837001019,3.1259340659340658,1.0758241758241758,0.8163369963369963
5.615121447001002,3.1259340659340658,1.0758241758241758,0.8163369963369963
5.616661175998161,3.1259340659340658,1.0758241758241758,0.8163369963369963
5.622252107001259,3.1259340659340658,1.0758241758241758,0.8163369963369963
5.622428113998467,2.64,0.8155311355311355,0.693040293040293
5.627500434999092,2.64,0.8155311355311355,0.693040293040293
5.631513498999993,2.64,0.8155311355311355,0.693040293040293
5.635528447000979,2.64,0.8155311355311355,0.693040293040293
5.638665893999132,2.64,0.8155311355311355,0.693040293040293
5.639598339999793,2.64,0.8155311355311355,0.693040293040293
5.641170286999113,2.64,0.8155311355311355,0.693040293040293
5.645030035000673,2.64,0.8155311355311355,0.693040293040293
5.649469272000715,2.64,0.8155311355311355,0.693040293040293
5.652113183001347,2.64,0.8155311355311355,0.693040293040293
5.656803105001018,2.64,0.8155311355311355,0.693040293040293
5.661962184000004,2.64,0.8155311355311355,0.693040293040293
5.665604372999951,2.64,0.8155311355311355,0.693040293040293
5.6657205800001975,0.8429304029304028,0.38278388278388276,1.041978021978022
5.6739749099979235,0.8429304029304028,0.38278388278388276,1.041978021978022
5.67986762199871,0.8429304029304028,0.38278388278388276,1.041978021978022
5.687758683998254,3.3,1.124981684981685,0.78007326007326
5.691437094999856,3.3,1.124981684981685,0.78007326007326
5.691538525999931,3.3,1.124981684981685,0.78007326007326
5.696375774001353,2.713333333333333,3.3,2.8422710622710623
5.702311570999882,2.713333333333333,3.3,2.8422710622710623
5.711293203999958,2.713333333333333,3.3,2.8422710622710623
5.717161837001186,2.713333333333333,3.3,2.8422710622710623
5.717708538999432,2.713333333333333,3.3,2.8422710622710623
5.721251003000361,2.713333333333333,3.3,2.8422710622710623
5.726331305999338,2.713333333333333,3.3,2.8422710622710623
5.730242083998746,2.713333333333333,3.3,2.8422710622710623
5.733694018999813,2.713333333333333,3.3,2.8422710622710623
5.734073447998526,2.713333333333333,3.3,2.8422710622710623
5.738975320000463,2.713333333333333,3.3,2.8422710622710623
5.742952846998378,0.13538461538461538,0.3102564102564102,0.448058608058608
5.746689039999183,1.3884981684981685,0.3876190476190476,0.5713553113553113
5.75425645499854,1.3884981684981685,0.3876190476190476,0.5713553113553113
5.759853972998826,1.3884981684981685,0.3876190476190476,0.5713553113553113
5.7600431940009,1.3884981684981685,0.3876190476190476,0.5713553113553113
5.765789817000041,1.3884981684981685,0.3876190476190476,0.5713553113553113
5.76605430699783,2.6673992673992672,0.585054945054945,0.7067399267399267
5.7739974389987765,2.6673992673992672,0.585054945054945,0.7067399267399267
5.77841602099943,2.6673992673992672,0.585054945054945,0.7067399267399267
5.781315414998971,2.6673992673992672,0.585054945054945,0.7067399267399267
5.786392622998392,2.6673992673992672,0.585054945054945,0.7067399267399267
5.791364558997884,2.6673992673992672,0.585054945054945,0.7067399267399267
5.794369645998813,2.6673992673992672,0.585054945054945,0.7067399267399267
5.797343624999485,2.66014652014652,2.6456410256410257,2.432087912087912
5.799650646000373,2.66014652014652,2.6456410256410257,2.432087912087912
5.79985167400082,2.577948717948718,0.8397069597069596,0.6317948717948718
5.8075869220010645,2.577948717948718,0.8397069597069596,0.6317948717948718
5.8140733529980935,2.577948717948718,0.8397069597069596,0.6317948717948718
5.8193762009977945,2.577948717948718,0.8397069597069596,0.6317948717948718
5.822375963998638,2.577948717948718,0.8397069597069596,0.6317948717948718
5.824553804999596,2.577948717948718,0.8397069597069596,0.6317948717948718
5.824827689000813,2.577948717948718,0.8397069597069596,0.6317948717948718
5.829340978998516,2.577948717948718,0.8397069597069596,0.6317948717948718
5.830923450001137,3.2468131868131866,0.8356776556776556,1.0452014652014652
5.836145467001188,1.5754578754578754,0.8453479853479853,1.2023443223443222
5.839132139000867,2.694798534798535,3.3,2.852747252747253
5.841904705997877,2.694798534798535,3.3,2.852747252747253
5.844863545000408,2.694798534798535,3.3,2.852747252747253
5.847073584998725,0.8235897435897436,0.3908424908424908,0.8888644688644688
5.847366875001171,0.8235897435897436,0.3908424908424908,0.8888644688644688
5.853297163997922,2.7197802197802194,3.3,3.3
5.858688224998332,2.7197802197802194,3.3,3.3
5.860652166000364,2.7197802197802194,3.3,3.3
5.862169716998324,2.7197802197802194,3.3,3.3
5.866883231999964,2.7197802197802194,3.3,3.3
5.873673752001196,2.7197802197802194,3.3,3.3
5.877412497000478,2.7197802197802194,3.3,3.3
5.882733147998806,2.7197802197802194,3.3,3.3
5.886438730998634,2.7197802197802194,3.3,3.3
5.891100969998661,2.7197802197802194,3.3,3.3
5.896046809000836,2.697216117216117,3.3,3.3
5.902208661998884,2.697216117216117,3.3,3.3
5.90700363599899,2.697216117216117,3.3,3.3
5.910842461998982,2.697216117216117,3.3,3.3
5.915256440999656,2.697216117216117,3.3,3.3
5.91618783100057,2.697216117216117,3.3,3.3
5.918526476998522,2.697216117216117,3.3,3.3
5.927628975998232,2.697216117216117,3.3,3.3
5.932979388999229,2.697216117216117,3.3,3.3
5.936028470998281,2.697216117216117,3.3,3.3
5.936562535000121,2.6714285714285713,3.3,3.3
5.940598410001257,2.6714285714285713,3.3,3.3
5.942890537000494,2.318461538461538,0.5721611721611721,0.6704761904761904
5.943680248998135,2.318461538461538,0.5721611721611721,0.6704761904761904
5.945286789999955,2.318461538461538,0.5721611721611721,0.6704761904761904
5.949731171000167,2.318461538461538,0.5721611721611721,0.6704761904761904
5.953393211999355,2.718168498168498,3.3,3.3
5.959324363000633,2.718168498168498,3.3,3.3
5.964927779998106,0.7704029304029304,0.31750915750915754,0.4593406593406593
5.973550122998859,0.7704029304029304,0.31750915750915754,0.4593406593406593
5.978397618000599,0.7704029304029304,0.31750915750915754,0.4593406593406593
5.985523478000687,2.693186813186813,0.7196336996336996,0.6293772893772893
5.99140596199868,2.693186813186813,0.7196336996336996,0.6293772893772893
5.995254290999583,2.681098901098901,2.9760439560439558,3.3
5.999608066998917,2.681098901098901,2.9760439560439558,3.3
6.001010487998428,2.681098901098901,2.9760439560439558,3.3
6.007531169998401,2.681098901098901,2.9760439560439558,3.3
6.011299760000838,2.681098901098901,2.9760439560439558,3.3
6.018621571998665,2.681098901098901,2.9760439560439558,3.3
6.026056743998197,2.681098901098901,2.9760439560439558,3.3
6.031713754000521,2.681098901098901,2.9760439560439558,3.3
6.042228910999256,2.681098901098901,2.9760439560439558,3.3
6.050631276000786,2.681098901098901,2.9760439560439558,3.3
6.058026384998811,2.681098901098901,2.9760439560439558,3.3
6.063397302001249,2.681098901098901,2.9760439560439558,3.3
6.064225082998746,2.681098901098901,2.9760439560439558,3.3
6.065869711997948,2.681098901098901,2.9760439560439558,3.3
6.075146797000343,2.681098901098901,2.9760439560439558,3.3
6.080835124001169,2.681098901098901,2.9760439560439558,3.3
6.090787436998653,0.4496703296703296,0.32395604395604394,0.46417582417582415
6.097189603999141,0.4496703296703296,0.32395604395604394,0.46417582417582415
6.102172253999015,0.4496703296703296,0.32395604395604394,0.46417582417582415
6.105729856000835,0.4496703296703296,0.32395604395604394,0.46417582417582415
6.105853917000786,0.4496703296703296,0.32395604395604394,0.46417582417582415
6.1118384529981995,0.4496703296703296,0.32395604395604394,0.46417582417582415
6.118108029000723,0.4496703296703296,0.32395604395604394,0.46417582417582415
6.1227198079977825,1.9123076923076923,0.45369963369963373,0.6583882783882784
6.127911355000833,1.9123076923076923,0.45369963369963373,0.6583882783882784
6.13162891599859,1.9123076923076923,0.45369963369963373,0.6583882783882784
6.139859465998597,2.241098901098901,2.0347985347985347,3.004249084249084
6.144438938998064,2.241098901098901,2.0347985347985347,3.004249084249084
6.145263557998987,0.46095238095238095,0.32073260073260074,0.4520879120879121
6.1474640169981285,0.46095238095238095,0.32073260073260074,0.4520879120879121
6.148287616000744,0.46095238095238095,0.32073260073260074,0.4520879120879121
6.150340126998344,0.46095238095238095,0.32073260073260074,0.4520879120879121
6.153980279999814,0.46095238095238095,0.32073260073260074,0.4520879120879121
6.1613850590001675,0.46095238095238095,0.32073260073260074,0.4520879120879121
6.166527966997819,0.46095238095238095,0.32073260073260074,0.4520879120879121
6.172527324000839,1.0468131868131867,1.0661538461538462,2.4876923076923076
6.175820330998249,3.3,1.1773626373626374,1.8752380952380951
6.176816778999637,3.3,1.1773626373626374,1.8752380952380951
6.17776176299958,3.3,1.1773626373626374,1.8752380952380951
6.178606819001288,3.3,1.1773626373626374,1.8752380952380951
6.180573294997885,3.3,1.1773626373626374,1.8752380952380951
6.182324739998876,3.3,1.1773626373626374,1.8752380952380951
6.186464112997783,3.3,1.1773626373626374,1.8752380952380951
6.188095917997998,3.3,1.1773626373626374,1.8752380952380951
6.192085885999404,2.698021978021978,3.3,3.3
6.195437612997921,2.2096703296703293,2.0154578754578756,2.95025641025641
6.196336218999932,2.2096703296703293,2.0154578754578756,2.95025641025641
6.1974238799994055,2.2096703296703293,2.0154578754578756,2.95025641025641
6.19776531000025,2.2096703296703293,2.0154578754578756,2.95025641025641
6.202734708000207,2.2096703296703293,2.0154578754578756,2.95025641025641
6.206524712000828,3.3,3.0485714285714285,3.3
6.210911472000589,3.3,3.0485714285714285,3.3
6.212437160000263,3.3,3.0485714285714285,3.3
6.21675094999955,3.3,3.0485714285714285,3.3
6.218284548998781,3.3,3.0485714285714285,3.3
6.2233361459984735,3.3,3.0485714285714285,3.3
6.2269953489994805,3.3,3.0485714285714285,3.3
6.227117651000299,3.3,3.0485714285714285,3.3
6.231535637998604,2.697216117216117,3.1098168498168497,3.3
6.233115283997904,2.697216117216117,3.1098168498168497,3.3
6.239042956000048,2.7125274725274724,3.3,3.3
6.245155091000925,2.7125274725274724,3.3,3.3
6.2511289850008325,2.7125274725274724,3.3,3.3
6.255235520999122,2.7125274725274724,3.3,3.3
6.256775865000236,2.7125274725274724,3.3,3.3
6.260491419998289,2.7125274725274724,3.3,3.3
6.265621055998054,2.7125274725274724,3.3,3.3
6.27079263899941,2.7125274725274724,3.3,3.3
6.272466081998573,2.7125274725274724,3.3,3.3
6.276304039998649,2.7125274725274724,3.3,3.3
6.280737242999749,3.3,1.1983150183150182,0.8582417582417583
6.281584698001097,3.3,1.1983150183150182,0.8582417582417583
6.283183804000146,3.3,1.1983150183150182,0.8582417582417583
6.287030095998489,3.3,1.1983150183150182,0.8582417582417583
6.2915236039989395,3.3,1.1983150183150182,0.8582417582417583
6.291780650000874,3.3,1.1983150183150182,0.8582417582417583
6.296295609998197,3.3,1.1983150183150182,0.8582417582417583
6.29711545399914,2.6762637362637363,2.4715750915750916,2.2596336996336994
6.298649526997906,2.6762637362637363,2.4715750915750916,2.2596336996336994
6.30329043600068,2.6762637362637363,2.4715750915750916,2.2596336996336994
6.303530500001216,2.6762637362637363,2.4715750915750916,2.2596336996336994
6.307896790000086,2.6762637362637363,2.4715750915750916,2.2596336996336994
6.308796621000511,2.6762637362637363,2.4715750915750916,2.2596336996336994
6.31040546299846,2.6762637362637363,2.4715750915750916,2.2596336996336994
6.314946157999657,2.6762637362637363,2.4715750915750916,2.2596336996336994
6.315789112999482,2.6762637362637363,2.4715750915750916,2.2596336996336994
6.3173971559990605,2.6762637362637363,2.4715750915750916,2.2596336996336994
6.321867145998112,0.9613919413919414,0.3295970695970696,0.5278388278388277
6.322170470000856,0.9613919413919414,0.3295970695970696,0.5278388278388277
6.327401151000231,0.9613919413919414,0.3295970695970696,0.5278388278388277
6.330592161000823,2.3007326007326006,0.4931868131868131,0.7478388278388278
6.331472155001393,2.3007326007326006,0.4931868131868131,0.7478388278388278
6.333667075999983,2.3007326007326006,0.4931868131868131,0.7478388278388278
6.334499436001352,2.3007326007326006,0.4931868131868131,0.7478388278388278
6.336062434998894,2.3007326007326006,0.4931868131868131,0.7478388278388278
6.340563746998669,2.3007326007326006,0.4931868131868131,0.7478388278388278
6.342067563000455,2.3007326007326006,0.4931868131868131,0.7478388278388278
6.346438054999453,2.3007326007326006,0.4931868131868131,0.7478388278388278
