time,emg1,emg2,emg3
0.03336782599944854,2.0049816849816846,1.0927472527472526,0.4464468864468864
0.033969105999858584,2.0049816849816846,1.0927472527472526,0.4464468864468864
0.04706743600399932,2.0049816849816846,1.0927472527472526,0.4464468864468864
0.06725764600560069,2.0049816849816846,1.0927472527472526,0.4464468864468864
0.09131363300548401,2.0049816849816846,1.0927472527472526,0.4464468864468864
0.11933915000554407,0.0,0.2063003663003663,0.06043956043956044
0.119804940004542,0.0,0.2063003663003663,0.06043956043956044
0.13600541000050725,2.694798534798535,0.7115750915750916,0.3223443223443223
0.14976851300161798,2.694798534798535,0.7115750915750916,0.3223443223443223
0.16027357400162145,2.694798534798535,0.7115750915750916,0.3223443223443223
0.16876885700185085,2.694798534798535,0.7115750915750916,0.3223443223443223
0.17499024300195742,3.3,0.41018315018315016,0.13619047619047617
0.1804783750048955,3.3,0.41018315018315016,0.13619047619047617
0.18078996799886227,3.3,0.41018315018315016,0.13619047619047617
0.18908325300435536,3.3,0.41018315018315016,0.13619047619047617
0.1968158290037536,3.3,0.4810989010989011,0.19824175824175824
0.20326870999997482,0.0,0.6648351648351648,0.23934065934065935
0.2082602800001041,0.0,0.6648351648351648,0.23934065934065935
0.2118910240023979,0.0,0.6648351648351648,0.23934065934065935
0.21953025700349826,0.0,0.6648351648351648,0.23934065934065935
0.22583602500526467,0.5439560439560439,0.28285714285714286,0.1241025641025641
0.2308430440025404,0.5439560439560439,0.28285714285714286,0.1241025641025641
0.2357507640044787,0.5439560439560439,0.28285714285714286,0.1241025641025641
0.2395251220004866,0.5439560439560439,0.28285714285714286,0.1241025641025641
0.2459027930017328,0.5439560439560439,0.28285714285714286,0.1241025641025641
0.2508576170002925,0.5439560439560439,0.28285714285714286,0.1241025641025641
0.2570842429995537,0.2836630036630036,0.4198534798534798,0.1821245421245421
0.26231576400459744,0.2836630036630036,0.4198534798534798,0.1821245421245421
0.26551461800409015,0.2836630036630036,0.4198534798534798,0.1821245421245421
0.26588616400113096,0.2836630036630036,0.4198534798534798,0.1821245421245421
0.27841448500112165,0.2836630036630036,0.4198534798534798,0.1821245421245421
0.2859584690013435,0.7357509157509158,0.1265201465201465,0.01531135531135531
0.2921813409993774,0.7357509157509158,0.1265201465201465,0.01531135531135531
0.2971086469988222,0.7357509157509158,0.1265201465201465,0.01531135531135531
0.30190704700362403,0.6116483516483516,0.36344322344322344,0.2369230769230769
0.3080168209999101,0.6116483516483516,0.36344322344322344,0.2369230769230769
0.31411999800184276,0.6116483516483516,0.36344322344322344,0.2369230769230769
0.32061936700483784,0.6116483516483516,0.36344322344322344,0.2369230769230769
0.32556425600341754,0.5221978021978021,0.19904761904761903,0.03868131868131868
0.3304066350028734,0.5221978021978021,0.19904761904761903,0.03868131868131868
0.33664262700040126,0.0,0.24498168498168496,0.04673992673992674
0.34163250300480286,0.0,0.24498168498168496,0.04673992673992674
0.3473704100033501,2.294285714285714,0.29010989010989013,0.07575091575091575
0.36290150500281015,2.294285714285714,0.29010989010989013,0.07575091575091575
0.3632437199994456,2.294285714285714,0.29010989010989013,0.07575091575091575
0.37526067699946,2.294285714285714,0.29010989010989013,0.07575091575091575
0.3891801280042273,0.3972893772893773,0.4182417582417582,0.1926007326007326
0.4082808980019763,0.3972893772893773,0.4182417582417582,0.1926007326007326
0.4086422210020828,0.0,0.19018315018315018,0.12974358974358974
0.4172815089987125,1.8558974358974358,1.49003663003663,0.5221978021978021
0.4280393150038435,1.8558974358974358,1.49003663003663,0.5221978021978021
0.4397375260014087,1.8558974358974358,1.49003663003663,0.5221978021978021
0.4491491959997802,1.8558974358974358,1.49003663003663,0.5221978021978021
0.46227695300331106,3.3,0.5294505494505495,0.19904761904761903
0.4751589890001924,0.6027838827838827,0.19985347985347984,0.05802197802197802
0.48889193200011505,1.1693040293040293,1.7277655677655677,0.6511355311355311
0.5052324870048324,1.1693040293040293,1.7277655677655677,0.6511355311355311
0.516952730002231,1.1693040293040293,1.7277655677655677,0.6511355311355311
0.5172214650010574,1.1693040293040293,1.7277655677655677,0.6511355311355311
0.5279218060022686,1.1693040293040293,1.7277655677655677,0.6511355311355311
0.5389657839987194,1.1693040293040293,1.7277655677655677,0.6511355311355311
0.5484823760052677,0.0,0.33282051282051284,0.007252747252747252
0.5595278770051664,3.3,0.43032967032967034,0.1692307692307692
0.5706016110052587,3.3,0.43032967032967034,0.1692307692307692
0.5807062660023803,1.8663736263736261,0.6454945054945055,0.13216117216117215
0.592095160005556,1.8663736263736261,0.6454945054945055,0.13216117216117215
0.6050832660039305,1.8663736263736261,0.6454945054945055,0.13216117216117215
0.6207067069990444,1.8663736263736261,0.6454945054945055,0.13216117216117215
0.6309147159990971,0.0,0.22967032967032966,0.05882783882783882
0.6432506170021952,0.0,0.22967032967032966,0.05882783882783882
0.6568377630028408,0.0,0.22967032967032966,0.05882783882783882
0.6657411140040495,0.0,0.22967032967032966,0.05882783882783882
0.6750667060041451,0.0,0.22967032967032966,0.05882783882783882
0.6835515839993604,0.0,0.22967032967032966,0.05882783882783882
0.6932527560056769,0.0,0.22967032967032966,0.05882783882783882
0.7008359030005522,0.0,0.22967032967032966,0.05882783882783882
0.7086002870055381,0.0,0.22967032967032966,0.05882783882783882
0.7151197290004347,0.0,0.22967032967032966,0.05882783882783882
0.720630711002741,0.0,0.3529670329670329,0.0701098901098901
0.7209193170056096,0.0,0.3529670329670329,0.0701098901098901
0.7276490490039578,0.0,0.3529670329670329,0.0701098901098901
0.7338069320030627,0.0,0.3529670329670329,0.0701098901098901
0.7415535980035202,0.0,0.3529670329670329,0.0701098901098901
0.7478409070026828,0.0,0.3529670329670329,0.0701098901098901
0.7529807050013915,0.0,0.3529670329670329,0.0701098901098901
0.7564759130036691,0.0,0.32073260073260074,0.026593406593406595
0.7626675639985478,0.0,0.32073260073260074,0.026593406593406595
0.767782167000405,0.0,0.32073260073260074,0.026593406593406595
0.7729572690004716,0.0,0.32073260073260074,0.026593406593406595
0.7732491550050327,0.0,0.32073260073260074,0.026593406593406595
0.7829642150027212,0.0,0.32073260073260074,0.026593406593406595
0.7946789410052588,0.0,0.32073260073260074,0.026593406593406595
0.8046354059988516,0.7808791208791208,0.5979487179487178,0.24256410256410255
0.8176912820053985,0.7808791208791208,0.5979487179487178,0.24256410256410255
0.8292056510035763,0.5689377289377289,0.23531135531135527,0.10395604395604395
0.8294762510049623,0.5689377289377289,0.23531135531135527,0.10395604395604395
0.8382956409986946,0.5689377289377289,0.23531135531135527,0.10395604395604395
0.8452231160044903,0.5689377289377289,0.23531135531135527,0.10395604395604395
0.8500956990028499,0.5826373626373627,0.1402197802197802,0.02901098901098901
0.8564692889995058,0.5826373626373627,0.1402197802197802,0.02901098901098901
0.8615162970017991,0.5826373626373627,0.1402197802197802,0.02901098901098901
0.8657170299993595,0.5842490842490843,0.19179487179487179,0.016117216117216115
0.8670235750032589,0.5842490842490843,0.19179487179487179,0.016117216117216115
0.8671826089994283,0.5842490842490843,0.19179487179487179,0.016117216117216115
0.8806640570037416,0.5842490842490843,0.19179487179487179,0.016117216117216115
0.8938263650052249,0.5842490842490843,0.19179487179487179,0.016117216117216115
0.9079831870039925,2.698827838827839,0.776043956043956,0.2949450549450549
0.922688750004454,2.698827838827839,0.776043956043956,0.2949450549450549
0.9410898120040656,3.3,0.49560439560439556,0.1676190476190476
0.9414518519988633,3.3,0.49560439560439556,0.1676190476190476
0.9517648399996688,3.3,0.49560439560439556,0.1676190476190476
0.9601799779993598,3.3,0.49560439560439556,0.1676190476190476
0.9675978029990802,0.0,0.2562637362637363,0.012087912087912087
0.9758512750049704,2.693992673992674,0.7695970695970695,0.32153846153846155
0.9824617600024794,0.0,0.24659340659340656,0.010476190476190476
0.9891924820040003,0.0,0.24659340659340656,0.010476190476190476
0.9987600880049285,0.0,0.24659340659340656,0.010476190476190476
1.0077097590037738,0.0,0.24659340659340656,0.010476190476190476
1.013697400005185,0.0,0.24659340659340656,0.010476190476190476
1.0186795760018867,0.0,0.25223443223443226,0.10556776556776555
1.025194834001013,0.0,0.25223443223443226,0.10556776556776555
1.0302780050042202,3.3,0.46175824175824176,0.13296703296703297
1.0327959339992958,3.3,0.46175824175824176,0.13296703296703297
1.0474142310049501,0.0,0.29010989010989013,0.008864468864468863
1.0579163920046994,0.0,0.29010989010989013,0.008864468864468863
1.0687467770039802,0.0,0.4013186813186813,0.03142857142857143
1.0768226729996968,0.0,0.4013186813186813,0.03142857142857143
1.0879117060030694,0.0,0.24095238095238095,0.007252747252747252
1.095502819000103,0.0,0.24095238095238095,0.007252747252747252
1.1026458289998118,0.0,0.24095238095238095,0.007252747252747252
1.1091694370043115,0.0,0.24095238095238095,0.007252747252747252
1.1141843090008479,0.0,0.24095238095238095,0.007252747252747252
1.1167190670021228,0.0,0.27318681318681315,0.029816849816849816
1.1262158020035713,1.519047619047619,1.4118681318681316,0.4754578754578754
1.1338484799998696,2.697216117216117,0.7978021978021977,0.34087912087912087
1.1420574340008898,0.0,0.37150183150183147,0.11846153846153845
1.1483487479999894,0.0,0.37150183150183147,0.11846153846153845
1.1537162349995924,0.3706959706959707,0.43113553113553116,0.166007326007326
1.1543108000041684,0.3706959706959707,0.43113553113553116,0.166007326007326
1.1601263870034018,0.3706959706959707,0.43113553113553116,0.166007326007326
1.1665890740041505,2.8551648351648353,1.6544322344322344,0.6317948717948718
1.1735040870044031,2.8551648351648353,1.6544322344322344,0.6317948717948718
1.1788172430024133,0.2594871794871795,0.3602197802197802,0.166007326007326
1.180241948000912,0.2594871794871795,0.3602197802197802,0.166007326007326
1.1920558440033346,2.9808791208791208,0.61003663003663,0.26996336996336995
1.2064409930026159,3.3,0.46175824175824176,0.1676190476190476
1.2153703030053293,0.3102564102564102,0.34813186813186814,0.1692307692307692
1.2247816840026644,0.3102564102564102,0.34813186813186814,0.1692307692307692
1.2319442640000489,0.3102564102564102,0.34813186813186814,0.1692307692307692
1.239613719000772,0.3102564102564102,0.34813186813186814,0.1692307692307692
1.2446944070034078,0.6116483516483516,0.2175824175824176,0.08864468864468865
1.2484108670032583,2.690769230769231,0.7276923076923076,0.32717948717948714
1.2573636320012156,2.690769230769231,0.7276923076923076,0.32717948717948714
1.2636039220014936,2.690769230769231,0.7276923076923076,0.32717948717948714
1.2686383530017338,3.3,0.423076923076923,0.13941391941391942
1.273336038000707,3.3,0.423076923076923,0.13941391941391942
1.2806726990020252,0.0,0.32395604395604394,0.09912087912087912
1.2868416960045579,0.0,0.32395604395604394,0.09912087912087912
1.2916804679989582,1.282930402930403,1.070989010989011,0.25787545787545785
1.2979403330027708,1.282930402930403,1.070989010989011,0.25787545787545785
1.3029284220028785,1.282930402930403,1.070989010989011,0.25787545787545785
1.30658777699864,1.282930402930403,1.070989010989011,0.25787545787545785
1.3116274070052896,1.282930402930403,1.070989010989011,0.25787545787545785
1.3164772710006218,0.10476190476190475,0.3424908424908425,0.12329670329670328
1.3246269570008735,0.10476190476190475,0.3424908424908425,0.12329670329670328
1.3332773780057323,2.693992673992674,0.7309157509157509,0.2772161172161172
1.3433101680057007,2.693992673992674,0.7309157509157509,0.2772161172161172
1.3500133429988637,1.61010989010989,1.6076923076923075,0.5987545787545787
1.3576427740044892,1.61010989010989,1.6076923076923075,0.5987545787545787
1.3638998720052768,0.5415384615384615,0.2627106227106227,0.11523809523809524
1.3688553090032656,0.6011721611721611,0.195018315018315,0.048351648351648346
1.3743999360012822,0.6011721611721611,0.195018315018315,0.048351648351648346
1.3746931450004922,0.6011721611721611,0.195018315018315,0.048351648351648346
1.387471980000555,0.6011721611721611,0.195018315018315,0.048351648351648346
1.400341931002913,0.6011721611721611,0.195018315018315,0.048351648351648346
1.415697463999095,1.3208058608058608,1.4997069597069597,0.5713553113553113
1.4331857330034836,3.028424908424908,0.3602197802197802,0.11443223443223444
1.4502323660053662,3.028424908424908,0.3602197802197802,0.11443223443223444
1.4648897049992229,3.028424908424908,0.3602197802197802,0.11443223443223444
1.4825548310036538,3.028424908424908,0.3602197802197802,0.11443223443223444
1.4829248230016674,0.39487179487179486,0.4504761904761904,0.19340659340659339
1.4982606580015272,0.39487179487179486,0.4504761904761904,0.19340659340659339
1.5141217220007093,0.06849816849816849,0.3078388278388278,0.11846153846153845
1.5279892469989136,0.06849816849816849,0.3078388278388278,0.11846153846153845
1.5428856200014707,0.06849816849816849,0.3078388278388278,0.11846153846153845
1.5579832380026346,3.3,0.5713553113553113,0.2079120879120879
1.5737783950025914,3.3,0.5713553113553113,0.2079120879120879
1.586944669004879,1.3079120879120878,1.1040293040293039,0.29413919413919415
1.6045014730043476,1.3079120879120878,1.1040293040293039,0.29413919413919415
1.6049032490045647,1.3079120879120878,1.1040293040293039,0.29413919413919415
1.6161107150037424,1.3079120879120878,1.1040293040293039,0.29413919413919415
1.6264892980034347,1.3079120879120878,1.1040293040293039,0.29413919413919415
1.6373010400056955,2.690769230769231,0.7317216117216117,0.3142857142857142
1.6480356640022364,2.690769230769231,0.7317216117216117,0.3142857142857142
1.6602514090045588,2.690769230769231,0.7317216117216117,0.3142857142857142
1.6673389650022727,0.0,0.2756043956043956,0.020146520146520144
1.674958288000198,0.0,0.2756043956043956,0.020146520146520144
1.683436724000785,0.0,0.2756043956043956,0.020146520146520144
1.6896328880029614,1.3369230769230769,0.6551648351648351,0.14827838827838827
1.6961054010025691,0.3892307692307692,0.4126007326007326,0.1772893772893773
1.7046370310054044,0.0,0.3295970695970696,0.044322344322344324
1.7165586580013041,0.0,0.3295970695970696,0.044322344322344324
1.7301572020005551,0.0,0.3295970695970696,0.044322344322344324
1.7436024910057313,0.0,0.3295970695970696,0.044322344322344324
1.7580251379986294,3.3,0.6285714285714284,0.2216117216117216
1.7713180050050141,0.6519413919413919,0.48835164835164835,0.2248351648351648
1.7808254920018953,0.6519413919413919,0.48835164835164835,0.2248351648351648
1.789398015003826,0.0,0.2796336996336996,0.004029304029304029
1.7997361270026886,0.0,0.2796336996336996,0.004029304029304029
1.8113109800033271,0.0,0.2796336996336996,0.004029304029304029
1.8216654480056604,0.0,0.2796336996336996,0.004029304029304029
1.8333000560014625,3.3,0.7268864468864469,0.21597069597069596
1.8437163019989384,3.3,0.7268864468864469,0.21597069597069596
1.8553963049998856,0.7276923076923076,1.120952380952381,0.4657875457875458
1.8674499920016387,0.7276923076923076,1.120952380952381,0.4657875457875458
1.881888424999488,0.7276923076923076,1.120952380952381,0.4657875457875458
1.8947259620035766,0.0,0.2208058608058608,0.0701098901098901
1.9025496690010186,0.0,0.2208058608058608,0.0701098901098901
1.9088448840047931,0.6527472527472526,0.25142857142857145,0.11684981684981684
1.9182200840004953,0.6527472527472526,0.25142857142857145,0.11684981684981684
1.9262774590024492,0.6527472527472526,0.25142857142857145,0.11684981684981684
1.9332903640024597,2.6665934065934067,0.6414652014652015,0.2208058608058608
1.9391410340031143,2.6665934065934067,0.6414652014652015,0.2208058608058608
1.9495567850026418,2.6665934065934067,0.6414652014652015,0.2208058608058608
1.9606027660047403,2.6665934065934067,0.6414652014652015,0.2208058608058608
1.971349559004011,2.6665934065934067,0.6414652014652015,0.2208058608058608
1.9809195630004979,2.6665934065934067,0.6414652014652015,0.2208058608058608
1.9902179860000615,2.6923809523809523,0.8985347985347985,0.3384615384615384
2.0009724699993967,2.6923809523809523,0.8985347985347985,0.3384615384615384
2.011980934999883,2.6923809523809523,0.8985347985347985,0.3384615384615384
2.022492886004329,2.6923809523809523,0.8985347985347985,0.3384615384615384
2.035267136001494,0.0,0.9331868131868131,0.3167032967032967
2.047020229001646,0.0,0.9331868131868131,0.3167032967032967
2.0472747280000476,0.5786080586080585,0.20227106227106226,0.048351648351648346
2.0559450869986904,0.5786080586080585,0.20227106227106226,0.048351648351648346
2.063293816005171,0.5786080586080585,0.20227106227106226,0.048351648351648346
2.0691809540003305,0.5786080586080585,0.20227106227106226,0.048351648351648346
2.076382999002817,0.5786080586080585,0.20227106227106226,0.048351648351648346
2.082318719003524,0.0,0.3384615384615384,0.016923076923076923
2.088241678000486,0.0,0.3384615384615384,0.016923076923076923
2.093036525999196,0.0,0.3384615384615384,0.016923076923076923
2.098803710003267,0.0,0.3336263736263736,0.1249084249084249
2.1058809230016777,0.7583150183150182,0.4045421245421245,0.1829304029304029
2.1118389180046506,0.7583150183150182,0.4045421245421245,0.1829304029304029
2.1177128120034467,0.7583150183150182,0.4045421245421245,0.1829304029304029
2.1228502100057085,0.48432234432234433,0.20307692307692307,0.07252747252747253
2.126390777004417,0.48432234432234433,0.20307692307692307,0.07252747252747253
2.1405012700051884,0.48432234432234433,0.20307692307692307,0.07252747252747253
2.1536806910007726,0.5358974358974359,0.21516483516483517,0.04351648351648352
2.166366857003595,1.5117948717948717,0.904981684981685,0.2208058608058608
2.1756880480024847,1.6673260073260072,1.4827838827838828,0.5979487179487178
2.1879566770003294,1.6673260073260072,1.4827838827838828,0.5979487179487178
2.202102854003897,2.04043956043956,1.4416849816849817,0.46739926739926735
2.2157421260053525,2.04043956043956,1.4416849816849817,0.46739926739926735
2.229594532000192,0.8517948717948718,0.5971428571428571,0.2747985347985348
2.243292630999349,0.5576556776556777,0.10234432234432234,0.010476190476190476
2.2572081629987224,0.7671794871794871,1.1773626373626374,0.4383882783882784
2.270030867002788,0.7671794871794871,1.1773626373626374,0.4383882783882784
2.2775093860036577,0.7671794871794871,1.1773626373626374,0.4383882783882784
2.2834225660044467,0.0,0.26109890109890105,0.0008058608058608059
2.288114052003948,2.6964102564102563,0.7841025641025641,0.29333333333333333
2.2964254079997772,0.4931868131868131,0.49479853479853475,0.2175824175824176
2.303688398002123,0.0,0.32717948717948714,0.0
2.3096616610055207,0.0,0.32717948717948714,0.0
2.3155427220044658,0.0,0.22967032967032966,0.17487179487179486
2.3202835000047344,0.0,0.22967032967032966,0.17487179487179486
2.327446859002521,2.6923809523809523,0.8252014652014652,0.361025641025641
2.3334182840044377,1.378021978021978,0.5866666666666667,0.13619047619047617
2.3405105480051134,0.0,0.4464468864468864,0.06849816849816849
2.34632916800183,0.0,0.4464468864468864,0.06849816849816849
2.353366546005418,0.0,0.4464468864468864,0.06849816849816849
2.359262274003413,0.30945054945054945,0.42710622710622714,0.17809523809523808
2.3663239369998337,0.30945054945054945,0.42710622710622714,0.17809523809523808
2.3762073590041837,0.30945054945054945,0.42710622710622714,0.17809523809523808
2.386987547004537,0.30945054945054945,0.42710622710622714,0.17809523809523808
2.397131541998533,0.5641025641025641,0.14908424908424908,0.024175824175824173
2.40888244999951,0.5641025641025641,0.14908424908424908,0.024175824175824173
2.4194142179985647,0.0,0.1692307692307692,0.04351648351648352
2.429432494005596,0.0,0.1692307692307692,0.04351648351648352
2.440147508001246,0.0,0.1692307692307692,0.04351648351648352
2.4548394970042864,0.4738461538461538,0.25868131868131866,0.08622710622710622
2.471813132004172,0.0,0.3690842490842491,0.07333333333333333
2.4882447380005033,0.0,0.3690842490842491,0.07333333333333333
2.488538272002188,0.0,0.3690842490842491,0.07333333333333333
2.5022030510008335,0.0,0.3690842490842491,0.07333333333333333
2.5141302370029734,1.2692307692307692,0.2377289377289377,0.03223443223443223
2.5213681460008956,1.2555311355311354,0.5552380952380952,0.10476190476190475
2.5273778600021615,0.6052014652014651,0.19985347985347984,0.025787545787545788
2.53211603499949,0.6052014652014651,0.19985347985347984,0.025787545787545788
2.5394162140000844,0.0,0.39003663003663,0.07333333333333333
2.545488635005313,0.0,0.39003663003663,0.07333333333333333
2.5502050319992122,0.8751648351648351,1.606080586080586,0.5213919413919413
2.5586166240027524,0.8751648351648351,1.606080586080586,0.5213919413919413
2.567290963001142,0.3908424908424908,0.3843956043956044,0.1772893772893773
2.5784836940001696,2.7342857142857144,0.8751648351648351,0.33926739926739924
2.590097831998719,2.7342857142857144,0.8751648351648351,0.33926739926739924
2.602013857998827,3.3,0.4859340659340659,0.14908424908424908
2.616315143000975,3.3,0.4859340659340659,0.14908424908424908
2.630532002003747,3.3,0.4859340659340659,0.14908424908424908
2.6435993960039923,0.0,0.2756043956043956,0.112014652014652
2.656211150002491,0.0,0.2756043956043956,0.112014652014652
2.6690284659998724,0.0,0.2756043956043956,0.112014652014652
2.6854628780056373,2.698827838827839,0.7986080586080586,0.2756043956043956
2.700381044000096,2.698827838827839,0.7986080586080586,0.2756043956043956
2.7128794320015004,0.0,0.2651282051282051,0.06446886446886446
2.7131178380004712,1.228937728937729,0.6543589743589743,0.1523076923076923
2.7230501290032407,1.228937728937729,0.6543589743589743,0.1523076923076923
2.7342355250002583,1.228937728937729,0.6543589743589743,0.1523076923076923
2.7449957100034226,1.228937728937729,0.6543589743589743,0.1523076923076923
2.7568501499990816,1.228937728937729,0.6543589743589743,0.1523076923076923
2.7691639050026424,1.228937728937729,0.6543589743589743,0.1523076923076923
2.7815349550000974,0.0,0.16842490842490843,0.047545787545787546
2.7960189020013786,0.0,0.16842490842490843,0.047545787545787546
2.8124066360032884,0.6463003663003662,0.5294505494505495,0.23531135531135527
2.8283681070024613,0.6463003663003662,0.5294505494505495,0.23531135531135527
2.8448054239997873,0.31750915750915754,1.0468131868131867,0.3964835164835165
2.863465599999472,0.0,0.726080586080586,0.16842490842490843
2.86381083100423,0.0,0.726080586080586,0.16842490842490843
2.8765556200014544,0.0,0.726080586080586,0.16842490842490843
2.8893206790016848,0.0,0.21516483516483517,0.06285714285714286
2.8983538130050874,0.0,0.21516483516483517,0.06285714285714286
2.905624926999735,0.0,0.3263736263736263,0.0
2.9133856129992637,2.66014652014652,0.5979487179487178,0.1418315018315018
2.923861962000956,2.66014652014652,0.5979487179487178,0.1418315018315018
2.9338190050038975,2.66014652014652,0.5979487179487178,0.1418315018315018
2.939816931000678,2.66014652014652,0.5979487179487178,0.1418315018315018
2.9457676590027404,0.5068864468864469,0.19904761904761903,0.037875457875457874
2.951677798999299,0.5068864468864469,0.19904761904761903,0.037875457875457874
2.957607790005568,0.5068864468864469,0.19904761904761903,0.037875457875457874
2.9624342610040912,0.5068864468864469,0.19904761904761903,0.037875457875457874
2.9685252370036324,2.673040293040293,0.7252747252747253,0.2796336996336996
2.973326573999657,0.7373626373626374,0.7583150183150182,0.3449084249084249
2.9804773020005086,0.7373626373626374,0.7583150183150182,0.3449084249084249
2.986461076005071,0.7373626373626374,0.7583150183150182,0.3449084249084249
2.9927360880028573,0.7373626373626374,0.7583150183150182,0.3449084249084249
3.004534504005278,0.7373626373626374,0.7583150183150182,0.3449084249084249
3.016928123004618,0.7373626373626374,0.7583150183150182,0.3449084249084249
3.0298704730012105,0.0,0.4496703296703296,0.17326007326007326
3.0448602169999504,0.6454945054945055,0.21677655677655677,0.029816849816849816
3.0452102000053856,0.6454945054945055,0.21677655677655677,0.029816849816849816
3.051618514000438,0.6454945054945055,0.21677655677655677,0.029816849816849816
3.056387121003354,0.6454945054945055,0.21677655677655677,0.029816849816849816
3.064771378005389,0.0,0.28527472527472525,0.026593406593406595
3.0724244459997863,0.0,0.28527472527472525,0.026593406593406595
3.078417322001769,0.0,0.25223443223443226,0.005641025641025641
3.083284234999155,1.5295238095238095,1.6552380952380952,0.5697435897435897
3.092681147005351,1.5295238095238095,1.6552380952380952,0.5697435897435897
3.101240231000702,1.805934065934066,1.4094505494505494,0.4835164835164835
3.1111969240009785,0.0,0.7784615384615384,0.2506227106227106
3.1243299030029448,0.0,0.7784615384615384,0.2506227106227106
3.133068129005551,0.0,0.7784615384615384,0.2506227106227106
3.14193772499857,0.18534798534798536,0.3191208791208791,0.11443223443223444
3.1498394640002516,0.18534798534798536,0.3191208791208791,0.11443223443223444
3.156536316004349,0.18534798534798536,0.3191208791208791,0.11443223443223444
3.1614292570011457,0.18534798534798536,0.3191208791208791,0.11443223443223444
3.1690798990020994,2.693992673992674,0.8413186813186813,0.32073260073260074
3.177128167000774,2.693992673992674,0.8413186813186813,0.32073260073260074
3.1835075310009415,2.693992673992674,0.8413186813186813,0.32073260073260074
3.1919752530011465,2.693992673992674,0.8397069597069596,0.3626373626373626
3.2011170920013683,0.07736263736263736,0.29978021978021974,0.09267399267399268
3.2125157810005476,0.07736263736263736,0.29978021978021974,0.09267399267399268
3.2255300719989464,0.07736263736263736,0.29978021978021974,0.09267399267399268
3.2385792850036523,0.07736263736263736,0.29978021978021974,0.09267399267399268
3.24813059400185,0.0,0.30864468864468864,0.1571428571428571
3.2590509920046316,0.0,0.30864468864468864,0.1571428571428571
3.266528444000869,0.0,0.30864468864468864,0.1571428571428571
3.2753389700010302,0.0,0.30864468864468864,0.1571428571428571
3.281604014002369,0.0,0.3457142857142857,0.037875457875457874
3.2881677039986243,0.5463736263736263,0.166007326007326,0.02175824175824176
3.292404093001096,0.5463736263736263,0.166007326007326,0.02175824175824176
3.293746032002673,0.0,0.25787545787545785,0.05963369963369963
3.3031746730048326,0.0,0.25787545787545785,0.05963369963369963
3.3116922180051915,0.0,0.25787545787545785,0.05963369963369963
3.3205586690019118,0.0,0.25787545787545785,0.05963369963369963
3.3275256429988076,0.0,0.25787545787545785,0.05963369963369963
3.33404288499878,1.888131868131868,1.199120879120879,0.39406593406593404
3.3410170050046872,1.888131868131868,1.199120879120879,0.39406593406593404
3.3459336240048287,1.888131868131868,1.199120879120879,0.39406593406593404
3.351019626999914,1.888131868131868,1.199120879120879,0.39406593406593404
3.356203982999432,1.888131868131868,1.199120879120879,0.39406593406593404
3.3575257129996317,1.888131868131868,1.199120879120879,0.39406593406593404
3.365177592000691,1.888131868131868,1.199120879120879,0.39406593406593404
3.3735426040002494,1.888131868131868,1.199120879120879,0.39406593406593404
3.3784753490035655,1.888131868131868,1.199120879120879,0.39406593406593404
3.387108505005017,0.6132600732600733,0.23934065934065935,0.12893772893772892
3.3945686130027752,0.6132600732600733,0.23934065934065935,0.12893772893772892
3.400890018005157,0.6132600732600733,0.23934065934065935,0.12893772893772892
3.407933939000941,0.6132600732600733,0.23934065934065935,0.12893772893772892
3.412951828002406,0.7349450549450549,0.8526007326007327,0.27238095238095233
3.418536231001781,0.7349450549450549,0.8526007326007327,0.27238095238095233
3.4262873789994046,0.7349450549450549,0.8526007326007327,0.27238095238095233
3.432601535001595,2.722197802197802,0.8445421245421244,0.34813186813186814
3.441320417005045,2.722197802197802,0.8445421245421244,0.34813186813186814
3.447472004001611,2.6996336996336994,0.8872527472527472,0.3295970695970696
3.452786952999304,2.6996336996336994,0.8872527472527472,0.3295970695970696
3.4556475069985026,0.0,0.29978021978021974,0.0
3.45831147699937,1.4779487179487178,1.4513553113553113,0.4778754578754579
3.465690035998705,1.4779487179487178,1.4513553113553113,0.4778754578754579
3.4727796310035046,1.4779487179487178,1.4513553113553113,0.4778754578754579
3.4777619070009678,1.4779487179487178,1.4513553113553113,0.4778754578754579
3.482776463002665,1.4779487179487178,1.4513553113553113,0.4778754578754579
3.487208159000147,3.3,0.43435897435897436,0.15472527472527473
3.4960692020031274,0.18937728937728937,0.30945054945054945,0.11765567765567764
3.5054521999991266,0.18937728937728937,0.30945054945054945,0.11765567765567764
3.517119290001574,0.18937728937728937,0.30945054945054945,0.11765567765567764
3.529464019004081,0.25787545787545785,0.3352380952380952,0.13216117216117215
3.540816626002197,0.25787545787545785,0.3352380952380952,0.13216117216117215
3.5521200880029937,0.25787545787545785,0.3352380952380952,0.13216117216117215
3.5643753180047497,3.1227106227106223,0.4198534798534798,0.13135531135531134
3.577784461005649,3.1227106227106223,0.4198534798534798,0.13135531135531134
3.589792683000269,3.1227106227106223,0.4198534798534798,0.13135531135531134
3.5975186950017815,3.1227106227106223,0.4198534798534798,0.13135531135531134
3.60473517900391,3.1227106227106223,0.4198534798534798,0.13135531135531134
3.6134752440048032,3.1227106227106223,0.4198534798534798,0.13135531135531134
3.6220225670040236,3.1227106227106223,0.4198534798534798,0.13135531135531134
3.628252574002545,0.5367032967032966,0.27238095238095233,0.15956043956043955
3.6333956310045323,0.5367032967032966,0.27238095238095233,0.15956043956043955
3.6348066800055676,0.0,0.2095238095238095,0.07736263736263736
3.645483067004534,1.7736996336996336,1.581904761904762,0.5761904761904761
3.6556799649988534,1.7736996336996336,1.581904761904762,0.5761904761904761
3.6665210020000814,1.7736996336996336,1.581904761904762,0.5761904761904761
3.675903682000353,1.1830036630036629,0.921098901098901,0.2071062271062271
3.6836133410033653,1.1830036630036629,0.921098901098901,0.2071062271062271
3.69151509799849,0.6551648351648351,0.16036630036630037,0.047545787545787546
3.697969323999132,0.6551648351648351,0.16036630036630037,0.047545787545787546
3.705330764001701,0.5753846153846153,0.2498168498168498,0.08622710622710622
3.7103392540011555,0.6092307692307692,0.17164835164835165,0.03465201465201465
3.7128610120053054,0.43032967032967034,0.42952380952380953,0.17003663003663003
3.713041315000737,0.43032967032967034,0.42952380952380953,0.17003663003663003
3.7208783560054144,0.43032967032967034,0.42952380952380953,0.17003663003663003
3.727873094001552,0.43032967032967034,0.42952380952380953,0.17003663003663003
3.7335871890027192,0.43032967032967034,0.42952380952380953,0.17003663003663003
3.7451949730020715,0.43032967032967034,0.42952380952380953,0.17003663003663003
3.757231066003442,3.3,0.5802197802197803,0.18695970695970696
3.76515073000337,3.3,0.5802197802197803,0.18695970695970696
3.77418174000195,3.3,0.5802197802197803,0.18695970695970696
3.780412227999477,3.3,0.5802197802197803,0.18695970695970696
3.787016553003923,3.3,0.6817582417582417,0.24095238095238095
3.7913858809988596,0.9758974358974358,1.3272527472527473,0.3497435897435897
3.791561404999811,0.9758974358974358,1.3272527472527473,0.3497435897435897
3.7992019840021385,0.9758974358974358,1.3272527472527473,0.3497435897435897
3.8078356539990637,0.5713553113553113,0.23853479853479853,0.10315018315018315
3.8153130580030847,0.5713553113553113,0.23853479853479853,0.10315018315018315
3.824989958004153,0.0,0.32073260073260074,0.07494505494505493
3.8316727339988574,0.0,0.32073260073260074,0.07494505494505493
3.8375736349989893,0.0,0.32073260073260074,0.07494505494505493
3.84281348100194,0.0,0.32073260073260074,0.07494505494505493
3.844139159002225,2.697216117216117,0.8574358974358974,0.3376556776556776
3.8525517840025714,2.697216117216117,0.8574358974358974,0.3376556776556776
3.8607072369995876,2.697216117216117,0.8574358974358974,0.3376556776556776
3.8689314590010326,2.697216117216117,0.8574358974358974,0.3376556776556776
3.877147546001652,2.697216117216117,0.8574358974358974,0.3376556776556776
3.8835017740057083,2.697216117216117,0.8574358974358974,0.3376556776556776
3.891080524001154,0.5012454212454212,0.1958241758241758,0.014505494505494505
3.896563424001215,0.5012454212454212,0.1958241758241758,0.014505494505494505
3.896744341000158,1.2724542124542124,1.2652014652014651,0.4738461538461538
3.906765694002388,1.2724542124542124,1.2652014652014651,0.4738461538461538
3.9173302199997124,1.552087912087912,1.4932600732600732,0.47465201465201456
3.9303109329994186,1.552087912087912,1.4932600732600732,0.47465201465201456
3.9407045990010374,0.0,0.26673992673992675,0.07333333333333333
3.9480175470016547,0.5423443223443223,0.25706959706959703,0.0846153846153846
3.954970732003858,1.5754578754578754,1.4013919413919413,0.44402930402930396
3.9600587250024546,1.5754578754578754,1.4013919413919413,0.44402930402930396
3.963787812004739,1.5754578754578754,1.4013919413919413,0.44402930402930396
3.9709660570006236,1.5754578754578754,1.4013919413919413,0.44402930402930396
3.976244679004594,1.5754578754578754,1.4013919413919413,0.44402930402930396
3.977561739004159,1.5754578754578754,1.4013919413919413,0.44402930402930396
3.9871103210025467,1.5754578754578754,1.4013919413919413,0.44402930402930396
3.994846850000613,1.5754578754578754,1.4013919413919413,0.44402930402930396
4.001198473000841,1.5754578754578754,1.4013919413919413,0.44402930402930396
4.007099491005647,1.5754578754578754,1.4013919413919413,0.44402930402930396
4.012072858000465,1.5754578754578754,1.4013919413919413,0.44402930402930396
4.017020384999341,1.5754578754578754,1.4013919413919413,0.44402930402930396
4.024511682000593,1.5754578754578754,1.4013919413919413,0.44402930402930396
4.030751270001929,1.5754578754578754,1.4013919413919413,0.44402930402930396
4.036405835999176,1.5754578754578754,1.4013919413919413,0.44402930402930396
4.045630594999238,1.51018315018315,1.3707692307692307,0.4383882783882784
4.055183884003782,2.693992673992674,0.8292307692307692,0.3223443223443223
4.066533869001432,0.0,0.365054945054945,0.13135531135531134
4.075772289004817,0.0,0.365054945054945,0.13135531135531134
4.086519132004469,0.0,0.365054945054945,0.13135531135531134
4.093748719002178,0.4553113553113553,0.3924542124542124,0.18534798534798536
4.100018309000006,0.4553113553113553,0.3924542124542124,0.18534798534798536
4.105827851999493,0.4553113553113553,0.3924542124542124,0.18534798534798536
4.113359524999396,0.5334798534798535,0.4794871794871795,0.23047619047619047
4.123543765999784,0.5334798534798535,0.4794871794871795,0.23047619047619047
4.133483400000841,0.5334798534798535,0.4794871794871795,0.23047619047619047
4.144233607003116,0.0,0.2627106227106227,0.07575091575091575
4.150771887005249,2.258021978021978,0.7978021978021977,0.21355311355311357
4.156962442000804,0.0,0.28849816849816845,0.1523076923076923
4.161841838002147,0.0,0.24739926739926738,0.02175824175824176
4.168181739005377,0.0,0.24739926739926738,0.02175824175824176
4.174491267003759,0.0,0.24739926739926738,0.02175824175824176
4.179531734000193,0.0,0.24739926739926738,0.02175824175824176
4.18652753400238,0.5552380952380952,0.17245421245421244,0.0846153846153846
4.191752327998984,0.5552380952380952,0.17245421245421244,0.0846153846153846
4.194308518999605,0.5552380952380952,0.17245421245421244,0.0846153846153846
4.20236990700505,0.5552380952380952,0.17245421245421244,0.0846153846153846
4.20974873900559,0.5552380952380952,0.17245421245421244,0.0846153846153846
4.215958378001233,0.16117216117216115,0.26915750915750913,0.0838095238095238
4.2225657910021255,0.16117216117216115,0.26915750915750913,0.0838095238095238
4.2275173450034345,0.16117216117216115,0.26915750915750913,0.0838095238095238
4.2326811230013845,0.16117216117216115,0.26915750915750913,0.0838095238095238
4.236134310005582,0.16117216117216115,0.26915750915750913,0.0838095238095238
4.247510976005287,0.47142857142857136,0.3553846153846154,0.18373626373626373
4.259558926001773,0.47142857142857136,0.3553846153846154,0.18373626373626373
4.271242080998491,0.47142857142857136,0.3553846153846154,0.18373626373626373
4.278473249003582,0.045128205128205125,0.25868131868131866,0.0821978021978022
4.290823351999279,0.4722344322344322,0.2989743589743589,0.166007326007326
4.299271759002295,1.4884249084249084,0.4416117216117216,0.10476190476190475
4.3133228389997385,0.5125274725274725,0.2747985347985348,0.1515018315018315
4.324177734000841,3.3,0.5028571428571429,0.18695970695970696
4.333281217004696,0.6092307692307692,0.15875457875457877,0.10395604395604395
4.345333208999364,0.0,0.3344322344322344,0.16197802197802197
4.3597089879986015,0.5495970695970696,0.2328937728937729,0.08542124542124542
4.369119322000188,0.0,0.21435897435897436,0.0419047619047619
4.381031639000867,1.6117216117216115,1.494871794871795,0.47465201465201456
4.3912291070009815,0.0,0.25384615384615383,0.1523076923076923
4.398860289998993,0.0,0.25384615384615383,0.1523076923076923
4.406573799999023,0.0,0.25384615384615383,0.1523076923076923
4.412966879004671,0.0,0.25384615384615383,0.1523076923076923
4.418202726003074,0.0,0.25384615384615383,0.1523076923076923
4.419928413000889,0.4319413919413919,0.22644688644688646,0.0701098901098901
4.423840902003576,0.49721611721611714,0.17809523809523808,0.026593406593406595
4.4276020280012744,0.49721611721611714,0.17809523809523808,0.026593406593406595
4.433827733002545,0.49721611721611714,0.17809523809523808,0.026593406593406595
4.4393827020030585,0.0,0.34007326007326005,0.13941391941391942
4.439532347998465,0.0,0.34007326007326005,0.13941391941391942
4.446962583999266,0.0,0.34007326007326005,0.13941391941391942
4.45419289500569,0.9388278388278387,0.7293040293040293,0.32476190476190475
4.459200693003368,0.9388278388278387,0.7293040293040293,0.32476190476190475
4.46297111199965,0.9388278388278387,0.7293040293040293,0.32476190476190475
4.469757883998682,2.7165567765567764,0.8864468864468864,0.3287912087912088
4.476004544005264,2.7165567765567764,0.8864468864468864,0.3287912087912088
4.481107897001493,2.7165567765567764,0.8864468864468864,0.3287912087912088
4.4838848280051025,0.5971428571428571,0.19179487179487179,0.04351648351648352
4.49105343100382,0.5971428571428571,0.19179487179487179,0.04351648351648352
4.497168838999642,0.5971428571428571,0.19179487179487179,0.04351648351648352
4.502935787000752,0.5971428571428571,0.19179487179487179,0.04351648351648352
4.5108039080005256,0.5971428571428571,0.19179487179487179,0.04351648351648352
4.517303717999312,1.5577289377289376,1.4626373626373625,0.4827106227106227
4.5231973199988715,1.5577289377289376,1.4626373626373625,0.4827106227106227
4.530858958998579,1.5577289377289376,1.4626373626373625,0.4827106227106227
4.537416063001729,1.5577289377289376,1.4626373626373625,0.4827106227106227
4.5452970460028155,1.5577289377289376,1.4626373626373625,0.4827106227106227
4.551892688003136,1.5577289377289376,1.4626373626373625,0.4827106227106227
4.559082390005642,0.26915750915750913,0.29413919413919415,0.029816849816849816
4.5676931950001745,0.5399267399267399,0.17326007326007326,0.016117216117216115
4.574164802004816,0.5399267399267399,0.17326007326007326,0.016117216117216115
4.580316985004174,0.5399267399267399,0.17326007326007326,0.016117216117216115
4.585675084999821,0.5173626373626373,0.2248351648351648,0.06769230769230769
4.58767458100192,1.8752380952380951,1.1233699633699634,0.307032967032967
4.588163903004897,0.5987545787545787,0.4827106227106227,0.2643223443223443
4.599655745005293,0.5987545787545787,0.4827106227106227,0.2643223443223443
4.611642996002047,0.5987545787545787,0.4827106227106227,0.2643223443223443
4.62390585400135,0.5987545787545787,0.4827106227106227,0.2643223443223443
4.63380916800088,0.9597802197802198,0.3424908424908425,0.19018315018315018
4.64144303300418,0.9597802197802198,0.3424908424908425,0.19018315018315018
4.647349466999003,0.9597802197802198,0.3424908424908425,0.19018315018315018
4.655350899003679,0.17164835164835165,0.3723076923076923,0.07736263736263736
4.66132869500143,0.17164835164835165,0.3723076923076923,0.07736263736263736
4.667216601999826,0.17164835164835165,0.3723076923076923,0.07736263736263736
4.679517728000064,0.17164835164835165,0.3723076923076923,0.07736263736263736
4.693800863002252,0.17164835164835165,0.3723076923076923,0.07736263736263736
4.709271616004116,3.3,0.5616849816849817,0.14666666666666667
4.727631955000106,0.9041758241758242,0.6616117216117217,0.27882783882783885
4.728025506999984,0.9041758241758242,0.6616117216117217,0.27882783882783885
4.738020324999525,0.9041758241758242,0.6616117216117217,0.27882783882783885
4.746947199004353,0.9041758241758242,0.6616117216117217,0.27882783882783885
4.756555280000612,0.9041758241758242,0.6616117216117217,0.27882783882783885
4.768638298999576,0.9041758241758242,0.6616117216117217,0.27882783882783885
4.781527586004813,2.721391941391941,0.8453479853479853,0.32153846153846155
4.7915711810055654,0.0,0.3473260073260073,0.13457875457875457
4.80034126600367,1.5625641025641024,1.0395604395604394,0.23531135531135527
4.808728875002998,0.5786080586080585,0.2715750915750916,0.06446886446886446
4.816650409004069,0.5786080586080585,0.2715750915750916,0.06446886446886446
4.828302464004082,0.5786080586080585,0.2715750915750916,0.06446886446886446
4.83864155899937,3.3,0.5205860805860806,0.2224175824175824
4.845005303002836,0.0,0.2957509157509157,0.04593406593406593
4.8501035230001435,2.698021978021978,0.7647619047619048,0.4416117216117216
4.855095901002642,2.698021978021978,0.7647619047619048,0.4416117216117216
4.862396832999366,0.0,0.3191208791208791,0.06205128205128205
4.8723412480030674,0.0,0.3191208791208791,0.06205128205128205
4.885184801998548,0.0,0.3191208791208791,0.06205128205128205
4.8987366590008605,0.0,0.3191208791208791,0.06205128205128205
4.907723772004829,0.0,0.3191208791208791,0.06205128205128205
4.918143658003828,0.044322344322344324,0.27641025641025635,0.1418315018315018
4.929573510999035,0.0,0.2498168498168498,0.026593406593406595
4.938280738002504,0.0,0.2498168498168498,0.026593406593406595
4.946277842005657,0.0,0.33604395604395604,0.06688644688644689
4.955934647005051,2.6956043956043954,0.8292307692307692,0.2949450549450549
4.963174911004899,2.6956043956043954,0.8292307692307692,0.2949450549450549
4.971258705001674,2.6956043956043954,0.8292307692307692,0.2949450549450549
4.983532427999307,2.6956043956043954,0.8292307692307692,0.2949450549450549
4.995244549005292,2.6956043956043954,0.8292307692307692,0.2949450549450549
5.004341776999354,0.13296703296703297,0.32395604395604394,0.12571428571428572
5.016861141004483,0.5729670329670329,0.2747985347985348,0.11765567765567764
5.028524200999527,0.5729670329670329,0.2747985347985348,0.11765567765567764
5.03873799899884,0.5729670329670329,0.2747985347985348,0.11765567765567764
5.0478942310001,0.5729670329670329,0.2747985347985348,0.11765567765567764
5.058012193003378,0.5729670329670329,0.2747985347985348,0.11765567765567764
5.066414246000932,0.5729670329670329,0.2747985347985348,0.11765567765567764
5.0740393529995345,0.5729670329670329,0.2747985347985348,0.11765567765567764
5.080444883999007,0.5729670329670329,0.2747985347985348,0.11765567765567764
5.086790132001624,0.5729670329670329,0.2747985347985348,0.11765567765567764
5.092189481998503,3.3,0.5487912087912087,0.1555311355311355
5.092529266003112,3.3,0.5487912087912087,0.1555311355311355
5.100023910003074,3.3,0.5487912087912087,0.1555311355311355
5.107179643004201,0.5125274725274725,0.18615384615384614,0.02901098901098901
5.115616729999601,0.5125274725274725,0.18615384615384614,0.02901098901098901
5.123674597998615,0.5125274725274725,0.18615384615384614,0.02901098901098901
5.131553504004842,0.5125274725274725,0.18615384615384614,0.02901098901098901
5.140354514005594,0.0,0.25706959706959703,0.03142857142857143
5.151034385999083,0.0,0.25706959706959703,0.03142857142857143
5.159572011005366,0.5600732600732601,0.5358974358974359,0.1515018315018315
5.167240480004693,0.4472527472527472,0.2909157509157509,0.13941391941391942
5.177237349998904,1.0548717948717947,1.652014652014652,0.46417582417582415
5.184331670003303,1.0548717948717947,1.652014652014652,0.46417582417582415
5.1914602070028195,1.0548717948717947,1.652014652014652,0.46417582417582415
5.196207462002349,1.0548717948717947,1.652014652014652,0.46417582417582415
5.206027461004851,0.1805128205128205,1.0532600732600732,0.381978021978022
5.215148192000925,0.4391941391941392,0.21435897435897436,0.02901098901098901
5.227712293002696,0.4391941391941392,0.21435897435897436,0.02901098901098901
5.2406602109986125,0.4391941391941392,0.21435897435897436,0.02901098901098901
5.247928595999838,0.4391941391941392,0.21435897435897436,0.02901098901098901
5.260192517998803,1.7704761904761903,1.4787545787545788,0.4496703296703296
5.2746913810042315,1.7704761904761903,1.4787545787545788,0.4496703296703296
5.289758454004186,1.7704761904761903,1.4787545787545788,0.4496703296703296
5.306143072004488,1.7704761904761903,1.4787545787545788,0.4496703296703296
5.322519546003605,1.7704761904761903,1.4787545787545788,0.4496703296703296
5.3362841160051175,0.0,0.41340659340659336,0.05399267399267399
5.351692841999466,0.24498168498168496,0.3602197802197802,0.12893772893772892
5.36408067800221,0.0,0.21032967032967032,0.0008058608058608059
5.364276696003799,0.0,0.21032967032967032,0.0008058608058608059
5.376888623999548,0.0,0.21032967032967032,0.0008058608058608059
5.39102259700303,0.4553113553113553,0.34087912087912087,0.07897435897435898
5.404548522004916,0.4553113553113553,0.34087912087912087,0.07897435897435898
5.41292534799868,0.5826373626373627,0.23853479853479853,0.13377289377289378
5.420159380002588,0.0,0.3698901098901099,0.17648351648351646
5.426153334999981,0.0,0.3698901098901099,0.17648351648351646
5.430789937003283,0.0,0.3698901098901099,0.17648351648351646
5.430913356001838,0.0,0.3698901098901099,0.17648351648351646
5.4379734190006275,0.0,0.3698901098901099,0.17648351648351646
5.443832788005238,0.0,0.3698901098901099,0.17648351648351646
5.450902033000602,0.0,0.3698901098901099,0.17648351648351646
5.4568334330033395,0.0,0.38278388278388276,0.2071062271062271
5.4627607420043205,0.45772893772893775,0.3892307692307692,0.2063003663003663
5.467526519998501,2.9728205128205127,0.4383882783882784,0.11523809523809524
5.473447762000433,2.9728205128205127,0.4383882783882784,0.11523809523809524
5.4845819670008495,1.999340659340659,1.3973626373626373,0.45692307692307693
5.497527964005712,1.999340659340659,1.3973626373626373,0.45692307692307693
5.506789876999392,0.0,0.2651282051282051,0.13699633699633698
5.515130845000385,1.9453479853479854,0.3997069597069597,0.14586080586080585
5.526726877003966,1.9453479853479854,0.3997069597069597,0.14586080586080585
5.53838309400453,1.9453479853479854,0.3997069597069597,0.14586080586080585
5.54943922500388,0.0,0.2643223443223443,0.008864468864468863
5.560001085999829,0.0,0.2643223443223443,0.008864468864468863
5.570283689005009,0.0,0.2643223443223443,0.008864468864468863
5.581212037999649,0.5794139194139193,0.3465201465201465,0.2377289377289377
5.591144632002397,0.5794139194139193,0.3465201465201465,0.2377289377289377
5.597854125000595,2.3579487179487177,0.3779487179487179,0.12571428571428572
5.604424789002223,2.3579487179487177,0.3779487179487179,0.12571428571428572
5.615671216000919,1.7704761904761903,1.510989010989011,0.4698168498168498
5.6263375250055105,1.7704761904761903,1.510989010989011,0.4698168498168498
5.633816642002785,1.7704761904761903,1.510989010989011,0.4698168498168498
5.639759185003641,1.7704761904761903,1.510989010989011,0.4698168498168498
5.645717152001453,1.7704761904761903,1.510989010989011,0.4698168498168498
5.651524416003667,1.7704761904761903,1.510989010989011,0.4698168498168498
5.657459658999869,1.7704761904761903,1.510989010989011,0.4698168498168498
5.6632837030047085,1.7704761904761903,1.510989010989011,0.4698168498168498
5.6720228620033595,1.7704761904761903,1.510989010989011,0.4698168498168498
5.680100252000557,0.4545054945054945,0.9815384615384615,0.23208791208791207
5.688615070001106,0.4545054945054945,0.9815384615384615,0.23208791208791207
5.694640072004404,0.4545054945054945,0.9815384615384615,0.23208791208791207
5.702800874001696,0.4545054945054945,0.9815384615384615,0.23208791208791207
5.710825561000092,0.4545054945054945,0.9815384615384615,0.23208791208791207
5.720964890999312,1.7454945054945055,1.5754578754578754,0.4891575091575091
5.730405957001494,1.427985347985348,1.6544322344322344,0.5971428571428571
5.739555363004911,1.427985347985348,1.6544322344322344,0.5971428571428571
5.747736738005187,1.427985347985348,1.6544322344322344,0.5971428571428571
5.75452661899908,1.427985347985348,1.6544322344322344,0.5971428571428571
5.759487702001934,1.427985347985348,1.6544322344322344,0.5971428571428571
5.764214524002455,3.116263736263736,0.6205128205128204,0.1386080586080586
5.772517684999912,2.0847619047619044,0.365054945054945,0.13538461538461538
5.779064813999867,0.0,0.5004395604395604,0.25384615384615383
5.785070492005616,0.5802197802197803,0.24095238095238095,0.012087912087912087
5.790655977005372,0.5802197802197803,0.24095238095238095,0.012087912087912087
5.796665586000017,0.0,0.33282051282051284,0.2361172161172161
5.804278146002616,0.6543589743589743,0.3602197802197802,0.15956043956043955
5.80940094700054,0.4037362637362637,0.2248351648351648,0.022564102564102562
5.812129169004038,0.4037362637362637,0.2248351648351648,0.022564102564102562
5.819168835005257,0.4037362637362637,0.2248351648351648,0.022564102564102562
5.824623637003242,0.4037362637362637,0.2248351648351648,0.022564102564102562
5.824790466002014,1.859120879120879,1.5641758241758241,0.4859340659340659
5.832147649001854,1.859120879120879,1.5641758241758241,0.4859340659340659
5.839893673000915,1.859120879120879,1.5641758241758241,0.4859340659340659
5.846465446004004,1.859120879120879,1.5641758241758241,0.4859340659340659
5.856322851999721,1.099194139194139,0.49399267399267394,0.13296703296703297
5.8688716489996295,0.0,0.23369963369963367,0.01531135531135531
5.877160727999581,3.3,0.5367032967032966,0.13538461538461538
5.885910271004832,0.2635164835164835,1.1217582417582417,0.8485714285714284
5.8941131079991465,0.469010989010989,0.6285714285714284,0.30542124542124544
5.904241215001093,0.469010989010989,0.6285714285714284,0.30542124542124544
5.913127785999677,1.3627106227106225,1.2498901098901098,0.2208058608058608
5.92249014400295,1.6278388278388278,1.6552380952380952,0.5221978021978021
5.929007855003874,0.29333333333333333,0.303003663003663,0.14102564102564102
5.934291198005667,0.29333333333333333,0.303003663003663,0.14102564102564102
5.936357679005596,0.0,0.2506227106227106,0.10717948717948718
5.936680664999585,0.0,0.2506227106227106,0.10717948717948718
5.944306019999203,0.0,0.2506227106227106,0.10717948717948718
5.950756082005682,0.0,0.2506227106227106,0.10717948717948718
5.957403198000975,0.0,0.2506227106227106,0.10717948717948718
5.962367650005035,0.0,0.2506227106227106,0.10717948717948718
5.967603473000054,0.0,0.2506227106227106,0.10717948717948718
5.968221506998816,1.0895238095238093,0.7558974358974359,0.386007326007326
5.974294607003685,1.0895238095238093,0.7558974358974359,0.386007326007326
5.979345955005556,1.0895238095238093,0.7558974358974359,0.386007326007326
5.984935131004022,0.614065934065934,0.27318681318681315,0.06688644688644689
5.985262059002707,0.614065934065934,0.27318681318681315,0.06688644688644689
5.9916642120006145,0.614065934065934,0.27318681318681315,0.06688644688644689
5.996722650001175,0.0,0.5689377289377289,0.0008058608058608059
6.00264032400446,0.0,0.8115018315018314,0.10717948717948718
6.006981509999605,0.0,0.8115018315018314,0.10717948717948718
6.007244672000525,0.0,0.8115018315018314,0.10717948717948718
6.014818120005657,0.0,0.8115018315018314,0.10717948717948718
6.0226760060031665,0.0,0.2175824175824176,0.09912087912087912
6.028741349000484,0.0,0.2175824175824176,0.09912087912087912
6.033512000001792,0.0,0.23208791208791207,0.1668131868131868
6.04118804600148,0.0,0.23208791208791207,0.1668131868131868
6.0474850660029915,0.5358974358974359,0.3352380952380952,0.0821978021978022
6.055232479004189,1.544029304029304,1.5625641025641024,0.2747985347985348
6.063908299001923,1.544029304029304,1.5625641025641024,0.2747985347985348
6.072137317001761,1.544029304029304,1.5625641025641024,0.2747985347985348
6.0831146980053745,1.544029304029304,1.5625641025641024,0.2747985347985348
6.093508561003546,1.544029304029304,1.5625641025641024,0.2747985347985348
6.103961658998742,1.544029304029304,1.5625641025641024,0.2747985347985348
6.111726611001359,1.544029304029304,1.5625641025641024,0.2747985347985348
6.119164843003091,1.544029304029304,1.5625641025641024,0.2747985347985348
6.124914990999969,1.544029304029304,1.5625641025641024,0.2747985347985348
6.132538518002548,1.544029304029304,1.5625641025641024,0.2747985347985348
6.140541487002338,0.0,0.24578754578754577,0.04915750915750916
6.146840911002073,0.0,0.24578754578754577,0.04915750915750916
6.152858667999681,0.0,0.24578754578754577,0.04915750915750916
6.159391727000184,0.0,0.24498168498168496,0.07655677655677656
6.165614041005028,0.0,0.24498168498168496,0.07655677655677656
6.171789865002211,0.0,0.24498168498168496,0.07655677655677656
6.181006279999565,0.0,0.24498168498168496,0.07655677655677656
6.190564929005632,1.0887179487179486,1.8083516483516484,0.7051282051282051
6.20082478599943,1.0887179487179486,1.8083516483516484,0.7051282051282051
6.209169617002772,0.6019780219780219,1.5802930402930402,0.6350183150183151
6.217497160003404,0.6019780219780219,1.5802930402930402,0.6350183150183151
6.225445397998556,0.0,0.5141391941391941,0.0556043956043956
6.231782369999564,0.0,0.5141391941391941,0.0556043956043956
6.238016378003522,0.10153846153846154,0.23369963369963367,0.16842490842490843
6.243651240001782,0.10153846153846154,0.23369963369963367,0.16842490842490843
6.251785082000424,2.6802930402930403,0.6551648351648351,0.4182417582417582
6.260062681998534,2.6802930402930403,0.6551648351648351,0.4182417582417582
6.267983641002502,2.6802930402930403,0.6551648351648351,0.4182417582417582
6.2756325470036245,2.6802930402930403,0.6551648351648351,0.4182417582417582
6.282139496004675,2.6802930402930403,0.6551648351648351,0.4182417582417582
6.288184689001355,2.6802930402930403,0.6551648351648351,0.4182417582417582
6.293306300998665,2.6802930402930403,0.6551648351648351,0.4182417582417582
6.295826572000806,0.0,0.23531135531135527,0.008864468864468863
6.305937292003364,0.0,0.23531135531135527,0.008864468864468863
6.313787484999921,0.0,0.23531135531135527,0.008864468864468863
6.322072127004503,0.0,0.1652014652014652,0.28769230769230764
6.3301328610032215,0.0,0.1652014652014652,0.28769230769230764
6.337545136004337,0.0,0.1652014652014652,0.28769230769230764
6.342258269003651,0.0,0.1652014652014652,0.28769230769230764
6.349803172000975,2.6964102564102563,0.6873992673992674,0.386007326007326
6.358427986000606,2.6964102564102563,0.6873992673992674,0.386007326007326
6.364506727004482,2.6964102564102563,0.6873992673992674,0.386007326007326
6.370459599005699,2.6964102564102563,0.6873992673992674,0.386007326007326
6.376651327998843,0.4851282051282051,0.5471794871794872,0.253040293040293
6.381827634002548,0.0,0.15472527472527473,0.0
6.385371666001447,0.9920146520146519,0.3223443223443223,0.11765567765567764
6.3937767800016445,0.9920146520146519,0.3223443223443223,0.11765567765567764
6.402220597999985,0.9920146520146519,0.3223443223443223,0.11765567765567764
6.408940058005101,0.9920146520146519,0.3223443223443223,0.11765567765567764
6.414181587999337,0.9920146520146519,0.3223443223443223,0.11765567765567764
6.419302318005066,0.9920146520146519,0.3223443223443223,0.11765567765567764
6.419583665003302,0.7365567765567765,0.33684981684981685,0.033846153846153845
6.4273804030017345,0.7365567765567765,0.33684981684981685,0.033846153846153845
6.4344388140016235,0.7365567765567765,0.33684981684981685,0.033846153846153845
6.4438938870007405,0.7365567765567765,0.33684981684981685,0.033846153846153845
6.453655215998879,0.7365567765567765,0.33684981684981685,0.033846153846153845
6.4604892080024,0.7365567765567765,0.33684981684981685,0.033846153846153845
6.465596655005356,0.7365567765567765,0.33684981684981685,0.033846153846153845
6.471160975001112,0.7365567765567765,0.33684981684981685,0.033846153846153845
6.481165796998539,0.7365567765567765,0.33684981684981685,0.033846153846153845
6.496952421999595,0.4819047619047619,0.3771428571428571,0.6068131868131869
6.508448186003079,0.2087179487179487,0.4835164835164835,0.10153846153846154
6.515613210998708,0.2087179487179487,0.4835164835164835,0.10153846153846154
6.521447411003464,0.2087179487179487,0.4835164835164835,0.10153846153846154
6.528466420000768,0.2087179487179487,0.4835164835164835,0.10153846153846154
6.534591886003909,0.2087179487179487,0.4835164835164835,0.10153846153846154
6.539432060999388,0.2087179487179487,0.4835164835164835,0.10153846153846154
6.54672202400252,0.6326007326007326,0.4964102564102564,0.06527472527472526
6.552577356000256,0.6326007326007326,0.4964102564102564,0.06527472527472526
6.558373175001179,0.6326007326007326,0.4964102564102564,0.06527472527472526
6.567022592003923,0.6326007326007326,0.4964102564102564,0.06527472527472526
6.576250887002971,0.6326007326007326,0.4964102564102564,0.06527472527472526
6.585172610000882,0.6326007326007326,0.4964102564102564,0.06527472527472526
6.594992520003871,0.6326007326007326,0.4964102564102564,0.06527472527472526
6.60373193200212,0.0,0.1829304029304029,0.1789010989010989
6.609678132001136,0.0,0.1829304029304029,0.1789010989010989
6.615735580002365,0.958974358974359,1.2224908424908425,0.4287179487179487
6.620445291999204,0.958974358974359,1.2224908424908425,0.4287179487179487
6.628879773001245,0.958974358974359,1.2224908424908425,0.4287179487179487
6.636234710000281,0.958974358974359,1.2224908424908425,0.4287179487179487
6.642169135004224,0.958974358974359,1.2224908424908425,0.4287179487179487
6.648185010999441,0.958974358974359,1.2224908424908425,0.4287179487179487
6.652938115003053,0.958974358974359,1.2224908424908425,0.4287179487179487
6.660011161999137,0.958974358974359,1.2224908424908425,0.4287179487179487
6.665917131002061,0.958974358974359,1.2224908424908425,0.4287179487179487
6.671857061002811,0.958974358974359,1.2224908424908425,0.4287179487179487
6.6777500940006576,0.958974358974359,1.2224908424908425,0.4287179487179487
6.685044129000744,0.958974358974359,1.2224908424908425,0.4287179487179487
6.691059374999895,0.958974358974359,1.2224908424908425,0.4287179487179487
6.695694897003705,0.958974358974359,1.2224908424908425,0.4287179487179487
6.695896015000471,0.958974358974359,1.2224908424908425,0.4287179487179487
6.703091362003761,0.958974358974359,1.2224908424908425,0.4287179487179487
6.70914593100315,0.958974358974359,1.2224908424908425,0.4287179487179487
6.715130570002657,0.958974358974359,1.2224908424908425,0.4287179487179487
6.719936229004816,0.6922344322344323,0.4722344322344322,0.31347985347985347
6.727056095005537,0.6922344322344323,0.4722344322344322,0.31347985347985347
6.732901733004837,0.6922344322344323,0.4722344322344322,0.31347985347985347
6.739943038002821,0.6922344322344323,0.4722344322344322,0.31347985347985347
6.745852657004434,1.021025641025641,0.4698168498168498,0.13457875457875457
6.752905629000452,1.021025641025641,0.4698168498168498,0.13457875457875457
6.7589112909990945,1.021025641025641,0.4698168498168498,0.13457875457875457
6.764868545003992,1.021025641025641,0.4698168498168498,0.13457875457875457
6.770839559001615,1.3997802197802196,0.8985347985347985,0.2796336996336996
6.775627540002461,0.3723076923076923,0.22564102564102564,0.14827838827838827
6.781509102998825,0.0,0.13054945054945052,0.037875457875457874
6.787554358001216,0.9017582417582416,0.17406593406593407,0.0
6.792286790005164,0.9017582417582416,0.17406593406593407,0.0
6.799398182003642,0.9017582417582416,0.17406593406593407,0.0
6.805436410999391,1.8075457875457877,1.3498168498168497,0.4585347985347985
6.8102224610047415,1.8075457875457877,1.3498168498168497,0.4585347985347985
6.817463667000993,1.8075457875457877,1.3498168498168497,0.4585347985347985
6.823291124004754,0.4698168498168498,0.0,0.3771428571428571
6.830434101000719,0.4698168498168498,0.0,0.3771428571428571
6.836327436998545,0.4698168498168498,0.0,0.3771428571428571
6.842251810005109,0.4698168498168498,0.0,0.3771428571428571
6.848046440005419,0.4698168498168498,0.0,0.3771428571428571
6.853987620001135,0.4698168498168498,0.0,0.3771428571428571
6.85982505800348,0.4698168498168498,0.0,0.3771428571428571
6.8657202100002905,2.693992673992674,2.643223443223443,0.8356776556776556
6.872826506005367,2.091208791208791,1.3425641025641024,0.07494505494505493
6.878803078005149,2.091208791208791,1.3425641025641024,0.07494505494505493
6.883516606001649,0.7405860805860806,0.39487179487179486,0.07575091575091575
6.892013397999108,0.7405860805860806,0.39487179487179486,0.07575091575091575
6.899243635001767,0.7462271062271062,0.16117216117216115,0.022564102564102562
6.905237329003285,0.7462271062271062,0.16117216117216115,0.022564102564102562
6.91219067700149,2.7004395604395603,0.9565567765567766,0.311062271062271
6.918215356003202,2.7004395604395603,0.9565567765567766,0.311062271062271
6.924175610001839,2.7004395604395603,0.9565567765567766,0.311062271062271
6.928901270999631,3.3,0.8163369963369963,0.4391941391941392
6.936016972998914,3.3,0.8163369963369963,0.4391941391941392
6.942124336004781,3.3,0.8163369963369963,0.4391941391941392
6.94695668300119,3.3,0.8163369963369963,0.4391941391941392
6.9541181750028045,3.3,0.8163369963369963,0.4391941391941392
6.960143247000815,0.0,0.2216117216117216,0.03465201465201465
6.966080809004779,0.0,0.2216117216117216,0.03465201465201465
6.970837550004944,0.6728937728937728,0.664029304029304,0.14666666666666667
6.978198449003685,0.2602930402930403,0.6761172161172161,0.06849816849816849
6.984107866999693,0.2602930402930403,0.6761172161172161,0.06849816849816849
6.991131373004464,0.2602930402930403,0.6761172161172161,0.06849816849816849
6.997014189000765,1.551282051282051,0.6326007326007326,0.4867399267399267
7.002994070004206,1.551282051282051,0.6326007326007326,0.4867399267399267
7.007832961004169,1.551282051282051,0.6326007326007326,0.4867399267399267
7.013691840002139,1.551282051282051,0.6326007326007326,0.4867399267399267
7.020766918998561,1.810769230769231,1.4755311355311356,0.502051282051282
7.0266975660051685,0.9243223443223443,0.10395604395604395,0.05318681318681319
7.0338211950002005,1.7527472527472527,0.9114285714285715,0.26673992673992675
7.039829377004935,1.7527472527472527,0.9114285714285715,0.26673992673992675
7.044554286003404,1.7527472527472527,0.9114285714285715,0.26673992673992675
7.051717230999202,1.7527472527472527,0.9114285714285715,0.26673992673992675
7.057857466999849,1.7527472527472527,0.9114285714285715,0.26673992673992675
7.06269361100567,0.6293772893772893,0.9009523809523808,0.4786813186813187
7.069822812001803,0.6293772893772893,0.9009523809523808,0.4786813186813187
7.075778543003253,0.6293772893772893,0.9009523809523808,0.4786813186813187
7.081695050001144,0.0,0.12249084249084248,0.31186813186813184
7.086434782999277,2.9728205128205127,0.5334798534798535,0.4754578754578754
7.092199642000196,1.4102564102564101,1.6109157509157508,0.7881318681318681
7.0993398830032675,1.4102564102564101,1.6109157509157508,0.7881318681318681
7.105286160003743,1.4102564102564101,1.6109157509157508,0.7881318681318681
7.111167171002307,3.3,0.9726739926739927,0.2191941391941392
7.115857846001745,3.3,0.9726739926739927,0.2191941391941392
7.123038789999555,3.3,0.9726739926739927,0.2191941391941392
7.128988506003225,3.3,0.9726739926739927,0.2191941391941392
7.134811497002374,0.7728205128205128,0.11443223443223444,0.05318681318681319
7.142019557002641,0.7728205128205128,0.11443223443223444,0.05318681318681319
7.147982038004557,0.755091575091575,0.3932600732600733,0.12007326007326008
7.153949034000107,1.2523076923076921,0.4698168498168498,0.23047619047619047
7.160045453005296,1.2523076923076921,0.4698168498168498,0.23047619047619047
7.1647504060019855,0.9299633699633699,0.1539194139194139,0.12974358974358974
7.173126467001566,2.698827838827839,0.7389743589743589,0.4802930402930403
7.180547995005327,0.938021978021978,0.3038095238095238,0.12168498168498168
7.186561665999761,2.3265201465201466,1.4304029304029304,0.4021245421245421
7.194820404998609,2.3265201465201466,1.4304029304029304,0.4021245421245421
7.201899455001694,0.0,0.11443223443223444,0.26190476190476186
7.207761532001314,0.0,0.11443223443223444,0.26190476190476186
7.214820446002705,0.0,0.11443223443223444,0.26190476190476186
7.2207764699996915,0.0,0.11443223443223444,0.26190476190476186
7.227907885004242,0.0,0.11443223443223444,0.26190476190476186
7.23388466599863,1.991282051282051,1.3473992673992674,0.4456410256410256
7.238595107002766,1.991282051282051,1.3473992673992674,0.4456410256410256
7.245771292000427,1.991282051282051,1.3473992673992674,0.4456410256410256
7.2516663930000504,1.991282051282051,1.3473992673992674,0.4456410256410256
7.257604692000314,0.581025641025641,0.21032967032967032,0.13538461538461538
7.262356507999357,0.581025641025641,0.21032967032967032,0.13538461538461538
7.271995347000484,0.581025641025641,0.21032967032967032,0.13538461538461538
7.282455075001053,0.581025641025641,0.21032967032967032,0.13538461538461538
7.289721259003272,2.6649816849816848,0.5358974358974359,0.17164835164835165
7.295704499003477,2.6649816849816848,0.5358974358974359,0.17164835164835165
7.300456671000575,0.0,0.19824175824175824,0.0008058608058608059
7.306388483004412,2.7004395604395603,0.8195604395604396,0.7397802197802198
7.313545539000188,2.7004395604395603,0.8195604395604396,0.7397802197802198
7.319620185000531,2.7004395604395603,0.8195604395604396,0.7397802197802198
7.325430987999425,0.9404395604395603,0.5447619047619047,0.06043956043956044
7.3349954660006915,0.9404395604395603,0.5447619047619047,0.06043956043956044
7.3463369279998005,0.9404395604395603,0.5447619047619047,0.06043956043956044
7.358145319005416,0.6084249084249085,0.40695970695970696,0.13538461538461538
7.369809279000037,0.6084249084249085,0.40695970695970696,0.13538461538461538
7.378820315003395,0.6084249084249085,0.40695970695970696,0.13538461538461538
7.388794709004287,0.6084249084249085,0.40695970695970696,0.13538461538461538
7.398872490004578,0.6084249084249085,0.40695970695970696,0.13538461538461538
7.407228410003881,2.693992673992674,0.7091575091575092,0.4126007326007326
7.413171041000169,2.693992673992674,0.7091575091575092,0.4126007326007326
7.417861084002652,0.0,0.5133333333333333,0.10234432234432234
7.424966102000326,0.0,0.5133333333333333,0.10234432234432234
7.430868310002552,0.0,0.5133333333333333,0.10234432234432234
7.4378902110038325,0.0,0.5133333333333333,0.10234432234432234
7.44383622299938,0.0,0.5133333333333333,0.10234432234432234
7.4496221790032,0.0,0.5133333333333333,0.10234432234432234
7.457935899001313,0.0,0.14424908424908423,0.022564102564102562
7.465583154000342,0.0,0.14424908424908423,0.022564102564102562
7.471498678998614,0.0,0.14424908424908423,0.022564102564102562
7.478504862003319,0.0,0.13296703296703297,0.3199267399267399
7.484550134999154,0.0,0.13296703296703297,0.3199267399267399
7.489122408005642,0.0,0.13296703296703297,0.3199267399267399
7.489384887005144,0.0,0.13296703296703297,0.3199267399267399
7.49663535199943,0.0,0.13296703296703297,0.3199267399267399
7.502676036005141,0.0,0.26109890109890105,0.4520879120879121
7.50736840099853,0.0,0.26109890109890105,0.4520879120879121
7.515829146002943,0.0,0.26109890109890105,0.4520879120879121
7.523171359003754,0.5076923076923077,0.8147252747252747,0.23128205128205126
7.529171016998589,0.5076923076923077,0.8147252747252747,0.23128205128205126
7.535925925003539,1.0726007326007325,0.4528937728937729,0.17567765567765567
7.541928935002943,0.7236630036630036,0.19179487179487179,0.23531135531135527
7.548420409002574,0.7236630036630036,0.19179487179487179,0.23531135531135527
7.554261718003545,1.598021978021978,1.2780952380952382,0.3779487179487179
7.560098737005319,1.598021978021978,1.2780952380952382,0.3779487179487179
7.567254721005156,1.598021978021978,1.2780952380952382,0.3779487179487179
7.573315077999723,1.598021978021978,1.2780952380952382,0.3779487179487179
7.578147151005396,0.0,0.16117216117216115,0.0008058608058608059
7.5828950260038255,0.8356776556776556,0.9428571428571427,0.21355311355311357
7.590066314005526,0.8356776556776556,0.9428571428571427,0.21355311355311357
7.596177462000924,0.8356776556776556,0.9428571428571427,0.21355311355311357
7.6008291660036775,0.8356776556776556,0.9428571428571427,0.21355311355311357
7.609130739001557,0.8356776556776556,0.9428571428571427,0.21355311355311357
7.616192831999797,0.8356776556776556,0.9428571428571427,0.21355311355311357
7.622204655002861,1.4013919413919413,1.5013186813186812,0.5673260073260072
7.626974247003091,1.4013919413919413,1.5013186813186812,0.5673260073260072
7.634125794000283,1.4013919413919413,1.5013186813186812,0.5673260073260072
7.640191094003967,1.4013919413919413,1.5013186813186812,0.5673260073260072
7.64496941100515,1.4013919413919413,1.5013186813186812,0.5673260073260072
7.651029277003545,1.008131868131868,0.4794871794871795,0.17406593406593407
7.655608722001489,1.008131868131868,0.4794871794871795,0.17406593406593407
7.655759276000026,0.42630036630036633,0.4464468864468864,0.15069597069597068
7.664142137000454,0.42630036630036633,0.4464468864468864,0.15069597069597068
7.671332817000803,0.42630036630036633,0.4464468864468864,0.15069597069597068
7.677268154999183,0.42630036630036633,0.4464468864468864,0.15069597069597068
7.6819658300009905,0.42630036630036633,0.4464468864468864,0.15069597069597068
7.690345954004442,0.42630036630036633,0.4464468864468864,0.15069597069597068
7.697486983000999,0.5141391941391941,0.48754578754578753,0.3432967032967033
7.703371200004767,0.5141391941391941,0.48754578754578753,0.3432967032967033
7.7116355180041865,0.5141391941391941,0.48754578754578753,0.3432967032967033
7.718868468000437,0.0,0.5495970695970696,0.7583150183150182
7.724825126002543,0.0,0.5495970695970696,0.7583150183150182
7.730687538001803,0.28930402930402926,0.5447619047619047,0.43677655677655675
7.736589220003225,0.28930402930402926,0.5447619047619047,0.43677655677655675
7.744832052005222,0.0,0.5729670329670329,0.020146520146520144
7.752057926998532,0.0,0.5729670329670329,0.020146520146520144
7.758926178001275,0.0,0.5729670329670329,0.020146520146520144
7.766877482004929,0.6567765567765567,0.4045421245421245,0.0
7.772691800004395,0.6567765567765567,0.4045421245421245,0.0
7.778770604003512,0.6567765567765567,0.4045421245421245,0.0
7.7862108560002525,0.6567765567765567,0.4045421245421245,0.0
7.792814865999389,0.6567765567765567,0.4045421245421245,0.0
7.797476068000833,0.6567765567765567,0.4045421245421245,0.0
7.806566933002614,0.6567765567765567,0.4045421245421245,0.0
7.814739945002657,3.0308424908424905,0.39809523809523806,0.20227106227106226
7.82091959000536,3.0308424908424905,0.39809523809523806,0.20227106227106226
7.825666642005672,3.0308424908424905,0.39809523809523806,0.20227106227106226
7.832938200001081,3.0308424908424905,0.39809523809523806,0.20227106227106226
7.83892791299877,3.0308424908424905,0.39809523809523806,0.20227106227106226
7.846173887999612,3.0308424908424905,0.39809523809523806,0.20227106227106226
7.852160788002948,3.0308424908424905,0.39809523809523806,0.20227106227106226
7.8568277599988505,0.0,0.46498168498168496,0.4166300366300366
7.863873779002461,0.0,0.46498168498168496,0.4166300366300366
7.8698636410044855,0.0,0.46498168498168496,0.4166300366300366
7.875777777000621,0.2925274725274725,0.26673992673992675,0.04593406593406593
7.88165726599982,0.4593406593406593,0.5133333333333333,0.26673992673992675
7.8876394420003635,2.7004395604395603,0.6873992673992674,0.3287912087912088
7.892454259999795,2.7004395604395603,0.6873992673992674,0.3287912087912088
7.8997242850018665,2.7004395604395603,0.6873992673992674,0.3287912087912088
7.905743997005629,2.7004395604395603,0.6873992673992674,0.3287912087912088
7.910606378005468,2.797142857142857,1.0137728937728938,1.0105494505494506
7.915306476999831,2.797142857142857,1.0137728937728938,1.0105494505494506
7.9225107680031215,2.797142857142857,1.0137728937728938,1.0105494505494506
7.928507807002461,2.797142857142857,1.0137728937728938,1.0105494505494506
7.933209168004396,1.149157509157509,0.4126007326007326,0.04996336996336996
7.940419395999925,2.5682783882783884,1.3272527472527473,0.48432234432234433
7.946385260998795,2.5682783882783884,1.3272527472527473,0.48432234432234433
7.95228827700339,2.5682783882783884,1.3272527472527473,0.48432234432234433
7.9582341159984935,2.5682783882783884,1.3272527472527473,0.48432234432234433
7.964219571003923,2.5682783882783884,1.3272527472527473,0.48432234432234433
7.968923919004737,2.5682783882783884,1.3272527472527473,0.48432234432234433
7.976151063005091,2.5682783882783884,1.3272527472527473,0.48432234432234433
7.982250161003321,2.5682783882783884,1.3272527472527473,0.48432234432234433
7.9870261719988775,2.5682783882783884,1.3272527472527473,0.48432234432234433
7.992952284002968,2.0863736263736263,1.0879120879120878,0.4810989010989011
7.999794954004756,2.0863736263736263,1.0879120879120878,0.4810989010989011
8.00829800000065,0.7712087912087912,0.2232234432234432,0.29333333333333333
8.016488876004587,0.7712087912087912,0.2232234432234432,0.29333333333333333
8.024966312004835,0.7712087912087912,0.2232234432234432,0.29333333333333333
8.03346309599874,2.697216117216117,0.585054945054945,0.3223443223443223
8.038246472002356,2.697216117216117,0.585054945054945,0.3223443223443223
8.045440211004461,0.6148717948717949,0.3046153846153846,0.05641025641025641
8.051498013002856,0.6148717948717949,0.3046153846153846,0.05641025641025641
8.056284261001565,0.6148717948717949,0.3046153846153846,0.05641025641025641
8.06338134300313,0.6148717948717949,0.3046153846153846,0.05641025641025641
8.069469583002501,2.723003663003663,0.5721611721611721,0.6156776556776556
8.074154450005153,2.723003663003663,0.5721611721611721,0.6156776556776556
8.083300919002795,2.723003663003663,0.5721611721611721,0.6156776556776556
8.090776697004912,0.5906959706959707,0.37150183150183147,0.09106227106227105
8.096750925004017,0.5906959706959707,0.37150183150183147,0.09106227106227105
8.102713098000095,0.5906959706959707,0.37150183150183147,0.09106227106227105
8.107355853004265,0.5906959706959707,0.37150183150183147,0.09106227106227105
8.115706504999253,0.5906959706959707,0.37150183150183147,0.09106227106227105
8.122883898002328,0.5906959706959707,0.37150183150183147,0.09106227106227105
8.128903536999132,0.5906959706959707,0.37150183150183147,0.09106227106227105
8.134867827000562,0.5906959706959707,0.37150183150183147,0.09106227106227105
8.140810400000191,0.5906959706959707,0.37150183150183147,0.09106227106227105
8.145506516004389,0.5906959706959707,0.37150183150183147,0.09106227106227105
8.152735730000131,0.5906959706959707,0.37150183150183147,0.09106227106227105
8.158625071999268,0.0,0.21355311355311357,0.08139194139194139
8.164531135000288,0.0,0.21355311355311357,0.08139194139194139
8.1704590760055,0.0,0.21355311355311357,0.08139194139194139
8.176469991005433,0.0,0.21355311355311357,0.08139194139194139
8.181218805999379,0.0,0.21355311355311357,0.08139194139194139
8.187074936002318,0.0,0.21355311355311357,0.08139194139194139
8.194218253003783,0.0,0.21355311355311357,0.08139194139194139
8.200146030001633,0.0,0.21355311355311357,0.08139194139194139
8.20484336699883,2.693992673992674,1.4626373626373625,0.9718681318681318
8.212039534999349,2.693992673992674,1.4626373626373625,0.9718681318681318
8.218044612003723,2.693992673992674,1.4626373626373625,0.9718681318681318
8.222840114001883,2.693992673992674,1.4626373626373625,0.9718681318681318
8.231304213004478,3.3,0.386007326007326,0.166007326007326
8.238363103002484,0.0,0.20065934065934066,0.23128205128205126
8.244257630998618,0.0,0.20065934065934066,0.23128205128205126
8.25145060900104,0.7244688644688644,0.70996336996337,0.36747252747252745
8.257342554003117,0.0,0.47142857142857136,0.08622710622710622
8.264578596004867,0.4174358974358974,0.27238095238095233,0.09347985347985348
8.270628515005228,0.4174358974358974,0.27238095238095233,0.09347985347985348
8.275444168000831,0.2482051282051282,0.14505494505494507,0.016117216117216115
8.282729550999647,2.42967032967033,1.303076923076923,0.4553113553113553
8.288599544001045,2.42967032967033,1.303076923076923,0.4553113553113553
8.29579354100133,2.42967032967033,1.303076923076923,0.4553113553113553
8.30179009600397,2.42967032967033,1.303076923076923,0.4553113553113553
8.306580846001452,2.42967032967033,1.303076923076923,0.4553113553113553
8.313762135003344,2.42967032967033,1.303076923076923,0.4553113553113553
8.319668748001277,2.42967032967033,1.303076923076923,0.4553113553113553
8.32566551000491,2.42967032967033,1.303076923076923,0.4553113553113553
8.331618248004816,2.9905494505494503,0.5334798534798535,0.27399267399267396
8.33646467699873,0.0,0.11604395604395604,0.24095238095238095
8.341268900003342,1.6536263736263734,1.0315018315018314,0.40695970695970696
8.347339439002099,2.7004395604395603,0.8002197802197801,0.7059340659340658
8.35204205699847,2.7004395604395603,0.8002197802197801,0.7059340659340658
8.360495395005273,0.0,0.13941391941391942,0.3505494505494505
8.36774080300529,0.0,0.13941391941391942,0.3505494505494505
8.373731690000568,0.0,0.13941391941391942,0.3505494505494505
8.378509189002216,0.0,0.13941391941391942,0.3505494505494505
8.385581488000753,1.4610256410256408,0.12893772893772892,0.25868131868131866
8.391396635001001,1.3272527472527473,0.7309157509157509,0.15069597069597068
8.40040173700254,1.3272527472527473,0.7309157509157509,0.15069597069597068
8.410948828000983,0.585054945054945,1.2772893772893772,0.14666666666666667
8.42177494399948,0.585054945054945,1.2772893772893772,0.14666666666666667
8.43116437199933,0.585054945054945,1.2772893772893772,0.14666666666666667
8.43824015300197,0.585054945054945,1.2772893772893772,0.14666666666666667
8.444180381004116,0.693040293040293,0.3755311355311355,0.27318681318681315
8.450018449002528,0.693040293040293,0.3755311355311355,0.27318681318681315
8.458301062004466,0.693040293040293,0.3755311355311355,0.27318681318681315
8.46543732900318,0.693040293040293,0.3755311355311355,0.27318681318681315
8.471474780002609,0.5423443223443223,0.834065934065934,0.4545054945054945
8.476157841003442,0.5423443223443223,0.834065934065934,0.4545054945054945
8.476331655001559,0.5568498168498168,0.20065934065934066,0.11765567765567764
8.48361421500158,0.5568498168498168,0.20065934065934066,0.11765567765567764
8.48961048199999,3.3,0.7558974358974359,0.14666666666666667
8.495507865001855,0.0,1.3852747252747253,0.044322344322344324
8.501293336004892,0.0,1.3852747252747253,0.044322344322344324
8.509637694005505,0.5052747252747253,0.2925274725274725,0.2989743589743589
8.51732677200198,0.8268131868131867,0.5391208791208791,0.17567765567765567
8.523392559000058,2.485274725274725,0.27076923076923076,0.14505494505494507
8.529248632003146,1.9646886446886445,0.963003663003663,0.28849816849816845
8.536341014005302,0.0556043956043956,0.7147985347985348,0.04351648351648352
8.542193385001156,0.0556043956043956,0.7147985347985348,0.04351648351648352
8.549312576004013,0.0556043956043956,0.7147985347985348,0.04351648351648352
8.555182522002724,0.0556043956043956,0.7147985347985348,0.04351648351648352
8.562244029002613,0.0,0.1692307692307692,0.21032967032967032
8.568456583001534,0.0,0.1692307692307692,0.21032967032967032
8.573084162999294,0.0,0.1692307692307692,0.21032967032967032
8.573226569002145,0.0,0.925128205128205,0.4424175824175824
8.581471400000737,0.0,0.925128205128205,0.4424175824175824
8.591268804004358,0.0,0.925128205128205,0.4424175824175824
8.601966169000661,0.08864468864468865,0.772014652014652,0.07897435897435898
8.61431253200135,0.4174358974358974,0.2175824175824176,0.2175824175824176
8.62550259999989,0.4174358974358974,0.2175824175824176,0.2175824175824176
8.637584176998644,0.4174358974358974,0.2175824175824176,0.2175824175824176
8.65280357300071,0.4174358974358974,0.2175824175824176,0.2175824175824176
8.66407173400512,0.4174358974358974,0.2175824175824176,0.2175824175824176
8.676285772002302,0.4174358974358974,0.2175824175824176,0.2175824175824176
8.685053452005377,0.4174358974358974,0.2175824175824176,0.2175824175824176
8.696693906000291,0.4174358974358974,0.2175824175824176,0.2175824175824176
8.706608302003588,0.4174358974358974,0.2175824175824176,0.2175824175824176
8.715050589002203,3.3,0.4931868131868131,0.40534798534798533
8.727064964004967,0.0,0.2361172161172161,0.2345054945054945
8.742384506003873,0.0,0.2361172161172161,0.2345054945054945
8.752262474001327,0.0,0.2361172161172161,0.2345054945054945
8.763967081998999,0.0,0.14827838827838827,0.40695970695970696
8.773764880999806,0.0,0.14827838827838827,0.40695970695970696
8.783968823001487,0.0,0.14827838827838827,0.40695970695970696
8.791225100001611,0.0,0.14827838827838827,0.40695970695970696
8.803213201004837,0.9178754578754579,0.365054945054945,0.06849816849816849
8.815425837005023,1.706007326007326,1.1854212454212454,0.4593406593406593
8.82810136199987,0.0,0.43032967032967034,0.051575091575091575
8.844903921999503,0.0,0.43032967032967034,0.051575091575091575
8.863614699002937,0.523003663003663,0.5858608058608058,0.04996336996336996
8.864038008003263,0.523003663003663,0.5858608058608058,0.04996336996336996
8.876436874001229,0.523003663003663,0.5858608058608058,0.04996336996336996
8.886335497998516,0.523003663003663,0.5858608058608058,0.04996336996336996
8.89614247099962,0.523003663003663,0.5858608058608058,0.04996336996336996
8.907915672003583,0.2095238095238095,0.622124542124542,0.4738461538461538
8.916740142005438,3.3,0.3295970695970696,0.43032967032967034
8.924187050004548,3.3,0.3295970695970696,0.43032967032967034
8.930442072000005,3.3,0.3295970695970696,0.43032967032967034
8.937891032001062,0.6003663003663003,0.2836630036630036,0.04029304029304029
8.943005797998921,0.6003663003663003,0.2836630036630036,0.04029304029304029
8.946549583000888,2.693992673992674,0.8018315018315018,0.5431501831501832
8.955242932002875,0.7333333333333333,0.11765567765567764,0.18373626373626373
8.962801271001808,0.7333333333333333,0.11765567765567764,0.18373626373626373
8.972872130005271,2.698827838827839,0.6656410256410257,0.6229304029304029
8.984510592999868,1.5383882783882783,1.041978021978022,0.0136996336996337
8.996320742000535,0.8364835164835164,0.13699633699633698,0.04673992673992674
9.009613180001907,0.7454212454212454,0.2772161172161172,0.112014652014652
9.019256958003098,0.7776556776556776,0.12329670329670328,0.27399267399267396
9.027663072003634,0.5858608058608058,0.11684981684981684,0.6446886446886446
9.034909494002932,3.3,0.4037362637362637,0.3537728937728937
9.041889201005688,3.3,0.4037362637362637,0.3537728937728937
9.052253431000281,1.3465934065934064,0.7051282051282051,0.16197802197802197
9.059270247998938,0.9565567765567766,0.958974358974359,0.6189010989010989
9.064084423000168,0.9565567765567766,0.958974358974359,0.6189010989010989
9.071691623001243,0.9565567765567766,0.958974358974359,0.6189010989010989
9.077652783002122,0.9565567765567766,0.958974358974359,0.6189010989010989
9.085764809999091,0.9565567765567766,0.958974358974359,0.6189010989010989
9.095099807003862,2.698827838827839,0.9468864468864467,0.43597069597069593
9.104272292002861,0.08542124542124542,0.1571428571428571,0.010476190476190476
9.11401782699977,2.6682051282051282,0.7663736263736264,0.36666666666666664
9.126409486001648,0.1813186813186813,0.37150183150183147,0.037875457875457874
9.137359281005047,0.1813186813186813,0.37150183150183147,0.037875457875457874
9.150354144003359,0.5302564102564102,0.47142857142857136,0.1797069597069597
9.164734573001624,1.2224908424908425,0.6374358974358975,0.5254212454212454
9.181120778004697,1.2224908424908425,0.6374358974358975,0.5254212454212454
9.18140187300014,1.2224908424908425,0.6374358974358975,0.5254212454212454
9.193852422002237,0.5084981684981685,0.6680586080586081,0.03062271062271062
9.207393048003723,0.09186813186813186,0.0975091575091575,0.006446886446886447
9.222191894004936,0.09186813186813186,0.0975091575091575,0.006446886446886447
9.231103060003079,0.09186813186813186,0.0975091575091575,0.006446886446886447
9.240840324004239,0.0,0.9146520146520146,0.36827838827838827
9.248402035002073,0.0,0.9146520146520146,0.36827838827838827
9.25548556799913,0.0,0.9146520146520146,0.36827838827838827
9.261569535003218,0.0,0.9146520146520146,0.36827838827838827
9.270456951002416,0.805054945054945,0.13538461538461538,0.19179487179487179
9.276513627002714,0.805054945054945,0.13538461538461538,0.19179487179487179
9.282833862002008,0.9952380952380951,0.27641025641025635,0.19179487179487179
9.28863970599923,3.3,0.8791941391941391,0.17164835164835165
9.29563071099983,0.0,0.14666666666666667,0.8646886446886447
9.303982695004379,0.747032967032967,0.2651282051282051,0.03465201465201465
9.310158532003697,0.747032967032967,0.2651282051282051,0.03465201465201465
9.315532323998923,0.747032967032967,0.2651282051282051,0.03465201465201465
9.316081130004022,0.747032967032967,0.2651282051282051,0.03465201465201465
9.322099968005205,0.747032967032967,0.2651282051282051,0.03465201465201465
9.333040956000332,0.747032967032967,0.2651282051282051,0.03465201465201465
9.348211687000003,0.747032967032967,0.2651282051282051,0.03465201465201465
9.367656314003398,0.9944322344322343,0.8252014652014652,0.1386080586080586
9.391658669002936,3.029230769230769,1.2635897435897436,0.3972893772893773
9.392131758002506,0.0,0.14424908424908423,0.36827838827838827
9.406384819005325,0.0,0.14424908424908423,0.36827838827838827
9.406882797004073,1.3731868131868132,0.7446153846153846,0.3167032967032967
9.418294757000695,1.3731868131868132,0.7446153846153846,0.3167032967032967
9.427054284002224,0.0,0.8139194139194139,0.8292307692307692
9.440517852002813,1.3804395604395605,0.3811721611721612,0.19824175824175824
9.456798131999676,1.3804395604395605,0.3811721611721612,0.19824175824175824
9.469187688002421,2.2233699633699633,1.58996336996337,0.4802930402930403
9.47893736900005,2.698021978021978,0.7953846153846154,0.3658608058608058
9.490685346005193,2.698021978021978,0.7953846153846154,0.3658608058608058
9.500270721000561,0.66,0.6519413919413919,0.0410989010989011
9.508816241002933,0.66,0.6519413919413919,0.0410989010989011
9.515431794003234,0.66,0.6519413919413919,0.0410989010989011
9.521515763000934,0.0,0.2635164835164835,0.026593406593406595
9.526726110001619,0.0,0.2635164835164835,0.026593406593406595
9.529298983004992,2.1830769230769227,1.847032967032967,0.5987545787545787
9.535649657998874,2.1830769230769227,1.847032967032967,0.5987545787545787
9.540742368000792,3.3,0.5632967032967032,0.1797069597069597
9.54425861799973,2.7197802197802194,0.9920146520146519,0.6801465201465201
9.551584469001682,2.7197802197802194,0.9920146520146519,0.6801465201465201
9.557539778004866,2.7197802197802194,0.9920146520146519,0.6801465201465201
9.563457932999881,1.2627838827838826,1.5988278388278387,0.6986813186813187
9.570748472004198,1.2627838827838826,1.5988278388278387,0.6986813186813187
9.576696360003552,1.2627838827838826,1.5988278388278387,0.6986813186813187
9.582595965999644,0.8695238095238095,1.1088644688644689,0.05318681318681319
9.591616457000782,0.8695238095238095,1.1088644688644689,0.05318681318681319
9.60145095000189,0.8695238095238095,1.1088644688644689,0.05318681318681319
9.607808977001696,0.8695238095238095,1.1088644688644689,0.05318681318681319
9.61255154900573,3.3,1.2547252747252746,0.5004395604395604
9.619571335002547,3.3,1.2547252747252746,0.5004395604395604
9.624422070999572,3.3,1.2547252747252746,0.5004395604395604
9.630349356004444,3.3,1.2547252747252746,0.5004395604395604
9.636417835004977,3.3,1.2547252747252746,0.5004395604395604
9.641209532004723,3.3,1.2547252747252746,0.5004395604395604
9.648517722001998,3.3,1.2547252747252746,0.5004395604395604
9.654550673003541,0.0,0.4657875457875458,0.014505494505494505
9.659251030003361,0.0,0.4657875457875458,0.014505494505494505
9.659443285003363,0.0,0.4657875457875458,0.014505494505494505
9.667799674003618,0.0,0.4657875457875458,0.014505494505494505
9.674906372005353,0.0,0.27802197802197803,0.5729670329670329
9.680975268005568,0.0,0.27802197802197803,0.5729670329670329
9.687723545001063,2.698827838827839,0.7212454212454212,0.7913553113553113
9.692007668003498,2.698827838827839,0.7212454212454212,0.7913553113553113
9.693352024005435,0.0,1.037948717948718,0.6019780219780219
9.701733642999898,0.0,1.037948717948718,0.6019780219780219
9.709039437002502,0.0,1.037948717948718,0.6019780219780219
9.714996970003995,1.0597069597069597,0.6035897435897435,0.38358974358974357
9.719685665004363,1.0597069597069597,0.6035897435897435,0.38358974358974357
9.728037821005273,1.0597069597069597,0.6035897435897435,0.38358974358974357
9.735241041998961,2.1024908424908424,2.129084249084249,0.44080586080586076
9.741131745999155,0.0,0.713992673992674,0.3167032967032967
9.748260455999116,2.6996336996336994,0.9347985347985347,0.448058608058608
9.754222891999234,2.6996336996336994,0.9347985347985347,0.448058608058608
9.758941316998971,2.6996336996336994,0.9347985347985347,0.448058608058608
9.76618526600214,2.693992673992674,0.6567765567765567,0.4158241758241758
9.772130269004265,2.693992673992674,0.6567765567765567,0.4158241758241758
9.779245233003167,2.693992673992674,0.6567765567765567,0.4158241758241758
9.785521231002349,2.693992673992674,0.6567765567765567,0.4158241758241758
9.790580834000139,2.693992673992674,0.6567765567765567,0.4158241758241758
9.79420984099852,2.693992673992674,0.6567765567765567,0.4158241758241758
9.800148394002463,2.693992673992674,0.6567765567765567,0.4158241758241758
9.804856702001416,0.4037362637362637,0.9114285714285715,0.33282051282051284
9.811970391005161,0.4037362637362637,0.9114285714285715,0.33282051282051284
9.817940244000056,0.0,0.1523076923076923,0.3376556776556776
9.822778134002874,0.0,0.1523076923076923,0.3376556776556776
9.830576776003,2.8873992673992674,0.419047619047619,0.2071062271062271
9.83657924200088,0.0,0.112014652014652,0.08945054945054945
9.841211655002553,1.145128205128205,0.39809523809523806,0.8767765567765567
9.849724340005196,1.145128205128205,0.39809523809523806,0.8767765567765567
9.856896593999409,0.00967032967032967,0.7059340659340658,0.448058608058608
9.862854981001874,0.00967032967032967,0.7059340659340658,0.448058608058608
9.869978471004288,0.00967032967032967,0.7059340659340658,0.448058608058608
9.875918416000786,0.00967032967032967,0.7059340659340658,0.448058608058608
9.883004292001715,0.00967032967032967,0.7059340659340658,0.448058608058608
9.88889383499918,0.36666666666666664,0.4391941391941392,0.10476190476190475
9.896139807999134,0.36666666666666664,0.4391941391941392,0.10476190476190475
9.902139713005454,0.36666666666666664,0.4391941391941392,0.10476190476190475
9.90808186000504,0.36666666666666664,0.4391941391941392,0.10476190476190475
9.912875169000472,0.36666666666666664,0.4391941391941392,0.10476190476190475
9.919988967005338,0.36666666666666664,0.4391941391941392,0.10476190476190475
9.926048487999651,0.36666666666666664,0.4391941391941392,0.10476190476190475
9.931821391000994,0.36666666666666664,0.4391941391941392,0.10476190476190475
9.939045099003124,0.36666666666666664,0.4391941391941392,0.10476190476190475
9.944943284004694,0.42630036630036633,0.5181684981684981,0.025787545787545788
9.952014407004754,0.42630036630036633,0.5181684981684981,0.025787545787545788
9.9579973660002,1.7575824175824175,1.166080586080586,1.120952380952381
9.963764733998687,0.3698901098901099,0.21677655677655677,0.05882783882783882
9.97205346100236,1.7301831501831502,0.8445421245421244,0.3231501831501831
9.979246101000172,0.0,0.13941391941391942,0.08864468864468865
9.98537792800198,0.5584615384615385,0.21032967032967032,0.755091575091575
9.990405516000465,0.5584615384615385,0.21032967032967032,0.755091575091575
9.993850144004682,0.5584615384615385,0.21032967032967032,0.755091575091575
9.9940497350035,0.5584615384615385,0.21032967032967032,0.755091575091575
10.001245352999831,0.5584615384615385,0.21032967032967032,0.755091575091575
10.0073010720007,2.68996336996337,1.054065934065934,0.9122344322344322
10.012017781002214,2.68996336996337,1.054065934065934,0.9122344322344322
10.019126890001644,0.0,0.5576556776556777,0.28608058608058606
10.025052139004401,0.40776556776556777,0.17406593406593407,0.03304029304029304
10.031065187002241,0.40776556776556777,0.17406593406593407,0.03304029304029304
10.03573323800083,0.40776556776556777,0.17406593406593407,0.03304029304029304
10.042882045003353,0.1813186813186813,0.39809523809523806,1.3965567765567766
10.04873670500092,2.7157509157509154,1.1475457875457875,0.9259340659340659
10.057056284000282,2.7157509157509154,1.1475457875457875,0.9259340659340659
10.064241131003655,2.7157509157509154,1.1475457875457875,0.9259340659340659
10.07027386900154,2.7157509157509154,1.1475457875457875,0.9259340659340659
10.07496083600563,0.0,0.3312087912087912,0.10073260073260072
10.083157815002778,0.0,0.3312087912087912,0.10073260073260072
10.090273517998867,0.0,0.3312087912087912,0.10073260073260072
10.096322613004304,0.0,0.3312087912087912,0.10073260073260072
10.101052449004783,0.0,0.3312087912087912,0.10073260073260072
10.108289525000146,0.0,0.3312087912087912,0.10073260073260072
10.114349900002708,0.0,0.14263736263736262,0.3843956043956044
10.119024965999415,0.0,0.14263736263736262,0.3843956043956044
10.127441158001602,0.0,0.14263736263736262,0.3843956043956044
10.134537915000692,1.9364835164835164,1.1636630036630036,1.54
10.14053772600164,1.9364835164835164,1.1636630036630036,1.54
10.146375588003139,0.3723076923076923,0.17809523809523808,0.25787545787545785
10.153470084005676,0.3723076923076923,0.17809523809523808,0.25787545787545785
10.159479883004678,0.3723076923076923,0.17809523809523808,0.25787545787545785
10.16542629700416,0.2377289377289377,0.3892307692307692,0.4126007326007326
10.17286753100052,0.2377289377289377,0.3892307692307692,0.4126007326007326
10.178772529005073,0.2377289377289377,0.3892307692307692,0.4126007326007326
10.186181346005469,0.2377289377289377,0.3892307692307692,0.4126007326007326
10.192446523004037,0.2377289377289377,0.3892307692307692,0.4126007326007326
10.197193883999716,0.2377289377289377,0.3892307692307692,0.4126007326007326
10.204320969001856,0.2377289377289377,0.3892307692307692,0.4126007326007326
10.210315573000116,0.2377289377289377,0.3892307692307692,0.4126007326007326
10.216177173002507,0.1668131868131868,0.190989010989011,0.0
10.222078958002385,0.0,0.21677655677655677,0.21516483516483517
10.226792651999858,0.0,0.21677655677655677,0.21516483516483517
10.23397653500433,0.46498168498168496,0.4657875457875458,0.7921611721611721
10.239890239005035,0.31750915750915754,0.2715750915750916,0.16358974358974357
10.246984083001735,0.473040293040293,0.26190476190476186,0.11846153846153845
10.252918685000623,0.473040293040293,0.26190476190476186,0.11846153846153845
10.258651406002173,0.473040293040293,0.26190476190476186,0.11846153846153845
10.267042660001607,0.473040293040293,0.26190476190476186,0.11846153846153845
10.274327279999852,2.0605860805860803,1.0661538461538462,0.5624908424908425
10.28032288000395,2.0605860805860803,1.0661538461538462,0.5624908424908425
10.285167670001101,2.0605860805860803,1.0661538461538462,0.5624908424908425
10.291118018001725,2.0605860805860803,1.0661538461538462,0.5624908424908425
10.295982759998878,0.0,1.3594871794871795,0.7293040293040293
10.303038272002595,0.0,1.3594871794871795,0.7293040293040293
10.309063511005661,0.0,1.3594871794871795,0.7293040293040293
10.314802822002093,0.0,1.3594871794871795,0.7293040293040293
10.323136992999935,0.0,1.3594871794871795,0.7293040293040293
10.330304914001317,0.0,1.3594871794871795,0.7293040293040293
10.33612818200345,0.0,0.08139194139194139,0.36827838827838827
10.344414077000692,0.1515018315018315,0.9122344322344322,0.6688644688644688
10.35167486499995,0.1515018315018315,0.9122344322344322,0.6688644688644688
10.357610085004126,0.1515018315018315,0.9122344322344322,0.6688644688644688
10.364823476003949,0.1515018315018315,0.9122344322344322,0.6688644688644688
10.370773179005482,0.1515018315018315,0.9122344322344322,0.6688644688644688
10.37662748600269,0.1515018315018315,0.9122344322344322,0.6688644688644688
10.38383018100285,1.2547252747252746,1.378021978021978,0.7994139194139194
10.390234704005707,1.2547252747252746,1.378021978021978,0.7994139194139194
10.395031282001582,0.33282051282051284,0.2191941391941392,0.3021978021978022
10.401030152002932,0.33282051282051284,0.2191941391941392,0.3021978021978022
10.40567596800247,0.33282051282051284,0.2191941391941392,0.3021978021978022
10.412773402000312,1.6552380952380952,1.3498168498168497,0.684981684981685
10.418609477004793,0.0,0.17648351648351646,0.5165567765567766
10.425703255001281,0.0,0.17648351648351646,0.5165567765567766
10.431679706998693,2.693992673992674,0.9565567765567766,0.5278388278388277
10.437747018004302,2.693992673992674,0.9565567765567766,0.5278388278388277
10.442418430000544,0.5786080586080585,0.21194139194139192,0.07575091575091575
10.44958511400182,0.5786080586080585,0.21194139194139192,0.07575091575091575
10.4555358409998,0.5786080586080585,0.21194139194139192,0.07575091575091575
10.461457550001796,0.5786080586080585,0.21194139194139192,0.07575091575091575
10.468575817998499,0.5786080586080585,0.21194139194139192,0.07575091575091575
10.474431433998689,0.0,0.28124542124542123,0.06205128205128205
10.4815269239989,0.0,0.5028571428571429,0.20065934065934066
10.487441998004215,0.43758241758241756,0.12329670329670328,0.02175824175824176
10.494542795000598,0.5544322344322344,0.8590476190476191,0.3916483516483516
10.500597525002377,0.5544322344322344,0.8590476190476191,0.3916483516483516
10.50650308400509,0.5544322344322344,0.8590476190476191,0.3916483516483516
10.512436552002328,0.5544322344322344,0.8590476190476191,0.3916483516483516
10.517082092002966,0.5544322344322344,0.8590476190476191,0.3916483516483516
10.5172439520029,0.5544322344322344,0.8590476190476191,0.3916483516483516
10.524479464998876,0.5544322344322344,0.8590476190476191,0.3916483516483516
10.53044956100348,0.5544322344322344,0.8590476190476191,0.3916483516483516
10.537544735001575,0.5544322344322344,0.8590476190476191,0.3916483516483516
10.5434918739993,0.0,1.1709157509157508,0.11684981684981684
10.549333850998664,1.1298168498168497,0.5987545787545787,0.31186813186813184
10.557740119998925,1.1298168498168497,0.5987545787545787,0.31186813186813184
10.564973393004038,1.1298168498168497,0.5987545787545787,0.31186813186813184
10.57105662500544,1.1298168498168497,0.5987545787545787,0.31186813186813184
10.575772126001539,1.1298168498168497,0.5987545787545787,0.31186813186813184
10.58294969599956,1.1298168498168497,0.5987545787545787,0.31186813186813184
10.58930093300296,1.1298168498168497,0.5987545787545787,0.31186813186813184
10.594046397003694,1.145128205128205,0.5898901098901098,0.8558241758241758
10.601237025002774,1.145128205128205,0.5898901098901098,0.8558241758241758
10.60724304500036,1.145128205128205,0.5898901098901098,0.8558241758241758
10.612061496998649,1.145128205128205,0.5898901098901098,0.8558241758241758
10.619247457005258,0.0,0.9082051282051282,0.016923076923076923
10.625252302001172,2.6682051282051282,0.6358241758241758,0.3964835164835165
10.63116625299881,2.6682051282051282,0.6358241758241758,0.3964835164835165
10.635703191001085,0.0,0.9936263736263735,0.0556043956043956
10.635935686004814,1.8252747252747252,1.4134798534798534,0.722051282051282
10.643112687001121,1.8252747252747252,1.4134798534798534,0.722051282051282
10.6490886160027,1.8252747252747252,1.4134798534798534,0.722051282051282
10.654869008998503,0.0,0.34087912087912087,0.1926007326007326
10.6619610380003,0.0,0.34087912087912087,0.1926007326007326
10.667920505999064,2.689157509157509,0.7405860805860806,0.7655677655677655
10.675133297001594,2.689157509157509,0.7405860805860806,0.7655677655677655
10.681160017004004,2.689157509157509,0.7405860805860806,0.7655677655677655
10.68584908900084,2.689157509157509,0.7405860805860806,0.7655677655677655
10.693012793999515,2.689157509157509,0.7405860805860806,0.7655677655677655
10.698965112998849,2.689157509157509,0.7405860805860806,0.7655677655677655
10.70370047599863,2.689157509157509,0.7405860805860806,0.7655677655677655
10.710902095001074,2.689157509157509,0.7405860805860806,0.7655677655677655
10.716765940000187,0.0,0.1813186813186813,0.045128205128205125
10.722605461000057,0.0,0.1813186813186813,0.045128205128205125
10.728589033999015,0.0,0.1813186813186813,0.045128205128205125
10.733342626001104,0.0,0.1813186813186813,0.045128205128205125
10.74168916400231,0.0,0.4762637362637362,0.13135531135531134
10.748900087004586,1.9687179487179485,0.8671062271062271,0.32153846153846155
10.754772224005137,0.0,0.1386080586080586,0.3489377289377289
10.761959980001848,0.0,0.1386080586080586,0.3489377289377289
10.767985210004554,0.618095238095238,0.13941391941391942,0.19743589743589743
10.772673922001559,0.044322344322344324,0.32476190476190475,0.23531135531135527
10.779896593005105,0.0,0.23208791208791207,0.08622710622710622
10.785938928005635,0.0,0.23208791208791207,0.08622710622710622
10.790959899000882,1.6528205128205127,1.2474725274725273,0.5044688644688645
10.795611842004291,0.0,0.3167032967032967,0.10395604395604395
10.801650380002684,0.0,0.3167032967032967,0.10395604395604395
10.806306874001166,0.0,0.3167032967032967,0.10395604395604395
10.806429754004057,0.0,0.3167032967032967,0.10395604395604395
10.813511813001242,0.0,0.3167032967032967,0.10395604395604395
10.819335041000159,0.0,0.3167032967032967,0.10395604395604395
10.826553096005227,0.3432967032967033,0.12974358974358974,0.07252747252747253
10.832527263002703,0.14344322344322344,0.09831501831501832,0.0975091575091575
10.83839514000283,0.14344322344322344,0.09831501831501832,0.0975091575091575
10.844402047005133,2.6794871794871793,0.6543589743589743,0.3578021978021978
10.849189943000965,2.6794871794871793,0.6543589743589743,0.3578021978021978
10.856425056001171,2.6794871794871793,0.6543589743589743,0.3578021978021978
10.862414129005629,0.9186813186813186,1.4207326007326007,0.8517948717948718
10.867199085005268,0.9186813186813186,1.4207326007326007,0.8517948717948718
10.87437988199963,1.0476190476190474,1.0484249084249082,0.6591941391941392
10.88040210300096,1.0476190476190474,1.0484249084249082,0.6591941391941392
10.886325024999678,0.3739194139194139,0.14747252747252745,0.048351648351648346
10.890993485998479,0.3739194139194139,0.14747252747252745,0.048351648351648346
10.900062812004762,0.3739194139194139,0.14747252747252745,0.048351648351648346
10.91078432300128,0.3739194139194139,0.14747252747252745,0.048351648351648346
10.921830815001158,0.3739194139194139,0.14747252747252745,0.048351648351648346
10.92901982100011,0.3739194139194139,0.14747252747252745,0.048351648351648346
10.934914467005001,0.0,0.26754578754578756,0.17648351648351646
10.942208006999863,0.0,0.26754578754578756,0.17648351648351646
10.94825914499961,0.45692307692307693,0.26190476190476186,0.1104029304029304
10.953081874002237,0.016117216117216115,0.6632234432234432,0.13457875457875457
10.95785816100397,0.016117216117216115,0.6632234432234432,0.13457875457875457
10.964982231002068,0.016117216117216115,0.6632234432234432,0.13457875457875457
10.970968294001068,0.016117216117216115,0.6632234432234432,0.13457875457875457
10.976878933004627,0.016117216117216115,0.6632234432234432,0.13457875457875457
10.984278066003753,0.016117216117216115,0.6632234432234432,0.13457875457875457
10.990330161999736,0.016117216117216115,0.6632234432234432,0.13457875457875457
10.995067868003389,0.016117216117216115,0.6632234432234432,0.13457875457875457
11.002403571001196,0.016117216117216115,0.6632234432234432,0.13457875457875457
11.008562399001676,0.016117216117216115,0.6632234432234432,0.13457875457875457
11.01341379200312,0.016117216117216115,0.6632234432234432,0.13457875457875457
11.019360919999599,1.1016117216117214,1.0492307692307692,0.39567765567765567
11.025404400003026,1.1016117216117214,1.0492307692307692,0.39567765567765567
11.030082350000157,1.7624175824175823,1.108058608058608,0.4383882783882784
11.030314464005642,0.0,0.25545787545787546,0.20388278388278389
11.03747660999943,0.0,0.25545787545787546,0.20388278388278389
11.04334634100087,0.0,0.25545787545787546,0.20388278388278389
11.050374427999486,0.0,0.25545787545787546,0.20388278388278389
11.056331728999794,0.0,0.25545787545787546,0.20388278388278389
11.060968596000748,0.0,0.25545787545787546,0.20388278388278389
11.061134078001487,0.0,0.25545787545787546,0.20388278388278389
11.068384527003218,0.0,0.25545787545787546,0.20388278388278389
11.074432604000322,0.0,0.25545787545787546,0.20388278388278389
11.079164667004079,0.0,0.25545787545787546,0.20388278388278389
11.086542600998655,0.0,0.25545787545787546,0.20388278388278389
11.09249451100186,0.0,0.25545787545787546,0.20388278388278389
11.09838214800402,0.0,0.25545787545787546,0.20388278388278389
11.10423086299852,0.4222710622710622,0.1643956043956044,0.1555311355311355
11.111500895000063,0.4222710622710622,0.1643956043956044,0.1555311355311355
11.117598848999478,0.4222710622710622,0.1643956043956044,0.1555311355311355
11.123620012003812,0.4222710622710622,0.1643956043956044,0.1555311355311355
11.128508200999931,0.4222710622710622,0.1643956043956044,0.1555311355311355
11.134463002999837,0.4222710622710622,0.1643956043956044,0.1555311355311355
11.139198545999534,0.4222710622710622,0.1643956043956044,0.1555311355311355
11.146502055002202,2.718168498168498,0.6390476190476191,0.3505494505494505
11.152516482005012,2.382930402930403,1.0959706959706959,0.3763369963369963
11.15848770300363,2.382930402930403,1.0959706959706959,0.3763369963369963
11.16439026399894,0.39890109890109887,0.2071062271062271,0.05802197802197802
11.171586859003583,2.685128205128205,0.7164102564102564,0.3642490842490842
11.177668452000944,0.0,0.31347985347985347,0.16036630036630037
11.182538933004253,2.681098901098901,0.7599267399267399,0.4432234432234432
11.18850859899976,2.681098901098901,0.7599267399267399,0.4432234432234432
11.195707598002627,0.0,0.4198534798534798,0.07978021978021978
11.20167991299968,0.0,0.473040293040293,0.13457875457875457
11.206388405000325,2.2201465201465203,0.26673992673992675,0.0846153846153846
11.214878635000787,2.2201465201465203,0.26673992673992675,0.0846153846153846
11.222065021000162,2.2201465201465203,0.26673992673992675,0.0846153846153846
11.228141274004884,2.2201465201465203,0.26673992673992675,0.0846153846153846
11.232863352001004,2.2201465201465203,0.26673992673992675,0.0846153846153846
11.239962185005425,3.3,0.7518681318681318,0.29736263736263735
11.245843365002656,3.3,0.7518681318681318,0.29736263736263735
11.252991288005433,3.3,0.7518681318681318,0.29736263736263735
11.258928212002502,0.0,0.33604395604395604,0.10717948717948718
11.263622618003865,0.0,0.33604395604395604,0.10717948717948718
11.270843345002504,0.0,0.33604395604395604,0.10717948717948718
11.276817647005373,0.0,0.1805128205128205,0.005641025641025641
11.282700656003726,0.46175824175824176,0.13538461538461538,0.1386080586080586
11.289924492004502,2.4167765567765565,0.24498168498168496,0.08703296703296703
11.295704875003139,2.4167765567765565,0.24498168498168496,0.08703296703296703
11.304266307000944,2.4167765567765565,0.24498168498168496,0.08703296703296703
11.311449215005268,2.4167765567765565,0.24498168498168496,0.08703296703296703
11.317291939005372,0.0,0.5552380952380952,0.1265201465201465
11.325622267002473,0.0,0.5552380952380952,0.1265201465201465
11.332890841003973,3.3,0.4545054945054945,0.1813186813186813
11.338747576999594,0.0,0.24578754578754577,0.22644688644688646
11.34588428200368,0.0,0.24578754578754577,0.22644688644688646
11.35183234300348,0.0,0.24578754578754577,0.22644688644688646
11.357629687001463,0.0,0.25787545787545785,0.16197802197802197
11.36354891800147,0.0,0.25787545787545785,0.16197802197802197
11.369473322003614,0.0,0.25787545787545785,0.16197802197802197
11.374179666003329,0.0,0.25787545787545785,0.16197802197802197
11.382557797005575,0.0,0.25787545787545785,0.16197802197802197
11.389846755999315,1.4465201465201465,1.2756776556776557,0.5447619047619047
11.395864315003564,0.0,0.2643223443223443,0.05399267399267399
11.400585802999558,0.0,0.2643223443223443,0.05399267399267399
11.407825843001774,0.0,0.2643223443223443,0.05399267399267399
11.41378662900388,0.0,0.2643223443223443,0.05399267399267399
11.419587402000616,0.6873992673992674,0.3465201465201465,0.16197802197802197
11.426594030999695,0.6873992673992674,0.3465201465201465,0.16197802197802197
11.432544679002604,0.0,0.2369230769230769,0.02175824175824176
11.43852599299862,0.0,0.2369230769230769,0.02175824175824176
11.4431821160033,0.0,0.2369230769230769,0.02175824175824176
11.451499132999743,1.6012454212454212,0.3497435897435897,0.1095970695970696
11.458736368003883,1.6012454212454212,0.3497435897435897,0.1095970695970696
11.464859691004676,1.7245421245421246,1.2515018315018314,0.6608058608058608
11.469547748005425,1.7245421245421246,1.2515018315018314,0.6608058608058608
11.476735313000972,1.7245421245421246,1.2515018315018314,0.6608058608058608
11.482722565000586,1.7245421245421246,1.2515018315018314,0.6608058608058608
11.488645124001778,1.7245421245421246,1.2515018315018314,0.6608058608058608
11.495759308003471,1.7245421245421246,1.2515018315018314,0.6608058608058608
11.501788041001419,1.7245421245421246,1.2515018315018314,0.6608058608058608
11.506550219004566,1.3425641025641024,0.6841758241758242,0.2079120879120879
11.513732608000282,0.7083516483516483,0.5955311355311355,0.3811721611721612
11.519710134001798,1.6278388278388278,1.2764835164835164,0.7131868131868132
11.526849715002754,1.6278388278388278,1.2764835164835164,0.7131868131868132
11.532839471001353,3.3,1.2821245421245422,0.5737728937728938
11.538718363000953,0.9863736263736262,1.2853479853479852,0.6463003663003662
11.544608014002733,0.9863736263736262,1.2853479853479852,0.6463003663003662
11.55041064100078,0.5133333333333333,1.2063736263736262,0.47706959706959706
11.557535680003639,0.5133333333333333,1.2063736263736262,0.47706959706959706
11.56350889299938,1.9147252747252748,0.21032967032967032,0.19179487179487179
11.568256343998655,1.9147252747252748,0.21032967032967032,0.19179487179487179
11.575463419001608,0.0,0.21677655677655677,0.06446886446886446
11.58137758900557,0.0,0.21677655677655677,0.06446886446886446
11.58725097199931,0.0,0.21677655677655677,0.06446886446886446
11.59186046400282,0.0,0.21677655677655677,0.06446886446886446
11.604274764002184,0.0,0.21677655677655677,0.06446886446886446
11.61913179900148,0.0,0.21677655677655677,0.06446886446886446
11.63152221400378,0.0,0.1958241758241758,0.037875457875457874
11.631724922001013,0.0,0.1958241758241758,0.037875457875457874
11.640153837004618,0.0,0.1958241758241758,0.037875457875457874
11.647300352000457,0.0,0.1958241758241758,0.037875457875457874
11.653215295002155,0.0,0.303003663003663,0.0
11.659065539002768,0.0,0.303003663003663,0.0
11.665026904003753,0.0,0.303003663003663,0.0
11.671370303003641,0.0,0.303003663003663,0.0
11.676827398005116,0.0,0.303003663003663,0.0
11.677091795005254,0.3191208791208791,0.10637362637362638,0.11684981684981684
11.684411728005216,0.3191208791208791,0.10637362637362638,0.11684981684981684
11.690521727003215,0.3191208791208791,0.10637362637362638,0.11684981684981684
11.695258915002341,0.0,0.21032967032967032,0.07816849816849816
11.702439899003366,0.0,0.21032967032967032,0.07816849816849816
11.708373667999695,0.0,0.21032967032967032,0.07816849816849816
11.714261125998746,0.0,0.21032967032967032,0.07816849816849816
11.719097077002516,2.1234432234432234,0.9613919413919414,0.3658608058608058
11.724997107005038,2.1234432234432234,0.9613919413919414,0.3658608058608058
11.7322012690056,2.1234432234432234,0.9613919413919414,0.3658608058608058
11.738230262002617,2.1234432234432234,0.9613919413919414,0.3658608058608058
11.743249749000825,0.3416849816849817,0.253040293040293,0.1555311355311355
11.751101070003642,0.3416849816849817,0.253040293040293,0.1555311355311355
11.755794355005492,0.0,0.49721611721611714,0.24578754578754577
11.763047232001554,0.0,0.49721611721611714,0.24578754578754577
11.769001264001417,0.0,0.49721611721611714,0.24578754578754577
11.774988226999994,0.0,0.49721611721611714,0.24578754578754577
11.779775522001728,1.4030036630036629,1.0919413919413918,0.4899633699633699
11.786973649002903,1.4030036630036629,1.0919413919413918,0.4899633699633699
11.793056909998995,0.07252747252747253,0.26996336996336995,0.13538461538461538
11.798007629004132,0.07252747252747253,0.26996336996336995,0.13538461538461538
11.806275162998645,0.07252747252747253,0.26996336996336995,0.13538461538461538
11.815465819003293,0.07252747252747253,0.26996336996336995,0.13538461538461538
11.825867799001571,0.07252747252747253,0.26996336996336995,0.13538461538461538
11.835634555005527,0.07252747252747253,0.26996336996336995,0.13538461538461538
11.846048318002431,0.07252747252747253,0.26996336996336995,0.13538461538461538
11.857963241003745,0.07252747252747253,0.26996336996336995,0.13538461538461538
11.872567086000345,0.07252747252747253,0.26996336996336995,0.13538461538461538
11.889071980003791,0.07252747252747253,0.26996336996336995,0.13538461538461538
11.889407927003049,0.3706959706959707,0.17487179487179486,0.014505494505494505
11.895766294001078,0.3706959706959707,0.17487179487179486,0.014505494505494505
11.900958928003092,0.3706959706959707,0.17487179487179486,0.014505494505494505
11.903491051998571,0.3706959706959707,0.17487179487179486,0.014505494505494505
11.911001430999022,0.3706959706959707,0.17487179487179486,0.014505494505494505
11.91845043500507,0.0,0.1813186813186813,0.16842490842490843
11.923257466005452,0.0,0.1813186813186813,0.16842490842490843
11.930904740002006,1.5770695970695972,0.909010989010989,0.30945054945054945
11.937784462999844,1.5770695970695972,0.909010989010989,0.30945054945054945
11.942437865000102,1.5770695970695972,0.909010989010989,0.30945054945054945
11.951912916003494,2.723003663003663,0.6382417582417582,0.39406593406593404
11.965022406999196,2.723003663003663,0.6382417582417582,0.39406593406593404
11.977103682998859,2.723003663003663,0.6382417582417582,0.39406593406593404
11.990813747004722,2.723003663003663,0.6382417582417582,0.39406593406593404
12.003006169004948,2.9776556776556777,0.3312087912087912,0.21677655677655677
12.011731318001694,2.9776556776556777,0.3312087912087912,0.21677655677655677
12.02508644300542,0.0,0.1958241758241758,0.17809523809523808
12.039276415998756,0.45692307692307693,0.1676190476190476,0.012893772893772894
12.052451370000199,0.45692307692307693,0.1676190476190476,0.012893772893772894
12.052841579003143,2.0428571428571427,1.1934798534798534,0.49802197802197795
12.060410721998778,1.5383882783882783,0.30945054945054945,0.22886446886446887
12.068709065999428,2.6682051282051282,0.7293040293040293,0.43677655677655675
12.077447121002479,0.10637362637362638,0.3465201465201465,0.13377289377289378
12.086557152004389,0.30542124542124544,0.17406593406593407,0.14666666666666667
12.094128832999559,3.3,0.39890109890109887,0.17164835164835165
12.100660201998835,0.0,0.5632967032967032,0.27641025641025635
12.107360156005598,0.0,0.5632967032967032,0.27641025641025635
12.111440410000796,0.5923076923076923,0.6293772893772893,0.40937728937728934
12.1127745470003,0.5923076923076923,0.6293772893772893,0.40937728937728934
12.11303155800124,0.5923076923076923,0.6293772893772893,0.40937728937728934
12.1218778140028,0.5923076923076923,0.6293772893772893,0.40937728937728934
12.128162369001075,0.5923076923076923,0.6293772893772893,0.40937728937728934
12.134864349005511,0.0,0.26593406593406593,0.0556043956043956
12.1404790029992,0.2602930402930403,0.4029304029304029,0.20227106227106226
12.150608896001359,0.2602930402930403,0.4029304029304029,0.20227106227106226
12.158379608001269,0.0,0.24901098901098898,0.13538461538461538
12.165691531001357,0.0,0.24901098901098898,0.13538461538461538
12.171447606000584,0.0,0.2917216117216117,0.01934065934065934
12.178995368005417,0.0,0.1692307692307692,0.2361172161172161
12.187021885998547,0.0,0.1692307692307692,0.2361172161172161
12.193775577004999,0.0,0.1692307692307692,0.2361172161172161
12.199986568004533,0.0,0.1692307692307692,0.2361172161172161
12.2038622580003,0.0,0.1692307692307692,0.2361172161172161
12.212962098004937,0.0,0.1692307692307692,0.2361172161172161
12.22405959200114,0.5036630036630036,0.31267399267399265,0.14344322344322344
12.23443286499969,0.5036630036630036,0.31267399267399265,0.14344322344322344
12.242686190002132,0.5036630036630036,0.31267399267399265,0.14344322344322344
12.253926584999135,0.5036630036630036,0.31267399267399265,0.14344322344322344
12.263077345000056,0.5036630036630036,0.31267399267399265,0.14344322344322344
12.27151888699882,0.5036630036630036,0.31267399267399265,0.14344322344322344
12.279453339004249,0.5036630036630036,0.31267399267399265,0.14344322344322344
12.289451363001717,0.5036630036630036,0.31267399267399265,0.14344322344322344
12.295728989003692,0.0,0.2651282051282051,0.12329670329670328
12.303713163004431,2.473992673992674,1.423956043956044,0.6463003663003662
12.310752301003959,2.473992673992674,1.423956043956044,0.6463003663003662
12.318003901003976,0.0,0.24095238095238095,0.1692307692307692
12.324598436003726,0.0,0.24095238095238095,0.1692307692307692
12.331997219000186,1.5714285714285712,0.8888644688644688,0.2949450549450549
12.337598455000261,1.5714285714285712,0.8888644688644688,0.2949450549450549
12.346519600003376,1.3691575091575092,1.3933333333333333,0.6261538461538461
12.355852931999834,1.3691575091575092,1.3933333333333333,0.6261538461538461
12.363446312003362,1.3691575091575092,1.3933333333333333,0.6261538461538461
12.370483862003312,1.3691575091575092,1.3933333333333333,0.6261538461538461
12.376897991001897,1.3691575091575092,1.3933333333333333,0.6261538461538461
12.382461701003194,1.3691575091575092,1.3933333333333333,0.6261538461538461
12.396958351004287,3.3,0.45692307692307693,0.27882783882783885
12.411125670005276,3.3,0.45692307692307693,0.27882783882783885
12.424025660999177,2.697216117216117,0.6390476190476191,0.3892307692307692
12.42431865400431,2.697216117216117,0.6390476190476191,0.3892307692307692
12.4341639330014,2.697216117216117,0.6390476190476191,0.3892307692307692
12.444439973005501,2.697216117216117,0.6390476190476191,0.3892307692307692
12.453188685998612,2.7004395604395603,0.5882783882783883,0.33604395604395604
12.459541645999707,0.0,0.24739926739926738,0.07978021978021978
12.468417549003789,2.693186813186813,0.6277655677655677,0.3658608058608058
12.47599274100503,0.826007326007326,1.2998534798534798,0.5528205128205127
12.484377452004992,0.3497435897435897,0.23369963369963367,0.14505494505494507
12.489128482004162,0.3497435897435897,0.23369963369963367,0.14505494505494507
12.502303558001586,0.3497435897435897,0.23369963369963367,0.14505494505494507
12.509657072005211,0.3497435897435897,0.23369963369963367,0.14505494505494507
12.517441351999878,0.0,0.24578754578754577,0.1378021978021978
12.524735206003243,0.07575091575091575,1.1612454212454213,0.5931135531135531
12.530829456998617,0.07575091575091575,1.1612454212454213,0.5931135531135531
12.538641313003609,0.0,0.11362637362637362,0.05318681318681319
12.544934987003217,0.0,0.11362637362637362,0.05318681318681319
12.550593364001543,0.0,0.11362637362637362,0.05318681318681319
12.561993802999496,0.0,0.33926739926739924,0.07494505494505493
12.573435955004243,0.0,0.33926739926739924,0.07494505494505493
12.58149761200184,0.0,0.3046153846153846,0.1571428571428571
12.589210347003245,2.693186813186813,0.6446886446886446,0.5084981684981685
