time,emg1,emg2,emg3
0.002126125000359025,1.8333333333333333,0.7905494505494506,0.49882783882783877
0.04327159100648714,1.8333333333333333,0.7905494505494506,0.49882783882783877
0.044422457001928706,1.8333333333333333,0.7905494505494506,0.49882783882783877
0.08465955000428949,1.8333333333333333,0.7905494505494506,0.49882783882783877
0.0856948970031226,1.7519413919413918,0.08783882783882783,0.37875457875457874
0.08680606500274735,1.7519413919413918,0.08783882783882783,0.37875457875457874
0.08789659800095251,1.7519413919413918,0.08783882783882783,0.37875457875457874
0.11519541500456398,1.4207326007326007,0.06608058608058608,0.4545054945054945
0.1159893540025223,0.49882783882783877,0.10315018315018315,0.12007326007326008
0.12399215800542152,0.49882783882783877,0.10315018315018315,0.12007326007326008
0.14321110900345957,0.49882783882783877,0.10315018315018315,0.12007326007326008
0.15698812400660245,0.4319413919413919,0.07413919413919413,0.31347985347985347
0.16803526500007138,0.4319413919413919,0.07413919413919413,0.31347985347985347
0.18132393500127364,1.5126007326007325,0.07413919413919413,0.4013186813186813
0.19415331200434593,0.044322344322344324,0.05399267399267399,0.03545787545787545
0.20665521100454498,1.4674725274725273,0.8606593406593407,0.35619047619047617
0.20693412400578381,1.4674725274725273,0.8606593406593407,0.35619047619047617
0.2179812510003103,1.4674725274725273,0.8606593406593407,0.35619047619047617
0.2358048250025604,1.4674725274725273,0.8606593406593407,0.35619047619047617
0.2479826470007538,0.6148717948717949,0.26673992673992675,0.17487179487179486
0.2656011060025776,0.6148717948717949,0.26673992673992675,0.17487179487179486
0.26608651900460245,0.6148717948717949,0.26673992673992675,0.17487179487179486
0.2788280400054646,0.6148717948717949,0.26673992673992675,0.17487179487179486
0.2864994680057862,2.2926739926739925,0.46417582417582415,0.5858608058608058
0.2930459150011302,2.2926739926739925,0.46417582417582415,0.5858608058608058
0.29815261200565146,1.581904761904762,0.6954578754578754,0.5649084249084249
0.3025952440002584,1.581904761904762,0.6954578754578754,0.5649084249084249
0.3137573150015669,0.25465201465201465,0.25223443223443226,0.09670329670329669
0.3247713200034923,0.25465201465201465,0.25223443223443226,0.09670329670329669
0.3250188540041563,0.4174358974358974,0.15956043956043955,0.2747985347985348
0.3329080090043135,0.4174358974358974,0.15956043956043955,0.2747985347985348
0.3394668810069561,0.4174358974358974,0.15956043956043955,0.2747985347985348
0.34476020100555615,0.2917216117216117,0.2175824175824176,0.17809523809523808
0.34612633200595155,0.8469597069597068,0.20388278388278389,0.17567765567765567
0.3556384590046946,0.8469597069597068,0.20388278388278389,0.17567765567765567
0.3627206040036981,0.8469597069597068,0.20388278388278389,0.17567765567765567
0.36917061600252055,1.921978021978022,0.4198534798534798,0.47706959706959706
0.3754643260035664,1.2587545787545786,0.2772161172161172,0.448058608058608
0.3850369670035434,1.2587545787545786,0.2772161172161172,0.448058608058608
0.39378278600634076,1.2587545787545786,0.2772161172161172,0.448058608058608
0.40258550800353987,0.8252014652014652,0.4037362637362637,0.1805128205128205
0.41060339900286635,0.8252014652014652,0.4037362637362637,0.1805128205128205
0.41643492200091714,0.6567765567765567,0.21597069597069596,0.31186813186813184
0.4244506650065887,0.6567765567765567,0.21597069597069596,0.31186813186813184
0.4319711280040792,0.3384615384615384,0.303003663003663,0.048351648351648346
0.4386828070055344,0.3384615384615384,0.303003663003663,0.048351648351648346
0.4456076100032078,0.3384615384615384,0.303003663003663,0.048351648351648346
0.4509549220019835,1.44007326007326,0.3811721611721612,0.5310622710622711
0.45238624600460753,1.44007326007326,0.3811721611721612,0.5310622710622711
0.46149308400345035,1.44007326007326,0.3811721611721612,0.5310622710622711
0.4681970440069563,0.3626373626373626,0.20307692307692307,0.20065934065934066
0.4735139370022807,0.3626373626373626,0.20307692307692307,0.20065934065934066
0.47514272300031735,0.3626373626373626,0.20307692307692307,0.20065934065934066
0.48176984800375067,0.3626373626373626,0.20307692307692307,0.20065934065934066
0.4870424050022848,1.0105494505494506,0.2756043956043956,0.4496703296703296
0.4884498560059001,1.0105494505494506,0.2756043956043956,0.4496703296703296
0.49796189200424124,1.0105494505494506,0.2756043956043956,0.4496703296703296
0.5047170370016829,1.2756776556776557,0.6825641025641025,0.43597069597069593
0.5114319620042806,1.2756776556776557,0.6825641025641025,0.43597069597069593
0.5153966660000151,0.5246153846153846,0.08703296703296703,0.3545787545787546
0.5204911390028428,0.5246153846153846,0.08703296703296703,0.3545787545787546
0.5244552030053455,0.5246153846153846,0.08703296703296703,0.3545787545787546
0.5295833740019589,0.5246153846153846,0.08703296703296703,0.3545787545787546
0.5322219930021674,0.5246153846153846,0.08703296703296703,0.3545787545787546
0.5387917250045575,0.469010989010989,0.26915750915750913,0.08783882783882783
0.5460467170050833,0.14344322344322344,0.1515018315018315,0.27399267399267396
0.5535194060066715,1.1942857142857142,0.7647619047619048,0.31509157509157504
0.5621351630034042,1.1942857142857142,0.7647619047619048,0.31509157509157504
0.5711213490067166,0.4279120879120879,0.26109890109890105,0.2208058608058608
0.5811747060070047,0.4279120879120879,0.26109890109890105,0.2208058608058608
0.5928212170038023,2.0090109890109886,0.4287179487179487,0.5931135531135531
0.6024168730000383,0.846153846153846,0.17567765567765567,0.40937728937728934
0.6140247330040438,0.846153846153846,0.17567765567765567,0.40937728937728934
0.6209154400057741,0.846153846153846,0.17567765567765567,0.40937728937728934
0.6280057300027693,0.846153846153846,0.17567765567765567,0.40937728937728934
0.6334186140011298,0.846153846153846,0.17567765567765567,0.40937728937728934
0.6337442350049969,0.846153846153846,0.17567765567765567,0.40937728937728934
0.6418651460044202,0.846153846153846,0.17567765567765567,0.40937728937728934
0.650961327002733,0.1829304029304029,0.195018315018315,0.22967032967032966
0.6603997590063955,0.1829304029304029,0.195018315018315,0.22967032967032966
0.667129545006901,1.2563369963369961,0.3545787545787546,0.30139194139194136
0.6721969910067855,1.2563369963369961,0.3545787545787546,0.30139194139194136
0.6803456830020878,1.2563369963369961,0.3545787545787546,0.30139194139194136
0.6882732630037935,0.1571428571428571,0.112014652014652,0.1942124542124542
0.6958858850048273,0.1571428571428571,0.112014652014652,0.1942124542124542
0.7010888510048972,0.9452747252747251,0.4037362637362637,0.2957509157509157
0.7036440250012674,0.10637362637362638,0.09912087912087912,0.19985347985347984
0.7149264760009828,1.3723809523809525,0.29655677655677654,0.48754578754578753
0.7274076560061076,1.3723809523809525,0.29655677655677654,0.48754578754578753
0.7386106270059827,0.32395604395604394,0.09106227106227105,0.2377289377289377
0.7483270680022542,0.32395604395604394,0.09106227106227105,0.2377289377289377
0.7566085580037907,1.8397802197802198,0.06366300366300366,0.43355311355311354
0.770422662004421,1.8397802197802198,0.06366300366300366,0.43355311355311354
0.7816360180004267,1.8397802197802198,0.06366300366300366,0.43355311355311354
0.7894742590069654,1.8397802197802198,0.06366300366300366,0.43355311355311354
0.7966954510047799,1.8397802197802198,0.06366300366300366,0.43355311355311354
0.8032515020022402,1.8397802197802198,0.06366300366300366,0.43355311355311354
0.808630871004425,2.0678388278388278,0.4351648351648352,0.46336996336996333
0.8088951680038008,0.4722344322344322,0.05721611721611722,0.2079120879120879
0.8192793720008922,0.4722344322344322,0.05721611721611722,0.2079120879120879
0.8289910940002301,0.4722344322344322,0.05721611721611722,0.2079120879120879
0.8390214150058455,0.4722344322344322,0.05721611721611722,0.2079120879120879
0.8481659630051581,0.0,0.08139194139194139,0.0
0.85462488700432,0.0,0.08139194139194139,0.0
0.8609013210007106,0.0,0.08139194139194139,0.0
0.8649010700028157,0.0,0.08139194139194139,0.0
0.8706053820060333,1.4819780219780219,0.28608058608058606,0.4859340659340659
0.8806008620013017,0.6164835164835165,0.07333333333333333,0.1789010989010989
0.8885535010049352,0.2804395604395604,0.16036630036630037,0.24659340659340656
0.896400972000265,1.0387545787545787,0.25223443223443226,0.37875457875457874
0.9029525120058679,1.8131868131868132,0.9493040293040291,0.6898168498168498
0.908247133003897,1.8131868131868132,0.9493040293040291,0.6898168498168498
0.9101472630063654,0.9065934065934066,0.12007326007326008,0.32073260073260074
0.9130925260033109,0.9065934065934066,0.12007326007326008,0.32073260073260074
0.9157247220064164,0.39567765567765567,0.12168498168498168,0.06446886446886446
0.9221676370070782,0.39567765567765567,0.12168498168498168,0.06446886446886446
0.9294906380018801,0.39567765567765567,0.12168498168498168,0.06446886446886446
0.9355856870024581,0.4859340659340659,0.1418315018315018,0.2772161172161172
0.9410610110062407,0.4859340659340659,0.1418315018315018,0.2772161172161172
0.9415374550007982,2.194358974358974,0.4085714285714286,0.581025641025641
0.9503330620063934,2.194358974358974,0.4085714285714286,0.581025641025641
0.9599481720069889,2.194358974358974,0.4085714285714286,0.581025641025641
0.9726530710031511,2.194358974358974,0.4085714285714286,0.581025641025641
0.9827652440071688,2.194358974358974,0.4085714285714286,0.581025641025641
0.9932735510010389,2.194358974358974,0.4085714285714286,0.581025641025641
1.0017909780071932,2.194358974358974,0.4085714285714286,0.581025641025641
1.0100806420014123,2.0775091575091573,0.42065934065934063,0.606007326007326
1.0211825960068381,2.0775091575091573,0.42065934065934063,0.606007326007326
1.0286105050035985,2.0775091575091573,0.42065934065934063,0.606007326007326
1.0338534780021291,0.8711355311355311,0.16842490842490843,0.3489377289377289
1.03426176100038,0.8711355311355311,0.16842490842490843,0.3489377289377289
1.0435152290010592,0.8711355311355311,0.16842490842490843,0.3489377289377289
1.0536155210065772,0.8711355311355311,0.16842490842490843,0.3489377289377289
1.064272012001311,0.8711355311355311,0.16842490842490843,0.3489377289377289
1.0768832650064724,2.3426373626373627,0.40937728937728934,0.4867399267399267
1.0864985720036202,2.3426373626373627,0.40937728937728934,0.4867399267399267
1.0972310890065273,0.16842490842490843,0.17809523809523808,0.0410989010989011
1.107895658002235,0.1402197802197802,0.1555311355311355,0.2095238095238095
1.120071593002649,0.1402197802197802,0.1555311355311355,0.2095238095238095
1.134624498001358,0.7808791208791208,0.356996336996337,0.14908424908424908
1.148703466002189,1.4078388278388276,0.8735531135531135,0.3578021978021978
1.161292102005973,1.4078388278388276,0.8735531135531135,0.3578021978021978
1.174353966001945,0.19824175824175824,0.21032967032967032,0.20388278388278389
1.1835859090060694,1.468278388278388,0.3763369963369963,0.48754578754578753
1.1928719190036645,1.4932600732600732,0.3449084249084249,0.5076923076923077
1.2028427090044715,1.4932600732600732,0.3449084249084249,0.5076923076923077
1.2133152830065228,1.3232234432234433,0.8155311355311355,0.5673260073260072
1.2204042890007258,0.5399267399267399,0.1087912087912088,0.27076923076923076
1.2300892150014988,0.5399267399267399,0.1087912087912088,0.27076923076923076
1.241722094004217,0.5399267399267399,0.1087912087912088,0.27076923076923076
1.2539370160011458,0.49479853479853475,0.4126007326007326,0.0846153846153846
1.2654380640015006,0.49479853479853475,0.4126007326007326,0.0846153846153846
1.2731317680008942,2.254798534798535,0.4827106227106227,0.5068864468864469
1.2812571310059866,1.0806593406593406,0.09992673992673992,0.19904761904761903
1.2876406550058164,1.0806593406593406,0.09992673992673992,0.19904761904761903
1.2927997400038294,1.0806593406593406,0.09992673992673992,0.19904761904761903
1.2965718580016983,1.0806593406593406,0.09992673992673992,0.19904761904761903
1.300474824005505,1.0806593406593406,0.09992673992673992,0.19904761904761903
1.3068770870013395,1.0806593406593406,0.09992673992673992,0.19904761904761903
1.312066036000033,1.0371428571428571,0.5705494505494505,0.3223443223443223
1.314736829001049,1.0371428571428571,0.5705494505494505,0.3223443223443223
1.3211356330066337,0.4625641025641025,0.32717948717948714,0.20227106227106226
1.3279865860022255,0.4625641025641025,0.32717948717948714,0.20227106227106226
1.3343080800041207,0.4625641025641025,0.32717948717948714,0.20227106227106226
1.3394898050028132,0.4625641025641025,0.32717948717948714,0.20227106227106226
1.3434766970021883,0.4625641025641025,0.32717948717948714,0.20227106227106226
1.3474288980069105,0.4625641025641025,0.32717948717948714,0.20227106227106226
1.3530353660025867,0.4625641025641025,0.32717948717948714,0.20227106227106226
1.3619511840006453,0.5729670329670329,0.09589743589743589,0.10798534798534798
1.3684611570060952,0.5729670329670329,0.09589743589743589,0.10798534798534798
1.3736256460033474,0.5729670329670329,0.09589743589743589,0.10798534798534798
1.3787377740009106,0.5729670329670329,0.09589743589743589,0.10798534798534798
1.3813049490054254,0.5729670329670329,0.09589743589743589,0.10798534798534798
1.3890307650071918,0.5729670329670329,0.09589743589743589,0.10798534798534798
1.3954538770049112,0.5729670329670329,0.09589743589743589,0.10798534798534798
1.4005619850067887,0.5729670329670329,0.09589743589743589,0.10798534798534798
1.4043431510071969,0.5729670329670329,0.09589743589743589,0.10798534798534798
1.4119646490071318,0.5729670329670329,0.09589743589743589,0.10798534798534798
1.4183738020001329,0.5729670329670329,0.09589743589743589,0.10798534798534798
1.4235559240041766,0.166007326007326,0.13619047619047617,0.2216117216117216
1.4273316750040976,1.9687179487179485,0.4182417582417582,0.469010989010989
1.4323984110014862,0.8397069597069596,0.1523076923076923,0.39567765567765567
1.4350285550026456,0.8397069597069596,0.1523076923076923,0.39567765567765567
1.4428613630007021,0.8397069597069596,0.1523076923076923,0.39567765567765567
1.4494407280071755,0.8397069597069596,0.1523076923076923,0.39567765567765567
1.4546132720060996,1.854285714285714,0.08783882783882783,0.4045421245421245
1.456028361004428,1.854285714285714,0.08783882783882783,0.4045421245421245
1.4637442470047972,1.854285714285714,0.08783882783882783,0.4045421245421245
1.46996624100575,1.854285714285714,0.08783882783882783,0.4045421245421245
1.4749037320070784,1.581904761904762,0.06124542124542124,0.3465201465201465
1.4797294870004407,1.581904761904762,0.06124542124542124,0.3465201465201465
1.4845644940069178,1.581904761904762,0.06124542124542124,0.3465201465201465
1.4919140530037112,1.581904761904762,0.06124542124542124,0.3465201465201465
1.4980783730061376,1.664102564102564,0.07978021978021978,0.4593406593406593
1.5029508550069295,1.664102564102564,0.07978021978021978,0.4593406593406593
1.5090132510013063,1.664102564102564,0.07978021978021978,0.4593406593406593
1.513808453004458,0.3852014652014652,0.11282051282051282,0.31347985347985347
1.521083917003125,0.5689377289377289,0.4037362637362637,0.14344322344322344
1.527188643005502,0.31347985347985347,0.21677655677655677,0.2175824175824176
1.5320600810009637,1.1386813186813185,0.224029304029304,0.4142124542124542
1.5381666640023468,1.1386813186813185,0.224029304029304,0.4142124542124542
1.5431436800063238,0.19824175824175824,0.13538461538461538,0.21032967032967032
1.547945921003702,1.4610256410256408,0.30542124542124544,0.43032967032967034
1.5539500650047557,1.4610256410256408,0.30542124542124544,0.43032967032967034
1.5587192310049431,0.697069597069597,0.45772893772893775,0.16197802197802197
1.5660592800049926,1.149157509157509,0.3183150183150183,0.46498168498168496
1.5721658060065238,1.149157509157509,0.3183150183150183,0.46498168498168496
1.5769743010023376,0.3884249084249084,0.0838095238095238,0.0838095238095238
1.5842094660038128,0.3884249084249084,0.0838095238095238,0.0838095238095238
1.5903181090034195,0.3884249084249084,0.0838095238095238,0.0838095238095238
1.59512081000139,0.9323809523809523,0.08542124542124542,0.42710622710622714
1.6024612090041046,0.9323809523809523,0.08542124542124542,0.42710622710622714
1.6085561550062266,0.9323809523809523,0.08542124542124542,0.42710622710622714
1.6133955950062955,1.8623443223443221,0.07413919413919413,0.4464468864468864
1.6194762340019224,1.8623443223443221,0.07413919413919413,0.4464468864468864
1.6243143010069616,0.8671062271062271,0.24417582417582417,0.15633699633699633
1.630356000001484,0.8671062271062271,0.24417582417582417,0.15633699633699633
1.635196014001849,0.8671062271062271,0.24417582417582417,0.15633699633699633
1.6403793770004995,1.7108424908424908,0.9468864468864467,0.6430769230769231
1.6428387500054669,0.9235164835164835,0.2562637362637363,0.42388278388278383
1.6502213080020738,0.9235164835164835,0.2562637362637363,0.42388278388278383
1.6563897560045007,0.9235164835164835,0.2562637362637363,0.42388278388278383
1.6614041560023907,0.9235164835164835,0.2562637362637363,0.42388278388278383
1.6663000630069291,0.9235164835164835,0.2562637362637363,0.42388278388278383
1.6724662740016356,0.9235164835164835,0.2562637362637363,0.42388278388278383
1.677413465004065,0.9235164835164835,0.2562637362637363,0.42388278388278383
1.6835683890021755,0.9235164835164835,0.2562637362637363,0.42388278388278383
1.6884325960054412,2.0396336996336997,0.40534798534798533,0.5657142857142857
1.6946423250046792,2.0396336996336997,0.40534798534798533,0.5657142857142857
1.7001880450043245,2.0396336996336997,0.40534798534798533,0.5657142857142857
1.7004220620001433,2.0396336996336997,0.40534798534798533,0.5657142857142857
1.7077896120026708,2.0396336996336997,0.40534798534798533,0.5657142857142857
1.7139431820032769,2.0396336996336997,0.40534798534798533,0.5657142857142857
1.7188721500060637,2.0396336996336997,0.40534798534798533,0.5657142857142857
1.7225820910025504,2.0396336996336997,0.40534798534798533,0.5657142857142857
1.7287329600003432,0.9154578754578755,0.5520146520146519,0.1789010989010989
1.733588901006442,0.9154578754578755,0.5520146520146519,0.1789010989010989
1.7398466680024285,0.9154578754578755,0.5520146520146519,0.1789010989010989
1.7448747780072154,0.9154578754578755,0.5520146520146519,0.1789010989010989
1.7485593650053488,0.9154578754578755,0.5520146520146519,0.1789010989010989
1.7559427260057419,0.9154578754578755,0.5520146520146519,0.1789010989010989
1.7621292180047021,0.9154578754578755,0.5520146520146519,0.1789010989010989
1.7670600930068758,1.913919413919414,0.43032967032967034,0.4754578754578754
1.7732822910038522,1.913919413919414,0.43032967032967034,0.4754578754578754
1.778228584000317,1.7479120879120877,0.8098901098901098,0.6108424908424909
1.783162303006975,1.4046153846153846,0.3183150183150183,0.5745787545787545
1.789222826002515,1.4046153846153846,0.3183150183150183,0.5745787545787545
1.794137311000668,1.4046153846153846,0.3183150183150183,0.5745787545787545
1.8001488400041126,0.49076923076923074,0.07816849816849816,0.1087912087912088
1.8050639360008063,0.49076923076923074,0.07816849816849816,0.1087912087912088
1.8099582210052176,0.49076923076923074,0.07816849816849816,0.1087912087912088
1.8148772520071361,0.49076923076923074,0.10073260073260072,0.2643223443223443
1.8209205820021452,0.49076923076923074,0.10073260073260072,0.2643223443223443
1.8258375310033443,0.49076923076923074,0.10073260073260072,0.2643223443223443
1.832017746004567,0.49076923076923074,0.10073260073260072,0.2643223443223443
1.8369751810023445,1.0194139194139193,0.06205128205128205,0.17164835164835165
1.8419502790056868,1.0194139194139193,0.06205128205128205,0.17164835164835165
1.8468202810036018,1.0194139194139193,0.06205128205128205,0.17164835164835165
1.8529506280028727,1.0194139194139193,0.06205128205128205,0.17164835164835165
1.857823576006922,0.6680586080586081,0.08542124542124542,0.36747252747252745
1.86260494900489,0.5036630036630036,0.3602197802197802,0.14505494505494507
1.8688137600038317,0.5036630036630036,0.3602197802197802,0.14505494505494507
1.8737303570014774,0.5036630036630036,0.3602197802197802,0.14505494505494507
1.8786635020005633,0.6406593406593406,0.36747252747252745,0.14263736263736262
1.8848144850053359,0.6406593406593406,0.36747252747252745,0.14263736263736262
1.8897533450071933,1.3336996336996336,0.27882783882783885,0.4520879120879121
1.8946113150013844,1.3336996336996336,0.27882783882783885,0.4520879120879121
1.8995512460023747,1.3336996336996336,0.27882783882783885,0.4520879120879121
1.9031727780020447,1.3336996336996336,0.27882783882783885,0.4520879120879121
1.9105846150050638,1.3336996336996336,0.27882783882783885,0.4520879120879121
1.9167711830014014,0.311062271062271,0.07978021978021978,0.04351648351648352
1.9217070060039987,1.5198534798534797,0.7558974358974359,0.5874725274725274
1.9265726920057205,0.6422710622710622,0.29655677655677654,0.16278388278388278
1.9326739360039937,0.6422710622710622,0.29655677655677654,0.16278388278388278
1.9375722850018064,0.6422710622710622,0.29655677655677654,0.16278388278388278
1.9437900320044719,0.23934065934065935,0.15472527472527473,0.20065934065934066
1.948664320007083,0.23934065934065935,0.15472527472527473,0.20065934065934066
1.9558918390030158,0.5939194139194138,0.10556776556776555,0.28769230769230764
1.962062890001107,0.5939194139194138,0.10556776556776555,0.28769230769230764
1.9669789210020099,0.5520146520146519,0.2328937728937729,0.1249084249084249
1.971836009004619,0.5520146520146519,0.2328937728937729,0.1249084249084249
1.975427915000182,0.5520146520146519,0.2328937728937729,0.1249084249084249
1.9827194400058943,1.4964835164835164,0.7172161172161172,0.5004395604395604
1.9887739720070385,1.4964835164835164,0.7172161172161172,0.5004395604395604
1.9936865200070315,1.4964835164835164,0.7172161172161172,0.5004395604395604
1.9997714520068257,1.4964835164835164,0.7172161172161172,0.5004395604395604
2.004572742000164,2.1347252747252745,0.4351648351648352,0.5318681318681319
2.011842837004224,0.3972893772893773,0.30945054945054945,0.08139194139194139
2.018115584003681,0.3972893772893773,0.30945054945054945,0.08139194139194139
2.022985815005086,1.4964835164835164,0.3295970695970696,0.4754578754578754
2.0291099430032773,1.4964835164835164,0.3295970695970696,0.4754578754578754
2.0340379040062544,1.4964835164835164,0.3295970695970696,0.4754578754578754
2.038923922002141,1.4964835164835164,0.3295970695970696,0.4754578754578754
2.0426132420034264,1.4964835164835164,0.3295970695970696,0.4754578754578754
2.049920329001907,0.45772893772893775,0.2216117216117216,0.1104029304029304
2.056106535004801,0.45772893772893775,0.2216117216117216,0.1104029304029304
2.0608926610002527,0.45772893772893775,0.2216117216117216,0.1104029304029304
2.0669913190067746,0.45772893772893775,0.2216117216117216,0.1104029304029304
2.07182012800331,0.6253479853479853,0.14666666666666667,0.29655677655677654
2.0778662970042205,0.6253479853479853,0.14666666666666667,0.29655677655677654
2.0839573650009697,0.6253479853479853,0.14666666666666667,0.29655677655677654
2.0896476460038684,0.6253479853479853,0.14666666666666667,0.29655677655677654
2.098225211004319,0.6253479853479853,0.14666666666666667,0.29655677655677654
2.1056491450071917,0.6253479853479853,0.14666666666666667,0.29655677655677654
2.1118198140029563,0.6253479853479853,0.14666666666666667,0.29655677655677654
2.1166760450068978,0.6253479853479853,0.14666666666666667,0.29655677655677654
2.1228519790020073,0.38358974358974357,0.3376556776556776,0.18534798534798536
2.1278285880034673,0.38358974358974357,0.3376556776556776,0.18534798534798536
2.13267514200561,0.38358974358974357,0.3376556776556776,0.18534798534798536
2.139265231002355,1.9332600732600733,0.0846153846153846,0.4222710622710622
2.144111416004307,1.328058608058608,0.28769230769230764,0.23531135531135527
2.150063383000088,0.06285714285714286,0.190989010989011,0.0547985347985348
2.1549090910048108,0.5399267399267399,0.1265201465201465,0.2635164835164835
2.161019881001266,0.5399267399267399,0.1265201465201465,0.2635164835164835
2.16588612900523,0.5399267399267399,0.1265201465201465,0.2635164835164835
2.1719606630067574,0.5399267399267399,0.1265201465201465,0.2635164835164835
2.178029016002256,0.5399267399267399,0.1265201465201465,0.2635164835164835
2.1828960710045067,0.5399267399267399,0.1265201465201465,0.2635164835164835
2.188952311000321,0.5399267399267399,0.1265201465201465,0.2635164835164835
2.193827663002594,0.5399267399267399,0.1265201465201465,0.2635164835164835
2.199817521002842,0.5399267399267399,0.1265201465201465,0.2635164835164835
2.2046365560017875,0.1797069597069597,0.14505494505494507,0.19340659340659339
2.210611583002901,0.1797069597069597,0.14505494505494507,0.19340659340659339
2.2154666340065887,0.49238095238095236,0.08058608058608058,0.10476190476190475
2.222715453004639,0.49238095238095236,0.08058608058608058,0.10476190476190475
2.228830061001645,0.49238095238095236,0.08058608058608058,0.10476190476190475
2.234893684006238,1.7398534798534797,0.07816849816849816,0.3376556776556776
2.240048323001247,1.647985347985348,0.8896703296703296,0.6471062271062271
2.2437039540018304,1.647985347985348,0.8896703296703296,0.6471062271062271
2.2498732460007886,0.8542124542124543,0.5399267399267399,0.13296703296703297
2.2547919470016495,0.8542124542124543,0.5399267399267399,0.13296703296703297
2.2609038400041754,0.8542124542124543,0.5399267399267399,0.13296703296703297
2.2658728860042174,0.13054945054945052,0.1112087912087912,0.2498168498168498
2.2708031570000458,1.3143589743589743,0.24095238095238095,0.4351648351648352
2.2755991780068143,0.5004395604395604,0.11846153846153845,0.25223443223443226
2.28178088900313,0.5004395604395604,0.11846153846153845,0.25223443223443226
2.2866393980002613,0.5004395604395604,0.11846153846153845,0.25223443223443226
2.292765757003508,0.7147985347985348,0.13699633699633698,0.2917216117216117
2.297674724002718,1.7043956043956046,0.08622710622710622,0.3771428571428571
2.3039166220041807,0.3529670329670329,0.17326007326007326,0.2191941391941392
2.308897552000417,0.3529670329670329,0.17326007326007326,0.2191941391941392
2.313720505000674,0.3529670329670329,0.17326007326007326,0.2191941391941392
2.319923500006553,0.3529670329670329,0.17326007326007326,0.2191941391941392
2.3249535870054387,1.145128205128205,0.2772161172161172,0.4512820512820513
2.328655620003701,1.133040293040293,0.2361172161172161,0.4254945054945055
2.3348010050031007,1.133040293040293,0.2361172161172161,0.4254945054945055
2.3397682720024022,1.133040293040293,0.2361172161172161,0.4254945054945055
2.345960731006926,1.133040293040293,0.2361172161172161,0.4254945054945055
2.350822117005009,1.133040293040293,0.2361172161172161,0.4254945054945055
2.356910525006242,1.133040293040293,0.2361172161172161,0.4254945054945055
2.3619339160068193,1.133040293040293,0.2361172161172161,0.4254945054945055
2.36566070200206,1.133040293040293,0.2361172161172161,0.4254945054945055
2.3732051980041433,1.133040293040293,0.2361172161172161,0.4254945054945055
2.3795076630049152,1.133040293040293,0.2361172161172161,0.4254945054945055
2.3843934400065336,1.133040293040293,0.2361172161172161,0.4254945054945055
2.3905710440012626,1.133040293040293,0.2361172161172161,0.4254945054945055
2.395481399005803,1.133040293040293,0.2361172161172161,0.4254945054945055
2.400337444007164,1.133040293040293,0.2361172161172161,0.4254945054945055
2.406482402002439,1.133040293040293,0.2361172161172161,0.4254945054945055
2.4113794770019013,1.133040293040293,0.2361172161172161,0.4254945054945055
2.4162103090056917,1.133040293040293,0.2361172161172161,0.4254945054945055
2.4234649120044196,1.133040293040293,0.2361172161172161,0.4254945054945055
2.429572848006501,1.133040293040293,0.2361172161172161,0.4254945054945055
2.4345198790033464,1.133040293040293,0.2361172161172161,0.4254945054945055
2.4393513050017646,1.133040293040293,0.2361172161172161,0.4254945054945055
2.4454912320070434,1.133040293040293,0.2361172161172161,0.4254945054945055
2.4503036420064745,1.133040293040293,0.2361172161172161,0.4254945054945055
2.4563917920022504,1.7849816849816849,0.05641025641025641,0.4456410256410256
2.4611805000022287,1.7849816849816849,0.05641025641025641,0.4456410256410256
2.4684436230018036,1.7849816849816849,0.05641025641025641,0.4456410256410256
2.474640424006793,1.7849816849816849,0.05641025641025641,0.4456410256410256
2.479559750005137,0.2602930402930403,0.18857142857142856,0.11846153846153845
2.4844108160032192,0.2602930402930403,0.18857142857142856,0.11846153846153845
2.4893017440044787,0.5504029304029303,0.2796336996336996,0.16197802197802197
2.494174607003515,0.5504029304029303,0.2796336996336996,0.16197802197802197
2.50026354300644,0.5504029304029303,0.2796336996336996,0.16197802197802197
2.505189812000026,2.016263736263736,0.4279120879120879,0.46739926739926735
2.5100959220071672,2.016263736263736,0.4279120879120879,0.46739926739926735
2.5162547990039457,0.6720879120879121,0.0975091575091575,0.14505494505494507
2.521166776001337,0.5608791208791208,0.3916483516483516,0.14102564102564102
2.5272618790040724,0.5608791208791208,0.3916483516483516,0.14102564102564102
2.532202437003434,0.5608791208791208,0.3916483516483516,0.14102564102564102
2.538387013002648,0.5608791208791208,0.3916483516483516,0.14102564102564102
2.543358321003325,0.5608791208791208,0.3916483516483516,0.14102564102564102
2.5481695040070917,0.5608791208791208,0.3916483516483516,0.14102564102564102
2.5555648380031926,0.5608791208791208,0.3916483516483516,0.14102564102564102
2.56161931900715,0.47465201465201456,0.34007326007326005,0.14344322344322344
2.5676999320057803,0.47465201465201456,0.34007326007326005,0.14344322344322344
2.5726092910044827,1.2724542124542124,0.7937728937728937,0.3723076923076923
2.577489830000559,1.2724542124542124,0.7937728937728937,0.3723076923076923
2.583588197005156,1.2724542124542124,0.7937728937728937,0.3723076923076923
2.5884666300044046,1.7906227106227104,0.39406593406593404,0.3473260073260073
2.595884307003871,0.9307692307692307,0.2071062271062271,0.36747252747252745
2.602116541005671,0.9307692307692307,0.2071062271062271,0.36747252747252745
2.6070235120059806,0.9307692307692307,0.2071062271062271,0.36747252747252745
2.6118721950042527,0.9307692307692307,0.2071062271062271,0.36747252747252745
2.6166807000045083,0.5753846153846153,0.2909157509157509,0.1821245421245421
2.622755843003688,0.5753846153846153,0.2909157509157509,0.1821245421245421
2.627605952002341,0.5753846153846153,0.2909157509157509,0.1821245421245421
2.633690063004906,0.5753846153846153,0.2909157509157509,0.1821245421245421
2.638651737004693,1.598021978021978,0.8131135531135532,0.5721611721611721
2.6436856650034315,2.0267399267399266,0.4198534798534798,0.4625641025641025
2.6462286000023596,0.253040293040293,0.21999999999999997,0.06688644688644689
2.653553316005855,0.253040293040293,0.21999999999999997,0.06688644688644689
2.6596231490038917,0.253040293040293,0.21999999999999997,0.06688644688644689
2.6656102140041185,0.4174358974358974,0.27641025641025635,0.18373626373626373
2.671621342000435,1.0959706959706959,0.22644688644688646,0.3924542124542124
2.6765529530021013,1.0959706959706959,0.22644688644688646,0.3924542124542124
2.6827059620045475,1.0959706959706959,0.22644688644688646,0.3924542124542124
2.6876221020065714,2.0621978021978022,0.4553113553113553,0.4222710622710622
2.6937662310010637,0.5109157509157509,0.10476190476190475,0.2683516483516483
2.6989293190054013,0.5109157509157509,0.10476190476190475,0.2683516483516483
2.702548488006869,0.5109157509157509,0.10476190476190475,0.2683516483516483
2.7099215920025017,0.6052014652014651,0.3843956043956044,0.12893772893772892
2.7161277970008086,0.6052014652014651,0.3843956043956044,0.12893772893772892
2.7210248350020265,1.6367032967032966,0.6825641025641025,0.5342857142857143
2.7258484520061756,1.6367032967032966,0.6825641025641025,0.5342857142857143
2.732009146006021,0.8252014652014652,0.15794871794871795,0.3352380952380952
2.736865092003427,0.8252014652014652,0.15794871794871795,0.3352380952380952
2.7418529680071515,0.8252014652014652,0.15794871794871795,0.3352380952380952
2.7466698990028817,0.2602930402930403,0.23934065934065935,0.08542124542124542
2.7515190030026133,0.2602930402930403,0.23934065934065935,0.08542124542124542
2.7574593630051822,1.6713553113553112,0.04593406593406593,0.4553113553113553
2.7646958330005873,1.9106959706959707,0.83003663003663,0.6382417582417582
2.7707337560059386,1.9106959706959707,0.83003663003663,0.6382417582417582
2.7756394970056135,1.9106959706959707,0.83003663003663,0.6382417582417582
2.7803741580064525,1.9106959706959707,0.83003663003663,0.6382417582417582
2.7864952750023804,1.9106959706959707,0.83003663003663,0.6382417582417582
2.7914145290051238,1.9106959706959707,0.83003663003663,0.6382417582417582
2.79753425000672,0.42952380952380953,0.2216117216117216,0.14586080586080585
2.802389493001101,0.42952380952380953,0.2216117216117216,0.14586080586080585
2.8085369850014104,0.42952380952380953,0.2216117216117216,0.14586080586080585
2.813392448006198,0.42952380952380953,0.2216117216117216,0.14586080586080585
2.8195024080050644,1.8494505494505493,0.8308424908424907,0.61003663003663
2.8243373510049423,0.3199267399267399,0.1926007326007326,0.20468864468864467
2.8316158930028905,0.3199267399267399,0.1926007326007326,0.20468864468864467
2.837857142003486,0.3199267399267399,0.1926007326007326,0.20468864468864467
2.8429524040038814,1.3852747252747253,0.31347985347985347,0.448058608058608
2.8490010910027195,1.3586813186813185,0.7841025641025641,0.33684981684981685
2.855206784006441,1.3586813186813185,0.7841025641025641,0.33684981684981685
2.860077571000147,0.12893772893772892,0.08783882783882783,0.03223443223443223
2.866291177000676,0.12893772893772892,0.08783882783882783,0.03223443223443223
2.8712327100001858,1.2917948717948717,0.8219780219780219,0.30139194139194136
2.877736291004112,1.2917948717948717,0.8219780219780219,0.30139194139194136
2.882722382004431,1.2917948717948717,0.8219780219780219,0.30139194139194136
2.886519428000611,2.3265201465201466,0.4432234432234432,0.49882783882783877
2.8914389860001393,2.3265201465201466,0.4432234432234432,0.49882783882783877
2.897741198001313,2.3265201465201466,0.4432234432234432,0.49882783882783877
2.9027169030014193,2.3265201465201466,0.4432234432234432,0.49882783882783877
2.908940720000828,2.3265201465201466,0.4432234432234432,0.49882783882783877
2.9139038790017366,2.3265201465201466,0.4432234432234432,0.49882783882783877
2.917724248000013,2.3265201465201466,0.4432234432234432,0.49882783882783877
2.923765452003863,2.3265201465201466,0.4432234432234432,0.49882783882783877
2.9274829720015987,2.046080586080586,0.419047619047619,0.4142124542124542
2.9337394590038457,2.046080586080586,0.419047619047619,0.4142124542124542
2.9387061660017935,2.046080586080586,0.419047619047619,0.4142124542124542
2.944999274004658,0.33926739926739924,0.24498168498168496,0.18695970695970696
2.949954379000701,0.33926739926739924,0.24498168498168496,0.18695970695970696
2.95617958400544,0.8018315018315018,0.1515018315018315,0.30058608058608055
2.9611355640008696,0.8018315018315018,0.1515018315018315,0.30058608058608055
2.967320125004335,0.7873260073260073,0.5504029304029303,0.14586080586080585
2.972218361006526,0.7873260073260073,0.5504029304029303,0.14586080586080585
2.978499916003784,1.8212454212454212,0.8034432234432234,0.6019780219780219
2.9834165050051524,1.8212454212454212,0.8034432234432234,0.6019780219780219
2.9883507350023137,1.8212454212454212,0.8034432234432234,0.6019780219780219
2.994669886000338,1.8212454212454212,0.8034432234432234,0.6019780219780219
2.9998887790061417,1.8212454212454212,0.8034432234432234,0.6019780219780219
3.002879607003706,2.302344322344322,0.4778754578754579,0.5939194139194138
3.004294951002521,2.302344322344322,0.4778754578754579,0.5939194139194138
3.015294928001822,2.302344322344322,0.4778754578754579,0.5939194139194138
3.0239732670015655,2.302344322344322,0.4778754578754579,0.5939194139194138
3.0313805180048803,2.302344322344322,0.4778754578754579,0.5939194139194138
3.037576442002319,1.5609523809523809,0.7397802197802198,0.5487912087912087
3.044431249007175,1.5609523809523809,0.7397802197802198,0.5487912087912087
3.0540250630001538,1.1153113553113554,0.689010989010989,0.23853479853479853
3.065026033000322,0.6922344322344323,0.09025641025641025,0.12571428571428572
3.075896880000073,2.339413919413919,0.4931868131868131,0.5616849816849817
3.0842584680067375,0.2772161172161172,0.14827838827838827,0.20146520146520144
3.0920739650027826,0.2772161172161172,0.14827838827838827,0.20146520146520144
3.0988395550011774,0.2772161172161172,0.14827838827838827,0.20146520146520144
3.1067107550043147,0.2772161172161172,0.14827838827838827,0.20146520146520144
3.1178394820017274,0.311062271062271,0.22725274725274724,0.06043956043956044
3.1314924050020636,0.311062271062271,0.22725274725274724,0.06043956043956044
3.1458623910002643,0.311062271062271,0.22725274725274724,0.06043956043956044
3.158643115006271,0.4593406593406593,0.2482051282051282,0.21355311355311357
3.1590091090038186,0.6841758241758242,0.07897435897435898,0.1402197802197802
3.1661526770039927,0.6841758241758242,0.07897435897435898,0.1402197802197802
3.1727509120028117,0.6841758241758242,0.07897435897435898,0.1402197802197802
3.178833799000131,0.6841758241758242,0.07897435897435898,0.1402197802197802
3.1842279150005197,0.6841758241758242,0.07897435897435898,0.1402197802197802
3.1845843310002238,0.6841758241758242,0.07897435897435898,0.1402197802197802
3.1949355520046083,0.6841758241758242,0.07897435897435898,0.1402197802197802
3.20386503500049,0.6841758241758242,0.07897435897435898,0.1402197802197802
3.2127921520004747,0.6841758241758242,0.07897435897435898,0.1402197802197802
3.2194404280016897,0.6841758241758242,0.07897435897435898,0.1402197802197802
3.2252315710065886,0.43758241758241756,0.2095238095238095,0.2095238095238095
3.2338038590023643,0.43758241758241756,0.2095238095238095,0.2095238095238095
3.2450365650001913,0.43758241758241756,0.2095238095238095,0.2095238095238095
3.2583651640015887,0.43758241758241756,0.2095238095238095,0.2095238095238095
3.267845030000899,0.0,0.10315018315018315,0.004835164835164835
3.2786754720000317,1.664102564102564,0.07494505494505493,0.43758241758241756
3.28647224100132,0.5761904761904761,0.044322344322344324,0.11926739926739927
3.294618766005442,0.5471794871794872,0.419047619047619,0.12007326007326008
3.3016426990070613,0.5471794871794872,0.419047619047619,0.12007326007326008
3.3091240900030243,0.5471794871794872,0.419047619047619,0.12007326007326008
3.3181216240045615,0.5471794871794872,0.419047619047619,0.12007326007326008
3.3280725560034625,0.5858608058608058,0.365054945054945,0.15472527472527473
3.3397871170018334,0.5858608058608058,0.365054945054945,0.15472527472527473
3.3480149590031942,0.5858608058608058,0.365054945054945,0.15472527472527473
3.354612077004276,0.5858608058608058,0.365054945054945,0.15472527472527473
3.3624897290064837,0.49399267399267394,0.0693040293040293,0.09589743589743589
3.3721767410024768,0.925128205128205,0.25545787545787546,0.166007326007326
3.3824043560016435,1.1749450549450549,0.22644688644688646,0.40695970695970696
3.3905438760048128,1.1749450549450549,0.22644688644688646,0.40695970695970696
3.3984281020020717,1.1749450549450549,0.22644688644688646,0.40695970695970696
3.4050293860054808,1.1749450549450549,0.22644688644688646,0.40695970695970696
3.411801122005272,1.257142857142857,0.7824908424908424,0.31750915750915754
3.417030186006741,1.257142857142857,0.7824908424908424,0.31750915750915754
3.422019835001265,1.257142857142857,0.7824908424908424,0.31750915750915754
3.427039252004761,0.6624175824175824,0.4432234432234432,0.1378021978021978
3.4323195590040996,0.6624175824175824,0.4432234432234432,0.1378021978021978
3.4327358120062854,0.6624175824175824,0.4432234432234432,0.1378021978021978
3.4437637100054417,0.6624175824175824,0.4432234432234432,0.1378021978021978
3.453569191005954,0.6624175824175824,0.4432234432234432,0.1378021978021978
3.464372236005147,0.6624175824175824,0.4432234432234432,0.1378021978021978
3.471234844000719,0.6624175824175824,0.4432234432234432,0.1378021978021978
3.4780960390053224,0.6624175824175824,0.4432234432234432,0.1378021978021978
3.4833828730043024,0.6624175824175824,0.4432234432234432,0.1378021978021978
3.48598347799998,0.6624175824175824,0.4432234432234432,0.1378021978021978
3.4945310770053766,0.7695970695970695,0.14908424908424908,0.32395604395604394
3.503636067005573,0.6648351648351648,0.06124542124542124,0.11846153846153845
3.5127263010072056,0.6648351648351648,0.06124542124542124,0.11846153846153845
3.5214060160069494,0.6648351648351648,0.06124542124542124,0.11846153846153845
3.5292485490062973,0.39890109890109887,0.2345054945054945,0.2079120879120879
3.5372040920046857,0.39890109890109887,0.2345054945054945,0.2079120879120879
3.5478253530018264,0.39890109890109887,0.2345054945054945,0.2079120879120879
3.5595197240036214,0.39890109890109887,0.2345054945054945,0.2079120879120879
3.5663663240047754,0.39890109890109887,0.2345054945054945,0.2079120879120879
3.5715061200025957,0.39890109890109887,0.2345054945054945,0.2079120879120879
3.5750482480070787,0.39890109890109887,0.2345054945054945,0.2079120879120879
3.5857199450038024,0.39890109890109887,0.2345054945054945,0.2079120879120879
3.596515454002656,0.39890109890109887,0.2345054945054945,0.2079120879120879
3.6043870960056665,0.0,0.0821978021978022,0.0
3.61448967600154,2.3297435897435896,0.39809523809523806,0.5318681318681319
3.622461614002532,2.3297435897435896,0.39809523809523806,0.5318681318681319
3.6316780770066543,2.3297435897435896,0.39809523809523806,0.5318681318681319
3.639549881001585,2.3297435897435896,0.39809523809523806,0.5318681318681319
3.6475732710023294,2.3297435897435896,0.39809523809523806,0.5318681318681319
3.6570305510031176,1.3465934065934064,0.8969230769230768,0.3416849816849817
3.666415304003749,1.3465934065934064,0.8969230769230768,0.3416849816849817
3.6748057450022316,1.3465934065934064,0.8969230769230768,0.3416849816849817
3.6816132520034444,0.8211721611721612,0.4391941391941392,0.2208058608058608
3.6868004170028144,2.3120146520146516,0.48432234432234433,0.5447619047619047
3.6882610060056322,1.411062271062271,0.842124542124542,0.3432967032967033
3.6999717990038334,1.411062271062271,0.842124542124542,0.3432967032967033
3.712779653003963,0.14747252747252745,0.1813186813186813,0.1571428571428571
3.7263445100034005,1.3723809523809525,0.2949450549450549,0.4553113553113553
3.7408775980002247,1.3723809523809525,0.2949450549450549,0.4553113553113553
3.7521064060056233,1.3723809523809525,0.2949450549450549,0.4553113553113553
3.752386572006799,1.3723809523809525,0.2949450549450549,0.4553113553113553
3.761460411005828,1.3723809523809525,0.2949450549450549,0.4553113553113553
3.7681793330048095,1.3723809523809525,0.2949450549450549,0.4553113553113553
3.7734589360043174,1.3723809523809525,0.2949450549450549,0.4553113553113553
3.773841940004786,1.3723809523809525,0.2949450549450549,0.4553113553113553
3.7825656210043235,1.3723809523809525,0.2949450549450549,0.4553113553113553
3.7917269340032362,1.3723809523809525,0.2949450549450549,0.4553113553113553
3.8007495690035284,1.3723809523809525,0.2949450549450549,0.4553113553113553
3.807655816002807,1.3723809523809525,0.2949450549450549,0.4553113553113553
3.8133357530023204,1.9203663003663003,0.0846153846153846,0.42630036630036633
3.8231486590011627,1.3884981684981685,0.5705494505494505,0.4222710622710622
3.8326701460027834,1.3884981684981685,0.5705494505494505,0.4222710622710622
3.8405159930043737,1.3884981684981685,0.5705494505494505,0.4222710622710622
3.8483283990062773,0.19018315018315018,0.13054945054945052,0.2063003663003663
3.8555645730011747,0.19018315018315018,0.13054945054945052,0.2063003663003663
3.863432479003677,1.627032967032967,0.6712820512820512,0.5512087912087912
3.870003093004925,1.544029304029304,0.3384615384615384,0.46739926739926735
3.8761958750037593,1.544029304029304,0.3384615384615384,0.46739926739926735
3.8801676010043593,1.544029304029304,0.3384615384615384,0.46739926739926735
3.8855183590058004,1.544029304029304,0.3384615384615384,0.46739926739926735
3.8858431960034068,1.544029304029304,0.3384615384615384,0.46739926739926735
3.8946206540058483,1.544029304029304,0.3384615384615384,0.46739926739926735
3.9010337210056605,1.8236630036630037,0.07413919413919413,0.3852014652014652
3.9061437170021236,1.8236630036630037,0.07413919413919413,0.3852014652014652
3.911240136003471,1.8236630036630037,0.07413919413919413,0.3852014652014652
3.91401389100065,1.8236630036630037,0.07413919413919413,0.3852014652014652
3.9192507630068576,1.8236630036630037,0.07413919413919413,0.3852014652014652
3.9206373440028983,2.1202197802197804,0.4126007326007326,0.4456410256410256
3.932882357003109,0.39809523809523806,0.3158974358974359,0.07252747252747253
3.9415511950064683,1.8284981684981685,0.06849816849816849,0.3449084249084249
3.9480143100008718,1.5835164835164834,0.3811721611721612,0.506080586080586
3.9536813000013353,1.5835164835164834,0.3811721611721612,0.506080586080586
3.9640443340031197,1.801098901098901,0.008864468864468863,0.3642490842490842
3.973289220004517,1.801098901098901,0.008864468864468863,0.3642490842490842
3.9845955870041507,0.971062271062271,0.1515018315018315,0.3578021978021978
3.9995209310000064,0.971062271062271,0.1515018315018315,0.3578021978021978
4.014789146000112,1.1612454212454213,0.0846153846153846,0.1789010989010989
4.029714396005147,1.1612454212454213,0.0846153846153846,0.1789010989010989
4.045735974003037,1.1612454212454213,0.0846153846153846,0.1789010989010989
4.061458350006433,0.43677655677655675,0.06527472527472526,0.2498168498168498
4.079571078000299,1.58996336996337,0.08139194139194139,0.4416117216117216
4.079969237005571,1.58996336996337,0.08139194139194139,0.4416117216117216
4.092471318006574,1.58996336996337,0.08139194139194139,0.4416117216117216
4.10773114800395,1.0758241758241758,0.5802197802197803,0.307032967032967
4.1198546630039345,0.5697435897435897,0.28205128205128205,0.1668131868131868
4.12016055300046,0.5697435897435897,0.28205128205128205,0.1668131868131868
4.1357304450066295,0.5697435897435897,0.28205128205128205,0.1668131868131868
4.14672472300299,0.49721611721611714,0.3183150183150183,0.18534798534798536
4.153904257000249,0.49721611721611714,0.3183150183150183,0.18534798534798536
4.163787538003817,0.49721611721611714,0.3183150183150183,0.18534798534798536
4.1763565210058005,0.4085714285714286,0.19663003663003664,0.21032967032967032
4.18848330500623,0.4964102564102564,0.28769230769230764,0.13538461538461538
4.199571828001353,0.4964102564102564,0.28769230769230764,0.13538461538461538
4.21281697700033,0.5560439560439561,0.05963369963369963,0.09509157509157509
4.2223557390025235,0.5560439560439561,0.05963369963369963,0.09509157509157509
4.233351294002205,0.5560439560439561,0.05963369963369963,0.09509157509157509
4.242464206006844,0.5560439560439561,0.05963369963369963,0.09509157509157509
4.252357130004384,0.5560439560439561,0.05963369963369963,0.09509157509157509
4.262032059006742,0.5560439560439561,0.05963369963369963,0.09509157509157509
4.269928189001803,0.5560439560439561,0.05963369963369963,0.09509157509157509
4.279284870004631,0.5560439560439561,0.05963369963369963,0.09509157509157509
4.286278258005041,2.207252747252747,0.43597069597069593,0.5592673992673992
4.292253448002157,2.207252747252747,0.43597069597069593,0.5592673992673992
4.298870935002924,1.2652014652014651,0.6559706959706959,0.3771428571428571
4.3041192020027665,1.2652014652014651,0.6559706959706959,0.3771428571428571
4.307077391000348,0.6189010989010989,0.2643223443223443,0.1418315018315018
4.310975743006566,0.6189010989010989,0.2643223443223443,0.1418315018315018
4.316527856004541,0.6189010989010989,0.2643223443223443,0.1418315018315018
4.3259341240045615,0.6189010989010989,0.2643223443223443,0.1418315018315018
4.332576743006939,0.6189010989010989,0.2643223443223443,0.1418315018315018
4.339071707006951,1.822051282051282,0.8018315018315018,0.5987545787545787
4.345503219003149,1.822051282051282,0.8018315018315018,0.5987545787545787
4.350629529006255,1.3973626373626373,0.29816849816849816,0.4383882783882784
4.354549802003021,1.3973626373626373,0.29816849816849816,0.4383882783882784
4.360931897004775,1.3973626373626373,0.29816849816849816,0.4383882783882784
4.366537996000261,1.3973626373626373,0.29816849816849816,0.4383882783882784
4.366715460004343,1.3973626373626373,0.29816849816849816,0.4383882783882784
4.375546889001271,1.3973626373626373,0.29816849816849816,0.4383882783882784
4.382338167000853,1.3973626373626373,0.29816849816849816,0.4383882783882784
4.387411293006153,0.08703296703296703,0.16278388278388278,0.03948717948717949
4.394484164004098,1.332087912087912,0.27802197802197803,0.4432234432234432
4.401054287001898,1.7599999999999998,0.921098901098901,0.6358241758241758
4.406610650003131,1.7599999999999998,0.921098901098901,0.6358241758241758
4.416848739005218,0.726080586080586,0.1402197802197802,0.3142857142857142
4.427254364003602,1.792234432234432,0.0701098901098901,0.4512820512820513
4.4339401880060905,1.792234432234432,0.0701098901098901,0.4512820512820513
4.439984114003892,1.792234432234432,0.0701098901098901,0.4512820512820513
4.4505644220043905,1.792234432234432,0.0701098901098901,0.4512820512820513
4.46144936500059,1.792234432234432,0.0701098901098901,0.4512820512820513
4.471944230004738,0.27641025641025635,0.13538461538461538,0.21274725274725276
4.480204236002464,0.27641025641025635,0.13538461538461538,0.21274725274725276
4.4867043620033655,0.27641025641025635,0.13538461538461538,0.21274725274725276
4.4937226840047515,0.3892307692307692,0.12732600732600732,0.21032967032967032
4.49919868100551,0.3892307692307692,0.12732600732600732,0.21032967032967032
4.499476983000932,0.37150183150183147,0.2175824175824176,0.1829304029304029
4.507593886002724,0.37150183150183147,0.2175824175824176,0.1829304029304029
4.518746545007161,1.8768498168498167,0.09106227106227105,0.40695970695970696
4.530748124001548,0.6317948717948718,0.4005128205128205,0.1418315018315018
4.538735991001886,0.713992673992674,0.47062271062271055,0.13216117216117215
4.550650196004426,0.713992673992674,0.47062271062271055,0.13216117216117215
4.565660050000588,0.713992673992674,0.47062271062271055,0.13216117216117215
4.580307765005273,0.3997069597069597,0.07736263736263736,0.2836630036630036
4.592866645005415,1.6745787545787545,0.08783882783882783,0.34007326007326005
4.6081511130032595,1.9445421245421244,0.0693040293040293,0.4504761904761904
4.618113897005969,1.9445421245421244,0.0693040293040293,0.4504761904761904
4.630577950003499,1.9445421245421244,0.0693040293040293,0.4504761904761904
4.638686967002286,0.6027838827838827,0.30139194139194136,0.23208791208791207
4.648423200000252,0.6027838827838827,0.30139194139194136,0.23208791208791207
4.655042014004721,0.1942124542124542,0.21999999999999997,0.08783882783882783
4.661305771005573,0.1942124542124542,0.21999999999999997,0.08783882783882783
4.666444793001574,0.1942124542124542,0.21999999999999997,0.08783882783882783
4.669015964005666,0.1942124542124542,0.21999999999999997,0.08783882783882783
4.678144077006436,0.1942124542124542,0.21999999999999997,0.08783882783882783
4.684650840004906,0.1942124542124542,0.21999999999999997,0.08783882783882783
4.6901703480034485,0.1942124542124542,0.21999999999999997,0.08783882783882783
4.690451585003757,0.3852014652014652,0.12249084249084248,0.21677655677655677
4.699072466006328,0.3852014652014652,0.12249084249084248,0.21677655677655677
4.707209088002855,0.4778754578754579,0.3376556776556776,0.1418315018315018
4.718878817002405,0.4778754578754579,0.3376556776556776,0.1418315018315018
4.728484092003782,0.4778754578754579,0.3376556776556776,0.1418315018315018
4.7350801740030874,1.311135531135531,0.2627106227106227,0.4416117216117216
4.74066521700297,1.311135531135531,0.2627106227106227,0.4416117216117216
4.740862137005024,1.311135531135531,0.2627106227106227,0.4416117216117216
4.749923462004517,1.311135531135531,0.2627106227106227,0.4416117216117216
4.758779199000855,1.311135531135531,0.2627106227106227,0.4416117216117216
4.7660560560034355,0.4964102564102564,0.29736263736263735,0.14747252747252745
4.772799485006544,0.4964102564102564,0.29736263736263735,0.14747252747252745
4.7796068510069745,1.6093040293040293,0.06769230769230769,0.4496703296703296
4.785061349000898,1.6093040293040293,0.06769230769230769,0.4496703296703296
4.785401600005571,1.6093040293040293,0.06769230769230769,0.4496703296703296
4.796196900002542,1.6093040293040293,0.06769230769230769,0.4496703296703296
4.8035649490047945,1.7543589743589743,0.05963369963369963,0.33926739926739924
4.81503790300485,1.7543589743589743,0.05963369963369963,0.33926739926739924
4.825151895005547,1.7543589743589743,0.05963369963369963,0.33926739926739924
4.837584042004892,1.7543589743589743,0.05963369963369963,0.33926739926739924
4.850765062001301,0.7824908424908424,0.3505494505494505,0.25142857142857145
4.864450544002466,0.7824908424908424,0.3505494505494505,0.25142857142857145
4.879784969001776,0.9267399267399267,0.13296703296703297,0.33684981684981685
4.897424264003348,0.9267399267399267,0.13296703296703297,0.33684981684981685
4.897841778001748,0.9267399267399267,0.13296703296703297,0.33684981684981685
4.903340425000351,0.9267399267399267,0.13296703296703297,0.33684981684981685
4.903664620003838,0.9267399267399267,0.13296703296703297,0.33684981684981685
4.915757195005426,0.9267399267399267,0.13296703296703297,0.33684981684981685
4.920084573001077,0.9267399267399267,0.13296703296703297,0.33684981684981685
4.920442226000887,0.9267399267399267,0.13296703296703297,0.33684981684981685
4.932884051006113,0.9267399267399267,0.13296703296703297,0.33684981684981685
4.9392827640040196,1.0468131868131867,0.195018315018315,0.38036630036630037
4.9495122560038,0.3795604395604395,0.18454212454212454,0.2071062271062271
4.956432034006866,0.3795604395604395,0.18454212454212454,0.2071062271062271
4.967545967003389,0.3795604395604395,0.18454212454212454,0.2071062271062271
4.970027336006751,2.0621978021978022,0.3553846153846154,0.4416117216117216
4.983606720001262,2.0621978021978022,0.3553846153846154,0.4416117216117216
4.9930167280035676,2.0621978021978022,0.3553846153846154,0.4416117216117216
5.000509836005222,2.0621978021978022,0.3553846153846154,0.4416117216117216
5.0076786580029875,0.47062271062271055,0.2715750915750916,0.190989010989011
5.014701339001476,0.47062271062271055,0.2715750915750916,0.190989010989011
5.021254128005239,0.47062271062271055,0.2715750915750916,0.190989010989011
5.02871603800304,0.47062271062271055,0.2715750915750916,0.190989010989011
5.03598183500435,0.47062271062271055,0.2715750915750916,0.190989010989011
5.04304488300113,0.47062271062271055,0.2715750915750916,0.190989010989011
5.049188973003766,0.47062271062271055,0.2715750915750916,0.190989010989011
5.056151460004912,1.9574358974358974,0.0821978021978022,0.3876190476190476
5.065180358004,1.9574358974358974,0.0821978021978022,0.3876190476190476
5.072499260000768,1.9574358974358974,0.0821978021978022,0.3876190476190476
5.08158354000625,0.6237362637362637,0.3352380952380952,0.12893772893772892
5.0901175160033745,0.6237362637362637,0.3352380952380952,0.12893772893772892
5.097903183006565,0.6237362637362637,0.3352380952380952,0.12893772893772892
5.104741831004503,0.6237362637362637,0.3352380952380952,0.12893772893772892
5.111422827001661,1.3643223443223442,0.8775824175824175,0.32717948717948714
5.11659817200416,1.3643223443223442,0.8775824175824175,0.32717948717948714
5.11933518400474,1.3643223443223442,0.8775824175824175,0.32717948717948714
5.1259534590062685,0.6696703296703297,0.31267399267399265,0.15472527472527473
5.131687447006698,0.6696703296703297,0.31267399267399265,0.15472527472527473
5.138163767005608,0.6696703296703297,0.31267399267399265,0.15472527472527473
5.144758173002629,2.049304029304029,0.4085714285714286,0.5504029304029303
5.1517682500052615,2.049304029304029,0.4085714285714286,0.5504029304029303
5.160647369004437,0.4085714285714286,0.0838095238095238,0.04593406593406593
5.1703887800031225,0.4085714285714286,0.0838095238095238,0.04593406593406593
5.180900831001054,0.4085714285714286,0.0838095238095238,0.04593406593406593
5.189659262003261,0.4085714285714286,0.0838095238095238,0.04593406593406593
5.197507641001721,0.4085714285714286,0.0838095238095238,0.04593406593406593
5.204106339006103,0.4085714285714286,0.0838095238095238,0.04593406593406593
5.212100383003417,1.4352380952380952,0.3183150183150183,0.4545054945054945
5.218532568003866,1.4352380952380952,0.3183150183150183,0.4545054945054945
5.224753727001371,1.4352380952380952,0.3183150183150183,0.4545054945054945
5.228763474005973,1.1547985347985346,0.7357509157509158,0.24739926739926738
5.231463900003291,1.1547985347985346,0.7357509157509158,0.24739926739926738
5.238079711001774,1.1547985347985346,0.7357509157509158,0.24739926739926738
5.245442128005379,1.1547985347985346,0.7357509157509158,0.24739926739926738
5.2512298080037,1.1547985347985346,0.7357509157509158,0.24739926739926738
5.262245687001268,1.1547985347985346,0.7357509157509158,0.24739926739926738
5.270243664002919,1.1547985347985346,0.7357509157509158,0.24739926739926738
5.279949714000395,0.5826373626373627,0.12329670329670328,0.27399267399267396
5.287331996005378,0.5826373626373627,0.12329670329670328,0.27399267399267396
5.29796674100362,0.5826373626373627,0.12329670329670328,0.27399267399267396
5.309420298006444,0.5826373626373627,0.12329670329670328,0.27399267399267396
5.318095519003691,0.5826373626373627,0.12329670329670328,0.27399267399267396
5.327241969003808,0.5826373626373627,0.12329670329670328,0.27399267399267396
5.333653037007025,0.6116483516483516,0.2562637362637363,0.15472527472527473
5.338854415000242,1.3554578754578754,0.6132600732600733,0.4698168498168498
5.341555353006697,0.3416849816849817,0.18615384615384614,0.2087179487179487
5.34809076700185,0.3416849816849817,0.18615384615384614,0.2087179487179487
5.353093144003651,0.3416849816849817,0.18615384615384614,0.2087179487179487
5.358181664007134,0.3416849816849817,0.18615384615384614,0.2087179487179487
5.362003716007166,0.3416849816849817,0.18615384615384614,0.2087179487179487
5.371677765004279,0.3416849816849817,0.18615384615384614,0.2087179487179487
5.379360112005088,0.3416849816849817,0.18615384615384614,0.2087179487179487
5.385940089006908,0.6527472527472526,0.2949450549450549,0.1652014652014652
5.3930580700034625,0.6527472527472526,0.2949450549450549,0.1652014652014652
5.3983007130009355,0.6527472527472526,0.2949450549450549,0.1652014652014652
5.400850533005723,2.2435164835164834,0.4448351648351648,0.585054945054945
5.409949757005961,0.6906227106227106,0.46820512820512816,0.12571428571428572
5.416457749000983,1.2273260073260073,0.759120879120879,0.32153846153846155
5.421552234001865,1.2273260073260073,0.759120879120879,0.32153846153846155
5.426544817004469,1.2273260073260073,0.759120879120879,0.32153846153846155
5.430300076004642,1.2676190476190476,0.28124542124542123,0.43435897435897436
5.436804416000086,1.2676190476190476,0.28124542124542123,0.43435897435897436
5.441992580002989,1.2676190476190476,0.28124542124542123,0.43435897435897436
5.44595154900162,1.3997802197802196,0.8485714285714284,0.3537728937728937
5.448631869003293,1.3997802197802196,0.8485714285714284,0.3537728937728937
5.4549590010065,1.8478388278388278,0.0701098901098901,0.448058608058608
5.460062745005416,1.8478388278388278,0.0701098901098901,0.448058608058608
5.463818664000428,0.8928937728937728,0.24498168498168496,0.3876190476190476
5.470166899001924,1.3191941391941393,0.2909157509157509,0.43677655677655675
5.476314508006908,0.3142857142857142,0.1265201465201465,0.0547985347985348
5.481469016005576,0.3142857142857142,0.1265201465201465,0.0547985347985348
5.4852164200055995,0.3142857142857142,0.1265201465201465,0.0547985347985348
5.491604166003526,0.3142857142857142,0.1265201465201465,0.0547985347985348
5.4967128970019985,0.3142857142857142,0.1265201465201465,0.0547985347985348
5.500501779002661,0.3142857142857142,0.1265201465201465,0.0547985347985348
5.505599451003945,0.3142857142857142,0.1265201465201465,0.0547985347985348
5.508222387004935,0.3142857142857142,0.1265201465201465,0.0547985347985348
5.514608789002523,0.3142857142857142,0.1265201465201465,0.0547985347985348
5.519710660002602,0.3142857142857142,0.1265201465201465,0.0547985347985348
5.523487456004659,0.3142857142857142,0.1265201465201465,0.0547985347985348
5.52913271500438,0.3142857142857142,0.1265201465201465,0.0547985347985348
5.5453976490025525,0.6785347985347985,0.1386080586080586,0.3231501831501831
5.564090214000316,0.6761172161172161,0.12974358974358974,0.29736263736263735
5.564399018003314,0.0,0.10717948717948718,0.010476190476190476
5.576824126001156,1.1967032967032967,0.27076923076923076,0.41018315018315016
5.58911444300611,1.1967032967032967,0.27076923076923076,0.41018315018315016
5.602757575004944,1.1967032967032967,0.27076923076923076,0.41018315018315016
5.614263989002211,1.1967032967032967,0.27076923076923076,0.41018315018315016
5.614520440001797,1.1306227106227105,0.20065934065934066,0.415018315018315
5.622155051001755,1.1306227106227105,0.20065934065934066,0.415018315018315
5.630939638002019,0.24175824175824176,0.10315018315018315,0.2095238095238095
5.637412429001415,1.2523076923076921,0.2328937728937729,0.4198534798534798
5.6425940790068125,1.2523076923076921,0.2328937728937729,0.4198534798534798
5.6452202560030855,1.2523076923076921,0.2328937728937729,0.4198534798534798
5.651753016005387,1.2523076923076921,0.2328937728937729,0.4198534798534798
5.656966760005162,0.30542124542124544,0.13538461538461538,0.23047619047619047
5.659573368000565,0.30542124542124544,0.13538461538461538,0.23047619047619047
5.6661344220046885,0.30542124542124544,0.13538461538461538,0.23047619047619047
5.671274521002488,0.30542124542124544,0.13538461538461538,0.23047619047619047
5.673894643005042,0.30542124542124544,0.13538461538461538,0.23047619047619047
5.680437785005779,0.30542124542124544,0.13538461538461538,0.23047619047619047
5.68554494100681,0.3545787545787546,0.2562637362637363,0.09428571428571428
5.688188982006977,1.004102564102564,0.22967032967032966,0.3706959706959707
5.694658599000832,1.9155311355311355,0.06769230769230769,0.46739926739926735
5.701144754006236,0.6591941391941392,0.3964835164835165,0.09186813186813186
5.7079699900059495,0.6591941391941392,0.3964835164835165,0.09186813186813186
5.71540833600011,0.5826373626373627,0.17487179487179486,0.3304029304029304
5.725465074006934,1.3224175824175823,0.726080586080586,0.4488644688644688
5.737765587000467,1.3224175824175823,0.726080586080586,0.4488644688644688
5.754935120006849,1.7027838827838828,0.07494505494505493,0.3731135531135531
5.769049131005886,1.7027838827838828,0.07494505494505493,0.3731135531135531
5.769297602004372,1.7027838827838828,0.07494505494505493,0.3731135531135531
5.77816610300215,1.7027838827838828,0.07494505494505493,0.3731135531135531
5.786008364004374,1.7027838827838828,0.07494505494505493,0.3731135531135531
5.793731009005569,1.7027838827838828,0.07494505494505493,0.3731135531135531
5.799514951002493,1.7027838827838828,0.07494505494505493,0.3731135531135531
5.808839941004408,2.042051282051282,0.44080586080586076,0.506080586080586
5.8154720800012,1.0798534798534798,0.27238095238095233,0.3497435897435897
5.820702198005165,0.3142857142857142,0.16278388278388278,0.1926007326007326
5.824831610007095,0.3142857142857142,0.16278388278388278,0.1926007326007326
5.825248825000017,0.3142857142857142,0.16278388278388278,0.1926007326007326
5.835741943003086,0.3142857142857142,0.16278388278388278,0.1926007326007326
5.846290505003708,0.3142857142857142,0.16278388278388278,0.1926007326007326
5.855436971003655,0.3142857142857142,0.16278388278388278,0.1926007326007326
5.864629293006146,0.3142857142857142,0.16278388278388278,0.1926007326007326
5.872846090001985,0.3142857142857142,0.16278388278388278,0.1926007326007326
5.8809113040042575,0.3142857142857142,0.16278388278388278,0.1926007326007326
5.890908222005237,0.3142857142857142,0.16278388278388278,0.1926007326007326
5.900371007002832,0.3142857142857142,0.16278388278388278,0.1926007326007326
5.910851093001838,1.8091575091575092,0.6237362637362637,0.6285714285714284
5.919063717003155,1.8091575091575092,0.6237362637362637,0.6285714285714284
5.927893218002282,1.854285714285714,0.7921611721611721,0.6261538461538461
5.93507426600263,1.854285714285714,0.7921611721611721,0.6261538461538461
5.941989032005949,1.854285714285714,0.7921611721611721,0.6261538461538461
5.949686526000733,0.10637362637362638,0.24578754578754577,0.05721611721611722
5.959349122000276,1.7954578754578752,0.07816849816849816,0.4528937728937729
5.967514823001693,1.7954578754578752,0.07816849816849816,0.4528937728937729
5.9768193070049165,1.7954578754578752,0.07816849816849816,0.4528937728937729
5.984776541001338,1.7954578754578752,0.07816849816849816,0.4528937728937729
5.992566496002837,1.7954578754578752,0.07816849816849816,0.4528937728937729
5.999188063004112,1.7954578754578752,0.07816849816849816,0.4528937728937729
6.004379814999993,0.5375091575091575,0.26754578754578756,0.13941391941391942
6.005977922002785,0.5375091575091575,0.26754578754578756,0.13941391941391942
6.014018659006979,0.5375091575091575,0.26754578754578756,0.13941391941391942
6.0208851610004785,1.9243956043956043,0.28527472527472525,0.4802930402930403
6.027227000005951,1.9243956043956043,0.28527472527472525,0.4802930402930403
6.032451970000693,1.9243956043956043,0.28527472527472525,0.4802930402930403
6.0350403580014245,1.9243956043956043,0.28527472527472525,0.4802930402930403
6.045825744004105,1.9243956043956043,0.28527472527472525,0.4802930402930403
6.05371136800386,1.9243956043956043,0.28527472527472525,0.4802930402930403
6.061286459000257,1.0532600732600732,0.07252747252747253,0.19985347985347984
6.067885874006606,0.2804395604395604,0.15311355311355312,0.3078388278388278
6.07393538600445,0.2804395604395604,0.15311355311355312,0.3078388278388278
6.0799944100072025,0.2804395604395604,0.15311355311355312,0.3078388278388278
6.08516408700234,0.19985347985347984,0.32798534798534795,0.24659340659340656
6.088075973006198,0.19985347985347984,0.32798534798534795,0.24659340659340656
6.093248141005461,0.19985347985347984,0.32798534798534795,0.24659340659340656
6.0948151250049705,0.19985347985347984,0.32798534798534795,0.24659340659340656
6.1012222330027726,0.19985347985347984,0.32798534798534795,0.24659340659340656
6.106944634004321,0.19985347985347984,0.32798534798534795,0.24659340659340656
6.119554704004258,0.19985347985347984,0.32798534798534795,0.24659340659340656
6.119839824001247,1.398168498168498,0.6801465201465201,0.30864468864468864
6.128890246000083,1.398168498168498,0.6801465201465201,0.30864468864468864
6.137313505001657,1.398168498168498,0.6801465201465201,0.30864468864468864
6.1452481870001066,1.398168498168498,0.6801465201465201,0.30864468864468864
6.1518517730000895,1.099194139194139,0.3102564102564102,0.38036630036630037
6.158110738004325,1.099194139194139,0.3102564102564102,0.38036630036630037
6.162108304000867,2.0235164835164836,0.697069597069597,0.8638827838827838
6.166319582000142,0.6632234432234432,0.6245421245421244,0.28849816849816845
6.1677307930003735,0.6632234432234432,0.6245421245421244,0.28849816849816845
6.178580383006192,0.11362637362637362,1.016190476190476,1.6504029304029304
6.19059332300094,0.0,0.10798534798534798,0.19340659340659339
6.199939859005099,1.129010989010989,0.8187545787545787,0.7752380952380952
6.207404886001314,0.16278388278388278,0.6164835164835165,0.13296703296703297
6.216740464005852,1.859120879120879,0.0693040293040293,0.48835164835164835
6.226388416005648,1.6367032967032966,0.07575091575091575,0.415018315018315
6.234994782003923,1.6367032967032966,0.07575091575091575,0.415018315018315
6.24422167600278,1.6367032967032966,0.07575091575091575,0.415018315018315
6.249673733000236,0.6358241758241758,0.4964102564102564,0.11846153846153845
6.249962016001518,0.5681318681318681,0.11846153846153845,0.361025641025641
6.260967034002533,0.5681318681318681,0.11846153846153845,0.361025641025641
6.267761245006113,0.5681318681318681,0.11846153846153845,0.361025641025641
6.27335122700606,0.5681318681318681,0.11846153846153845,0.361025641025641
6.273611808006535,0.5681318681318681,0.11846153846153845,0.361025641025641
6.281982370004698,0.5681318681318681,0.11846153846153845,0.361025641025641
6.290089266003633,0.5681318681318681,0.11846153846153845,0.361025641025641
6.29821312000422,0.5681318681318681,0.11846153846153845,0.361025641025641
6.304810625006212,0.5681318681318681,0.11846153846153845,0.361025641025641
6.313803471006395,0.5479853479853479,0.39487179487179486,0.14666666666666667
6.319304840006225,0.5479853479853479,0.39487179487179486,0.14666666666666667
6.3195541050008615,1.9735531135531135,0.5318681318681319,0.49882783882783877
6.330146212007094,1.9735531135531135,0.5318681318681319,0.49882783882783877
6.340472642004897,1.9735531135531135,0.5318681318681319,0.49882783882783877
6.3508611190045485,1.9735531135531135,0.5318681318681319,0.49882783882783877
6.358729564002715,1.228937728937729,0.4005128205128205,0.3908424908424908
6.364589947006607,1.228937728937729,0.4005128205128205,0.3908424908424908
6.372427216003416,1.228937728937729,0.4005128205128205,0.3908424908424908
6.383904344002076,1.228937728937729,0.4005128205128205,0.3908424908424908
6.395736632002809,1.228937728937729,0.4005128205128205,0.3908424908424908
6.4035383660011576,0.06124542124542124,0.09670329670329669,0.1676190476190476
6.411816272004216,0.06124542124542124,0.09670329670329669,0.1676190476190476
6.418428113000118,1.2144322344322345,0.1797069597069597,0.5705494505494505
6.424654056005238,1.2144322344322345,0.1797069597069597,0.5705494505494505
6.432107481006824,1.3723809523809525,0.9493040293040291,0.3884249084249084
6.441340113000479,1.3723809523809525,0.9493040293040291,0.3884249084249084
6.449643497006036,1.581904761904762,0.614065934065934,0.722051282051282
6.456727139004215,1.581904761904762,0.614065934065934,0.722051282051282
6.463399774002028,0.16117216117216115,0.3747252747252747,0.21999999999999997
6.468789182006731,1.153186813186813,0.6865934065934066,0.49882783882783877
6.469163028006733,1.153186813186813,0.6865934065934066,0.49882783882783877
6.478221224002482,1.153186813186813,0.6865934065934066,0.49882783882783877
6.48456814900419,0.0,0.2917216117216117,0.2095238095238095
6.490229018003447,0.8163369963369963,0.23934065934065935,0.40534798534798533
6.507615367001563,0.0,0.06285714285714286,0.06366300366300366
6.517743736003467,0.0,0.06285714285714286,0.06366300366300366
6.529923982001492,1.3691575091575092,0.9017582417582416,0.6027838827838827
6.5382926040038,1.3691575091575092,0.9017582417582416,0.6027838827838827
6.545174974002293,0.4142124542124542,0.4254945054945055,0.3594139194139194
6.550566706006066,0.2224175824175824,0.14505494505494507,0.28124542124542123
6.550751623006363,0.5947252747252747,0.025787545787545788,0.5568498168498168
6.558694951003417,0.5947252747252747,0.025787545787545788,0.5568498168498168
6.565188961001695,0.5947252747252747,0.025787545787545788,0.5568498168498168
6.570352463000745,0.5947252747252747,0.025787545787545788,0.5568498168498168
6.571726899004716,0.5947252747252747,0.025787545787545788,0.5568498168498168
6.579885830004059,0.5947252747252747,0.025787545787545788,0.5568498168498168
6.5861191540025175,0.0,0.23531135531135527,0.14666666666666667
6.590908733000106,0.6326007326007326,0.17648351648351646,0.3537728937728937
6.604559251005412,0.6326007326007326,0.17648351648351646,0.3537728937728937
6.615004821003822,0.6326007326007326,0.17648351648351646,0.3537728937728937
6.624784732004628,0.6326007326007326,0.17648351648351646,0.3537728937728937
6.633528868005669,0.6326007326007326,0.17648351648351646,0.3537728937728937
6.644994544003566,0.6326007326007326,0.17648351648351646,0.3537728937728937
6.658329687001242,0.6326007326007326,0.17648351648351646,0.3537728937728937
6.667453115005628,1.4876190476190476,0.08864468864468865,0.5326739926739926
6.674983284006885,1.701978021978022,1.1193406593406594,0.3642490842490842
6.6812048600040725,0.6978754578754578,0.43032967032967034,0.24498168498168496
6.686083087006409,0.6978754578754578,0.43032967032967034,0.24498168498168496
6.692253227003675,0.6978754578754578,0.43032967032967034,0.24498168498168496
6.697153590001108,0.6978754578754578,0.43032967032967034,0.24498168498168496
6.703255405001983,0.6978754578754578,0.43032967032967034,0.24498168498168496
6.708166216005338,0.5246153846153846,0.3078388278388278,0.14263736263736262
6.714221438000095,1.2853479853479852,0.08139194139194139,0.17809523809523808
6.719059665003442,1.2853479853479852,0.08139194139194139,0.17809523809523808
6.726413290001801,1.2853479853479852,0.08139194139194139,0.17809523809523808
6.732652402002714,1.0226373626373626,0.2804395604395604,0.36344322344322344
6.737490175000858,1.0226373626373626,0.2804395604395604,0.36344322344322344
6.7448786690001725,2.7423443223443225,0.4996336996336996,0.5415384615384615
6.751039143004164,1.211208791208791,0.49882783882783877,0.19663003663003664
6.755896157003008,1.211208791208791,0.49882783882783877,0.19663003663003664
6.762050107005052,1.211208791208791,0.49882783882783877,0.19663003663003664
6.766907878001803,1.211208791208791,0.49882783882783877,0.19663003663003664
6.772984915005509,1.211208791208791,0.49882783882783877,0.19663003663003664
6.779070086005959,1.211208791208791,0.49882783882783877,0.19663003663003664
6.78391197000019,0.0,0.2627106227106227,0.03626373626373627
6.788815215004433,1.5722344322344322,0.6261538461538461,0.6003663003663003
6.7948897930036765,0.7430036630036629,0.08945054945054945,0.3038095238095238
6.79982112700236,0.7430036630036629,0.08945054945054945,0.3038095238095238
6.804690108001523,0.7430036630036629,0.08945054945054945,0.3038095238095238
6.810882038000273,0.7430036630036629,0.08945054945054945,0.3038095238095238
6.815787752006145,0.7430036630036629,0.08945054945054945,0.3038095238095238
6.821775767006329,0.7430036630036629,0.08945054945054945,0.3038095238095238
6.827948393001861,1.021025641025641,0.42468864468864465,0.6922344322344323
6.832871921003971,1.021025641025641,0.42468864468864465,0.6922344322344323
6.8378258170050685,1.021025641025641,0.42468864468864465,0.6922344322344323
6.842581350007094,0.0,0.20307692307692307,0.4835164835164835
6.848724422001396,0.0,0.20307692307692307,0.4835164835164835
6.85359487200185,0.0,0.20307692307692307,0.4835164835164835
6.85843910100084,0.0,0.20307692307692307,0.4835164835164835
6.863369279002654,0.0,0.20307692307692307,0.4835164835164835
6.868168274006166,0.0,0.20307692307692307,0.4835164835164835
6.873008858005051,0.0,0.20307692307692307,0.4835164835164835
6.879222135001328,0.0,0.20307692307692307,0.4835164835164835
6.884120929003984,0.0,0.20307692307692307,0.4835164835164835
6.888975227004266,0.7776556776556776,0.3924542124542124,0.12974358974358974
6.894992936002382,0.7776556776556776,0.3924542124542124,0.12974358974358974
6.8998427810001886,2.017069597069597,0.8397069597069596,1.1040293040293039
6.905954167006712,2.017069597069597,0.8397069597069596,1.1040293040293039
6.910757562000072,0.7309157509157509,0.2079120879120879,0.4504761904761904
6.916888698004186,0.7309157509157509,0.2079120879120879,0.4504761904761904
6.921859578003932,0.27076923076923076,0.689010989010989,0.3457142857142857
6.926673147005204,0.27076923076923076,0.689010989010989,0.3457142857142857
6.932712993002497,0.27076923076923076,0.689010989010989,0.3457142857142857
6.938872753002215,1.6036630036630035,0.5536263736263736,0.2643223443223443
6.943877006000548,1.6036630036630035,0.5536263736263736,0.2643223443223443
6.948766326000623,1.6036630036630035,0.5536263736263736,0.2643223443223443
6.954877124000632,0.012087912087912087,0.05882783882783882,0.48835164835164835
6.959803088000626,0.012087912087912087,0.05882783882783882,0.48835164835164835
6.964620072001708,0.3505494505494505,1.3868864468864468,0.6156776556776556
6.971943942000507,1.2692307692307692,0.11684981684981684,0.361025641025641
6.978136295001605,0.39406593406593404,1.2982417582417582,0.024175824175824173
6.983057135003037,0.4319413919413919,0.6422710622710622,0.020146520146520144
6.98920031900343,0.4319413919413919,0.6422710622710622,0.020146520146520144
6.994042932004959,0.684981684981685,0.12732600732600732,0.20388278388278389
7.001338975002,0.49479853479853475,0.7534798534798535,0.23934065934065935
7.007510364004702,0.0,0.49399267399267394,0.2909157509157509
7.01243738100311,0.0,0.49399267399267394,0.2909157509157509
7.01848369500658,1.9703296703296702,0.45369963369963373,0.5608791208791208
7.023420861005434,1.9703296703296702,0.45369963369963373,0.5608791208791208
7.02963577000628,1.813992673992674,0.73010989010989,0.4520879120879121
7.034547521005152,1.813992673992674,0.73010989010989,0.4520879120879121
7.03939765800169,1.813992673992674,0.73010989010989,0.4520879120879121
7.045582648002892,1.6109157509157508,0.2715750915750916,0.4279120879120879
7.050532921006379,1.6109157509157508,0.2715750915750916,0.4279120879120879
7.0554202160055866,1.6109157509157508,0.2715750915750916,0.4279120879120879
7.060261399004958,1.6109157509157508,0.2715750915750916,0.4279120879120879
7.065127200999996,1.6109157509157508,0.2715750915750916,0.4279120879120879
7.071289388004516,1.6109157509157508,0.2715750915750916,0.4279120879120879
7.076239996000368,2.415164835164835,0.11443223443223444,0.16358974358974357
7.081059856005595,0.14908424908424908,0.24256410256410255,0.42630036630036633
7.0884648020000895,0.14908424908424908,0.24256410256410255,0.42630036630036633
7.09474838400638,0.14908424908424908,0.24256410256410255,0.42630036630036633
7.099680027000431,0.14908424908424908,0.24256410256410255,0.42630036630036633
7.105880873001297,0.14908424908424908,0.24256410256410255,0.42630036630036633
7.11079009900277,0.14908424908424908,0.24256410256410255,0.42630036630036633
7.116849321006157,0.14908424908424908,0.24256410256410255,0.42630036630036633
7.121824669004127,0.14908424908424908,0.24256410256410255,0.42630036630036633
7.1279084230045555,0.14908424908424908,0.24256410256410255,0.42630036630036633
7.132862144004321,0.14908424908424908,0.24256410256410255,0.42630036630036633
7.139245028003643,0.14908424908424908,0.24256410256410255,0.42630036630036633
7.144078399003774,0.14908424908424908,0.24256410256410255,0.42630036630036633
7.15142287400522,0.14908424908424908,0.24256410256410255,0.42630036630036633
7.157557343001827,0.14908424908424908,0.24256410256410255,0.42630036630036633
7.162422337001772,0.14908424908424908,0.24256410256410255,0.42630036630036633
7.168527153000468,1.3707692307692307,0.29736263736263735,0.16036630036630037
7.173461022000993,1.3707692307692307,0.29736263736263735,0.16036630036630037
7.178347354005382,1.3707692307692307,0.29736263736263735,0.16036630036630037
7.184543955001573,1.3707692307692307,0.29736263736263735,0.16036630036630037
7.189379964002001,1.523076923076923,0.6124542124542125,0.20146520146520144
7.194196772004943,1.523076923076923,0.6124542124542125,0.20146520146520144
7.200194539000222,1.523076923076923,0.6124542124542125,0.20146520146520144
7.204983061004896,1.523076923076923,0.6124542124542125,0.20146520146520144
7.212371160007024,1.523076923076923,0.6124542124542125,0.20146520146520144
7.218539380002767,1.523076923076923,0.6124542124542125,0.20146520146520144
7.2233701500008465,1.523076923076923,0.6124542124542125,0.20146520146520144
7.232001064003271,1.523076923076923,0.6124542124542125,0.20146520146520144
7.2394923150059185,0.2208058608058608,2.0734798534798533,0.46014652014652013
7.245711338000547,0.2208058608058608,2.0734798534798533,0.46014652014652013
7.250585648005654,2.8116483516483513,0.10234432234432234,0.23853479853479853
7.256712709000567,2.6488644688644687,0.2208058608058608,0.4222710622710622
7.2616862960057915,2.6488644688644687,0.2208058608058608,0.4222710622710622
7.266522633006389,2.6488644688644687,0.2208058608058608,0.4222710622710622
7.272716159000993,1.4432967032967032,0.06527472527472526,0.2071062271062271
7.277595741004916,1.4432967032967032,0.06527472527472526,0.2071062271062271
7.284966898005223,1.4432967032967032,0.06527472527472526,0.2071062271062271
7.291167989002133,1.4432967032967032,0.06527472527472526,0.2071062271062271
7.296037876003538,1.4432967032967032,0.06527472527472526,0.2071062271062271
7.302250720000302,1.4432967032967032,0.06527472527472526,0.2071062271062271
7.307291561002785,2.0686446886446883,0.7502564102564102,0.22805860805860806
7.309812350002176,2.0686446886446883,0.7502564102564102,0.22805860805860806
7.31717967500299,1.7027838827838828,0.2715750915750916,0.19340659340659339
7.323371090002183,1.7027838827838828,0.2715750915750916,0.19340659340659339
7.3282799210064695,1.7027838827838828,0.2715750915750916,0.19340659340659339
7.334376490005525,1.7027838827838828,0.2715750915750916,0.19340659340659339
7.339279093001096,1.7027838827838828,0.2715750915750916,0.19340659340659339
7.3454255260003265,1.7027838827838828,0.2715750915750916,0.19340659340659339
7.350341903002118,1.7027838827838828,0.2715750915750916,0.19340659340659339
7.355164675005653,2.9115750915750915,0.19179487179487179,0.04996336996336996
7.362502945004962,2.9115750915750915,0.19179487179487179,0.04996336996336996
7.368676716003392,2.9115750915750915,0.19179487179487179,0.04996336996336996
7.373542376000842,1.543223443223443,0.07816849816849816,0.32395604395604394
7.379639085003873,1.54,0.49560439560439556,0.06366300366300366
7.384542879000946,0.9847619047619047,0.1668131868131868,0.1829304029304029
7.390642107005988,0.9847619047619047,0.1668131868131868,0.1829304029304029
7.395582666002156,2.6504761904761907,0.30542124542124544,0.02095238095238095
7.401742318004835,2.6504761904761907,0.30542124542124544,0.02095238095238095
7.406665508002334,2.6504761904761907,0.30542124542124544,0.02095238095238095
7.411588218004908,2.6504761904761907,0.30542124542124544,0.02095238095238095
7.418860960002348,2.6504761904761907,0.30542124542124544,0.02095238095238095
7.425111582000682,2.6504761904761907,0.30542124542124544,0.02095238095238095
7.430009629002598,1.129010989010989,0.28849816849816845,0.30058608058608055
7.437343130004592,1.129010989010989,0.28849816849816845,0.30058608058608055
7.443515491002472,2.0621978021978022,0.17809523809523808,0.27399267399267396
7.448415615006525,2.0621978021978022,0.17809523809523808,0.27399267399267396
7.454524447006406,2.0621978021978022,0.17809523809523808,0.27399267399267396
7.459339169006853,2.0621978021978022,0.17809523809523808,0.27399267399267396
7.466698837000877,1.365128205128205,0.381978021978022,0.17487179487179486
7.472801989002619,1.1975091575091574,0.5109157509157509,0.19985347985347984
7.478939483000431,2.5586080586080584,0.7921611721611721,0.4142124542124542
7.483848590003618,3.3,0.4045421245421245,0.17164835164835165
7.490013989001454,3.3,0.4045421245421245,0.17164835164835165
7.494935343005636,1.647985347985348,1.058901098901099,0.15069597069597068
7.4987295500031905,1.647985347985348,1.058901098901099,0.15069597069597068
7.504861763001827,2.5642490842490844,0.5221978021978021,0.2747985347985348
7.509787187002075,2.002564102564102,0.8953113553113552,0.45369963369963373
7.515889051006525,3.3,0.06043956043956044,0.19179487179487179
7.520782829000382,3.3,0.06043956043956044,0.19179487179487179
7.525669242000731,1.3707692307692307,0.6567765567765567,0.3626373626373626
7.531741919003252,1.3707692307692307,0.6567765567765567,0.3626373626373626
7.537837852003577,2.323296703296703,0.7164102564102564,0.21274725274725276
7.542654989003495,2.323296703296703,0.7164102564102564,0.21274725274725276
7.547502089000773,0.9041758241758242,0.5052747252747253,0.15311355311355312
7.554914542000915,0.9041758241758242,0.5052747252747253,0.15311355311355312
7.561200539006677,1.9115018315018315,1.0532600732600732,0.8437362637362636
7.566202570000314,1.9115018315018315,1.0532600732600732,0.8437362637362636
7.569875487002719,1.9115018315018315,1.0532600732600732,0.8437362637362636
7.575961642003676,1.9115018315018315,1.0532600732600732,0.8437362637362636
7.580854419000389,1.9115018315018315,1.0532600732600732,0.8437362637362636
7.58578555600252,1.9115018315018315,1.0532600732600732,0.8437362637362636
7.589458274000208,1.3796336996336995,2.211282051282051,0.28527472527472525
7.596902887002216,1.224102564102564,0.22564102564102564,0.37150183150183147
7.603176699005417,1.224102564102564,0.22564102564102564,0.37150183150183147
7.60813581700495,1.224102564102564,0.22564102564102564,0.37150183150183147
7.614162101002876,0.6398534798534798,0.07252747252747253,0.011282051282051281
7.619035515002906,0.6616117216117217,0.12893772893772892,0.10556776556776555
7.626352516002953,0.6616117216117217,0.12893772893772892,0.10556776556776555
7.632492940007069,0.6616117216117217,0.12893772893772892,0.10556776556776555
7.637278509006137,0.6616117216117217,0.12893772893772892,0.10556776556776555
7.644616716002929,0.6616117216117217,0.12893772893772892,0.10556776556776555
7.650705031002872,0.9227106227106227,0.49721611721611714,0.2216117216117216
7.656828278006287,0.9227106227106227,0.49721611721611714,0.2216117216117216
7.661793826002395,0.9227106227106227,0.49721611721611714,0.2216117216117216
7.666700229005073,1.058901098901099,0.4512820512820513,0.1402197802197802
7.671598254004493,2.178241758241758,0.20227106227106226,0.3884249084249084
7.676549296003941,2.178241758241758,0.20227106227106226,0.3884249084249084
7.680256668005313,2.178241758241758,0.20227106227106226,0.3884249084249084
7.687677809000888,2.178241758241758,0.20227106227106226,0.3884249084249084
7.693892686002073,2.689157509157509,0.9517216117216116,0.21274725274725276
7.698870939006156,2.689157509157509,0.9517216117216116,0.21274725274725276
7.7025247490018955,0.6454945054945055,0.3618315018315018,0.17245421245421244
7.708612313006597,0.6454945054945055,0.3618315018315018,0.17245421245421244
7.713556663002237,0.6454945054945055,0.3618315018315018,0.17245421245421244
7.718353411000862,0.6454945054945055,0.3618315018315018,0.17245421245421244
7.7244530510070035,0.6454945054945055,0.3618315018315018,0.17245421245421244
7.729424393000954,0.6454945054945055,0.3618315018315018,0.17245421245421244
7.73316934700415,0.6454945054945055,0.3618315018315018,0.17245421245421244
7.7406338500004495,0.6454945054945055,0.3618315018315018,0.17245421245421244
7.746852106000006,0.6454945054945055,0.3618315018315018,0.17245421245421244
7.753442561006523,0.6454945054945055,0.3618315018315018,0.17245421245421244
7.758300903005875,0.6454945054945055,0.3618315018315018,0.17245421245421244
7.7643539730052,0.6454945054945055,0.3618315018315018,0.17245421245421244
7.769235715000832,0.6454945054945055,0.3618315018315018,0.17245421245421244
7.775346433001687,0.6414652014652015,0.11926739926739927,0.06205128205128205
7.780195753002772,0.4287179487179487,0.41018315018315016,0.26593406593406593
7.7874944590003,0.4287179487179487,0.41018315018315016,0.26593406593406593
7.793616021001071,0.4287179487179487,0.41018315018315016,0.26593406593406593
7.798474992006959,0.4287179487179487,0.41018315018315016,0.26593406593406593
7.805686673003947,0.4287179487179487,0.41018315018315016,0.26593406593406593
7.811777062001056,0.4287179487179487,0.41018315018315016,0.26593406593406593
7.817780242003209,0.4287179487179487,0.41018315018315016,0.26593406593406593
7.823863842000719,0.15875457875457877,0.2602930402930403,0.028205128205128206
7.8288138280040585,1.324029304029304,0.10315018315018315,0.21194139194139192
7.833669276005821,1.324029304029304,0.10315018315018315,0.21194139194139192
7.841030418006994,2.3660073260073258,0.904981684981685,0.6124542124542125
7.847163848004129,2.3877655677655674,0.7663736263736264,0.34813186813186814
7.8520413680016645,2.3877655677655674,0.7663736263736264,0.34813186813186814
7.859510323003633,2.453846153846154,0.9952380952380951,0.5681318681318681
7.865759266001987,2.453846153846154,0.9952380952380951,0.5681318681318681
7.8707175650051795,2.291062271062271,0.2216117216117216,0.25142857142857145
7.876954061001015,1.8035164835164832,0.13135531135531134,0.05318681318681319
7.8819399350031745,1.8035164835164832,0.13135531135531134,0.05318681318681319
7.885629203999997,1.8035164835164832,0.13135531135531134,0.05318681318681319
7.8931200910010375,1.8035164835164832,0.13135531135531134,0.05318681318681319
7.899358084003325,1.8035164835164832,0.13135531135531134,0.05318681318681319
7.904263456002809,1.8035164835164832,0.13135531135531134,0.05318681318681319
7.909095831004379,1.17010989010989,0.09509157509157509,0.1668131868131868
7.915253068000311,1.17010989010989,0.09509157509157509,0.1668131868131868
7.920151110003644,3.3,1.0580952380952382,0.34007326007326005
7.925028683006531,3.3,1.0580952380952382,0.34007326007326005
7.929886741003429,3.3,1.0580952380952382,0.34007326007326005
7.93612662400119,3.3,1.0580952380952382,0.34007326007326005
7.940944151006988,0.6406593406593406,0.26190476190476186,0.12974358974358974
7.94708748600533,0.6406593406593406,0.26190476190476186,0.12974358974358974
7.951934374003031,0.6406593406593406,0.26190476190476186,0.12974358974358974
7.956878751007025,0.6406593406593406,0.26190476190476186,0.12974358974358974
7.962926413005334,0.6406593406593406,0.26190476190476186,0.12974358974358974
7.967884915000468,0.6406593406593406,0.26190476190476186,0.12974358974358974
7.971573141003319,0.6406593406593406,0.26190476190476186,0.12974358974358974
7.978985733003356,0.6406593406593406,0.26190476190476186,0.12974358974358974
7.98516126100003,0.6406593406593406,0.26190476190476186,0.12974358974358974
7.990064933001122,2.0356043956043957,0.8872527472527472,0.3295970695970696
7.994970410007227,2.0356043956043957,0.8872527472527472,0.3295970695970696
7.9997814770031255,2.0356043956043957,0.8872527472527472,0.3295970695970696
8.007145662006224,2.0356043956043957,0.8872527472527472,0.3295970695970696
8.013152408006135,2.0356043956043957,0.8872527472527472,0.3295970695970696
8.017927917004272,2.0356043956043957,0.8872527472527472,0.3295970695970696
8.025282253001933,2.0356043956043957,0.8872527472527472,0.3295970695970696
8.031389448005939,2.0356043956043957,0.8872527472527472,0.3295970695970696
8.036282532004407,2.0356043956043957,0.8872527472527472,0.3295970695970696
8.042389474001538,2.0356043956043957,0.8872527472527472,0.3295970695970696
8.04724092300603,0.9444688644688644,0.73010989010989,0.14827838827838827
8.053379815006338,0.9444688644688644,0.73010989010989,0.14827838827838827
8.058299090000219,1.3772161172161173,0.09509157509157509,0.03948717948717949
8.064424362004502,3.3,0.5391208791208791,0.307032967032967
8.06934254400403,1.5464468864468863,0.22644688644688646,0.09670329670329669
8.074264224000217,1.5464468864468863,0.22644688644688646,0.09670329670329669
8.079149896002491,1.5464468864468863,0.22644688644688646,0.09670329670329669
8.08529734500189,1.5464468864468863,0.22644688644688646,0.09670329670329669
8.090179052000167,1.5464468864468863,0.22644688644688646,0.09670329670329669
8.094994349004992,1.5464468864468863,0.22644688644688646,0.09670329670329669
8.101087036004174,1.5464468864468863,0.22644688644688646,0.09670329670329669
8.106017423000594,1.5464468864468863,0.22644688644688646,0.09670329670329669
8.11096271200222,1.5464468864468863,0.22644688644688646,0.09670329670329669
8.11717215400131,1.5464468864468863,0.22644688644688646,0.09670329670329669
8.122104663001664,1.5464468864468863,0.22644688644688646,0.09670329670329669
8.127050712006167,2.071868131868132,0.8163369963369963,0.689010989010989
8.131977133001783,2.071868131868132,0.8163369963369963,0.689010989010989
8.135671984004148,2.071868131868132,0.8163369963369963,0.689010989010989
8.141852892003953,1.3361172161172161,0.6116483516483516,0.04351648351648352
8.146741887001554,1.3361172161172161,0.6116483516483516,0.04351648351648352
8.153990687002079,1.3361172161172161,0.6116483516483516,0.04351648351648352
8.160051600003499,1.3361172161172161,0.6116483516483516,0.04351648351648352
8.164918734000821,1.3361172161172161,0.6116483516483516,0.04351648351648352
8.171087412003544,1.3361172161172161,0.6116483516483516,0.04351648351648352
8.17593280600704,1.3361172161172161,0.6116483516483516,0.04351648351648352
8.182067646004725,1.3361172161172161,0.6116483516483516,0.04351648351648352
8.188093642005697,1.3361172161172161,0.6116483516483516,0.04351648351648352
8.192979708001076,1.3361172161172161,0.6116483516483516,0.04351648351648352
8.199153827001282,0.9073992673992675,0.4126007326007326,0.31750915750915754
8.20403323800565,0.7728205128205128,0.1265201465201465,0.10315018315018315
8.211404870002298,2.432893772893773,0.46417582417582415,0.3964835164835165
8.217532940005185,2.432893772893773,0.46417582417582415,0.3964835164835165
8.22237824700278,2.432893772893773,0.46417582417582415,0.3964835164835165
8.228508895001141,2.8197069597069593,0.4472527472527472,0.4142124542124542
8.233361084006901,2.8197069597069593,0.4472527472527472,0.4142124542124542
8.2395162180037,2.8197069597069593,0.4472527472527472,0.4142124542124542
8.244369299005484,2.8197069597069593,0.4472527472527472,0.4142124542124542
8.250429338004324,2.8197069597069593,0.4472527472527472,0.4142124542124542
8.255278419004753,3.3,0.4810989010989011,0.11765567765567764
8.260027868003817,3.3,0.4810989010989011,0.11765567765567764
8.26612334100355,3.3,0.4810989010989011,0.11765567765567764
8.271011601005739,3.3,0.4810989010989011,0.11765567765567764
8.278281050006626,1.858315018315018,0.0975091575091575,0.10717948717948718
8.284377099000267,0.9718681318681318,0.40695970695970696,0.2087179487179487
8.289246414002264,0.9718681318681318,0.40695970695970696,0.2087179487179487
8.295361816002696,0.9718681318681318,0.40695970695970696,0.2087179487179487
8.300238807001733,0.9718681318681318,0.40695970695970696,0.2087179487179487
8.306356227003562,0.9718681318681318,0.40695970695970696,0.2087179487179487
8.311265457006812,0.9718681318681318,0.40695970695970696,0.2087179487179487
8.318540292006219,0.9718681318681318,0.40695970695970696,0.2087179487179487
8.324651449001976,0.9718681318681318,0.40695970695970696,0.2087179487179487
8.329551534006896,1.4916483516483516,0.10395604395604395,0.2095238095238095
8.335644548002165,0.9887912087912087,0.16197802197802197,0.1668131868131868
8.341640250000637,0.9887912087912087,0.16197802197802197,0.1668131868131868
8.347726379004598,1.4416849816849817,0.5995604395604395,0.16117216117216115
8.352550437004538,1.4416849816849817,0.5995604395604395,0.16117216117216115
8.359938710003917,1.4416849816849817,0.5995604395604395,0.16117216117216115
8.366067034003208,1.4416849816849817,0.5995604395604395,0.16117216117216115
8.370952061006392,1.4416849816849817,0.5995604395604395,0.16117216117216115
8.376975324004889,3.3,0.42468864468864465,0.37875457875457874
8.381809259000875,3.3,0.42468864468864465,0.37875457875457874
8.38778526900569,1.5569230769230769,0.42388278388278383,0.43355311355311354
8.392572766002559,1.5569230769230769,0.42388278388278383,0.43355311355311354
8.399859202007065,1.5569230769230769,0.42388278388278383,0.43355311355311354
8.406062160000147,1.5569230769230769,0.42388278388278383,0.43355311355311354
8.410887547004677,1.5569230769230769,0.42388278388278383,0.43355311355311354
8.417014937003842,1.5569230769230769,0.42388278388278383,0.43355311355311354
8.421859873000358,1.5569230769230769,0.42388278388278383,0.43355311355311354
8.429068481003924,1.5569230769230769,0.42388278388278383,0.43355311355311354
8.435085284007073,0.6277655677655677,0.18534798534798536,0.27076923076923076
8.44116538700473,0.5375091575091575,0.27238095238095233,0.04915750915750916
8.445983335004712,3.3,0.4851282051282051,0.25545787545787546
8.452073447006114,3.3,0.4851282051282051,0.25545787545787546
8.457017222004652,3.3,0.4851282051282051,0.25545787545787546
8.460720027003845,3.3,0.46014652014652013,0.27318681318681315
8.466810582001926,3.3,0.46014652014652013,0.27318681318681315
8.471613611000066,3.3,0.46014652014652013,0.27318681318681315
8.4776528470029,0.8969230769230768,0.4794871794871795,0.08703296703296703
8.48244357900694,0.8969230769230768,0.4794871794871795,0.08703296703296703
8.489776434005762,2.0863736263736263,0.47062271062271055,0.16842490842490843
8.495846386002086,0.25223443223443226,0.3287912087912088,0.3690842490842491
8.500707980005245,0.25223443223443226,0.3287912087912088,0.3690842490842491
8.507968913007062,0.25223443223443226,0.3287912087912088,0.3690842490842491
8.514028782003152,0.25223443223443226,0.3287912087912088,0.3690842490842491
8.521363015002862,0.9025641025641026,0.37150183150183147,0.09025641025641025
8.527428809000412,0.6777289377289377,0.4391941391941392,0.4416117216117216
8.53227900100319,0.6777289377289377,0.4391941391941392,0.4416117216117216
8.537067016004585,0.6777289377289377,0.4391941391941392,0.4416117216117216
8.544316850005998,0.6777289377289377,0.4391941391941392,0.4416117216117216
8.550363137001114,1.7358241758241757,1.0774358974358973,0.29655677655677654
8.555233649000002,1.7358241758241757,1.0774358974358973,0.29655677655677654
8.561316619001445,1.7358241758241757,1.0774358974358973,0.29655677655677654
8.566140818002168,1.7358241758241757,1.0774358974358973,0.29655677655677654
8.573402440000791,1.7358241758241757,1.0774358974358973,0.29655677655677654
8.579496444006509,2.186300366300366,0.8171428571428572,0.5334798534798535
8.584334013001353,2.186300366300366,0.8171428571428572,0.5334798534798535
8.590508565001073,0.5931135531135531,1.3369230769230769,0.8614652014652014
8.59538445900398,0.5931135531135531,1.3369230769230769,0.8614652014652014
8.602451433005626,0.5931135531135531,1.3369230769230769,0.8614652014652014
8.608474124004715,0.5931135531135531,1.3369230769230769,0.8614652014652014
8.614382431005652,0.5931135531135531,1.3369230769230769,0.8614652014652014
8.619233555000392,1.502930402930403,0.5826373626373627,0.3924542124542124
8.626548234002257,1.502930402930403,0.5826373626373627,0.3924542124542124
8.632650795007066,0.24256410256410255,0.08703296703296703,0.0419047619047619
8.637484283004596,2.025934065934066,0.4432234432234432,0.1789010989010989
8.64483377400029,3.3,0.4416117216117216,0.5657142857142857
8.650970214002882,3.3,0.4416117216117216,0.5657142857142857
8.65587471100298,3.171062271062271,0.9243223443223443,0.415018315018315
8.660679024003912,3.171062271062271,0.9243223443223443,0.415018315018315
8.666762076005398,1.1273992673992674,1.1523809523809523,0.20468864468864467
8.67172475100233,1.1273992673992674,1.1523809523809523,0.20468864468864467
8.676894378004363,1.1273992673992674,1.1523809523809523,0.20468864468864467
8.679456752004626,1.1273992673992674,1.1523809523809523,0.20468864468864467
8.686463615005778,0.4786813186813187,0.26915750915750913,0.07252747252747253
8.695959899006994,0.8703296703296703,0.11443223443223444,0.09589743589743589
8.704378628004633,2.453846153846154,0.8437362637362636,0.4472527472527472
8.710823261004407,2.453846153846154,0.8437362637362636,0.4472527472527472
8.71600163000403,3.274212454212454,0.43113553113553116,0.05802197802197802
8.718668058005278,1.1765567765567766,0.7808791208791208,0.42388278388278383
8.723867782005982,1.1765567765567766,0.7808791208791208,0.42388278388278383
8.726494174006802,1.1765567765567766,0.7808791208791208,0.42388278388278383
8.736445066002489,1.1765567765567766,0.7808791208791208,0.42388278388278383
8.749311158004275,1.1765567765567766,0.7808791208791208,0.42388278388278383
8.7647712110047,1.1765567765567766,0.7808791208791208,0.42388278388278383
8.781827038001211,2.493333333333333,0.8517948717948718,0.2498168498168498
8.79854345000058,2.493333333333333,0.8517948717948718,0.2498168498168498
8.798896245003561,2.0589743589743588,0.21274725274725276,0.09347985347985348
8.807702170000994,2.0589743589743588,0.21274725274725276,0.09347985347985348
8.815365044007194,2.0589743589743588,0.21274725274725276,0.09347985347985348
8.821649395002169,1.1233699633699634,0.2917216117216117,0.13699633699633698
8.82663266700547,1.1233699633699634,0.2917216117216117,0.13699633699633698
8.832836244000646,2.4135531135531134,0.24014652014652016,0.3352380952380952
8.83802072200342,2.4135531135531134,0.24014652014652016,0.3352380952380952
8.840551184002834,2.4135531135531134,0.24014652014652016,0.3352380952380952
8.848285471001873,2.4135531135531134,0.24014652014652016,0.3352380952380952
8.85583822800254,2.4135531135531134,0.24014652014652016,0.3352380952380952
8.8631984760068,1.838974358974359,1.1153113553113554,0.07816849816849816
8.86829771700286,1.838974358974359,1.1153113553113554,0.07816849816849816
8.87330033100443,1.838974358974359,1.1153113553113554,0.07816849816849816
8.879546757001663,0.788937728937729,0.5931135531135531,0.1926007326007326
8.885925388000032,0.788937728937729,0.5931135531135531,0.1926007326007326
8.896396062002168,0.788937728937729,0.5931135531135531,0.1926007326007326
8.905734862004465,0.788937728937729,0.5931135531135531,0.1926007326007326
8.913607791000686,0.788937728937729,0.5931135531135531,0.1926007326007326
8.920205533002445,0.788937728937729,0.5931135531135531,0.1926007326007326
8.928269929005182,0.788937728937729,0.5931135531135531,0.1926007326007326
8.936111893002817,0.788937728937729,0.5931135531135531,0.1926007326007326
8.944103514004382,0.788937728937729,0.5931135531135531,0.1926007326007326
8.950380967005913,0.5044688644688645,0.29333333333333333,0.17084249084249084
8.95870523800113,1.153186813186813,0.1676190476190476,0.12249084249084248
8.965924189004,1.153186813186813,0.1676190476190476,0.12249084249084248
8.973149792000186,1.7285714285714286,0.32717948717948714,0.3706959706959707
8.97885761300131,1.0726007326007325,0.6342124542124542,0.3553846153846154
8.98948008500156,1.0726007326007325,0.6342124542124542,0.3553846153846154
8.997186503002013,1.531941391941392,0.19018315018315018,0.0
9.003937278001104,1.531941391941392,0.19018315018315018,0.0
9.010045187002106,1.531941391941392,0.19018315018315018,0.0
9.015170563005086,1.531941391941392,0.19018315018315018,0.0
9.020307959006459,1.531941391941392,0.19018315018315018,0.0
9.023370458002319,2.8616117216117214,0.4867399267399267,0.39809523809523806
9.025096166005824,2.8616117216117214,0.4867399267399267,0.39809523809523806
9.032518506006454,2.8616117216117214,0.4867399267399267,0.39809523809523806
9.041961630005972,2.7415384615384615,0.09428571428571428,0.47706959706959706
9.048869422003918,2.6488644688644687,0.6753113553113552,0.46417582417582415
9.054190154005482,2.6488644688644687,0.6753113553113552,0.46417582417582415
9.056494501004636,2.6488644688644687,0.6753113553113552,0.46417582417582415
9.066097582006478,2.6488644688644687,0.6753113553113552,0.46417582417582415
9.075282346006134,2.6488644688644687,0.6753113553113552,0.46417582417582415
9.081950364001386,1.195091575091575,0.26190476190476186,0.5802197802197803
9.087252283999987,1.195091575091575,0.26190476190476186,0.5802197802197803
9.089598812002805,0.9517216117216116,0.2909157509157509,0.3304029304029304
9.099218757000926,2.165347985347985,0.11604395604395604,0.3046153846153846
9.108246030002192,2.165347985347985,0.11604395604395604,0.3046153846153846
9.114953692005656,2.281391941391941,0.43355311355311354,0.3465201465201465
9.1204687510035,2.281391941391941,0.43355311355311354,0.3465201465201465
9.120723455002008,2.281391941391941,0.43355311355311354,0.3465201465201465
9.130056574002083,2.281391941391941,0.43355311355311354,0.3465201465201465
9.138133596003172,2.165347985347985,0.6422710622710622,0.6809523809523809
9.145754948003741,2.165347985347985,0.6422710622710622,0.6809523809523809
9.15236125800584,0.21677655677655677,0.1668131868131868,0.025787545787545788
9.159267062001163,0.21677655677655677,0.1668131868131868,0.025787545787545788
9.164520452002762,0.21677655677655677,0.1668131868131868,0.025787545787545788
9.165946841007099,0.21677655677655677,0.1668131868131868,0.025787545787545788
9.175064717004716,0.21677655677655677,0.1668131868131868,0.025787545787545788
9.182525053001882,1.9235897435897436,0.606007326007326,0.20388278388278389
9.189860237005632,1.8558974358974358,0.5963369963369963,0.006446886446886447
9.1956901070007,1.8558974358974358,0.5963369963369963,0.006446886446886447
9.204072670007008,0.4698168498168498,0.16278388278388278,0.10717948717948718
9.213236971001606,0.4698168498168498,0.16278388278388278,0.10717948717948718
9.224638609004614,0.29413919413919415,0.26109890109890105,0.19985347985347984
9.232681934001448,0.29413919413919415,0.26109890109890105,0.19985347985347984
9.240834561001975,0.8115018315018314,0.5455677655677655,0.12329670329670328
9.249544817001151,1.2756776556776557,0.4762637362637362,0.3578021978021978
9.256248626006709,1.2756776556776557,0.4762637362637362,0.3578021978021978
9.262203039004817,1.2756776556776557,0.4762637362637362,0.3578021978021978
9.267349219000607,2.1846886446886447,0.2989743589743589,0.2506227106227106
9.274561545003962,3.3,0.28446886446886444,0.0
9.286266828006774,3.3,0.28446886446886444,0.0
9.300656183004321,3.3,0.28446886446886444,0.0
9.31303488300182,1.3756043956043955,0.43435897435897436,0.11604395604395604
9.323722448003537,1.3756043956043955,0.43435897435897436,0.11604395604395604
9.337334883006406,1.3756043956043955,0.43435897435897436,0.11604395604395604
9.348221913001908,2.621465201465201,0.2191941391941392,0.14263736263736262
9.360310903000936,1.5367765567765568,0.66,0.17245421245421244
9.370967039001698,1.5367765567765568,0.66,0.17245421245421244
9.381868405005662,1.5367765567765568,0.66,0.17245421245421244
9.393697070001508,1.5367765567765568,0.66,0.17245421245421244
9.40386180600035,0.08864468864468865,0.6003663003663003,0.23531135531135527
9.426702365002711,0.8526007326007327,0.5955311355311355,0.14827838827838827
9.427181351005856,0.8526007326007327,0.5955311355311355,0.14827838827838827
9.445750301005319,0.8526007326007327,0.5955311355311355,0.14827838827838827
9.462610781003605,0.8985347985347985,0.30945054945054945,0.15875457875457877
9.482985071001167,0.5431501831501832,0.0821978021978022,0.07494505494505493
9.503401876005228,0.8969230769230768,0.44080586080586076,0.10395604395604395
9.503864941005304,0.8969230769230768,0.44080586080586076,0.10395604395604395
9.517470283004513,2.924468864468864,0.08945054945054945,1.2966300366300365
9.524944668002718,1.7052014652014653,1.7849816849816849,0.5802197802197803
9.5358959840014,0.7768498168498168,0.5947252747252747,0.19179487179487179
9.547176996005874,0.7768498168498168,0.5947252747252747,0.19179487179487179
9.556987996002135,0.7768498168498168,0.5947252747252747,0.19179487179487179
9.565727794004488,0.6229304029304029,0.31509157509157504,0.5415384615384615
9.575319622003008,0.6229304029304029,0.31509157509157504,0.5415384615384615
9.58206153500214,3.3,0.5923076923076923,0.0701098901098901
9.588424034001946,3.3,0.5923076923076923,0.0701098901098901
9.595601722001447,3.3,0.5923076923076923,0.0701098901098901
9.604035670003213,3.3,0.5923076923076923,0.0701098901098901
9.610647975001484,1.4779487179487178,0.7784615384615384,0.3167032967032967
9.616654161000042,2.5247619047619043,0.8115018315018314,0.28285714285714286
9.623047902001417,1.6415384615384614,0.6156776556776556,0.07655677655677656
9.627425698003208,1.4344322344322344,0.7647619047619048,0.42468864468864465
9.627691969006264,1.4344322344322344,0.7647619047619048,0.42468864468864465
9.64192178400117,1.4344322344322344,0.7647619047619048,0.42468864468864465
9.650806953002757,1.4344322344322344,0.7647619047619048,0.42468864468864465
9.660452654003166,1.4344322344322344,0.7647619047619048,0.42468864468864465
9.66845257600653,2.016263736263736,0.9194871794871795,0.45369963369963373
9.679496702003235,2.016263736263736,0.9194871794871795,0.45369963369963373
9.689862429004279,2.016263736263736,0.9194871794871795,0.45369963369963373
9.7036913950069,1.5206593406593405,0.9025641025641026,0.5044688644688645
9.715720634005265,1.5206593406593405,0.9025641025641026,0.5044688644688645
9.723196622006071,3.3,0.22886446886446887,0.5286446886446886
9.73076348300674,1.5206593406593405,0.5157509157509157,0.9581684981684981
9.736484151006152,1.5206593406593405,0.5157509157509157,0.9581684981684981
9.746943136000482,1.5206593406593405,0.5157509157509157,0.9581684981684981
9.757545705004304,1.5206593406593405,0.5157509157509157,0.9581684981684981
9.765036612006952,1.5206593406593405,0.5157509157509157,0.9581684981684981
9.773706396001216,1.5206593406593405,0.5157509157509157,0.9581684981684981
9.77990602600039,1.5206593406593405,0.5157509157509157,0.9581684981684981
9.785340664006071,1.5206593406593405,0.5157509157509157,0.9581684981684981
9.785830479006108,2.112161172161172,0.5818315018315018,1.4892307692307691
9.795920572003524,2.112161172161172,0.5818315018315018,1.4892307692307691
9.804606292003882,2.112161172161172,0.5818315018315018,1.4892307692307691
9.814288312001736,2.112161172161172,0.5818315018315018,1.4892307692307691
9.825980690002325,2.112161172161172,0.5818315018315018,1.4892307692307691
9.832679930004815,2.112161172161172,0.5818315018315018,1.4892307692307691
9.837576422003622,0.8397069597069596,1.7334065934065934,0.9267399267399267
9.843753268003638,0.8397069597069596,1.7334065934065934,0.9267399267399267
9.848721634007234,1.743076923076923,0.5383150183150183,0.7035164835164834
9.85502797600202,0.9082051282051282,0.21435897435897436,0.12007326007326008
9.859916194000107,0.9509157509157508,0.6777289377289377,0.12571428571428572
9.86604833000456,0.9509157509157508,0.6777289377289377,0.12571428571428572
9.87215241600643,0.9509157509157508,0.6777289377289377,0.12571428571428572
9.87715396600106,0.6575824175824176,0.6688644688644688,0.06527472527472526
9.882037337003567,3.3,0.7921611721611721,0.4166300366300366
9.886982195006567,1.6302564102564103,0.8397069597069596,0.2747985347985348
9.893116597006156,1.6302564102564103,0.8397069597069596,0.2747985347985348
9.898119535006117,1.6302564102564103,0.8397069597069596,0.2747985347985348
9.901885620005487,2.336190476190476,0.9364102564102563,0.3626373626373626
9.908113764002337,2.336190476190476,0.9364102564102563,0.3626373626373626
9.91301793900493,1.913919413919414,0.07172161172161172,0.33282051282051284
9.917956268000125,0.2756043956043956,0.26673992673992675,0.04271062271062271
9.92277696900419,2.1911355311355307,0.9557509157509158,1.4344322344322344
9.928880988001765,2.1911355311355307,0.9557509157509158,1.4344322344322344
9.933847856002103,2.1911355311355307,0.9557509157509158,1.4344322344322344
9.938843460004136,2.1911355311355307,0.9557509157509158,1.4344322344322344
9.942865928001993,2.1911355311355307,0.9557509157509158,1.4344322344322344
9.945404526006314,2.1911355311355307,0.9557509157509158,1.4344322344322344
9.952828313005739,2.1911355311355307,0.9557509157509158,1.4344322344322344
9.959299546004331,2.1911355311355307,0.9557509157509158,1.4344322344322344
9.964169616003346,1.003296703296703,0.40695970695970696,0.19663003663003664
9.97166013700189,1.003296703296703,0.40695970695970696,0.19663003663003664
9.977933066002151,1.003296703296703,0.40695970695970696,0.19663003663003664
9.982897175003018,1.1056410256410254,1.4175091575091574,0.4625641025641025
9.987773603003006,1.1056410256410254,1.4175091575091574,0.4625641025641025
9.99267802900431,1.1056410256410254,1.4175091575091574,0.4625641025641025
9.997532584005967,1.1056410256410254,1.4175091575091574,0.4625641025641025
10.004976001000614,1.1056410256410254,1.4175091575091574,0.4625641025641025
10.011390681000194,1.1056410256410254,1.4175091575091574,0.4625641025641025
10.01627359300619,2.3974358974358974,0.805054945054945,0.9476923076923076
10.021199067006819,2.3974358974358974,0.805054945054945,0.9476923076923076
10.027424394000263,2.3974358974358974,0.805054945054945,0.9476923076923076
10.03236793900578,2.3974358974358974,0.805054945054945,0.9476923076923076
10.037211906004813,2.3974358974358974,0.805054945054945,0.9476923076923076
10.043469187003211,2.3974358974358974,0.805054945054945,0.9476923076923076
10.048324440002034,2.3974358974358974,0.805054945054945,0.9476923076923076
10.054696746003174,2.3974358974358974,0.805054945054945,0.9476923076923076
10.059558578002907,2.3974358974358974,0.805054945054945,0.9476923076923076
10.065909305005334,2.3974358974358974,0.805054945054945,0.9476923076923076
10.074687928005005,2.3974358974358974,0.805054945054945,0.9476923076923076
10.083235243000672,2.3974358974358974,0.805054945054945,0.9476923076923076
10.089569636002125,2.3877655677655674,0.5520146520146519,0.33604395604395604
10.095567044001655,0.4786813186813187,1.519047619047619,0.7558974358974359
10.103867487006937,0.0,0.31509157509157504,0.05721611721611722
10.11320715900365,0.0,0.31509157509157504,0.05721611721611722
10.124841321005078,0.0,0.31509157509157504,0.05721611721611722
10.136494665006467,0.0,0.31509157509157504,0.05721611721611722
10.147192701006134,1.016996336996337,0.27802197802197803,0.4222710622710622
10.156272797001293,0.4553113553113553,0.4545054945054945,0.3489377289377289
10.163813014005427,0.4553113553113553,0.4545054945054945,0.3489377289377289
10.170279760000994,0.4553113553113553,0.4545054945054945,0.3489377289377289
10.175275121000595,0.4553113553113553,0.4545054945054945,0.3489377289377289
10.18013420200441,0.4553113553113553,0.4545054945054945,0.3489377289377289
10.185045238002203,0.4553113553113553,0.4545054945054945,0.3489377289377289
10.188764628001081,0.1797069597069597,0.3158974358974359,0.8687179487179487
10.196360251000442,0.1797069597069597,0.3158974358974359,0.8687179487179487
10.202846000000136,0.1797069597069597,0.3158974358974359,0.8687179487179487
10.208113695000065,0.1797069597069597,0.3158974358974359,0.8687179487179487
10.210668641004304,0.1797069597069597,0.3158974358974359,0.8687179487179487
10.21692450500268,0.1797069597069597,0.3158974358974359,0.8687179487179487
10.22187314400071,0.2949450549450549,0.502051282051282,0.5729670329670329
10.22809564400086,0.90014652014652,1.2434432234432233,0.4528937728937729
10.23302762300591,0.90014652014652,1.2434432234432233,0.4528937728937729
10.236714211001527,0.90014652014652,1.2434432234432233,0.4528937728937729
10.242963313001383,0.90014652014652,1.2434432234432233,0.4528937728937729
10.247890879007173,0.90014652014652,1.2434432234432233,0.4528937728937729
10.25303153200366,0.0,0.303003663003663,0.007252747252747252
10.254393528004584,0.0,0.303003663003663,0.007252747252747252
10.2629515180015,0.0,0.303003663003663,0.007252747252747252
10.270396234001964,0.0,0.303003663003663,0.007252747252747252
10.278606513005798,0.0,0.303003663003663,0.007252747252747252
10.28621866300091,0.0,0.303003663003663,0.007252747252747252
10.294749504006177,0.0,0.303003663003663,0.007252747252747252
10.301083816004393,2.3893772893772893,1.1644688644688646,0.5157509157509157
10.306031448002614,2.3893772893772893,1.1644688644688646,0.5157509157509157
10.310963988005824,2.3893772893772893,1.1644688644688646,0.5157509157509157
10.315801260003354,2.3893772893772893,1.1644688644688646,0.5157509157509157
10.321993917001237,2.3893772893772893,1.1644688644688646,0.5157509157509157
10.326879355001438,2.3893772893772893,1.1644688644688646,0.5157509157509157
10.3331670080006,2.3893772893772893,1.1644688644688646,0.5157509157509157
10.337983562007139,2.3893772893772893,1.1644688644688646,0.5157509157509157
10.345469955005683,2.3893772893772893,1.1644688644688646,0.5157509157509157
10.351728930007084,2.3893772893772893,1.1644688644688646,0.5157509157509157
10.356698603005498,1.706007326007326,1.0016849816849815,0.8252014652014652
10.360440619006113,2.37003663003663,0.5173626373626373,0.8638827838827838
10.369178566004848,1.303076923076923,1.1773626373626374,0.4553113553113553
10.380060828007117,0.0,0.1104029304029304,0.05721611721611722
10.39155952600413,0.0,0.1104029304029304,0.05721611721611722
10.399532407005609,0.8332600732600732,0.07413919413919413,0.8364835164835164
10.405753746003029,0.8332600732600732,0.07413919413919413,0.8364835164835164
10.410642417002236,0.8332600732600732,0.07413919413919413,0.8364835164835164
10.416795842000283,0.8332600732600732,0.07413919413919413,0.8364835164835164
10.421697235004103,1.796263736263736,0.6608058608058608,0.5262271062271061
10.426514332000806,0.22725274725274724,0.356996336996337,0.16117216117216115
10.432576708000852,0.22725274725274724,0.356996336996337,0.16117216117216115
10.4374574770045,0.22725274725274724,0.356996336996337,0.16117216117216115
10.44231582700013,0.22725274725274724,0.356996336996337,0.16117216117216115
10.44716776000132,0.22725274725274724,0.356996336996337,0.16117216117216115
10.454674669002998,1.7575824175824175,0.0701098901098901,0.5979487179487178
10.460810733005928,1.7575824175824175,0.0701098901098901,0.5979487179487178
10.465736525002285,0.9936263736263735,0.9694505494505494,0.772014652014652
10.470630192001408,0.963003663003663,0.07897435897435898,0.0032234432234432234
10.475526383001124,0.963003663003663,0.07897435897435898,0.0032234432234432234
10.480497528005799,0.963003663003663,0.07897435897435898,0.0032234432234432234
10.484163544002513,0.4819047619047619,0.49721611721611714,0.195018315018315
10.491091155003232,0.4819047619047619,0.49721611721611714,0.195018315018315
10.499039219001133,1.1499633699633698,0.7897435897435897,0.5278388278388277
10.505622969001706,1.1499633699633698,0.7897435897435897,0.5278388278388277
10.51051439600269,0.9493040293040291,1.1008058608058606,0.4319413919413919
10.51532931800466,0.7986080586080586,0.46659340659340653,0.23208791208791207
10.521476158006408,0.7986080586080586,0.46659340659340653,0.23208791208791207
10.526557215001958,0.7986080586080586,0.46659340659340653,0.23208791208791207
10.52908527400723,0.7986080586080586,0.46659340659340653,0.23208791208791207
10.538860776003276,0.7986080586080586,0.46659340659340653,0.23208791208791207
10.547536546000629,0.24256410256410255,0.1386080586080586,0.6043956043956044
10.553787032004038,0.24256410256410255,0.1386080586080586,0.6043956043956044
10.558658368005126,0.3505494505494505,0.27318681318681315,0.33684981684981685
10.56484141000692,0.3505494505494505,0.27318681318681315,0.33684981684981685
10.56967021300079,0.3505494505494505,0.27318681318681315,0.33684981684981685
10.575813260002178,0.3505494505494505,0.27318681318681315,0.33684981684981685
10.580742081001517,0.3505494505494505,0.27318681318681315,0.33684981684981685
10.585675914000603,0.1813186813186813,0.2224175824175824,0.5463736263736263
10.591763250005897,0.1813186813186813,0.2224175824175824,0.5463736263736263
10.598101273004431,0.1813186813186813,0.2224175824175824,0.5463736263736263
10.603081513007055,0.3312087912087912,0.12087912087912088,0.365054945054945
10.611894638001104,0.3312087912087912,0.12087912087912088,0.365054945054945
10.62148547200195,0.3312087912087912,0.12087912087912088,0.365054945054945
10.628925028002413,0.3312087912087912,0.12087912087912088,0.365054945054945
10.63592806300585,0.3312087912087912,0.12087912087912088,0.365054945054945
10.644573565004976,1.0726007326007325,0.17245421245421244,0.4005128205128205
10.649635564004711,1.706007326007326,0.9178754578754579,0.8163369963369963
10.65250439800002,1.706007326007326,0.9178754578754579,0.8163369963369963
10.655338760006998,1.706007326007326,0.9178754578754579,0.8163369963369963
10.662032206004369,1.706007326007326,0.9178754578754579,0.8163369963369963
10.668142340000486,1.706007326007326,0.9178754578754579,0.8163369963369963
10.673032159000286,1.706007326007326,0.9178754578754579,0.8163369963369963
10.677921544003766,1.706007326007326,0.9178754578754579,0.8163369963369963
10.684093398005643,1.706007326007326,0.9178754578754579,0.8163369963369963
10.68898736400297,1.706007326007326,0.9178754578754579,0.8163369963369963
10.695196820001001,1.706007326007326,0.9178754578754579,0.8163369963369963
10.700065988006827,1.706007326007326,0.9178754578754579,0.8163369963369963
10.706178216001717,1.706007326007326,0.9178754578754579,0.8163369963369963
10.711132907003048,1.706007326007326,0.9178754578754579,0.8163369963369963
