time,emg1,emg2,emg3
0.008062149994657375,1.2216849816849817,1.6786080586080585,0.29816849816849816
0.027691259994753636,2.6456410256410257,3.3,1.2297435897435898
0.04034932400099933,2.6456410256410257,3.3,1.2297435897435898
0.05318504400202073,2.6456410256410257,3.3,1.2297435897435898
0.06570223599555902,0.3739194139194139,0.5761904761904761,0.8171428571428572
0.07612585599417798,0.3739194139194139,0.5761904761904761,0.8171428571428572
0.08592015098838601,0.3739194139194139,0.5761904761904761,0.8171428571428572
0.0948100769892335,1.2764835164835164,2.166153846153846,0.8630769230769231
0.10270976199535653,1.2764835164835164,2.166153846153846,0.8630769230769231
0.10838281500036828,0.31347985347985347,0.13296703296703297,0.29010989010989013
0.11359458699007519,0.31347985347985347,0.13296703296703297,0.29010989010989013
0.11663785600103438,0.31347985347985347,0.13296703296703297,0.29010989010989013
0.11968013198929839,0.31347985347985347,0.13296703296703297,0.29010989010989013
0.1220033839927055,0.31347985347985347,0.13296703296703297,0.29010989010989013
0.12220063598942943,0.31347985347985347,0.13296703296703297,0.29010989010989013
0.1279119440005161,0.31347985347985347,0.13296703296703297,0.29010989010989013
0.13772412999242079,0.31347985347985347,0.13296703296703297,0.29010989010989013
0.14775386099063326,0.31347985347985347,0.13296703296703297,0.29010989010989013
0.15157532099692617,2.6665934065934067,3.3,0.7945787545787546
0.15614341999753378,1.3087179487179486,1.8567032967032966,0.4899633699633699
0.15776669299521018,1.3087179487179486,1.8567032967032966,0.4899633699633699
0.16151961499417666,1.3087179487179486,1.8567032967032966,0.4899633699633699
0.16677393099234905,0.3602197802197802,0.8082783882783882,0.2747985347985348
0.1691306629945757,0.3602197802197802,0.8082783882783882,0.2747985347985348
0.16935386099794414,0.3602197802197802,0.8082783882783882,0.2747985347985348
0.17458640999393538,0.3602197802197802,0.8082783882783882,0.2747985347985348
0.17773168499115855,0.3602197802197802,0.8082783882783882,0.2747985347985348
0.18001216699485667,0.3167032967032967,0.40776556776556777,0.2804395604395604
0.18013509399315808,0.3167032967032967,0.40776556776556777,0.2804395604395604
0.187025448991335,0.3167032967032967,0.40776556776556777,0.2804395604395604
0.19087519799359143,0.3167032967032967,0.40776556776556777,0.2804395604395604
0.19495398399885744,0.6559706959706959,1.5254945054945055,0.2756043956043956
0.19827337899187114,0.5963369963369963,0.4762637362637362,0.17326007326007326
0.19876006800041068,0.5963369963369963,0.4762637362637362,0.17326007326007326
0.20305703100166284,0.5963369963369963,0.4762637362637362,0.17326007326007326
0.20479777800210286,0.5963369963369963,0.4762637362637362,0.17326007326007326
0.20881605400063563,0.5963369963369963,0.4762637362637362,0.17326007326007326
0.21591967999120243,0.5165567765567766,0.6422710622710622,0.5955311355311355
0.22105100699991453,0.5165567765567766,0.6422710622710622,0.5955311355311355
0.22419731799163856,0.5165567765567766,0.6422710622710622,0.5955311355311355
0.22584751299291383,0.5165567765567766,0.6422710622710622,0.5955311355311355
0.23256867699092254,0.5165567765567766,0.6422710622710622,0.5955311355311355
0.23588398699939717,2.5553846153846154,3.3,0.9339926739926739
0.23622359200089704,2.5553846153846154,3.3,0.9339926739926739
0.24182854998798575,2.5553846153846154,3.3,0.9339926739926739
0.2421549479913665,2.5553846153846154,3.3,0.9339926739926739
0.24775771200074814,2.5553846153846154,3.3,0.9339926739926739
0.24793462999514304,2.5553846153846154,3.3,0.9339926739926739
0.25346855499083176,2.5553846153846154,3.3,0.9339926739926739
0.25447501699090935,1.3659340659340657,1.8865201465201462,0.4738461538461538
0.25549113799934275,1.3659340659340657,1.8865201465201462,0.4738461538461538
0.2564319219964091,0.28124542124542123,0.361025641025641,0.2216117216117216
0.25803068099776283,0.28124542124542123,0.361025641025641,0.2216117216117216
0.2636311209935229,0.28124542124542123,0.361025641025641,0.2216117216117216
0.26933001799625345,0.9855677655677655,1.2821245421245422,0.4657875457875458
0.26964702999976,0.9855677655677655,1.2821245421245422,0.4657875457875458
0.2746364420017926,0.9855677655677655,1.2821245421245422,0.4657875457875458
0.28089746698969975,0.28446886446886444,0.3771428571428571,0.22967032967032966
0.2844848969980376,0.2506227106227106,0.6382417582417582,0.4819047619047619
0.2900428569992073,0.2506227106227106,0.6382417582417582,0.4819047619047619
0.29277705198910553,0.2506227106227106,0.6382417582417582,0.4819047619047619
0.29891497700009495,0.2506227106227106,0.6382417582417582,0.4819047619047619
0.3028024910017848,1.6286446886446886,2.1871062271062267,0.4657875457875458
0.3062079509982141,1.6286446886446886,2.1871062271062267,0.4657875457875458
0.3078858889930416,1.6286446886446886,2.1871062271062267,0.4657875457875458
0.3105950149911223,1.6286446886446886,2.1871062271062267,0.4657875457875458
0.3160774179996224,1.6286446886446886,2.1871062271062267,0.4657875457875458
0.31631996399664786,0.27399267399267396,0.3416849816849817,0.16117216117216115
0.32188319899432827,0.27399267399267396,0.3416849816849817,0.16117216117216115
0.3228588439960731,0.27399267399267396,0.3416849816849817,0.16117216117216115
0.32384214299963787,0.27399267399267396,0.3416849816849817,0.16117216117216115
0.32558574799622875,0.27399267399267396,0.3416849816849817,0.16117216117216115
0.33051876799436286,0.27399267399267396,0.3416849816849817,0.16117216117216115
0.3348606349900365,0.27399267399267396,0.3416849816849817,0.16117216117216115
0.335926150000887,0.27399267399267396,0.3416849816849817,0.16117216117216115
0.3369170980004128,0.3529670329670329,0.40534798534798533,0.1249084249084249
0.3378605979960412,0.3529670329670329,0.40534798534798533,0.1249084249084249
0.33893367199925706,0.3529670329670329,0.40534798534798533,0.1249084249084249
0.3398412349924911,0.3529670329670329,0.40534798534798533,0.1249084249084249
0.3415407110005617,0.3529670329670329,0.40534798534798533,0.1249084249084249
0.3465142549976008,0.3529670329670329,0.40534798534798533,0.1249084249084249
0.35103816899936646,0.3529670329670329,0.40534798534798533,0.1249084249084249
0.3513310790003743,0.3529670329670329,0.40534798534798533,0.1249084249084249
0.3568946059967857,0.3529670329670329,0.40534798534798533,0.1249084249084249
0.3578316869970877,0.14827838827838827,0.1095970695970696,0.18615384615384614
0.359445694994065,0.14827838827838827,0.1095970695970696,0.18615384615384614
0.3667503559991019,0.14827838827838827,0.1095970695970696,0.18615384615384614
0.37083227599214297,0.14827838827838827,0.1095970695970696,0.18615384615384614
0.3739699439902324,0.14827838827838827,0.1095970695970696,0.18615384615384614
0.37569529699976556,0.14827838827838827,0.1095970695970696,0.18615384615384614
0.3814224480011035,0.14827838827838827,0.1095970695970696,0.18615384615384614
0.38615160300105345,0.14827838827838827,0.1095970695970696,0.18615384615384614
0.38634132499282714,0.14827838827838827,0.1095970695970696,0.18615384615384614
0.3910121799999615,0.14827838827838827,0.1095970695970696,0.18615384615384614
0.3913401729951147,0.14827838827838827,0.1095970695970696,0.18615384615384614
0.3987208170001395,0.14827838827838827,0.1095970695970696,0.18615384615384614
0.4037748019909486,0.14827838827838827,0.1095970695970696,0.18615384615384614
0.4069312649953645,0.14827838827838827,0.1095970695970696,0.18615384615384614
0.408626087999437,0.14827838827838827,0.1095970695970696,0.18615384615384614
0.4136345039878506,2.6633699633699632,3.3,0.5391208791208791
0.41840664600022137,2.6633699633699632,3.3,0.5391208791208791
0.42520635700202547,2.6633699633699632,3.3,0.5391208791208791
0.43047313299030066,0.28124542124542123,0.5326739926739926,0.1652014652014652
0.4349707329965895,0.3964835164835165,0.45772893772893775,0.33282051282051284
0.4407944489939837,0.1926007326007326,0.3078388278388278,0.2361172161172161
0.44108743099786807,0.1926007326007326,0.3078388278388278,0.2361172161172161
0.4486446919909213,0.1926007326007326,0.3078388278388278,0.2361172161172161
0.45315027199103497,0.1942124542124542,0.17487179487179486,0.21435897435897436
0.4533766620006645,0.1942124542124542,0.17487179487179486,0.21435897435897436
0.4590365209878655,0.1942124542124542,0.17487179487179486,0.21435897435897436
0.4600449319987092,0.1942124542124542,0.17487179487179486,0.21435897435897436
0.4609083639952587,0.1942124542124542,0.17487179487179486,0.21435897435897436
0.4623539280000841,0.1942124542124542,0.17487179487179486,0.21435897435897436
0.4691871529939817,0.1942124542124542,0.17487179487179486,0.21435897435897436
0.47395140799926594,1.61010989010989,1.9445421245421244,0.29655677655677654
0.4806804999971064,1.61010989010989,1.9445421245421244,0.29655677655677654
0.48497604099975433,0.14989010989010987,0.40695970695970696,0.46095238095238095
0.4867410789884161,0.14989010989010987,0.40695970695970696,0.46095238095238095
0.4901029600005131,0.14989010989010987,0.40695970695970696,0.46095238095238095
0.49102282199601177,0.14989010989010987,0.40695970695970696,0.46095238095238095
0.49266018100024667,0.14989010989010987,0.40695970695970696,0.46095238095238095
0.4975986329955049,0.14989010989010987,0.40695970695970696,0.46095238095238095
0.5018551099929027,0.49882783882783877,0.14586080586080585,0.13135531135531134
0.5035651590005727,0.14505494505494507,0.3384615384615384,0.2328937728937729
0.5076389869936975,0.14505494505494507,0.3384615384615384,0.2328937728937729
0.510027166994405,0.14505494505494507,0.3384615384615384,0.2328937728937729
0.510140895989025,0.14505494505494507,0.3384615384615384,0.2328937728937729
0.5175612739985809,0.14505494505494507,0.3384615384615384,0.2328937728937729
0.521676987002138,0.14505494505494507,0.3384615384615384,0.2328937728937729
0.5250207459903322,0.14505494505494507,0.3384615384615384,0.2328937728937729
0.5259376749891089,0.14505494505494507,0.3384615384615384,0.2328937728937729
0.5277374249999411,0.14505494505494507,0.3384615384615384,0.2328937728937729
0.5323289559892146,0.14505494505494507,0.3384615384615384,0.2328937728937729
0.5324325819965452,0.14505494505494507,0.3384615384615384,0.2328937728937729
0.5372913949977374,0.14505494505494507,0.3384615384615384,0.2328937728937729
0.5374404079921078,0.14505494505494507,0.3384615384615384,0.2328937728937729
0.5429297020018566,1.3385347985347984,2.0090109890109886,0.4488644688644688
0.544725080995704,1.3385347985347984,2.0090109890109886,0.4488644688644688
0.5486237809964223,1.3385347985347984,2.0090109890109886,0.4488644688644688
0.5518525489897002,1.3385347985347984,2.0090109890109886,0.4488644688644688
0.5528727560013067,1.3385347985347984,2.0090109890109886,0.4488644688644688
0.5545750279998174,1.3385347985347984,2.0090109890109886,0.4488644688644688
0.5570075019932119,1.3385347985347984,2.0090109890109886,0.4488644688644688
0.5572505999880377,1.3385347985347984,2.0090109890109886,0.4488644688644688
0.5636316189920763,1.3385347985347984,2.0090109890109886,0.4488644688644688
0.5672250589996111,1.3385347985347984,2.0090109890109886,0.4488644688644688
0.5780149409984006,1.2192673992673992,1.6012454212454212,0.7123809523809523
0.5852959439944243,1.2192673992673992,1.6012454212454212,0.7123809523809523
0.5900411079928745,1.2192673992673992,1.6012454212454212,0.7123809523809523
0.5901593079906888,2.5553846153846154,3.3,0.809084249084249
0.5965241079975385,2.5553846153846154,3.3,0.809084249084249
0.6001514059898909,2.5553846153846154,3.3,0.809084249084249
0.6049756919965148,2.5553846153846154,3.3,0.809084249084249
0.6114657399884891,2.5553846153846154,3.3,0.809084249084249
0.6158657909982139,0.8389010989010988,1.021025641025641,0.15875457875457877
0.6161530739918817,0.29333333333333333,0.2498168498168498,0.2602930402930403
0.6220020949986065,0.29333333333333333,0.2498168498168498,0.2602930402930403
0.6221013460017275,0.4810989010989011,0.6728937728937728,0.25787545787545785
0.6277454789960757,0.4810989010989011,0.6728937728937728,0.25787545787545785
0.6281464069907088,0.4810989010989011,0.6728937728937728,0.25787545787545785
0.6346849679976003,0.4810989010989011,0.6728937728937728,0.25787545787545785
0.6387748389970511,0.4810989010989011,0.6728937728937728,0.25787545787545785
0.6420686539931921,0.4810989010989011,0.6728937728937728,0.25787545787545785
0.6429914889886277,0.4810989010989011,0.6728937728937728,0.25787545787545785
0.6455823619908188,0.4810989010989011,0.6728937728937728,0.25787545787545785
0.6518142639979487,1.598021978021978,2.2273992673992673,0.4464468864468864
0.6566311409987975,1.2917948717948717,1.855091575091575,0.45772893772893775
0.6629582369932905,0.5302564102564102,0.5689377289377289,0.10315018315018315
0.6670539689948782,0.5302564102564102,0.5689377289377289,0.10315018315018315
0.6696887989965035,0.5302564102564102,0.5689377289377289,0.10315018315018315
0.6747438759921351,0.5302564102564102,0.5689377289377289,0.10315018315018315
0.68124390799494,0.5302564102564102,0.5689377289377289,0.10315018315018315
0.6845482609933242,0.5302564102564102,0.5689377289377289,0.10315018315018315
0.6854738839901984,0.5302564102564102,0.5689377289377289,0.10315018315018315
0.6871331610018387,0.5302564102564102,0.5689377289377289,0.10315018315018315
0.6910762499901466,0.5302564102564102,0.5689377289377289,0.10315018315018315
0.6954092499945546,0.5302564102564102,0.5689377289377289,0.10315018315018315
0.6976859860005789,0.7107692307692308,0.8195604395604396,0.17084249084249084
0.6978804230020614,0.7107692307692308,0.8195604395604396,0.17084249084249084
0.703083307002089,0.7107692307692308,0.8195604395604396,0.17084249084249084
0.7064740299974801,0.7107692307692308,0.8195604395604396,0.17084249084249084
0.7067290369886905,0.7107692307692308,0.8195604395604396,0.17084249084249084
0.7142056349985069,0.7107692307692308,0.8195604395604396,0.17084249084249084
0.7179662540002028,1.80996336996337,2.537655677655678,0.9863736263736262
0.7243926800001645,1.80996336996337,2.537655677655678,0.9863736263736262
0.729847852999228,1.80996336996337,2.537655677655678,0.9863736263736262
0.7302837489987724,1.80996336996337,2.537655677655678,0.9863736263736262
0.7347124849911779,1.80996336996337,2.537655677655678,0.9863736263736262
0.7350025869964156,1.80996336996337,2.537655677655678,0.9863736263736262
0.7408997969905613,1.80996336996337,2.537655677655678,0.9863736263736262
0.7490789989969926,1.80996336996337,2.537655677655678,0.9863736263736262
0.7532024379906943,1.394139194139194,1.8889377289377287,0.46417582417582415
0.7556912599975476,1.2523076923076921,1.6778021978021975,0.3876190476190476
0.7639219679986127,1.2523076923076921,1.6778021978021975,0.3876190476190476
0.7688929669966456,1.2523076923076921,1.6778021978021975,0.3876190476190476
0.7720960110018495,1.2523076923076921,1.6778021978021975,0.3876190476190476
0.7729950899956748,1.2523076923076921,1.6778021978021975,0.3876190476190476
0.7747194599942304,1.2523076923076921,1.6778021978021975,0.3876190476190476
0.7796308879915159,1.2523076923076921,1.6778021978021975,0.3876190476190476
0.7845100759877823,1.2523076923076921,1.6778021978021975,0.3876190476190476
0.7884504709945759,1.3401465201465201,1.7954578754578752,0.4802930402930403
0.7933500049985014,2.726227106227106,3.3,1.0701831501831502
0.799191913989489,0.7325274725274724,0.8389010989010988,0.12893772893772892
0.8041559010016499,0.7325274725274724,0.8389010989010988,0.12893772893772892
0.8080311419907957,0.7325274725274724,0.8389010989010988,0.12893772893772892
0.8149959339934867,0.7325274725274724,0.8389010989010988,0.12893772893772892
0.8206719729932956,0.8526007326007327,1.0621245421245422,0.2498168498168498
0.8259994129912229,0.8526007326007327,1.0621245421245422,0.2498168498168498
0.8307619440020062,1.4223443223443224,2.1097435897435894,0.5713553113553113
0.834125055000186,1.4223443223443224,2.1097435897435894,0.5713553113553113
0.8350035939947702,1.4223443223443224,2.1097435897435894,0.5713553113553113
0.8366592009988381,1.4223443223443224,2.1097435897435894,0.5713553113553113
0.8406443089916138,1.4223443223443224,2.1097435897435894,0.5713553113553113
0.8451431329885963,0.26109890109890105,0.6833699633699634,0.4142124542124542
0.8454228369955672,0.26109890109890105,0.6833699633699634,0.4142124542124542
0.8518981999950483,0.26109890109890105,0.6833699633699634,0.4142124542124542
0.8561025459930534,0.26109890109890105,0.6833699633699634,0.4142124542124542
0.8586411079886602,0.2482051282051282,0.18937728937728937,0.15794871794871795
0.8683049789979123,0.3183150183150183,0.5842490842490843,0.3287912087912088
0.8735559299966553,0.3183150183150183,0.5842490842490843,0.3287912087912088
0.8775249780010199,0.3183150183150183,0.5842490842490843,0.3287912087912088
0.8819161009887466,0.26190476190476186,0.5302564102564102,0.307032967032967
0.8877339600003324,0.43355311355311354,0.767985347985348,0.4319413919413919
0.8879537409957265,0.43355311355311354,0.767985347985348,0.4319413919413919
0.8947155060013756,0.43355311355311354,0.767985347985348,0.4319413919413919
0.9005437629966764,0.43355311355311354,0.767985347985348,0.4319413919413919
0.9052302839991171,0.14827838827838827,0.2498168498168498,0.23853479853479853
0.9054899719922105,0.14827838827838827,0.2498168498168498,0.23853479853479853
0.9139965189970098,0.14827838827838827,0.2498168498168498,0.23853479853479853
0.9182575349987019,0.14827838827838827,0.2498168498168498,0.23853479853479853
0.9192572839965578,0.17326007326007326,0.2377289377289377,0.5141391941391941
0.9202406869881088,0.17326007326007326,0.2377289377289377,0.5141391941391941
0.9218857099913293,0.17326007326007326,0.2377289377289377,0.5141391941391941
0.9252845699957106,0.17326007326007326,0.2377289377289377,0.5141391941391941
0.9262277639936656,0.17326007326007326,0.2377289377289377,0.5141391941391941
0.9285009909945074,0.17326007326007326,0.2377289377289377,0.5141391941391941
0.9287657800014131,0.17326007326007326,0.2377289377289377,0.5141391941391941
0.9343730199907441,0.17326007326007326,0.2377289377289377,0.5141391941391941
0.9352659589931136,0.17326007326007326,0.2377289377289377,0.5141391941391941
0.9362743519886862,0.17326007326007326,0.2377289377289377,0.5141391941391941
0.9371885930013377,0.17326007326007326,0.2377289377289377,0.5141391941391941
0.9389268469967647,0.17326007326007326,0.2377289377289377,0.5141391941391941
0.942440203987644,0.17326007326007326,0.2377289377289377,0.5141391941391941
0.942698491999181,0.17326007326007326,0.2377289377289377,0.5141391941391941
0.9505189149931539,0.17326007326007326,0.2377289377289377,0.5141391941391941
0.9553064520005137,1.4030036630036629,1.7801465201465199,0.5641025641025641
0.9554396059975261,1.4030036630036629,1.7801465201465199,0.5641025641025641
0.9618220199918142,1.4030036630036629,1.7801465201465199,0.5641025641025641
0.9658964080008445,1.4030036630036629,1.7801465201465199,0.5641025641025641
0.9683929119928507,1.519047619047619,2.049304029304029,0.4738461538461538
0.9740777659899322,2.685934065934066,3.3,0.929157509157509
0.9743242569966242,0.06124542124542124,0.2216117216117216,0.13216117216117215
0.983167518992559,0.06124542124542124,0.2216117216117216,0.13216117216117215
0.9896855739934836,0.06124542124542124,0.2216117216117216,0.13216117216117215
0.9960224620008375,0.06124542124542124,0.2216117216117216,0.13216117216117215
1.002043185988441,0.06124542124542124,0.2216117216117216,0.13216117216117215
1.0052187489927746,0.06124542124542124,0.2216117216117216,0.13216117216117215
1.0069600849965354,1.232161172161172,1.8712087912087911,0.4835164835164835
1.0093606619921047,1.232161172161172,1.8712087912087911,0.4835164835164835
1.0096621589909773,1.232161172161172,1.8712087912087911,0.4835164835164835
1.017029390000971,1.232161172161172,1.8712087912087911,0.4835164835164835
1.0209508349944372,0.30542124542124544,0.3021978021978022,0.17648351648351646
1.0256840529909823,0.30542124542124544,0.3021978021978022,0.17648351648351646
1.025858356995741,1.3909157509157508,1.9783882783882782,0.518974358974359
1.032725331999245,1.3909157509157508,1.9783882783882782,0.518974358974359
1.036821803994826,1.3909157509157508,1.9783882783882782,0.518974358974359
1.0400424919935176,0.007252747252747252,0.3642490842490842,0.16197802197802197
1.0416386949946173,0.007252747252747252,0.3642490842490842,0.16197802197802197
1.0488777790014865,0.007252747252747252,0.3642490842490842,0.16197802197802197
1.0530145809898386,0.007252747252747252,0.3642490842490842,0.16197802197802197
1.0561929289979162,1.0572893772893772,1.3909157509157508,0.12087912087912088
1.0586381600005552,0.26109890109890105,0.35619047619047617,0.14908424908424908
1.068473127001198,0.26109890109890105,0.35619047619047617,0.14908424908424908
1.0751965370000107,0.26109890109890105,0.35619047619047617,0.14908424908424908
1.081225068992353,0.26109890109890105,0.35619047619047617,0.14908424908424908
1.085611804999644,0.26109890109890105,0.35619047619047617,0.14908424908424908
1.085999737988459,0.0,0.19824175824175824,0.19824175824175824
1.0927991859934991,0.0,0.19824175824175824,0.19824175824175824
1.0966496009932598,0.9646153846153847,1.423956043956044,0.25465201465201465
1.096790327996132,0.9646153846153847,1.423956043956044,0.25465201465201465
1.10133380399202,0.9646153846153847,1.423956043956044,0.25465201465201465
1.1022252549882978,0.9646153846153847,1.423956043956044,0.25465201465201465
1.1038523509923834,0.9646153846153847,1.423956043956044,0.25465201465201465
1.1076152049936354,0.9646153846153847,1.423956043956044,0.25465201465201465
1.112955566990422,0.9646153846153847,1.423956043956044,0.25465201465201465
1.1153619549877476,0.9646153846153847,1.423956043956044,0.25465201465201465
1.1154941099957796,0.9646153846153847,1.423956043956044,0.25465201465201465
1.1208598649973283,0.9646153846153847,1.423956043956044,0.25465201465201465
1.1224779979966115,2.0549450549450547,3.3,0.4899633699633699
1.1263126689882483,0.0709157509157509,0.1643956043956044,0.2063003663003663
1.1316809979907703,0.5721611721611721,0.7695970695970695,0.506080586080586
1.1340337820001878,0.5721611721611721,0.7695970695970695,0.506080586080586
1.134278262994485,0.5721611721611721,0.7695970695970695,0.506080586080586
1.1399803870008327,0.5721611721611721,0.7695970695970695,0.506080586080586
1.1401363459881395,0.5721611721611721,0.7695970695970695,0.506080586080586
1.1455487289931625,0.5721611721611721,0.7695970695970695,0.506080586080586
1.147312986999168,0.5721611721611721,0.7695970695970695,0.506080586080586
1.1506515809887787,0.5721611721611721,0.7695970695970695,0.506080586080586
1.152184471997316,0.5721611721611721,0.7695970695970695,0.506080586080586
1.1613435170002049,0.5721611721611721,0.7695970695970695,0.506080586080586
1.1679021329910029,0.5721611721611721,0.7695970695970695,0.506080586080586
1.1737820679991273,0.5721611721611721,0.7695970695970695,0.506080586080586
1.1808864699996775,0.5721611721611721,0.7695970695970695,0.506080586080586
1.185198531995411,0.5721611721611721,0.7695970695970695,0.506080586080586
1.187516958991182,0.5721611721611721,0.7695970695970695,0.506080586080586
1.1877640320017235,0.5721611721611721,0.7695970695970695,0.506080586080586
1.193967248997069,0.5721611721611721,0.7695970695970695,0.506080586080586
1.198545765990275,0.5721611721611721,0.7695970695970695,0.506080586080586
1.1987604489986552,0.5721611721611721,0.7695970695970695,0.506080586080586
1.2036548189935274,0.5721611721611721,0.7695970695970695,0.506080586080586
1.2091710429958766,0.5721611721611721,0.7695970695970695,0.506080586080586
1.210192229002132,0.5721611721611721,0.7695970695970695,0.506080586080586
1.2115812669944717,0.5721611721611721,0.7695970695970695,0.506080586080586
1.217646106990287,0.8195604395604396,0.9017582417582416,0.13619047619047617
1.2218339649989503,0.8195604395604396,0.9017582417582416,0.13619047619047617
1.224278993991902,0.8195604395604396,0.9017582417582416,0.13619047619047617
1.2298439729929669,0.8195604395604396,0.9017582417582416,0.13619047619047617
1.2314116509951418,0.8195604395604396,0.9017582417582416,0.13619047619047617
1.2352468749886611,0.8808058608058608,1.0742124542124543,0.13699633699633698
1.2405362799909199,0.25465201465201465,0.21838827838827837,0.13538461538461538
1.2428671649977332,0.25465201465201465,0.21838827838827837,0.13538461538461538
1.2430962939979509,0.25465201465201465,0.21838827838827837,0.13538461538461538
1.2477550769981463,0.25465201465201465,0.21838827838827837,0.13538461538461538
1.2479981789947487,0.25465201465201465,0.21838827838827837,0.13538461538461538
1.2536601920000976,0.25465201465201465,0.21838827838827837,0.13538461538461538
1.2539842169935582,0.9968498168498168,1.2498901098901098,0.15472527472527473
1.2593363219930325,0.9968498168498168,1.2498901098901098,0.15472527472527473
1.2624307639925973,0.9968498168498168,1.2498901098901098,0.15472527472527473
1.2648278400010895,0.9968498168498168,1.2498901098901098,0.15472527472527473
1.2651030979905045,0.9968498168498168,1.2498901098901098,0.15472527472527473
1.2697217800014187,0.9968498168498168,1.2498901098901098,0.15472527472527473
1.2699360749975313,0.9968498168498168,1.2498901098901098,0.15472527472527473
1.2753605499892728,0.9968498168498168,1.2498901098901098,0.15472527472527473
1.27786289199139,0.9968498168498168,1.2498901098901098,0.15472527472527473
1.282585733992164,0.9968498168498168,1.2498901098901098,0.15472527472527473
1.2827294119924773,0.9968498168498168,1.2498901098901098,0.15472527472527473
1.2874592079897411,0.9968498168498168,1.2498901098901098,0.15472527472527473
1.287701458990341,0.9968498168498168,1.2498901098901098,0.15472527472527473
1.2923534339934122,0.9968498168498168,1.2498901098901098,0.15472527472527473
1.2925473239884013,0.9968498168498168,1.2498901098901098,0.15472527472527473
1.2968899689876707,0.9968498168498168,1.2498901098901098,0.15472527472527473
1.299150627994095,0.04593406593406593,0.06446886446886446,0.2095238095238095
1.2994413339911262,0.04593406593406593,0.06446886446886446,0.2095238095238095
1.3043608119915007,0.04593406593406593,0.06446886446886446,0.2095238095238095
1.309216302994173,0.04593406593406593,0.06446886446886446,0.2095238095238095
1.309337233993574,2.664175824175824,3.3,0.7462271062271062
1.3141429609968327,2.664175824175824,3.3,0.7462271062271062
1.3143339949892834,2.664175824175824,3.3,0.7462271062271062
1.3191579459962668,2.664175824175824,3.3,0.7462271062271062
1.3192548879887909,2.664175824175824,3.3,0.7462271062271062
1.3242237779923016,2.664175824175824,3.3,0.7462271062271062
1.3288562730012927,2.664175824175824,3.3,0.7462271062271062
1.3290078209975036,2.664175824175824,3.3,0.7462271062271062
1.3339724559918977,2.664175824175824,3.3,0.7462271062271062
1.3382006699976046,2.664175824175824,3.3,0.7462271062271062
1.3412728349940153,0.5495970695970696,0.7953846153846154,0.40695970695970696
1.3435842920007417,0.5495970695970696,0.7953846153846154,0.40695970695970696
1.3438235739886295,0.5495970695970696,0.7953846153846154,0.40695970695970696
1.3495222950004973,0.5495970695970696,0.7953846153846154,0.40695970695970696
1.3503727239876753,0.5495970695970696,0.7953846153846154,0.40695970695970696
1.3519938199897297,0.5495970695970696,0.7953846153846154,0.40695970695970696
1.3558349550003186,0.5495970695970696,0.7953846153846154,0.40695970695970696
1.35962825200113,0.5495970695970696,0.7953846153846154,0.40695970695970696
1.3644811519916402,0.5495970695970696,0.7953846153846154,0.40695970695970696
1.3646287129959092,0.5495970695970696,0.7953846153846154,0.40695970695970696
1.3696609789913055,0.5495970695970696,0.7953846153846154,0.40695970695970696
1.3738550679991022,0.5495970695970696,0.7953846153846154,0.40695970695970696
1.3766925480013015,0.5495970695970696,0.7953846153846154,0.40695970695970696
1.38027521398908,0.5495970695970696,0.7953846153846154,0.40695970695970696
1.3805631199938944,1.7495238095238095,2.8616117216117214,0.585054945054945
1.3855266899918206,1.7495238095238095,2.8616117216117214,0.585054945054945
1.389824255995336,1.2692307692307692,1.6367032967032966,0.4794871794871795
1.3919349929929012,1.2692307692307692,1.6367032967032966,0.4794871794871795
1.3928745070006698,1.2692307692307692,1.6367032967032966,0.4794871794871795
1.3943159999907948,0.5632967032967032,0.5624908424908425,0.14344322344322344
1.3985948689951329,0.5632967032967032,0.5624908424908425,0.14344322344322344
1.4007761300017592,0.5632967032967032,0.5624908424908425,0.14344322344322344
1.4016092639940325,0.5632967032967032,0.5624908424908425,0.14344322344322344
1.403759191991412,0.5632967032967032,0.5624908424908425,0.14344322344322344
1.405185988987796,0.5632967032967032,0.5624908424908425,0.14344322344322344
1.4100712450017454,0.6003663003663003,0.9283516483516483,0.5173626373626373
1.4149120129877701,0.6003663003663003,0.9283516483516483,0.5173626373626373
1.419917544000782,0.6003663003663003,0.9283516483516483,0.5173626373626373
1.424877318990184,0.43597069597069593,0.6334065934065934,0.25787545787545785
1.4298594430001685,0.43597069597069593,0.6334065934065934,0.25787545787545785
1.4342346639896277,1.4432967032967032,1.3868864468864468,0.25223443223443226
1.435770912998123,1.4432967032967032,1.3868864468864468,0.25223443223443226
1.4406242849945556,1.4432967032967032,1.3868864468864468,0.25223443223443226
1.4456081359967357,1.4432967032967032,1.3868864468864468,0.25223443223443226
1.4497377480001887,1.4432967032967032,1.3868864468864468,0.25223443223443226
1.4532401139877038,1.4432967032967032,1.3868864468864468,0.25223443223443226
1.4534861959982663,1.4432967032967032,1.3868864468864468,0.25223443223443226
1.458367357001407,1.4432967032967032,1.3868864468864468,0.25223443223443226
1.4632597839954542,1.4432967032967032,1.3868864468864468,0.25223443223443226
1.4680942080012755,0.03223443223443223,0.26996336996336995,0.22886446886446887
1.4681881009892095,0.03223443223443223,0.26996336996336995,0.22886446886446887
1.4730278019997058,0.03223443223443223,0.26996336996336995,0.22886446886446887
1.477847923990339,0.03223443223443223,0.26996336996336995,0.22886446886446887
1.48262811099994,0.03223443223443223,0.26996336996336995,0.22886446886446887
1.4828124479972757,0.4174358974358974,0.606007326007326,0.3231501831501831
1.48765586099762,0.4174358974358974,0.606007326007326,0.3231501831501831
1.4877832380007021,0.4174358974358974,0.606007326007326,0.3231501831501831
1.4925216229894431,0.4174358974358974,0.606007326007326,0.3231501831501831
1.49284215499938,1.3457875457875457,1.9268131868131868,0.3795604395604395
1.4976762180012884,1.3457875457875457,1.9268131868131868,0.3795604395604395
1.5025646860012785,1.3457875457875457,1.9268131868131868,0.3795604395604395
1.5027184369973838,1.3457875457875457,1.9268131868131868,0.3795604395604395
1.5076190830004634,1.3457875457875457,1.9268131868131868,0.3795604395604395
1.5117850999959046,1.3457875457875457,1.9268131868131868,0.3795604395604395
1.5161586369940778,1.3457875457875457,1.9268131868131868,0.3795604395604395
1.5164143199945102,0.21677655677655677,0.25142857142857145,0.1418315018315018
1.522043096993002,0.21677655677655677,0.25142857142857145,0.1418315018315018
1.5223076830006903,0.15794871794871795,0.5246153846153846,0.23934065934065935
1.5272496429970488,0.15794871794871795,0.5246153846153846,0.23934065934065935
1.5273631689924514,0.8082783882783882,1.2087912087912087,0.8405128205128204
1.532279673992889,1.514212454212454,2.1186080586080585,0.9162637362637363
1.5371856769925216,1.514212454212454,2.1186080586080585,0.9162637362637363
1.5415766020014416,1.514212454212454,2.1186080586080585,0.9162637362637363
1.5430885399982799,1.514212454212454,2.1186080586080585,0.9162637362637363
1.548003947988036,1.514212454212454,2.1186080586080585,0.9162637362637363
1.5522375519940397,1.514212454212454,2.1186080586080585,0.9162637362637363
1.5544467659929069,1.514212454212454,2.1186080586080585,0.9162637362637363
1.5552222989936126,1.514212454212454,2.1186080586080585,0.9162637362637363
1.5573297179944348,0.0,0.18615384615384614,0.1676190476190476
1.5587976919923676,0.0,0.18615384615384614,0.1676190476190476
1.5636512089986354,2.7044688644688644,3.3,0.7857142857142856
1.5637687689886661,1.5835164835164834,2.0847619047619044,0.5487912087912087
1.5685921999975108,1.5835164835164834,2.0847619047619044,0.5487912087912087
1.568690322994371,1.5835164835164834,2.0847619047619044,0.5487912087912087
1.573520527992514,1.5835164835164834,2.0847619047619044,0.5487912087912087
1.5736191619944293,1.5835164835164834,2.0847619047619044,0.5487912087912087
1.578402717001154,1.5835164835164834,2.0847619047619044,0.5487912087912087
1.5786138369876426,2.8285714285714283,3.3,0.8123076923076923
1.5834099569910904,2.8285714285714283,3.3,0.8123076923076923
1.5836183809879003,2.8285714285714283,3.3,0.8123076923076923
1.5885089849907672,2.8285714285714283,3.3,0.8123076923076923
1.5927939169923775,1.232161172161172,2.0686446886446883,0.9920146520146519
1.594960064991028,1.232161172161172,2.0686446886446883,0.9920146520146519
1.5958232129924,1.232161172161172,2.0686446886446883,0.9920146520146519
1.5975416529981885,1.232161172161172,2.0686446886446883,0.9920146520146519
1.600464994990034,1.232161172161172,2.0686446886446883,0.9920146520146519
1.6034233620011946,0.22725274725274724,0.581025641025641,0.30139194139194136
1.6056438689993229,1.2458608058608058,1.7164835164835166,0.5350915750915751
1.606460408991552,1.2458608058608058,1.7164835164835166,0.5350915750915751
1.6079550750000635,1.2458608058608058,1.7164835164835166,0.5350915750915751
1.6129801929928362,0.618095238095238,0.9726739926739927,0.8397069597069596
1.6171722319995752,0.618095238095238,0.9726739926739927,0.8397069597069596
1.6193328989902511,0.618095238095238,0.9726739926739927,0.8397069597069596
1.6201849039935041,0.618095238095238,0.9726739926739927,0.8397069597069596
1.6223280819976935,0.618095238095238,0.9726739926739927,0.8397069597069596
1.6231579529994633,0.618095238095238,0.9726739926739927,0.8397069597069596
1.62468122599239,0.618095238095238,0.9726739926739927,0.8397069597069596
1.6290540089976275,0.618095238095238,0.9726739926739927,0.8397069597069596
1.6305588469986105,0.5963369963369963,0.7832967032967032,0.751062271062271
1.6347502739954507,0.5963369963369963,0.7832967032967032,0.751062271062271
1.6369202269997913,0.5963369963369963,0.7832967032967032,0.751062271062271
1.6378043069998967,0.5963369963369963,0.7832967032967032,0.751062271062271
1.6392744280019542,0.5963369963369963,0.7832967032967032,0.751062271062271
1.6441774199920474,0.5963369963369963,0.7832967032967032,0.751062271062271
1.6484011680004187,0.5963369963369963,0.7832967032967032,0.751062271062271
1.6512129189941334,0.5963369963369963,0.7832967032967032,0.751062271062271
1.6548304890020518,1.0935531135531134,1.4352380952380952,0.3295970695970696
1.6597902119974606,1.0935531135531134,1.4352380952380952,0.3295970695970696
1.6646593319892418,1.0935531135531134,1.4352380952380952,0.3295970695970696
1.6696904009877471,0.332014652014652,0.4996336996336996,0.5947252747252747
1.6738606750004692,1.4207326007326007,1.8599267399267398,0.5874725274725274
1.676121829994372,0.2345054945054945,0.3158974358974359,0.1386080586080586
1.6769498590001604,0.2345054945054945,0.3158974358974359,0.1386080586080586
1.6790848579985322,0.2345054945054945,0.3158974358974359,0.1386080586080586
1.6799058069882449,0.2345054945054945,0.3158974358974359,0.1386080586080586
1.6814117589965463,0.2345054945054945,0.3158974358974359,0.1386080586080586
1.6863369490019977,0.2345054945054945,0.3158974358974359,0.1386080586080586
1.6912301639968064,0.2345054945054945,0.3158974358974359,0.1386080586080586
1.6960885789885651,0.2345054945054945,0.3158974358974359,0.1386080586080586
1.7009705179953016,0.2345054945054945,0.3158974358974359,0.1386080586080586
1.705761163000716,0.2345054945054945,0.3158974358974359,0.1386080586080586
1.7106492309976602,0.020146520146520144,0.1241025641025641,0.3231501831501831
1.7107307629921706,0.020146520146520144,0.1241025641025641,0.3231501831501831
1.7154986160021508,0.020146520146520144,0.1241025641025641,0.3231501831501831
1.715680469002109,0.020146520146520144,0.1241025641025641,0.3231501831501831
1.72064140799921,0.020146520146520144,0.1241025641025641,0.3231501831501831
1.7261810399941169,0.4254945054945055,0.7454212454212454,0.27399267399267396
1.7279178129974753,0.4254945054945055,0.7454212454212454,0.27399267399267396
1.7311762600002112,0.4254945054945055,0.7454212454212454,0.27399267399267396
1.7327598919946468,0.4254945054945055,0.7454212454212454,0.27399267399267396
1.737641404994065,0.4254945054945055,0.7454212454212454,0.27399267399267396
1.7423650229902705,0.4254945054945055,0.7454212454212454,0.27399267399267396
1.7426405329897534,0.4254945054945055,0.7454212454212454,0.27399267399267396
1.7483481079980265,0.4254945054945055,0.7454212454212454,0.27399267399267396
1.748514286999125,0.4021245421245421,0.718021978021978,0.5995604395604395
1.754219935988658,1.4368498168498167,1.826886446886447,0.5197802197802197
1.7544227659964235,1.4368498168498167,1.826886446886447,0.5197802197802197
1.7589819169952534,1.4368498168498167,1.826886446886447,0.5197802197802197
1.7605454009899404,1.4368498168498167,1.826886446886447,0.5197802197802197
1.7652224029880017,1.4368498168498167,1.826886446886447,0.5197802197802197
1.7653575669974089,1.4368498168498167,1.826886446886447,0.5197802197802197
1.7703845529904356,1.4368498168498167,1.826886446886447,0.5197802197802197
1.7749524589889916,2.194358974358974,3.3,1.0266666666666666
1.7752438879979309,2.194358974358974,3.3,1.0266666666666666
1.7798800859891344,2.194358974358974,3.3,1.0266666666666666
1.7801531570003135,2.194358974358974,3.3,1.0266666666666666
1.7848679999879096,2.194358974358974,3.3,1.0266666666666666
1.7902637099905405,2.194358974358974,3.3,1.0266666666666666
1.7926011339877732,0.3843956043956044,0.622124542124542,0.5681318681318681
1.7928608429938322,0.3843956043956044,0.622124542124542,0.5681318681318681
1.7985508109995862,0.3843956043956044,0.622124542124542,0.5681318681318681
1.7993786269944394,0.3843956043956044,0.622124542124542,0.5681318681318681
1.8009990519931307,0.3843956043956044,0.622124542124542,0.5681318681318681
1.8048743799881777,0.3843956043956044,0.622124542124542,0.5681318681318681
1.809458318995894,0.3843956043956044,0.622124542124542,0.5681318681318681
1.8102800979977474,0.3843956043956044,0.622124542124542,0.5681318681318681
1.811841877992265,0.3843956043956044,0.622124542124542,0.5681318681318681
1.8163342279876815,0.3843956043956044,0.622124542124542,0.5681318681318681
1.8172626079904148,0.17648351648351646,0.29413919413919415,0.25545787545787546
1.8181739069987088,0.17648351648351646,0.29413919413919415,0.25545787545787546
1.8198036199901253,0.17648351648351646,0.29413919413919415,0.25545787545787546
1.8236392349936068,0.17648351648351646,0.29413919413919415,0.25545787545787546
1.8290657979960088,0.17648351648351646,0.29413919413919415,0.25545787545787546
1.8314239109895425,0.17648351648351646,0.29413919413919415,0.25545787545787546
1.8315919500018936,0.17648351648351646,0.29413919413919415,0.25545787545787546
1.836966556002153,0.17648351648351646,0.29413919413919415,0.25545787545787546
1.8392450870014727,0.06608058608058608,0.166007326007326,0.190989010989011
1.8395078210014617,0.06608058608058608,0.166007326007326,0.190989010989011
1.8448770919931121,0.06608058608058608,0.166007326007326,0.190989010989011
1.8473873999901116,0.06608058608058608,0.166007326007326,0.190989010989011
1.8523760169919115,0.06608058608058608,0.166007326007326,0.190989010989011
1.8573648599995067,0.3102564102564102,0.3771428571428571,0.1805128205128205
1.8622289319901029,0.3102564102564102,0.3771428571428571,0.1805128205128205
1.8623469399899477,0.3102564102564102,0.3771428571428571,0.1805128205128205
1.8672226299968315,0.3102564102564102,0.3771428571428571,0.1805128205128205
1.8673276609915774,0.6487179487179486,0.9904029304029303,0.5173626373626373
1.8722196849994361,0.6487179487179486,0.9904029304029303,0.5173626373626373
1.8771890029893257,0.6487179487179486,0.9904029304029303,0.5173626373626373
1.8821453359996667,1.6608791208791207,2.2604395604395604,0.5584615384615385
1.8870451929979026,1.6608791208791207,2.2604395604395604,0.5584615384615385
1.8921817539958283,1.6608791208791207,2.2604395604395604,0.5584615384615385
1.8963380929926643,1.6608791208791207,2.2604395604395604,0.5584615384615385
1.8984939489891985,0.09509157509157509,0.15875457875457877,0.17406593406593407
1.8999754679971375,0.09509157509157509,0.15875457875457877,0.17406593406593407
1.9048286100005498,0.2216117216117216,0.44402930402930396,0.26915750915750913
1.9049380009964807,0.2216117216117216,0.44402930402930396,0.26915750915750913
1.910083669994492,0.2216117216117216,0.44402930402930396,0.26915750915750913
1.9141268480016151,0.2216117216117216,0.44402930402930396,0.26915750915750913
1.9180044399981853,0.2216117216117216,0.44402930402930396,0.26915750915750913
1.921958077000454,0.2216117216117216,0.44402930402930396,0.26915750915750913
1.9267264519876335,0.2216117216117216,0.44402930402930396,0.26915750915750913
1.926842635992216,0.2216117216117216,0.44402930402930396,0.26915750915750913
1.9317625029943883,0.2216117216117216,0.44402930402930396,0.26915750915750913
1.9366636959894095,0.2216117216117216,0.44402930402930396,0.26915750915750913
1.9416580909892218,0.2216117216117216,0.44402930402930396,0.26915750915750913
1.9458741290000034,2.6327472527472526,3.3,0.6511355311355311
1.9481029979942832,2.6327472527472526,3.3,0.6511355311355311
1.948981105000712,2.6327472527472526,3.3,0.6511355311355311
1.950512412993703,2.6327472527472526,3.3,0.6511355311355311
1.9547296249947976,2.6327472527472526,3.3,0.6511355311355311
1.9568932889960706,0.826007326007326,0.9581684981684981,0.09670329670329669
1.9583431959908921,0.826007326007326,0.9581684981684981,0.09670329670329669
1.962566642992897,0.826007326007326,0.9581684981684981,0.09670329670329669
1.964799948997097,0.826007326007326,0.9581684981684981,0.09670329670329669
1.9656221100012772,0.826007326007326,0.9581684981684981,0.09670329670329669
1.9678154669963988,0.826007326007326,0.9581684981684981,0.09670329670329669
1.9685867469961522,0.826007326007326,0.9581684981684981,0.09670329670329669
1.9707170199981192,0.826007326007326,0.9581684981684981,0.09670329670329669
1.9715390310011571,1.108058608058608,1.4054212454212454,0.11846153846153845
1.9730497989949072,1.108058608058608,1.4054212454212454,0.11846153846153845
1.9773288930009585,1.108058608058608,1.4054212454212454,0.11846153846153845
1.979522461988381,1.108058608058608,1.4054212454212454,0.11846153846153845
1.9803201100003207,1.108058608058608,1.4054212454212454,0.11846153846153845
1.982461579988012,1.108058608058608,1.4054212454212454,0.11846153846153845
1.9827759959880495,1.108058608058608,1.4054212454212454,0.11846153846153845
1.9877417940006126,1.108058608058608,1.4054212454212454,0.11846153846153845
1.9919365029927576,1.108058608058608,1.4054212454212454,0.11846153846153845
1.9948609699931694,1.108058608058608,1.4054212454212454,0.11846153846153845
1.9971981859998778,1.108058608058608,1.4054212454212454,0.11846153846153845
1.997462925995933,1.108058608058608,1.4054212454212454,0.11846153846153845
2.0023813169973437,1.108058608058608,1.4054212454212454,0.11846153846153845
2.007284075996722,0.30622710622710625,0.66,0.21355311355311357
2.0073927069897763,0.30622710622710625,0.66,0.21355311355311357
2.0122866299934685,0.30622710622710625,0.66,0.21355311355311357
2.0124267319915816,0.30622710622710625,0.66,0.21355311355311357
2.0173750599933555,0.30622710622710625,0.66,0.21355311355311357
2.0174851329938974,0.30622710622710625,0.66,0.21355311355311357
2.022324552992359,0.30622710622710625,0.66,0.21355311355311357
2.022430055993027,0.09992673992673992,0.3553846153846154,0.23853479853479853
2.0277748919907026,0.09992673992673992,0.3553846153846154,0.23853479853479853
2.030006158995093,0.09992673992673992,0.3553846153846154,0.23853479853479853
2.030856565994327,0.09992673992673992,0.3553846153846154,0.23853479853479853
2.0324202869960573,0.09992673992673992,0.3553846153846154,0.23853479853479853
2.037537757001701,0.09992673992673992,0.3553846153846154,0.23853479853479853
2.0413207719975617,0.09992673992673992,0.3553846153846154,0.23853479853479853
2.0465637989982497,0.09992673992673992,0.3553846153846154,0.23853479853479853
2.0496154649881646,0.09992673992673992,0.3553846153846154,0.23853479853479853
2.051824942987878,1.1846153846153846,1.6858608058608056,0.4520879120879121
2.0526075899979332,1.1846153846153846,1.6858608058608056,0.4520879120879121
2.0548092809913214,1.1846153846153846,1.6858608058608056,0.4520879120879121
2.055596924998099,1.1846153846153846,1.6858608058608056,0.4520879120879121
2.057117781994748,1.1846153846153846,1.6858608058608056,0.4520879120879121
2.061972347990377,1.1846153846153846,1.6858608058608056,0.4520879120879121
2.0668572329886956,1.1846153846153846,1.6858608058608056,0.4520879120879121
2.0717426409973996,1.1846153846153846,1.6858608058608056,0.4520879120879121
2.0765974249952706,1.1846153846153846,1.6858608058608056,0.4520879120879121
2.0766957359883236,1.1846153846153846,1.6858608058608056,0.4520879120879121
2.080910671997117,1.1846153846153846,1.6858608058608056,0.4520879120879121
2.083811923992471,1.1846153846153846,1.6858608058608056,0.4520879120879121
2.0872640349989524,1.1846153846153846,1.6858608058608056,0.4520879120879121
2.087566631991649,1.1846153846153846,1.6858608058608056,0.4520879120879121
2.092638049987727,1.1846153846153846,1.6858608058608056,0.4520879120879121
2.096594336995622,0.3465201465201465,0.3739194139194139,0.14989010989010987
2.099791720000212,0.26673992673992675,0.1797069597069597,0.18615384615384614
2.1021422619960504,0.26673992673992675,0.1797069597069597,0.18615384615384614
2.1023599859909154,0.26673992673992675,0.1797069597069597,0.18615384615384614
2.108155462992727,0.26673992673992675,0.1797069597069597,0.18615384615384614
2.108375227995566,0.9968498168498168,1.688278388278388,0.718021978021978
2.113281856989488,0.9968498168498168,1.688278388278388,0.718021978021978
2.1177578249917133,0.9968498168498168,1.688278388278388,0.718021978021978
2.118584550989908,0.9968498168498168,1.688278388278388,0.718021978021978
2.12017719198775,0.9968498168498168,1.688278388278388,0.718021978021978
2.124640747992089,0.9968498168498168,1.688278388278388,0.718021978021978
2.124903945994447,0.9968498168498168,1.688278388278388,0.718021978021978
2.130526741995709,0.9968498168498168,1.688278388278388,0.718021978021978
2.1315410339884693,1.3659340659340657,1.830915750915751,0.4214652014652014
2.1324433659901842,1.3659340659340657,1.830915750915751,0.4214652014652014
2.133485642989399,1.3659340659340657,1.830915750915751,0.4214652014652014
2.1337965029961197,1.3659340659340657,1.830915750915751,0.4214652014652014
2.1386707490019035,1.3659340659340657,1.830915750915751,0.4214652014652014
2.144099886994809,1.3659340659340657,1.830915750915751,0.4214652014652014
2.146296961000189,1.3659340659340657,1.830915750915751,0.4214652014652014
2.1470625459915027,1.3659340659340657,1.830915750915751,0.4214652014652014
2.148574083999847,1.3659340659340657,1.830915750915751,0.4214652014652014
2.152769405001891,1.3659340659340657,1.830915750915751,0.4214652014652014
2.155610470988904,0.7035164835164834,0.7824908424908424,0.11926739926739927
2.1591301890002796,0.10476190476190475,0.18937728937728937,0.1249084249084249
2.1593767070007743,0.10476190476190475,0.18937728937728937,0.1249084249084249
2.1641917419910897,0.12329670329670328,0.3997069597069597,0.17003663003663003
2.164329526000074,0.12329670329670328,0.3997069597069597,0.17003663003663003
2.1691788219904993,0.12329670329670328,0.3997069597069597,0.17003663003663003
2.169296381995082,0.12329670329670328,0.3997069597069597,0.17003663003663003
2.174172903993167,1.1145054945054944,1.6399267399267399,0.3747252747252747
2.179100977999042,1.1145054945054944,1.6399267399267399,0.3747252747252747
2.1839745069883065,1.1145054945054944,1.6399267399267399,0.3747252747252747
2.188895834988216,1.1145054945054944,1.6399267399267399,0.3747252747252747
2.19394281199493,1.4723076923076923,2.107326007326007,0.6446886446886446
2.1992087149992585,1.4723076923076923,2.107326007326007,0.6446886446886446
2.2027411949966336,1.4723076923076923,2.107326007326007,0.6446886446886446
2.2029002499912167,1.4723076923076923,2.107326007326007,0.6446886446886446
2.20778544699715,1.4723076923076923,2.107326007326007,0.6446886446886446
2.207896805994096,1.4723076923076923,2.107326007326007,0.6446886446886446
2.2133925829984946,1.7761172161172158,2.797142857142857,0.896117216117216
2.2148429160006344,1.7761172161172158,2.797142857142857,0.896117216117216
2.2190159159945324,1.7761172161172158,2.797142857142857,0.896117216117216
2.221950465987902,0.8703296703296703,1.315970695970696,0.5012454212454212
2.224829298997065,0.8703296703296703,1.315970695970696,0.5012454212454212
2.2286001759930514,0.8703296703296703,1.315970695970696,0.5012454212454212
2.233607949994621,2.2362637362637363,3.3,0.9992673992673992
2.237848025994026,2.2362637362637363,3.3,0.9992673992673992
2.240160872999695,0.06769230769230769,0.09670329670329669,0.17003663003663003
2.2409512529993663,0.06769230769230769,0.09670329670329669,0.17003663003663003
2.243201213001157,0.06769230769230769,0.09670329670329669,0.17003663003663003
2.243469078995986,0.06769230769230769,0.09670329670329669,0.17003663003663003
2.2483686490013497,0.06769230769230769,0.09670329670329669,0.17003663003663003
2.2534742540010484,0.06769230769230769,0.09670329670329669,0.17003663003663003
2.258064541994827,0.06769230769230769,0.09670329670329669,0.17003663003663003
2.2582822639960796,0.13216117216117215,0.16358974358974357,0.2111355311355311
2.2637358349893475,0.13216117216117215,0.16358974358974357,0.2111355311355311
2.2647254159965087,0.13216117216117215,0.16358974358974357,0.2111355311355311
2.2655870119924657,0.13216117216117215,0.16358974358974357,0.2111355311355311
2.2673015789914643,0.13216117216117215,0.16358974358974357,0.2111355311355311
2.2712011309922673,0.13216117216117215,0.16358974358974357,0.2111355311355311
2.275899596992531,1.8446153846153845,2.6778754578754578,0.9347985347985347
2.2761095549940364,1.8446153846153845,2.6778754578754578,0.9347985347985347
2.2811110469920095,1.8446153846153845,2.6778754578754578,0.9347985347985347
2.2850933890003944,1.8446153846153845,2.6778754578754578,0.9347985347985347
2.288351593000698,1.8446153846153845,2.6778754578754578,0.9347985347985347
2.289243395993253,1.8446153846153845,2.6778754578754578,0.9347985347985347
2.2909310169925448,1.8446153846153845,2.6778754578754578,0.9347985347985347
2.2947056669945596,1.8446153846153845,2.6778754578754578,0.9347985347985347
2.2993796199880308,0.26593406593406593,0.4488644688644688,0.2191941391941392
2.299562595988391,0.34007326007326005,0.7083516483516483,0.32153846153846155
2.3051935139956186,0.34007326007326005,0.7083516483516483,0.32153846153846155
2.306167390997871,0.34007326007326005,0.7083516483516483,0.32153846153846155
2.307094841991784,0.34007326007326005,0.7083516483516483,0.32153846153846155
2.308847517997492,0.34007326007326005,0.7083516483516483,0.32153846153846155
2.312133923987858,0.34007326007326005,0.7083516483516483,0.32153846153846155
2.3130253459967207,0.34007326007326005,0.7083516483516483,0.32153846153846155
2.314782222994836,0.34007326007326005,0.7083516483516483,0.32153846153846155
2.3172953619941836,0.34007326007326005,0.7083516483516483,0.32153846153846155
2.317424784996547,0.34007326007326005,0.7083516483516483,0.32153846153846155
2.3229187709948746,2.6230769230769226,3.3,0.7905494505494506
2.323167640992324,0.25142857142857145,0.419047619047619,0.4391941391941392
2.3289342359930743,1.3675457875457875,2.2797802197802195,0.6471062271062271
2.3290890509961173,1.3675457875457875,2.2797802197802195,0.6471062271062271
2.3339221609930974,1.3675457875457875,2.2797802197802195,0.6471062271062271
2.3381996789976256,1.3675457875457875,2.2797802197802195,0.6471062271062271
2.3413861989974976,1.3675457875457875,2.2797802197802195,0.6471062271062271
2.3429525550018298,1.3675457875457875,2.2797802197802195,0.6471062271062271
2.3477207190007903,1.3675457875457875,2.2797802197802195,0.6471062271062271
2.352992265994544,1.3675457875457875,2.2797802197802195,0.6471062271062271
2.355311013001483,1.3675457875457875,2.2797802197802195,0.6471062271062271
2.355523987993365,1.3675457875457875,2.2797802197802195,0.6471062271062271
2.360394527000608,1.3675457875457875,2.2797802197802195,0.6471062271062271
2.365848681991338,1.3675457875457875,2.2797802197802195,0.6471062271062271
2.3673361370019848,1.3675457875457875,2.2797802197802195,0.6471062271062271
2.3715482799889287,1.3675457875457875,2.2797802197802195,0.6471062271062271
2.374336298002163,1.129010989010989,1.71003663003663,0.4561172161172161
2.377796827000566,1.129010989010989,1.71003663003663,0.4561172161172161
2.3780879029945936,1.129010989010989,1.71003663003663,0.4561172161172161
2.382913084991742,1.129010989010989,1.71003663003663,0.4561172161172161
2.387784146994818,1.5287179487179487,2.182271062271062,0.6261538461538461
2.3926851059950422,1.5287179487179487,2.182271062271062,0.6261538461538461
2.3974688239977695,1.5287179487179487,2.182271062271062,0.6261538461538461
2.3975806319940602,1.5287179487179487,2.182271062271062,0.6261538461538461
2.4024022139929,1.5287179487179487,2.182271062271062,0.6261538461538461
2.4071780209924327,1.4755311355311356,2.002564102564102,0.6769230769230768
2.4072881449974375,0.5866666666666667,0.8904761904761904,0.8727472527472527
2.4120829369931016,0.5866666666666667,0.8904761904761904,0.8727472527472527
2.412201131999609,0.5866666666666667,0.8904761904761904,0.8727472527472527
2.4170491469994886,0.5866666666666667,0.8904761904761904,0.8727472527472527
2.421857170993462,0.5866666666666667,0.8904761904761904,0.8727472527472527
2.4271123219950823,0.5866666666666667,0.8904761904761904,0.8727472527472527
2.429958661989076,0.5866666666666667,0.8904761904761904,0.8727472527472527
2.433593650988769,0.5866666666666667,0.8904761904761904,0.8727472527472527
2.433771803989657,0.5866666666666667,0.8904761904761904,0.8727472527472527
2.4385999189980794,0.1095970695970696,0.27399267399267396,0.15794871794871795
2.438721225989866,2.8164835164835162,3.3,0.8977289377289376
2.443735459994059,2.8164835164835162,3.3,0.8977289377289376
2.4472154389950447,0.0016117216117216117,0.21355311355311357,0.24095238095238095
2.4475202259927755,0.0016117216117216117,0.21355311355311357,0.24095238095238095
2.452349653991405,2.655311355311355,3.3,1.091135531135531
2.4524538139958167,1.3715750915750915,1.8937728937728935,0.5632967032967032
2.457375414989656,1.3715750915750915,1.8937728937728935,0.5632967032967032
2.462294901997666,1.3715750915750915,1.8937728937728935,0.5632967032967032
2.4671800899959635,1.3715750915750915,1.8937728937728935,0.5632967032967032
2.4713637569948332,1.3715750915750915,1.8937728937728935,0.5632967032967032
2.474187644998892,1.3715750915750915,1.8937728937728935,0.5632967032967032
2.478313599989633,0.3191208791208791,0.3932600732600733,0.1797069597069597
2.4804909369995585,0.7583150183150182,1.0967765567765566,0.5673260073260072
2.481313318989123,0.7583150183150182,1.0967765567765566,0.5673260073260072
2.4834379029925913,0.0024175824175824176,0.20146520146520144,0.1805128205128205
2.4842487159912707,0.0024175824175824176,0.20146520146520144,0.1805128205128205
2.486419398992439,0.0024175824175824176,0.20146520146520144,0.1805128205128205
2.487285865994636,0.0024175824175824176,0.20146520146520144,0.1805128205128205
2.488745520997327,0.0024175824175824176,0.20146520146520144,0.1805128205128205
2.4929060629947344,0.0024175824175824176,0.20146520146520144,0.1805128205128205
2.4963317119982094,0.6414652014652015,0.788937728937729,0.11362637362637362
2.497141802989063,0.13941391941391942,0.15311355311355312,0.14747252747252745
2.499233127993648,0.13941391941391942,0.15311355311355312,0.14747252747252745
2.5006578269967576,0.13941391941391942,0.15311355311355312,0.14747252747252745
2.504788827995071,0.13941391941391942,0.15311355311355312,0.14747252747252745
2.5075970649922965,0.13941391941391942,0.15311355311355312,0.14747252747252745
2.51174300799903,0.13941391941391942,0.15311355311355312,0.14747252747252745
2.515218686996377,0.13941391941391942,0.15311355311355312,0.14747252747252745
2.5155043229897274,0.1104029304029304,0.20227106227106226,0.166007326007326
2.5203157419891795,0.1104029304029304,0.20227106227106226,0.166007326007326
2.520530105000944,0.1104029304029304,0.20227106227106226,0.166007326007326
2.525379273996805,0.1104029304029304,0.20227106227106226,0.166007326007326
2.5304790459922515,1.4803663003663003,1.9977289377289376,0.45772893772893775
2.5340525069914293,0.30945054945054945,0.3972893772893773,0.5536263736263736
2.5343469270010246,0.30945054945054945,0.3972893772893773,0.5536263736263736
2.539128965989221,0.30945054945054945,0.3972893772893773,0.5536263736263736
2.5393028289981885,0.12168498168498168,0.19824175824175824,0.2216117216117216
2.544282156988629,0.2836630036630036,0.5721611721611721,0.28446886446886444
2.547771567988093,0.2836630036630036,0.5721611721611721,0.28446886446886444
2.548081255998113,0.2836630036630036,0.5721611721611721,0.28446886446886444
2.5529241179901874,0.2836630036630036,0.5721611721611721,0.28446886446886444
2.5530788259929977,0.2836630036630036,0.5721611721611721,0.28446886446886444
2.557873296987964,0.2836630036630036,0.5721611721611721,0.28446886446886444
2.5580782719916897,0.2836630036630036,0.5721611721611721,0.28446886446886444
2.562994144987897,0.2836630036630036,0.5721611721611721,0.28446886446886444
2.5678336129931267,0.2836630036630036,0.5721611721611721,0.28446886446886444
2.5679418299987447,0.2836630036630036,0.5721611721611721,0.28446886446886444
2.57283662998816,0.2836630036630036,0.5721611721611721,0.28446886446886444
2.572923166997498,0.2836630036630036,0.5721611721611721,0.28446886446886444
2.5777763049991336,0.2836630036630036,0.5721611721611721,0.28446886446886444
2.577947439000127,0.2836630036630036,0.5721611721611721,0.28446886446886444
2.5828120520018274,0.2836630036630036,0.5721611721611721,0.28446886446886444
2.587632611001027,0.2836630036630036,0.5721611721611721,0.28446886446886444
2.587852358992677,0.2836630036630036,0.5721611721611721,0.28446886446886444
2.5926420139876427,0.2836630036630036,0.5721611721611721,0.28446886446886444
2.592817113996716,0.2836630036630036,0.5721611721611721,0.28446886446886444
2.59763972699875,0.2836630036630036,0.5721611721611721,0.28446886446886444
2.5978412389958976,0.29413919413919415,0.4448351648351648,0.25465201465201465
2.602611476992024,0.29413919413919415,0.4448351648351648,0.25465201465201465
2.60281919100089,0.29413919413919415,0.4448351648351648,0.25465201465201465
2.6077173789963126,0.29413919413919415,0.4448351648351648,0.25465201465201465
2.6119133009924553,0.29413919413919415,0.4448351648351648,0.25465201465201465
2.614913744997466,0.29413919413919415,0.4448351648351648,0.25465201465201465
2.6178385469975183,0.29413919413919415,0.4448351648351648,0.25465201465201465
2.6213867829937954,0.29413919413919415,0.4448351648351648,0.25465201465201465
2.621677996998187,0.29413919413919415,0.4448351648351648,0.25465201465201465
2.6267687179934,0.29413919413919415,0.4448351648351648,0.25465201465201465
2.631219685994438,0.29413919413919415,0.4448351648351648,0.25465201465201465
2.6327872019901406,0.29413919413919415,0.4448351648351648,0.25465201465201465
2.636577611992834,0.29413919413919415,0.4448351648351648,0.25465201465201465
2.6418791850010166,0.29413919413919415,0.4448351648351648,0.25465201465201465
2.6456329289940186,0.29413919413919415,0.4448351648351648,0.25465201465201465
2.6509129209880484,0.29413919413919415,0.4448351648351648,0.25465201465201465
2.6539400249894243,0.29413919413919415,0.4448351648351648,0.25465201465201465
2.656843744989601,0.29413919413919415,0.4448351648351648,0.25465201465201465
2.660376460989937,0.29413919413919415,0.4448351648351648,0.25465201465201465
2.660654039995279,0.29413919413919415,0.4448351648351648,0.25465201465201465
2.66848540698993,0.29413919413919415,0.4448351648351648,0.25465201465201465
2.6755355819914257,0.3497435897435897,0.3602197802197802,0.2868864468864469
2.680165704994579,0.6148717948717949,0.8969230769230768,0.07172161172161172
2.688306024996564,0.585054945054945,0.7349450549450549,0.24336996336996336
2.695153438995476,0.585054945054945,0.7349450549450549,0.24336996336996336
2.7008902999950806,0.585054945054945,0.7349450549450549,0.24336996336996336
2.708100659001502,0.585054945054945,0.7349450549450549,0.24336996336996336
2.712989211999229,1.4819780219780219,1.9332600732600733,0.42065934065934063
2.7201947919966187,1.4819780219780219,1.9332600732600733,0.42065934065934063
2.724965050991159,1.4819780219780219,1.9332600732600733,0.42065934065934063
2.730147299997043,1.4819780219780219,1.9332600732600733,0.42065934065934063
2.733835592996911,0.3795604395604395,0.43999999999999995,0.4383882783882784
2.7390401259908685,0.3795604395604395,0.43999999999999995,0.4383882783882784
2.7429182740015676,0.3795604395604395,0.43999999999999995,0.4383882783882784
2.7496062150021316,0.3795604395604395,0.43999999999999995,0.4383882783882784
2.7541177079983754,0.5052747252747253,0.51010989010989,0.37875457875457874
2.754349573995569,0.5052747252747253,0.51010989010989,0.37875457875457874
2.762642463989323,0.5052747252747253,0.51010989010989,0.37875457875457874
2.7702220189967193,0.0846153846153846,0.22967032967032966,0.17084249084249084
2.7771256689884467,0.0846153846153846,0.22967032967032966,0.17084249084249084
2.7829955909983255,0.0846153846153846,0.22967032967032966,0.17084249084249084
2.7868398499995237,0.2917216117216117,0.4319413919413919,0.22564102564102564
2.790792264000629,0.2917216117216117,0.4319413919413919,0.22564102564102564
2.79532684199512,0.2917216117216117,0.4319413919413919,0.22564102564102564
2.795590914989589,0.2917216117216117,0.4319413919413919,0.22564102564102564
2.8011030740017304,0.2917216117216117,0.4319413919413919,0.22564102564102564
2.8026995379914297,0.2917216117216117,0.4319413919413919,0.22564102564102564
2.8065367519884603,0.2917216117216117,0.4319413919413919,0.22564102564102564
2.811919849991682,0.2917216117216117,0.4319413919413919,0.22564102564102564
2.8151286369975423,0.2917216117216117,0.4319413919413919,0.22564102564102564
2.8168602980003925,0.2917216117216117,0.4319413919413919,0.22564102564102564
2.820005585992476,0.7438095238095238,1.062930402930403,0.3755311355311355
2.8223082439944847,0.1789010989010989,0.356996336996337,0.1797069597069597
2.8225649109954247,0.1789010989010989,0.356996336996337,0.1797069597069597
2.8281487519998336,0.1789010989010989,0.356996336996337,0.1797069597069597
2.8297087289975025,0.1789010989010989,0.356996336996337,0.1797069597069597
2.8335762589995284,0.1789010989010989,0.356996336996337,0.1797069597069597
2.8389009259990416,0.1789010989010989,0.356996336996337,0.1797069597069597
2.8417432790010935,0.1789010989010989,0.356996336996337,0.1797069597069597
2.847946862995741,0.1789010989010989,0.356996336996337,0.1797069597069597
2.852030649999506,0.1789010989010989,0.356996336996337,0.1797069597069597
2.8558485260000452,1.0854945054945053,1.5593406593406591,0.1942124542124542
2.8642999889998464,1.0854945054945053,1.5593406593406591,0.1942124542124542
2.8646655619959347,1.6898901098901096,2.3458608058608057,0.4859340659340659
2.872390837990679,1.6898901098901096,2.3458608058608057,0.4859340659340659
2.880656283989083,1.6898901098901096,2.3458608058608057,0.4859340659340659
2.884687189987744,1.6898901098901096,2.3458608058608057,0.4859340659340659
2.8883740269957343,1.6898901098901096,2.3458608058608057,0.4859340659340659
2.895105279996642,1.2877655677655677,1.7535531135531135,0.3424908424908425
2.900360797997564,1.2877655677655677,1.7535531135531135,0.3424908424908425
2.9027681939915055,2.0017582417582416,2.7906959706959706,0.4819047619047619
2.9029136009921785,2.0017582417582416,2.7906959706959706,0.4819047619047619
2.908277744994848,2.0017582417582416,2.7906959706959706,0.4819047619047619
2.9128681180009153,2.0017582417582416,2.7906959706959706,0.4819047619047619
2.918082926000352,1.4384615384615385,1.872014652014652,0.42710622710622714
2.921228033999796,1.4384615384615385,1.872014652014652,0.42710622710622714
2.9237257539934944,1.4384615384615385,1.872014652014652,0.42710622710622714
2.931154986988986,1.4384615384615385,1.872014652014652,0.42710622710622714
2.9354757580003934,1.4384615384615385,1.872014652014652,0.42710622710622714
2.936403560990584,1.4384615384615385,1.872014652014652,0.42710622710622714
2.9380226869980106,1.4384615384615385,1.872014652014652,0.42710622710622714
2.942421548999846,1.4384615384615385,1.872014652014652,0.42710622710622714
2.9435346109967213,1.4384615384615385,1.872014652014652,0.42710622710622714
2.9439086810016306,1.4384615384615385,1.872014652014652,0.42710622710622714
2.949393524992047,1.4384615384615385,1.872014652014652,0.42710622710622714
2.949615316989366,1.4384615384615385,1.872014652014652,0.42710622710622714
2.9545563379942905,1.4384615384615385,1.872014652014652,0.42710622710622714
2.9603315229906,1.4384615384615385,1.872014652014652,0.42710622710622714
2.9604576629935764,0.7542857142857142,0.9726739926739927,0.40534798534798533
2.966473489999771,0.7542857142857142,0.9726739926739927,0.40534798534798533
2.971462795001571,0.0709157509157509,0.26754578754578756,0.15069597069597068
2.975518366001779,1.087106227106227,1.4287912087912087,0.18857142857142856
2.9803320209903177,1.087106227106227,1.4287912087912087,0.18857142857142856
2.983833109989064,1.087106227106227,1.4287912087912087,0.18857142857142856
2.9893635850021383,1.087106227106227,1.4287912087912087,0.18857142857142856
2.9909491969883675,2.6923809523809523,3.3,0.7147985347985348
2.9987678170000436,1.054065934065934,1.44007326007326,0.33282051282051284
3.0041539139929228,1.054065934065934,1.44007326007326,0.33282051282051284
3.005719134991523,1.054065934065934,1.44007326007326,0.33282051282051284
3.013060614001006,1.054065934065934,1.44007326007326,0.33282051282051284
3.0170584739971673,1.054065934065934,1.44007326007326,0.33282051282051284
3.0198529949993826,1.054065934065934,1.44007326007326,0.33282051282051284
3.0247248819941888,1.054065934065934,1.44007326007326,0.33282051282051284
3.033188388988492,1.054065934065934,1.44007326007326,0.33282051282051284
3.0407456300017657,2.8712820512820514,3.3,0.8848351648351648
3.0480025709985057,3.0356776556776555,3.3,0.6833699633699634
3.0540896159945987,3.0356776556776555,3.3,0.6833699633699634
3.0588704549882095,0.33684981684981685,0.3167032967032967,0.09509157509157509
3.070180303999223,2.843882783882784,3.3,0.6479120879120879
3.0798352470010286,2.843882783882784,3.3,0.6479120879120879
3.0840077119937632,0.17406593406593407,0.1418315018315018,0.14989010989010987
3.086469236994162,0.17406593406593407,0.1418315018315018,0.14989010989010987
3.0866352759912843,0.17406593406593407,0.1418315018315018,0.14989010989010987
3.09132548198977,0.17406593406593407,0.1418315018315018,0.14989010989010987
3.091604039000231,0.17406593406593407,0.1418315018315018,0.14989010989010987
3.1031062309921253,0.6148717948717949,0.6164835164835165,0.14908424908424908
3.114045472990256,0.6148717948717949,0.6164835164835165,0.14908424908424908
3.122303272000863,1.2466666666666666,1.706007326007326,0.5165567765567766
3.131237998997676,1.2466666666666666,1.706007326007326,0.5165567765567766
3.1378907789912773,1.2466666666666666,1.706007326007326,0.5165567765567766
3.143570717991679,0.26109890109890105,0.7244688644688644,0.13135531135531134
3.1437508239905583,0.17326007326007326,0.46417582417582415,0.14263736263736262
3.1497026500001084,0.17326007326007326,0.46417582417582415,0.14263736263736262
3.154303388990229,1.2055677655677655,1.747106227106227,0.3642490842490842
3.154545124998549,0.5890842490842491,0.6543589743589743,0.15956043956043955
3.159148427992477,0.5890842490842491,0.6543589743589743,0.15956043956043955
3.160334657994099,0.5890842490842491,0.6543589743589743,0.15956043956043955
3.160620573995402,0.5890842490842491,0.6543589743589743,0.15956043956043955
3.167101342987735,0.5890842490842491,0.6543589743589743,0.15956043956043955
3.172899361990858,0.5890842490842491,0.6543589743589743,0.15956043956043955
3.1798002529976657,0.5890842490842491,0.6543589743589743,0.15956043956043955
3.1834197269927245,0.5890842490842491,0.6543589743589743,0.15956043956043955
3.183577156989486,0.5890842490842491,0.6543589743589743,0.15956043956043955
3.1883848259894876,0.5890842490842491,0.6543589743589743,0.15956043956043955
3.1885653639910743,1.4658608058608058,1.9848351648351645,0.49076923076923074
3.19498068599205,1.4658608058608058,1.9848351648351645,0.49076923076923074
3.1988143749913434,1.4658608058608058,1.9848351648351645,0.49076923076923074
3.2028063489997294,1.4658608058608058,1.9848351648351645,0.49076923076923074
3.2066479659988545,1.569010989010989,2.291062271062271,0.48432234432234433
3.215545019993442,1.569010989010989,2.291062271062271,0.48432234432234433
3.2219995359919267,1.569010989010989,2.291062271062271,0.48432234432234433
3.228139580998686,1.569010989010989,2.291062271062271,0.48432234432234433
3.2344644400000107,1.569010989010989,2.291062271062271,0.48432234432234433
3.2386000939877704,1.569010989010989,2.291062271062271,0.48432234432234433
3.2403719699941576,1.569010989010989,2.291062271062271,0.48432234432234433
3.245640682987869,1.569010989010989,2.291062271062271,0.48432234432234433
3.2483978949894663,1.569010989010989,2.291062271062271,0.48432234432234433
3.2545791629963787,1.569010989010989,2.291062271062271,0.48432234432234433
3.2604758289962774,0.11523809523809524,0.224029304029304,0.22967032967032966
3.2662051410006825,0.11523809523809524,0.224029304029304,0.22967032967032966
3.2748344499996165,0.08139194139194139,0.38681318681318677,0.2224175824175824
3.2816544069937663,0.08139194139194139,0.38681318681318677,0.2224175824175824
3.2856047059904085,0.08139194139194139,0.38681318681318677,0.2224175824175824
3.2894444209960056,1.4223443223443224,2.17018315018315,0.6350183150183151
3.29730620799819,1.4223443223443224,2.17018315018315,0.6350183150183151
3.300792451002053,1.4223443223443224,2.17018315018315,0.6350183150183151
3.300946553994436,0.43113553113553116,0.7389743589743589,0.4319413919413919
3.3083747560012853,0.43113553113553116,0.7389743589743589,0.4319413919413919
3.3145493289921433,0.43113553113553116,0.7389743589743589,0.4319413919413919
3.3184643119893735,0.21597069597069596,0.2683516483516483,0.20146520146520144
3.3224160300014773,0.21597069597069596,0.2683516483516483,0.20146520146520144
3.3294079449988203,0.21597069597069596,0.2683516483516483,0.20146520146520144
3.3347305779898306,1.427985347985348,1.7906227106227104,0.5173626373626373
3.33561818698945,1.427985347985348,1.7906227106227104,0.5173626373626373
3.336611874998198,1.427985347985348,1.7906227106227104,0.5173626373626373
3.3375524439907167,1.427985347985348,1.7906227106227104,0.5173626373626373
3.339161622992833,1.427985347985348,1.7906227106227104,0.5173626373626373
3.344497471000068,0.43758241758241756,0.7196336996336996,0.24659340659340656
3.346407053992152,0.43758241758241756,0.7196336996336996,0.24659340659340656
3.3494218150008237,0.43758241758241756,0.7196336996336996,0.24659340659340656
3.350476367995725,1.2853479853479852,1.735018315018315,0.5383150183150183
3.350814071993227,1.2853479853479852,1.735018315018315,0.5383150183150183
3.355540052987635,1.2853479853479852,1.735018315018315,0.5383150183150183
3.35574140099925,1.2853479853479852,1.735018315018315,0.5383150183150183
3.3619801029999508,1.2853479853479852,1.735018315018315,0.5383150183150183
3.3669293799903244,1.9413186813186813,3.295164835164835,0.9162637362637363
3.3701399650017265,1.9413186813186813,3.295164835164835,0.9162637362637363
3.371751755999867,1.9413186813186813,3.295164835164835,0.9162637362637363
3.375950951987761,1.9413186813186813,3.295164835164835,0.9162637362637363
3.377952563998406,0.3529670329670329,0.29736263736263735,0.26673992673992675
3.3808356129884487,0.3529670329670329,0.29736263736263735,0.26673992673992675
3.3848781029955717,0.3529670329670329,0.29736263736263735,0.26673992673992675
3.3883871699945303,0.3529670329670329,0.29736263736263735,0.26673992673992675
3.3972884899994824,0.3529670329670329,0.29736263736263735,0.26673992673992675
3.4023810689977836,0.3529670329670329,0.29736263736263735,0.26673992673992675
3.406234238995239,0.3529670329670329,0.29736263736263735,0.26673992673992675
3.4139394699886907,0.3529670329670329,0.29736263736263735,0.26673992673992675
3.418754419995821,0.3529670329670329,0.29736263736263735,0.26673992673992675
3.423308625991922,1.2885714285714285,1.759194139194139,0.6777289377289377
3.4243205599923385,1.2885714285714285,1.759194139194139,0.6777289377289377
3.425362049994874,1.2885714285714285,1.759194139194139,0.6777289377289377
3.426891571987653,1.2885714285714285,1.759194139194139,0.6777289377289377
3.4330863619979937,1.2885714285714285,1.759194139194139,0.6777289377289377
3.4376727189956,1.2885714285714285,1.759194139194139,0.6777289377289377
3.4440792120003607,0.03142857142857143,0.06769230769230769,0.28849816849816845
3.448025655990932,0.21194139194139192,0.49802197802197795,0.2868864468864469
3.4514058969944017,0.3997069597069597,0.5632967032967032,0.5665201465201465
3.4517195009975694,0.3997069597069597,0.5632967032967032,0.5665201465201465
3.457299282992608,0.3997069597069597,0.5632967032967032,0.5665201465201465
3.4581806560017867,0.0,0.5842490842490843,0.2506227106227106
3.4609602419950534,0.0,0.5842490842490843,0.2506227106227106
3.46424989499792,0.0,0.5842490842490843,0.2506227106227106
3.464455701992847,0.0,0.5842490842490843,0.2506227106227106
3.4698093039914966,0.0,0.5842490842490843,0.2506227106227106
3.4720898359955754,0.0,0.5842490842490843,0.2506227106227106
3.4723266849905485,0.0,0.5842490842490843,0.2506227106227106
3.4795775989914546,0.4287179487179487,0.4819047619047619,0.1821245421245421
3.484005637001246,0.4287179487179487,0.4819047619047619,0.1821245421245421
3.484926513992832,0.4287179487179487,0.4819047619047619,0.1821245421245421
3.486600826989161,0.4287179487179487,0.4819047619047619,0.1821245421245421
3.490552992996527,0.4287179487179487,0.4819047619047619,0.1821245421245421
3.4977698259899626,0.4287179487179487,0.4819047619047619,0.1821245421245421
3.5030916709947633,0.4287179487179487,0.4819047619047619,0.1821245421245421
3.504662830993766,0.4287179487179487,0.4819047619047619,0.1821245421245421
3.50853000699135,0.4287179487179487,0.4819047619047619,0.1821245421245421
3.5153124569915235,0.4287179487179487,0.4819047619047619,0.1821245421245421
3.5191604889987502,0.4287179487179487,0.4819047619047619,0.1821245421245421
3.5233944909996353,0.4287179487179487,0.4819047619047619,0.1821245421245421
3.526175498991506,0.4287179487179487,0.4819047619047619,0.1821245421245421
3.5317452989984304,1.4013919413919413,1.854285714285714,0.4085714285714286
3.5318636979936855,1.4013919413919413,1.854285714285714,0.4085714285714286
3.5365702790004434,1.4013919413919413,1.854285714285714,0.4085714285714286
3.5368115409946768,0.36666666666666664,0.365054945054945,0.18454212454212454
3.541520884988131,0.36666666666666664,0.365054945054945,0.18454212454212454
3.5417266379954526,0.36666666666666664,0.365054945054945,0.18454212454212454
3.550967731993296,0.36666666666666664,0.365054945054945,0.18454212454212454
3.5565505949925864,0.36666666666666664,0.365054945054945,0.18454212454212454
3.5568310099915834,0.03062271062271062,0.06366300366300366,0.20388278388278389
3.56527126400033,0.03062271062271062,0.06366300366300366,0.20388278388278389
3.569905675991322,1.6407326007326006,2.0613919413919413,0.42065934065934063
3.5701360009989003,0.726080586080586,0.8002197802197801,0.5487912087912087
3.576107086992124,0.726080586080586,0.8002197802197801,0.5487912087912087
3.583292208990315,0.726080586080586,0.8002197802197801,0.5487912087912087
3.587123776989756,0.726080586080586,0.8002197802197801,0.5487912087912087
3.5917043139925227,0.726080586080586,0.8002197802197801,0.5487912087912087
3.5920617149968166,0.726080586080586,0.8002197802197801,0.5487912087912087
3.599948752002092,0.726080586080586,0.8002197802197801,0.5487912087912087
3.6047313479939476,0.23531135531135527,0.39809523809523806,0.15875457875457877
3.6131566379917786,0.23531135531135527,0.39809523809523806,0.15875457875457877
3.617327205996844,1.211208791208791,1.477142857142857,0.28205128205128205
3.619704251992516,1.211208791208791,1.477142857142857,0.28205128205128205
3.6198357039975235,1.211208791208791,1.477142857142857,0.28205128205128205
3.625376664000214,1.211208791208791,1.477142857142857,0.28205128205128205
3.628376484994078,1.211208791208791,1.477142857142857,0.28205128205128205
3.629850377998082,1.211208791208791,1.477142857142857,0.28205128205128205
3.636896590993274,1.211208791208791,1.477142857142857,0.28205128205128205
3.6431736319937045,1.211208791208791,1.477142857142857,0.28205128205128205
3.6470480909920298,1.211208791208791,1.477142857142857,0.28205128205128205
3.6502735069952905,1.211208791208791,1.477142857142857,0.28205128205128205
3.6505781699961517,1.211208791208791,1.477142857142857,0.28205128205128205
3.6554654789943015,1.211208791208791,1.477142857142857,0.28205128205128205
3.6640124949917663,1.211208791208791,1.477142857142857,0.28205128205128205
3.6705676470010076,1.211208791208791,1.477142857142857,0.28205128205128205
3.677561150994734,1.211208791208791,1.477142857142857,0.28205128205128205
3.682260800997028,0.1797069597069597,0.3183150183150183,0.09509157509157509
3.687739917993895,1.4013919413919413,2.0533333333333332,0.2506227106227106
3.689355953989434,1.4013919413919413,2.0533333333333332,0.2506227106227106
3.695958814001642,1.4013919413919413,2.0533333333333332,0.2506227106227106
3.6996123059943784,1.4013919413919413,2.0533333333333332,0.2506227106227106
3.7067818959912984,1.4013919413919413,2.0533333333333332,0.2506227106227106
3.713813485999708,1.4013919413919413,2.0533333333333332,0.2506227106227106
3.7171133299998473,1.4013919413919413,2.0533333333333332,0.2506227106227106
3.718028687988408,0.1249084249084249,0.2095238095238095,0.11604395604395604
3.719664741991437,0.1249084249084249,0.2095238095238095,0.11604395604395604
3.7237204459961504,0.1249084249084249,0.2095238095238095,0.11604395604395604
3.732065383999725,0.1249084249084249,0.2095238095238095,0.11604395604395604
3.736579445991083,0.1249084249084249,0.2095238095238095,0.11604395604395604
3.7367853229952743,0.1249084249084249,0.2095238095238095,0.11604395604395604
3.7452744530019118,0.1249084249084249,0.2095238095238095,0.11604395604395604
3.7521328369912226,0.30542124542124544,0.8526007326007327,0.1095970695970696
3.757145714989747,0.30542124542124544,0.8526007326007327,0.1095970695970696
3.760451738999109,0.30542124542124544,0.8526007326007327,0.1095970695970696
3.7606224749906687,0.4085714285714286,0.506080586080586,0.10153846153846154
3.7667882249952527,0.4085714285714286,0.506080586080586,0.10153846153846154
3.7705963389889803,0.4085714285714286,0.506080586080586,0.10153846153846154
3.77069196299999,0.4085714285714286,0.506080586080586,0.10153846153846154
3.777956362988334,0.4085714285714286,0.506080586080586,0.10153846153846154
3.782175043001189,0.4085714285714286,0.506080586080586,0.10153846153846154
3.7831303509883583,0.05963369963369963,0.36666666666666664,0.12893772893772892
3.7847803499898873,0.05963369963369963,0.36666666666666664,0.12893772893772892
3.788185667988728,0.05963369963369963,0.36666666666666664,0.12893772893772892
3.7890725689940155,0.05963369963369963,0.36666666666666664,0.12893772893772892
3.7906420119979884,0.05963369963369963,0.36666666666666664,0.12893772893772892
3.7965971079975134,0.05963369963369963,0.36666666666666664,0.12893772893772892
3.801906469001551,0.05963369963369963,0.36666666666666664,0.12893772893772892
3.803585720001138,0.07736263736263736,0.3432967032967033,0.13296703296703297
3.8074056359910173,1.1967032967032967,1.7704761904761903,0.2562637362637363
3.8184626459988067,1.1967032967032967,1.7704761904761903,0.2562637362637363
3.8262011729966616,0.29010989010989013,0.27238095238095233,0.18534798534798536
3.8329406150005525,0.29010989010989013,0.27238095238095233,0.18534798534798536
3.8385137189907255,0.29010989010989013,0.27238095238095233,0.18534798534798536
3.8387135499942815,0.32556776556776557,0.3553846153846154,0.17245421245421244
3.8464543110021623,0.32556776556776557,0.3553846153846154,0.17245421245421244
3.851009368998348,0.32556776556776557,0.3553846153846154,0.17245421245421244
3.8513115989917424,0.32556776556776557,0.3553846153846154,0.17245421245421244
3.8573380859888857,0.32556776556776557,0.3553846153846154,0.17245421245421244
3.8658911359962076,0.32556776556776557,0.3553846153846154,0.17245421245421244
3.86995254199428,0.0,0.41018315018315016,0.17567765567765567
3.8733284609916154,0.0,0.41018315018315016,0.17567765567765567
3.874132090990315,0.0,0.41018315018315016,0.17567765567765567
3.8767595519893803,0.0,0.41018315018315016,0.17567765567765567
3.882627810991835,0.0,0.41018315018315016,0.17567765567765567
3.8867457379965344,1.4175091575091574,1.7382417582417582,0.3876190476190476
3.8891959749889793,0.307032967032967,0.4504761904761904,0.44080586080586076
3.889392870987649,0.307032967032967,0.4504761904761904,0.44080586080586076
3.898991838999791,0.307032967032967,0.4504761904761904,0.44080586080586076
3.904114507997292,0.7325274725274724,0.8219780219780219,0.09831501831501832
3.9082104949920904,0.7325274725274724,0.8219780219780219,0.09831501831501832
3.912430038995808,0.7325274725274724,0.8219780219780219,0.09831501831501832
3.9142659429926425,0.7325274725274724,0.8219780219780219,0.09831501831501832
3.917367951988126,0.7325274725274724,0.8219780219780219,0.09831501831501832
3.9189939849893562,0.7325274725274724,0.8219780219780219,0.09831501831501832
3.922855452998192,0.7325274725274724,0.8219780219780219,0.09831501831501832
3.927591264990042,0.025787545787545788,0.28527472527472525,0.1692307692307692
3.934926497997367,0.3779487179487179,0.5536263736263736,0.4722344322344322
3.9403138409979874,0.8356776556776556,0.7768498168498168,0.10315018315018315
3.942105994996382,2.565054945054945,3.3,0.6938461538461538
3.9457289409911027,2.565054945054945,3.3,0.6938461538461538
3.9506674379954347,2.565054945054945,3.3,0.6938461538461538
3.954542687992216,0.8808058608058608,1.087106227106227,0.195018315018315
3.959217755997088,0.8808058608058608,1.087106227106227,0.195018315018315
3.9602438469883054,0.8808058608058608,1.087106227106227,0.195018315018315
3.960483356990153,0.8808058608058608,1.087106227106227,0.195018315018315
3.965661623995402,0.8808058608058608,1.087106227106227,0.195018315018315
3.968793118998292,0.8808058608058608,1.087106227106227,0.195018315018315
3.970522596995579,2.2999267399267396,3.3,0.9259340659340659
3.9745398789964383,1.0903296703296703,1.224102564102564,0.1772893772893773
3.9801651919988217,0.2377289377289377,0.19018315018315018,0.1829304029304029
3.980419859988615,0.2377289377289377,0.19018315018315018,0.1829304029304029
3.988868675995036,0.2377289377289377,0.19018315018315018,0.1829304029304029
3.9963215099996887,0.2377289377289377,0.19018315018315018,0.1829304029304029
3.9999741169885965,0.22564102564102564,0.3449084249084249,0.25868131868131866
4.000097747994005,0.22564102564102564,0.3449084249084249,0.25868131868131866
4.0056249009940075,0.22564102564102564,0.3449084249084249,0.25868131868131866
4.007188165996922,0.22564102564102564,0.3449084249084249,0.25868131868131866
4.014412646996789,0.4545054945054945,0.5544322344322344,0.7204395604395604
4.01827908398991,0.4545054945054945,0.4786813186813187,0.1418315018315018
4.022379036992788,0.4545054945054945,0.4786813186813187,0.1418315018315018
4.02486637099355,0.4545054945054945,0.4786813186813187,0.1418315018315018
4.024996922002174,0.4545054945054945,0.4786813186813187,0.1418315018315018
4.031764632993145,0.4545054945054945,0.4786813186813187,0.1418315018315018
4.0358996220020344,1.1008058608058606,1.4255677655677657,0.26673992673992675
4.039014121997752,1.1008058608058606,1.4255677655677657,0.26673992673992675
4.0409325739892665,0.30864468864468864,0.6511355311355311,0.27238095238095233
4.044466170002124,0.30864468864468864,0.6511355311355311,0.27238095238095233
4.051233334990684,0.30864468864468864,0.6511355311355311,0.27238095238095233
4.0556907360005425,0.30864468864468864,0.6511355311355311,0.27238095238095233
4.056599190997076,0.07252747252747253,0.23208791208791207,0.2095238095238095
4.057536127991625,0.07252747252747253,0.23208791208791207,0.2095238095238095
4.059519749993342,0.07252747252747253,0.23208791208791207,0.2095238095238095
4.06186108799011,0.43355311355311354,0.6841758241758242,0.2909157509157509
4.068414234992815,0.43355311355311354,0.6841758241758242,0.2909157509157509
4.072435465990566,0.43355311355311354,0.6841758241758242,0.2909157509157509
4.07571199699305,0.13457875457875457,0.1926007326007326,0.18534798534798536
4.077428952994524,0.13457875457875457,0.1926007326007326,0.18534798534798536
4.081852776987944,0.13457875457875457,0.1926007326007326,0.18534798534798536
4.082019901994499,0.13457875457875457,0.1926007326007326,0.18534798534798536
4.0876824259903515,0.13457875457875457,0.1926007326007326,0.18534798534798536
4.087871650990564,0.13457875457875457,0.1926007326007326,0.18534798534798536
4.094201277999673,0.13457875457875457,0.1926007326007326,0.18534798534798536
4.099922637993586,0.13457875457875457,0.1926007326007326,0.18534798534798536
4.105634831998032,0.13457875457875457,0.1926007326007326,0.18534798534798536
4.117134554995573,0.13457875457875457,0.1926007326007326,0.18534798534798536
4.1230882160016336,0.13457875457875457,0.1926007326007326,0.18534798534798536
4.133287438991829,0.13457875457875457,0.1926007326007326,0.18534798534798536
4.141525459999684,0.13457875457875457,0.1926007326007326,0.18534798534798536
4.148202415992273,0.004835164835164835,0.15311355311355312,0.16842490842490843
4.152807156991912,0.004835164835164835,0.15311355311355312,0.16842490842490843
4.161588702991139,1.1499633699633698,1.527106227106227,0.14505494505494507
4.167473939989577,1.1499633699633698,1.527106227106227,0.14505494505494507
4.172743503993843,1.1499633699633698,1.527106227106227,0.14505494505494507
4.17597798499628,1.1499633699633698,1.527106227106227,0.14505494505494507
4.176270026990096,1.1499633699633698,1.527106227106227,0.14505494505494507
4.186653986995225,1.1499633699633698,1.527106227106227,0.14505494505494507
4.19455356898834,1.1499633699633698,1.527106227106227,0.14505494505494507
4.198918853988289,1.1499633699633698,1.527106227106227,0.14505494505494507
4.1998399019939825,0.40776556776556777,0.6825641025641025,0.2079120879120879
4.200787190988194,0.40776556776556777,0.6825641025641025,0.2079120879120879
4.2016996089951135,0.40776556776556777,0.6825641025641025,0.2079120879120879
4.203334726989851,0.40776556776556777,0.6825641025641025,0.2079120879120879
4.207125510991318,0.40776556776556777,0.6825641025641025,0.2079120879120879
4.21661003898771,0.40776556776556777,0.6825641025641025,0.2079120879120879
4.222261527989758,0.40776556776556777,0.6825641025641025,0.2079120879120879
4.222436693991767,0.40776556776556777,0.6825641025641025,0.2079120879120879
4.230836859991541,0.40776556776556777,0.6825641025641025,0.2079120879120879
4.2354663309961325,0.6648351648351648,1.0443956043956042,0.11362637362637362
4.235713246001978,0.6648351648351648,1.0443956043956042,0.11362637362637362
4.24050136799633,0.6648351648351648,1.0443956043956042,0.11362637362637362
4.240609008993488,2.7455677655677655,3.3,0.6301831501831501
4.247310316000949,2.7455677655677655,3.3,0.6301831501831501
4.250516530999448,2.7455677655677655,3.3,0.6301831501831501
4.25148310798977,0.9791208791208791,1.4578021978021978,0.15311355311355312
4.253063999989536,0.9791208791208791,1.4578021978021978,0.15311355311355312
4.256934919001651,0.9791208791208791,1.4578021978021978,0.15311355311355312
4.264595842993003,0.9791208791208791,1.4578021978021978,0.15311355311355312
4.26858080799866,0.9791208791208791,1.4578021978021978,0.15311355311355312
4.27244811799028,0.9791208791208791,1.4578021978021978,0.15311355311355312
4.280137485999148,0.9791208791208791,1.4578021978021978,0.15311355311355312
4.284152651991462,0.5641025641025641,0.8429304029304028,0.3223443223443223
4.288009623996913,1.6076923076923075,2.2596336996336994,0.27076923076923076
4.296588143988629,1.6076923076923075,2.2596336996336994,0.27076923076923076
4.302731436997419,1.6076923076923075,2.2596336996336994,0.27076923076923076
4.308801141989534,1.6076923076923075,2.2596336996336994,0.27076923076923076
4.313701905994094,1.6076923076923075,2.2596336996336994,0.27076923076923076
4.317791570996633,0.42710622710622714,0.46417582417582415,0.06205128205128205
4.32018200699531,0.6745054945054945,0.0,1.7422710622710622
4.3204075419926085,0.6745054945054945,0.0,1.7422710622710622
4.329297614996904,0.6745054945054945,0.0,1.7422710622710622
4.336588525999105,0.6745054945054945,0.0,1.7422710622710622
4.339791309990687,0.6745054945054945,0.0,1.7422710622710622
4.341561700988677,0.6745054945054945,0.0,1.7422710622710622
4.347391393996077,0.6745054945054945,0.0,1.7422710622710622
4.355385918999673,0.6745054945054945,0.0,1.7422710622710622
4.363171521996264,0.6745054945054945,0.0,1.7422710622710622
4.36735428099928,0.6745054945054945,0.0,1.7422710622710622
4.3705079649953404,0.6745054945054945,0.0,1.7422710622710622
4.372073407997959,0.6745054945054945,0.0,1.7422710622710622
4.376605309997103,0.6745054945054945,0.0,1.7422710622710622
4.376842298996053,0.0,0.0,0.25868131868131866
4.383149569999659,0.0,0.0,0.25868131868131866
4.388018004989135,0.0,0.0,0.19340659340659339
4.398278772001504,0.0,0.0,0.19340659340659339
4.4088798409939045,0.0,0.0,0.19340659340659339
4.416834328992991,0.0,0.0,0.19340659340659339
4.422283792999224,0.365054945054945,0.0,0.166007326007326
4.42351533100009,0.365054945054945,0.0,0.166007326007326
4.433377869994729,0.365054945054945,0.0,0.166007326007326
4.439067214989336,1.5496703296703296,2.5682783882783884,0.43999999999999995
4.439292562994524,1.5496703296703296,2.5682783882783884,0.43999999999999995
4.445927535998635,0.3972893772893773,2.573919413919414,0.18534798534798536
4.449601342988899,0.3972893772893773,2.573919413919414,0.18534798534798536
4.455236466994393,0.3972893772893773,2.573919413919414,0.18534798534798536
4.456187603995204,0.5890842490842491,2.5827838827838825,0.10315018315018315
4.4571083189948695,0.05882783882783882,2.5763369963369964,0.2111355311355311
4.458298924990231,0.05882783882783882,2.5763369963369964,0.2111355311355311
4.458863521998865,2.1202197802197804,2.5634432234432234,0.37150183150183147
4.464557703991886,2.1202197802197804,2.5634432234432234,0.37150183150183147
4.46945491299266,2.1202197802197804,2.5634432234432234,0.37150183150183147
4.474314041988691,2.1202197802197804,2.5634432234432234,0.37150183150183147
4.48190284500015,0.7865201465201466,3.3,0.13296703296703297
4.486107176999212,0.7865201465201466,3.3,0.13296703296703297
4.48945125300088,0.7865201465201466,3.3,0.13296703296703297
4.489772811997682,0.7865201465201466,3.3,0.13296703296703297
4.4989018329943065,0.7865201465201466,3.3,0.13296703296703297
4.503966135991504,0.7865201465201466,3.3,0.13296703296703297
4.508912473989767,1.6093040293040293,1.726959706959707,0.29736263736263735
4.518706998991547,2.9309157509157506,2.548937728937729,0.7607326007326007
4.527292819999275,0.21274725274725276,0.929157509157509,0.15633699633699633
4.533064620991354,1.2926007326007325,1.6012454212454212,0.40695970695970696
4.533179349993588,1.2926007326007325,1.6012454212454212,0.40695970695970696
4.537770954993903,1.2926007326007325,1.6012454212454212,0.40695970695970696
4.538159663992701,1.2926007326007325,1.6012454212454212,0.40695970695970696
4.547569533999194,1.2926007326007325,1.6012454212454212,0.40695970695970696
4.553484383999603,1.2926007326007325,1.6012454212454212,0.40695970695970696
4.559347534988774,0.46498168498168496,0.5745787545787545,0.1829304029304029
4.566146227996796,0.46498168498168496,0.5745787545787545,0.1829304029304029
4.570066564992885,0.3884249084249084,0.622124542124542,0.4037362637362637
4.575194822988124,1.5077655677655677,1.6318681318681318,0.3384615384615384
4.580532365987892,1.5077655677655677,1.6318681318681318,0.3384615384615384
4.580732533999253,1.5077655677655677,1.6318681318681318,0.3384615384615384
4.585465749987634,1.5077655677655677,1.6318681318681318,0.3384615384615384
4.585735931992531,1.5077655677655677,1.6318681318681318,0.3384615384615384
4.590401171997655,1.5077655677655677,1.6318681318681318,0.3384615384615384
4.590624780001235,0.751062271062271,1.0186080586080586,0.1265201465201465
4.598751683995943,0.751062271062271,1.0186080586080586,0.1265201465201465
4.603042821996496,0.3892307692307692,0.18615384615384614,0.1829304029304029
4.605435491990647,0.3892307692307692,0.18615384615384614,0.1829304029304029
4.605637036002008,0.3892307692307692,0.18615384615384614,0.1829304029304029
4.611350378996576,0.3892307692307692,0.18615384615384614,0.1829304029304029
4.6124863409932,0.3892307692307692,0.18615384615384614,0.1829304029304029
4.6127208349935245,0.3892307692307692,0.18615384615384614,0.1829304029304029
4.6198697819927474,0.3892307692307692,0.18615384615384614,0.1829304029304029
4.626526609994471,0.3892307692307692,0.18615384615384614,0.1829304029304029
4.633266778997495,0.3892307692307692,0.18615384615384614,0.1829304029304029
4.638912251990405,2.0621978021978022,2.942197802197802,0.6632234432234432
4.6440153299918165,0.22564102564102564,0.523003663003663,0.15794871794871795
4.6490407480014255,0.22564102564102564,0.523003663003663,0.15794871794871795
4.652402065999922,1.3933333333333333,1.8744322344322342,0.2957509157509157
4.652783797995653,1.3933333333333333,1.8744322344322342,0.2957509157509157
4.660255851995316,1.3933333333333333,1.8744322344322342,0.2957509157509157
4.665958397992654,1.3933333333333333,1.8744322344322342,0.2957509157509157
4.6726536649948684,1.3933333333333333,1.8744322344322342,0.2957509157509157
4.6788319509942085,0.8098901098901098,0.8445421245421244,0.2095238095238095
4.682466863989248,0.012893772893772894,0.18615384615384614,0.3223443223443223
4.687104218988679,0.0,0.6148717948717949,0.303003663003663
4.687431739992462,2.374871794871795,3.3,1.2410256410256408
4.693112362991087,2.374871794871795,3.3,1.2410256410256408
4.6933902710006805,2.374871794871795,3.3,1.2410256410256408
4.700038052993477,2.374871794871795,3.3,1.2410256410256408
4.703813232990797,2.0476923076923077,3.3,0.8429304029304028
4.71233840099012,2.0476923076923077,3.3,0.8429304029304028
4.720573016995331,2.0476923076923077,3.3,0.8429304029304028
4.729826579001383,2.0476923076923077,3.3,0.8429304029304028
4.737258569992264,2.0476923076923077,3.3,0.8429304029304028
4.741958963000798,2.0476923076923077,3.3,0.8429304029304028
4.751172450996819,2.0476923076923077,3.3,0.8429304029304028
4.758196194990887,0.9098168498168498,0.0,0.5141391941391941
4.765548115989077,3.0936996336996336,0.0,0.8163369963369963
4.77058314999158,0.6922344322344323,0.0,0.4778754578754579
4.7741688059904845,0.6922344322344323,0.0,0.4778754578754579
4.781681649998063,0.6922344322344323,0.0,0.4778754578754579
4.789570308988914,0.0,0.0,0.3167032967032967
4.797287804991356,0.0,0.0,0.3167032967032967
4.8031398369930685,0.0,0.0,0.3167032967032967
4.810765741000068,0.0,0.0,0.3167032967032967
4.816683197001112,0.0,0.0,0.3167032967032967
4.819902727991575,2.1089377289377285,0.0,0.5544322344322344
4.82183675399574,0.6567765567765567,0.0,0.23853479853479853
4.8237115039955825,0.03142857142857143,0.0,0.21597069597069596
4.827454315993236,0.03142857142857143,0.0,0.21597069597069596
4.836608396988595,0.03142857142857143,0.0,0.21597069597069596
4.846182121997117,0.03142857142857143,0.0,0.21597069597069596
4.850439506000839,0.03142857142857143,0.0,0.21597069597069596
4.853122676999192,0.03142857142857143,0.0,0.21597069597069596
4.8575799469981575,0.03142857142857143,0.0,0.21597069597069596
4.857678107990068,0.03142857142857143,0.0,0.21597069597069596
4.865039443000569,0.03142857142857143,0.0,0.21597069597069596
4.869700636001653,0.03142857142857143,0.0,0.21597069597069596
4.869832837997819,1.514212454212454,0.0,0.6003663003663003
4.874715343990829,1.514212454212454,0.0,0.6003663003663003
4.881560622990946,1.514212454212454,0.0,0.6003663003663003
4.885753826994915,1.514212454212454,0.0,0.6003663003663003
4.8881953389936825,0.36827838827838827,0.0,0.4827106227106227
4.8883271669910755,0.36827838827838827,0.0,0.4827106227106227
4.894648556000902,0.36827838827838827,0.0,0.4827106227106227
4.89791485099704,0.36827838827838827,0.0,0.4827106227106227
4.8988311079883715,0.36827838827838827,0.0,0.4827106227106227
4.90051531798963,0.36827838827838827,0.0,0.4827106227106227
4.903549743001349,0.25868131868131866,0.0,0.1789010989010989
4.90574915499019,0.25868131868131866,0.0,0.1789010989010989
4.905981244999566,0.25868131868131866,0.0,0.1789010989010989
4.913786384000559,0.25868131868131866,0.0,0.1789010989010989
4.9184676189906895,0.25868131868131866,0.0,0.1789010989010989
4.918646132995491,0.25868131868131866,0.0,0.1789010989010989
4.923359854001319,0.25868131868131866,0.0,0.1789010989010989
4.9235315839905525,0.25868131868131866,0.0,0.1789010989010989
4.930545080991578,0.25868131868131866,0.0,0.1789010989010989
4.934946367997327,0.25868131868131866,0.0,0.1789010989010989
4.935905912992894,0.25868131868131866,0.0,0.1789010989010989
4.9368922599969665,0.25868131868131866,0.0,0.1789010989010989
4.9371927909960505,0.25868131868131866,0.0,0.1789010989010989
4.943344009996508,0.25868131868131866,0.0,0.1789010989010989
4.9470773590001045,0.25868131868131866,0.0,0.1789010989010989
4.952045003999956,0.25868131868131866,0.0,0.1789010989010989
4.956592410992016,0.25868131868131866,0.0,0.1789010989010989
4.956797905993881,0.25868131868131866,0.0,0.1789010989010989
4.963366967989714,0.25868131868131866,0.0,0.1789010989010989
4.966502293988015,0.2506227106227106,2.577948717948718,0.21516483516483517
4.968224564989214,0.5842490842490843,2.5803663003663004,0.6769230769230768
4.971365563993459,0.5842490842490843,2.5803663003663004,0.6769230769230768
4.9732705899950815,1.0661538461538462,2.577948717948718,0.4931868131868131
4.977952152999933,1.0661538461538462,2.577948717948718,0.4931868131868131
4.982628100988222,0.3489377289377289,2.573919413919414,0.24578754578754577
4.982727858994622,0.012893772893772894,2.5747252747252745,0.22886446886446887
4.98734249798872,0.012893772893772894,2.5747252747252745,0.22886446886446887
4.988237300989567,0.36747252747252745,2.577948717948718,0.6624175824175824
4.9898741979995975,0.36747252747252745,2.577948717948718,0.6624175824175824
4.995862796000438,0.36747252747252745,2.577948717948718,0.6624175824175824
5.000710672000423,0.36747252747252745,2.577948717948718,0.6624175824175824
5.006033248995664,0.36747252747252745,2.577948717948718,0.6624175824175824
5.008950574992923,0.36747252747252745,2.577948717948718,0.6624175824175824
5.012699466999038,0.36747252747252745,2.577948717948718,0.6624175824175824
5.016232611989835,0.36747252747252745,2.577948717948718,0.6624175824175824
5.016390327000408,0.4045421245421245,1.8889377289377287,0.2063003663003663
5.02231526900141,0.4045421245421245,1.8889377289377287,0.2063003663003663
5.0224680050014285,0.4045421245421245,1.8889377289377287,0.2063003663003663
5.027774004993262,1.6318681318681318,1.872014652014652,0.7115750915750916
5.030260757994256,1.6318681318681318,1.872014652014652,0.7115750915750916
5.035634227999253,1.6318681318681318,1.872014652014652,0.7115750915750916
5.037960524001392,0.23531135531135527,1.3296703296703296,0.28527472527472525
5.038229279991356,0.23531135531135527,1.3296703296703296,0.28527472527472525
5.043751922989031,0.23531135531135527,1.3296703296703296,0.28527472527472525
5.044167401996674,0.6954578754578754,0.9082051282051282,0.6326007326007326
5.0489630899974145,0.6954578754578754,0.9082051282051282,0.6326007326007326
5.054930542988586,0.6954578754578754,0.9082051282051282,0.6326007326007326
5.059974201998557,0.6954578754578754,0.9082051282051282,0.6326007326007326
5.064846221997868,0.6954578754578754,0.9082051282051282,0.6326007326007326
5.064956217989675,0.6954578754578754,0.9082051282051282,0.6326007326007326
5.070675480994396,0.3191208791208791,0.5383150183150183,0.8711355311355311
5.0708230339951115,0.3191208791208791,0.5383150183150183,0.8711355311355311
5.076290284996503,0.3191208791208791,0.5383150183150183,0.8711355311355311
5.078739835997112,0.3191208791208791,0.5383150183150183,0.8711355311355311
5.084158657991793,0.3191208791208791,0.5383150183150183,0.8711355311355311
5.087131323001813,0.3191208791208791,0.5383150183150183,0.8711355311355311
5.088882020994788,2.3893772893772893,3.3,1.4175091575091574
5.0930855959886685,2.3893772893772893,3.3,1.4175091575091574
5.094877336989157,2.3893772893772893,3.3,1.4175091575091574
5.097774534995551,2.3893772893772893,3.3,1.4175091575091574
5.100141466988134,2.3893772893772893,3.3,1.4175091575091574
5.100348494990612,2.3893772893772893,3.3,1.4175091575091574
5.105309681996005,2.3893772893772893,3.3,1.4175091575091574
5.111796773999231,2.3893772893772893,3.3,1.4175091575091574
5.115474538994022,2.3893772893772893,3.3,1.4175091575091574
5.121027299988782,2.3893772893772893,3.3,1.4175091575091574
5.121913682000013,0.0,0.4794871794871795,0.224029304029304
5.123467004988925,0.0,0.4794871794871795,0.224029304029304
5.129655644996092,0.0,0.4794871794871795,0.224029304029304
5.132764631998725,0.0,0.4794871794871795,0.224029304029304
5.135268421989167,0.0,0.4794871794871795,0.224029304029304
5.140829362993827,0.0,0.4794871794871795,0.224029304029304
5.1411819310014835,0.0,0.4794871794871795,0.224029304029304
5.145961959991837,0.0,0.4794871794871795,0.224029304029304
5.150988640991272,0.0,0.4794871794871795,0.224029304029304
5.155241590997321,1.4207326007326007,1.6665201465201465,0.7430036630036629
5.157408496001153,0.0,0.303003663003663,0.11443223443223444
5.157672410990926,0.0,0.303003663003663,0.11443223443223444
5.162616699992213,0.0,0.303003663003663,0.11443223443223444
5.167648980001104,0.15633699633699633,0.4383882783882784,0.2087179487179487
5.171929003990954,0.15633699633699633,0.4383882783882784,0.2087179487179487
5.174118800001452,0.15633699633699633,0.4383882783882784,0.2087179487179487
5.17499390199373,0.11523809523809524,0.07736263736263736,0.10717948717948718
5.1771131189889275,0.11523809523809524,0.07736263736263736,0.10717948717948718
5.17792820998875,2.3893772893772893,3.2903296703296703,0.7832967032967032
5.179530948997126,2.3893772893772893,3.2903296703296703,0.7832967032967032
5.183161647000816,0.13054945054945052,0.70996336996337,0.2224175824175824
5.183405839998159,0.13054945054945052,0.70996336996337,0.2224175824175824
5.188335241997265,0.13054945054945052,0.70996336996337,0.2224175824175824
5.188427868997678,0.13054945054945052,0.70996336996337,0.2224175824175824
5.1946450349933,0.13054945054945052,0.70996336996337,0.2224175824175824
5.198746280992054,0.13054945054945052,0.70996336996337,0.2224175824175824
5.20181856698764,0.39003663003663,0.8791941391941391,0.4287179487179487
5.204108278994681,0.21032967032967032,0.3932600732600733,0.166007326007326
5.204311044988572,0.21032967032967032,0.3932600732600733,0.166007326007326
5.209747625995078,0.21032967032967032,0.3932600732600733,0.166007326007326
5.21060137799941,0.21032967032967032,0.3932600732600733,0.166007326007326
5.2122880759998225,0.21032967032967032,0.3932600732600733,0.166007326007326
5.216060557999299,0.21032967032967032,0.3932600732600733,0.166007326007326
5.22143813999719,0.21032967032967032,0.3932600732600733,0.166007326007326
5.2244874559983145,0.21032967032967032,0.3932600732600733,0.166007326007326
5.226841240990325,0.21032967032967032,0.3932600732600733,0.166007326007326
5.2270884689933155,0.21032967032967032,0.3932600732600733,0.166007326007326
5.2324324429937406,0.21032967032967032,0.3932600732600733,0.166007326007326
5.234119417989859,0.21032967032967032,0.3932600732600733,0.166007326007326
5.238154403996305,0.21032967032967032,0.3932600732600733,0.166007326007326
5.242586952997954,0.21032967032967032,0.3932600732600733,0.166007326007326
5.243435575990588,0.21032967032967032,0.3932600732600733,0.166007326007326
5.245061257999623,0.21032967032967032,0.3932600732600733,0.166007326007326
5.248820626991801,0.21032967032967032,0.3932600732600733,0.166007326007326
5.254101779995835,0.21032967032967032,0.3932600732600733,0.166007326007326
5.257796563993907,0.21032967032967032,0.3932600732600733,0.166007326007326
5.262256264992175,0.21032967032967032,0.3932600732600733,0.166007326007326
5.262579879999976,1.4046153846153846,2.0114285714285716,0.7978021978021977
5.267120029995567,1.4046153846153846,2.0114285714285716,0.7978021978021977
5.268033029991784,1.4046153846153846,2.0114285714285716,0.7978021978021977
5.269595413992647,1.4046153846153846,2.0114285714285716,0.7978021978021977
5.27338242699625,1.4046153846153846,2.0114285714285716,0.7978021978021977
5.278661063988693,1.4046153846153846,2.0114285714285716,0.7978021978021977
5.280930046996218,0.34087912087912087,0.630989010989011,0.18857142857142856
5.281144526001299,0.34087912087912087,0.630989010989011,0.18857142857142856
5.286436700000195,0.34087912087912087,0.630989010989011,0.18857142857142856
5.28892078899662,0.34087912087912087,0.630989010989011,0.18857142857142856
5.298651313991286,0.34087912087912087,0.630989010989011,0.18857142857142856
5.3040585209964775,0.34087912087912087,0.630989010989011,0.18857142857142856
5.30720202899829,0.0410989010989011,0.23208791208791207,0.15633699633699633
5.308115900988923,0.0410989010989011,0.23208791208791207,0.15633699633699633
5.310422166992794,0.0410989010989011,0.23208791208791207,0.15633699633699633
5.310604742990108,1.1789743589743589,1.4610256410256408,0.6414652014652015
5.315301556998747,1.1789743589743589,1.4610256410256408,0.6414652014652015
5.315605967989541,1.1789743589743589,1.4610256410256408,0.6414652014652015
5.320485821997863,1.1789743589743589,1.4610256410256408,0.6414652014652015
5.325814586001798,1.1789743589743589,1.4610256410256408,0.6414652014652015
5.3281554369896185,1.1789743589743589,1.4610256410256408,0.6414652014652015
5.328350530995522,1.1789743589743589,1.4610256410256408,0.6414652014652015
5.333051503999741,1.1789743589743589,1.4610256410256408,0.6414652014652015
5.3332644359907135,1.1789743589743589,1.4610256410256408,0.6414652014652015
5.338552053988678,1.1789743589743589,1.4610256410256408,0.6414652014652015
5.340867351987981,1.7616117216117215,2.4989743589743587,0.5294505494505495
5.341110495995963,1.7616117216117215,2.4989743589743587,0.5294505494505495
5.347439855991979,1.7616117216117215,2.4989743589743587,0.5294505494505495
5.351428025998757,1.7616117216117215,2.4989743589743587,0.5294505494505495
5.354508813994471,1.7616117216117215,2.4989743589743587,0.5294505494505495
5.356876840000041,1.7616117216117215,2.4989743589743587,0.5294505494505495
5.366323606998776,1.7616117216117215,2.4989743589743587,0.5294505494505495
5.3732977399922675,2.690769230769231,3.3,0.8808058608058608
5.38118731699069,2.690769230769231,3.3,0.8808058608058608
5.385826116995304,2.690769230769231,3.3,0.8808058608058608
5.385990195994964,2.690769230769231,3.3,0.8808058608058608
5.391858527989825,2.690769230769231,3.3,0.8808058608058608
5.3919736449897755,2.690769230769231,3.3,0.8808058608058608
5.3982521269936115,2.690769230769231,3.3,0.8808058608058608
5.402175997995073,0.06527472527472526,0.4593406593406593,0.1958241758241758
5.407637701995554,0.06527472527472526,0.4593406593406593,0.1958241758241758
5.40793086499616,0.06527472527472526,0.4593406593406593,0.1958241758241758
5.415840692992788,0.06527472527472526,0.4593406593406593,0.1958241758241758
5.4207388590002665,0.06527472527472526,0.4593406593406593,0.1958241758241758
5.420824471992091,0.06527472527472526,0.4593406593406593,0.1958241758241758
5.4252183259959565,0.0,0.18615384615384614,0.12893772893772892
5.429310066989274,0.8993406593406592,1.116923076923077,0.5705494505494505
5.431020930991508,0.8993406593406592,1.116923076923077,0.5705494505494505
5.434861748988624,0.8993406593406592,1.116923076923077,0.5705494505494505
5.43878585199127,0.8993406593406592,1.116923076923077,0.5705494505494505
5.444311608996941,0.8993406593406592,1.116923076923077,0.5705494505494505
5.445224697992671,0.8993406593406592,1.116923076923077,0.5705494505494505
5.446189989001141,0.3432967032967033,0.33684981684981685,0.311062271062271
5.447087252992787,0.3432967032967033,0.33684981684981685,0.311062271062271
5.448667453994858,0.3432967032967033,0.33684981684981685,0.311062271062271
5.453297966989339,0.3432967032967033,0.33684981684981685,0.311062271062271
5.453512939988286,0.3432967032967033,0.33684981684981685,0.311062271062271
5.45901179399516,0.3432967032967033,0.33684981684981685,0.311062271062271
5.462735720997443,0.3432967032967033,0.33684981684981685,0.311062271062271
5.466273551995982,0.3432967032967033,0.33684981684981685,0.311062271062271
5.471830657988903,2.1508424908424906,3.3,0.9404395604395603
5.472709533001762,1.1443223443223443,1.556117216117216,0.8219780219780219
5.47375847499643,1.1443223443223443,1.556117216117216,0.8219780219780219
5.474905891998787,1.1443223443223443,1.556117216117216,0.8219780219780219
5.475341154990019,1.1443223443223443,1.556117216117216,0.8219780219780219
5.483182771000429,1.1443223443223443,1.556117216117216,0.8219780219780219
5.489699849989847,1.1443223443223443,1.556117216117216,0.8219780219780219
5.496075203991495,1.1443223443223443,1.556117216117216,0.8219780219780219
5.499212991999229,0.09831501831501832,0.5246153846153846,0.22564102564102564
5.502269578995765,2.6698168498168497,3.3,0.6261538461538461
5.505010401990148,2.6698168498168497,3.3,0.6261538461538461
5.509708193989354,2.6698168498168497,3.3,0.6261538461538461
5.516696070000762,2.6698168498168497,3.3,0.6261538461538461
5.52129915599653,2.6698168498168497,3.3,0.6261538461538461
5.522125541989226,2.6698168498168497,3.3,0.6261538461538461
5.523797848989489,2.6698168498168497,3.3,0.6261538461538461
5.530614693998359,2.6698168498168497,3.3,0.6261538461538461
5.53479947798769,2.6698168498168497,3.3,0.6261538461538461
5.537333096988732,2.6698168498168497,3.3,0.6261538461538461
5.544367158989189,2.6698168498168497,3.3,0.6261538461538461
5.548043178991065,1.4465201465201465,1.7736996336996336,0.9227106227106227
5.553526876989054,1.4465201465201465,1.7736996336996336,0.9227106227106227
5.554542557991226,1.4465201465201465,1.7736996336996336,0.9227106227106227
5.5553966899897205,1.4465201465201465,1.7736996336996336,0.9227106227106227
5.558317334987805,1.4465201465201465,1.7736996336996336,0.9227106227106227
5.5636382379889255,1.4465201465201465,1.7736996336996336,0.9227106227106227
5.563853225990897,1.4465201465201465,1.7736996336996336,0.9227106227106227
5.569685810987721,1.4465201465201465,1.7736996336996336,0.9227106227106227
5.576196246998734,1.3038827838827838,1.464249084249084,0.7647619047619048
5.580172276997473,1.3038827838827838,1.464249084249084,0.7647619047619048
5.58318034200056,0.43597069597069593,0.4835164835164835,0.2715750915750916
5.586204908991931,0.43597069597069593,0.4835164835164835,0.2715750915750916
5.587880696999491,0.48754578754578753,0.4432234432234432,0.47706959706959706
5.5927686389914015,0.48754578754578753,0.4432234432234432,0.47706959706959706
5.600310631998582,0.48754578754578753,0.4432234432234432,0.47706959706959706
5.604867948000901,0.48754578754578753,0.4432234432234432,0.47706959706959706
5.605087270989316,0.48754578754578753,0.4432234432234432,0.47706959706959706
5.612606067996239,0.48754578754578753,0.4432234432234432,0.47706959706959706
5.616557144996477,0.48754578754578753,0.4432234432234432,0.47706959706959706
5.620505068989587,0.48754578754578753,0.4432234432234432,0.47706959706959706
5.625742851989344,0.11362637362637362,0.21838827838827837,0.20146520146520144
5.629212036001263,0.28285714285714286,0.24578754578754577,0.5133333333333333
5.635544121993007,0.28285714285714286,0.24578754578754577,0.5133333333333333
5.639965751994168,0.28285714285714286,0.24578754578754577,0.5133333333333333
5.641059805988334,0.28285714285714286,0.24578754578754577,0.5133333333333333
5.64142916900164,0.28285714285714286,0.24578754578754577,0.5133333333333333
5.64859867899213,0.28285714285714286,0.24578754578754577,0.5133333333333333
5.6533521169913,0.28285714285714286,0.24578754578754577,0.5133333333333333
5.653595586001757,0.28285714285714286,0.24578754578754577,0.5133333333333333
5.661219884001184,0.28285714285714286,0.24578754578754577,0.5133333333333333
5.665920625993749,1.4529670329670328,2.237069597069597,0.917069597069597
5.671406317997025,1.4529670329670328,2.237069597069597,0.917069597069597
5.673045766001451,1.4529670329670328,2.237069597069597,0.917069597069597
5.681629753991729,1.4529670329670328,2.237069597069597,0.917069597069597
5.687834195996402,1.4529670329670328,2.237069597069597,0.917069597069597
5.69106042299245,1.4529670329670328,2.237069597069597,0.917069597069597
5.694049465993885,1.4529670329670328,2.237069597069597,0.917069597069597
5.695973748996039,0.04351648351648352,0.4504761904761904,0.3892307692307692
5.697724222991383,0.04351648351648352,0.4504761904761904,0.3892307692307692
5.7007323219877435,0.04351648351648352,0.4504761904761904,0.3892307692307692
5.704025344995898,0.28769230769230764,0.5173626373626373,0.3287912087912088
5.705227521000779,0.28769230769230764,0.5173626373626373,0.3287912087912088
5.705504280995228,0.28769230769230764,0.5173626373626373,0.3287912087912088
5.711747182998806,0.28769230769230764,0.5173626373626373,0.3287912087912088
5.715293449000455,0.28769230769230764,0.5173626373626373,0.3287912087912088
5.715537899988703,0.16197802197802197,0.28205128205128205,0.3932600732600733
5.720889030999388,0.16197802197802197,0.28205128205128205,0.3932600732600733
5.723349522988428,0.22967032967032966,0.7599267399267399,0.5778021978021978
5.723597172996961,1.5327472527472528,2.2040293040293037,1.0476190476190474
5.72994725999888,1.5327472527472528,2.2040293040293037,1.0476190476190474
5.733137500996236,1.1612454212454213,1.4884249084249084,0.9887912087912087
5.734718539999449,1.1612454212454213,1.4884249084249084,0.9887912087912087
5.738525723994826,1.1612454212454213,1.4884249084249084,0.9887912087912087
5.744920892990194,1.1983150183150182,1.701978021978022,0.7873260073260073
5.748351029993501,0.31186813186813184,0.36747252747252745,0.7188278388278388
5.748656587995356,0.31186813186813184,0.36747252747252745,0.7188278388278388
5.7536621679901145,0.31186813186813184,0.36747252747252745,0.7188278388278388
5.760436993994517,0.31186813186813184,0.36747252747252745,0.7188278388278388
5.764454075993854,0.27238095238095233,0.2917216117216117,0.5608791208791208
5.766997373997583,0.27238095238095233,0.2917216117216117,0.5608791208791208
5.772347217993229,0.27238095238095233,0.2917216117216117,0.5608791208791208
5.776200212989352,0.27238095238095233,0.2917216117216117,0.5608791208791208
5.781977439997718,0.27238095238095233,0.2917216117216117,0.5608791208791208
5.782086572988192,0.016117216117216115,0.1958241758241758,0.2868864468864469
5.78783198299061,1.378021978021978,1.9703296703296702,0.6696703296703297
5.787959622000926,1.378021978021978,1.9703296703296702,0.6696703296703297
5.795264856991707,1.378021978021978,1.9703296703296702,0.6696703296703297
5.799276389996521,0.6301831501831501,0.2917216117216117,0.3706959706959707
5.803254750993801,2.6037362637362635,3.3,1.1878388278388277
5.806751047988655,2.6037362637362635,3.3,1.1878388278388277
5.807108202992822,2.6037362637362635,3.3,1.1878388278388277
5.815325970994309,2.6037362637362635,3.3,1.1878388278388277
5.819941802998073,0.9428571428571427,1.216849816849817,0.5012454212454212
5.82026998999936,0.9428571428571427,1.216849816849817,0.5012454212454212
5.826332718992489,0.9428571428571427,1.216849816849817,0.5012454212454212
5.832113161988673,0.26754578754578756,0.4287179487179487,0.5358974358974359
5.8415890829928685,0.26754578754578756,0.4287179487179487,0.5358974358974359
5.84923291800078,0.26754578754578756,0.4287179487179487,0.5358974358974359
5.853908004995901,0.913040293040293,1.3707692307692307,0.45369963369963373
5.854151146995719,0.913040293040293,1.3707692307692307,0.45369963369963373
5.861303746001795,0.913040293040293,1.3707692307692307,0.45369963369963373
5.864971734001301,0.913040293040293,1.3707692307692307,0.45369963369963373
5.87043014599476,0.913040293040293,1.3707692307692307,0.45369963369963373
5.87200337399554,0.913040293040293,1.3707692307692307,0.45369963369963373
5.879795478002052,0.913040293040293,1.3707692307692307,0.45369963369963373
5.8838247370003955,2.8197069597069593,3.3,0.9750915750915751
5.887311150989262,2.8197069597069593,3.3,0.9750915750915751
5.88752813199244,2.8197069597069593,3.3,0.9750915750915751
5.893190516988398,2.8197069597069593,3.3,0.9750915750915751
5.893466872992576,2.8197069597069593,3.3,0.9750915750915751
5.901195111000561,2.8197069597069593,3.3,0.9750915750915751
5.908363786991686,2.8197069597069593,3.3,0.9750915750915751
5.914438389998395,2.8197069597069593,3.3,0.9750915750915751
5.917559770998196,2.8197069597069593,3.3,0.9750915750915751
5.919201611992321,2.8197069597069593,3.3,0.9750915750915751
5.923062961999676,2.8197069597069593,3.3,0.9750915750915751
5.932533214989235,1.274871794871795,2.1226373626373625,0.6495238095238095
5.938682929001516,2.5150915750915748,3.3,1.124981684981685
5.94675455999095,0.1668131868131868,0.5133333333333333,0.26915750915750913
5.951445868995506,0.1668131868131868,0.5133333333333333,0.26915750915750913
5.960451645994908,0.1668131868131868,0.5133333333333333,0.26915750915750913
5.967516616001376,0.1668131868131868,0.5133333333333333,0.26915750915750913
5.972201151002082,1.3353113553113554,2.189523809523809,0.8574358974358974
5.979771360987797,0.26996336996336995,0.32476190476190475,0.18373626373626373
5.984549364991835,0.26996336996336995,0.32476190476190475,0.18373626373626373
5.984720712993294,0.26996336996336995,0.32476190476190475,0.18373626373626373
5.989704091989552,0.26996336996336995,0.32476190476190475,0.18373626373626373
5.996145418001106,0.26996336996336995,0.32476190476190475,0.18373626373626373
5.9992419089976465,0.0,0.17487179487179486,0.19985347985347984
6.001499776990386,0.0,0.17487179487179486,0.19985347985347984
6.001683241993305,0.0,0.17487179487179486,0.19985347985347984
6.007344569996349,1.1781684981684981,2.0581684981684982,0.8066666666666666
6.00777062799898,1.1781684981684981,2.0581684981684982,0.8066666666666666
6.013309916990693,1.1781684981684981,2.0581684981684982,0.8066666666666666
6.013534765996155,1.1781684981684981,2.0581684981684982,0.8066666666666666
6.018530069995904,1.1781684981684981,2.0581684981684982,0.8066666666666666
6.022416346997488,1.1781684981684981,2.0581684981684982,0.8066666666666666
6.030723195988685,1.4304029304029304,1.9977289377289376,1.286959706959707
6.037972960999468,0.4279120879120879,0.4754578754578754,0.5689377289377289
6.0446318769973,0.0,0.10637362637362638,0.4754578754578754
6.04797761599184,0.0,0.10637362637362638,0.4754578754578754
6.048803899990162,0.0,0.10637362637362638,0.4754578754578754
6.050430652991054,0.0,0.10637362637362638,0.4754578754578754
6.054293449997203,0.0,0.10637362637362638,0.4754578754578754
6.059280025001499,0.0,0.10637362637362638,0.4754578754578754
6.063222618991858,0.0,0.10637362637362638,0.4754578754578754
6.067092330995365,1.3482051282051282,1.6689377289377287,1.3022710622710623
6.072028604990919,0.46014652014652013,0.3167032967032967,0.5068864468864469
6.079064388992265,0.3908424908424908,0.21838827838827837,0.5286446886446886
