time,emg1,emg2,emg3
0.01738072099396959,1.4803663003663003,0.585054945054945,1.8115750915750917
0.017830858007073402,1.8704029304029302,0.5254212454212454,1.5714285714285712
0.025516465000691824,1.8704029304029302,0.5254212454212454,1.5714285714285712
0.03145024100376759,1.8704029304029302,0.5254212454212454,1.5714285714285712
0.03844300800119527,1.8704029304029302,0.5254212454212454,1.5714285714285712
0.042624192996299826,1.8704029304029302,0.5254212454212454,1.5714285714285712
0.045615388997248374,1.8704029304029302,0.5254212454212454,1.5714285714285712
0.047624215003452264,1.8704029304029302,0.5254212454212454,1.5714285714285712
0.04953267400560435,1.8704029304029302,0.5254212454212454,1.5714285714285712
0.05152685599750839,1.8704029304029302,0.5254212454212454,1.5714285714285712
0.05352758499793708,0.8558241758241758,0.17648351648351646,0.43435897435897436
0.05541546099993866,0.8558241758241758,0.17648351648351646,0.43435897435897436
0.05730621599650476,0.8558241758241758,0.17648351648351646,0.43435897435897436
0.06000190900522284,0.8558241758241758,0.17648351648351646,0.43435897435897436
0.06528633899870329,0.8558241758241758,0.17648351648351646,0.43435897435897436
0.06797701900359243,0.8558241758241758,0.17648351648351646,0.43435897435897436
0.07269153800734784,1.8832967032967032,0.5584615384615385,1.842197802197802
0.07902377699792851,1.8832967032967032,0.5584615384615385,1.842197802197802
0.08351984500768594,1.8832967032967032,0.5584615384615385,1.842197802197802
0.08376850100466982,1.8832967032967032,0.5584615384615385,1.842197802197802
0.09005667999736033,1.8832967032967032,0.5584615384615385,1.842197802197802
0.09428147099970374,1.9526007326007324,0.6156776556776556,1.7857875457875456
0.09677093700156547,1.9526007326007324,0.6156776556776556,1.7857875457875456
0.10237419500481337,1.9526007326007324,0.6156776556776556,1.7857875457875456
0.10327498300466686,1.9526007326007324,0.6156776556776556,1.7857875457875456
0.10485803900519386,3.3,1.5867399267399267,1.382051282051282
0.10869108900078572,2.141978021978022,0.8735531135531135,2.278974358974359
0.11568659699696582,2.141978021978022,0.8735531135531135,2.278974358974359
0.12004935600270983,3.3,1.606080586080586,1.1894505494505494
0.12041547099943273,3.3,1.606080586080586,1.1894505494505494
0.12960872300027404,3.3,1.606080586080586,1.1894505494505494
0.13877080600650515,3.3,1.606080586080586,1.1894505494505494
0.14606607099995017,3.3,1.606080586080586,1.1894505494505494
0.15337783099676017,3.3,1.606080586080586,1.1894505494505494
0.1603062969952589,3.3,1.606080586080586,1.1894505494505494
0.16609292900830042,0.0,0.1523076923076923,0.5504029304029303
0.17475449599442072,1.735018315018315,0.8268131868131867,1.514212454212454
0.18031156099459622,1.735018315018315,0.8268131868131867,1.514212454212454
0.18056485800480004,1.735018315018315,0.8268131868131867,1.514212454212454
0.18722373800119385,1.735018315018315,0.8268131868131867,1.514212454212454
0.1918656310008373,2.22981684981685,0.73010989010989,2.1306959706959705
0.19745454100484494,2.22981684981685,0.73010989010989,2.1306959706959705
0.19865655900503043,2.22981684981685,0.73010989010989,2.1306959706959705
0.19889663900539745,1.858315018315018,0.6293772893772893,1.8526739926739926
0.20944904400676023,1.858315018315018,0.6293772893772893,1.8526739926739926
0.2180907090078108,1.858315018315018,0.6293772893772893,1.8526739926739926
0.2241374459990766,1.858315018315018,0.6293772893772893,1.8526739926739926
0.22838985800626688,1.858315018315018,0.6293772893772893,1.8526739926739926
0.22940135700628161,1.846227106227106,0.5117216117216117,1.4908424908424909
0.23031232399807777,1.846227106227106,0.5117216117216117,1.4908424908424909
0.23186131700640544,1.846227106227106,0.5117216117216117,1.4908424908424909
0.23739122900587972,1.846227106227106,0.5117216117216117,1.4908424908424909
0.23763679699914064,1.846227106227106,0.5117216117216117,1.4908424908424909
0.24220002999936696,1.846227106227106,0.5117216117216117,1.4908424908424909
0.2430629470036365,1.846227106227106,0.5117216117216117,1.4908424908424909
0.24469425099960063,1.846227106227106,0.5117216117216117,1.4908424908424909
0.24932306600385346,1.846227106227106,0.5117216117216117,1.4908424908424909
0.2495455260068411,1.846227106227106,0.5117216117216117,1.4908424908424909
0.2563430519949179,1.846227106227106,0.5117216117216117,1.4908424908424909
0.26092816100572236,0.6438827838827839,0.25787545787545785,0.6342124542124542
0.2611440229957225,0.016923076923076923,0.15311355311355312,0.5753846153846153
0.27060471900040284,0.016923076923076923,0.15311355311355312,0.5753846153846153
0.2770551200082991,0.016923076923076923,0.15311355311355312,0.5753846153846153
0.2817409459967166,0.0,0.10717948717948718,0.5383150183150183
0.2899575210030889,0.0,0.10717948717948718,0.5383150183150183
0.29401423600211274,0.0,0.10717948717948718,0.5383150183150183
0.2971009140019305,0.0,0.10717948717948718,0.5383150183150183
0.2986900039977627,0.0,0.10717948717948718,0.5383150183150183
0.3044796180038247,0.0,0.10717948717948718,0.5383150183150183
0.3098846030043205,0.0,0.10717948717948718,0.5383150183150183
0.3118305679963669,2.344249084249084,0.7655677655677655,2.473186813186813
0.31348974400316365,2.344249084249084,0.7655677655677655,2.473186813186813
0.3178224650037009,2.344249084249084,0.7655677655677655,2.473186813186813
0.3210655879956903,2.344249084249084,0.7655677655677655,2.473186813186813
0.3213840020034695,2.713333333333333,0.8147252747252747,2.776190476190476
0.3291039049945539,2.713333333333333,0.8147252747252747,2.776190476190476
0.3345028280018596,2.713333333333333,0.8147252747252747,2.776190476190476
0.33873166200646665,2.713333333333333,0.8147252747252747,2.776190476190476
0.344850020002923,1.8776556776556774,0.7325274725274724,2.0090109890109886
0.34891496700583957,1.8776556776556774,0.7325274725274724,2.0090109890109886
0.35562324900820386,1.8776556776556774,0.7325274725274724,2.0090109890109886
0.3591651409951737,1.2845421245421245,0.32717948717948714,1.248278388278388
0.3593358950020047,1.2845421245421245,0.32717948717948714,1.248278388278388
0.3644582190026995,1.2845421245421245,0.32717948717948714,1.248278388278388
0.37118640799599234,1.2845421245421245,0.32717948717948714,1.248278388278388
0.3748000100022182,1.2845421245421245,0.32717948717948714,1.248278388278388
0.3749314620072255,1.2845421245421245,0.32717948717948714,1.248278388278388
0.3800116420025006,1.2845421245421245,0.32717948717948714,1.248278388278388
0.3832723450032063,1.2845421245421245,0.32717948717948714,1.248278388278388
0.38457413599826396,1.2845421245421245,0.32717948717948714,1.248278388278388
0.3848488660005387,1.2845421245421245,0.32717948717948714,1.248278388278388
0.390832749006222,1.2845421245421245,0.32717948717948714,1.248278388278388
0.39417730999412015,1.2845421245421245,0.32717948717948714,1.248278388278388
0.3945095100061735,1.2845421245421245,0.32717948717948714,1.248278388278388
0.39953981900180224,1.2845421245421245,0.32717948717948714,1.248278388278388
0.40486884000711143,0.1386080586080586,0.2224175824175824,0.45369963369963373
0.4062934480025433,0.1386080586080586,0.2224175824175824,0.45369963369963373
0.41213391500059515,0.1386080586080586,0.2224175824175824,0.45369963369963373
0.41848663000564557,1.3723809523809525,0.30058608058608055,1.2531135531135529
0.4223921280063223,1.3723809523809525,0.30058608058608055,1.2531135531135529
0.42574938100005966,2.5030036630036627,1.1048351648351646,0.9484981684981684
0.4267088619963033,2.5030036630036627,1.1048351648351646,0.9484981684981684
0.42774662500596605,2.5030036630036627,1.1048351648351646,0.9484981684981684
0.42816958400362637,2.5030036630036627,1.1048351648351646,0.9484981684981684
0.4327912660082802,2.5030036630036627,1.1048351648351646,0.9484981684981684
0.43307197200192604,2.5030036630036627,1.1048351648351646,0.9484981684981684
0.44078313700447325,3.3,1.7463003663003662,1.0315018315018314
0.445020294006099,3.3,1.7463003663003662,1.0315018315018314
0.4476135550066829,3.3,1.7463003663003662,1.0315018315018314
0.45351668499642983,3.3,1.7463003663003662,1.0315018315018314
0.4593170110019855,0.7204395604395604,0.20468864468864467,0.4553113553113553
0.4649675679975189,0.7204395604395604,0.20468864468864467,0.4553113553113553
0.4652143590064952,1.3893040293040293,0.4142124542124542,1.1999267399267397
0.47200660899397917,1.3893040293040293,0.4142124542124542,1.1999267399267397
0.47560444299597293,1.7648351648351648,0.5028571428571429,1.6810256410256408
0.48146115300187375,1.7648351648351648,0.5028571428571429,1.6810256410256408
0.4815788790001534,1.7648351648351648,0.5028571428571429,1.6810256410256408
0.4886301140068099,1.7648351648351648,0.5028571428571429,1.6810256410256408
0.49214712099637836,1.7648351648351648,0.5028571428571429,1.6810256410256408
0.4923443680017954,1.0016849816849815,0.29413919413919415,0.6213186813186813
0.4972029390046373,1.0016849816849815,0.29413919413919415,0.6213186813186813
0.49731712699576747,1.0016849816849815,0.29413919413919415,0.6213186813186813
0.506235185006517,1.0016849816849815,0.29413919413919415,0.6213186813186813
0.5126189029979287,1.2023443223443222,0.4931868131868131,1.3925274725274726
0.5166579619981349,1.145128205128205,0.3739194139194139,0.7841025641025641
0.5216583519941196,1.145128205128205,0.3739194139194139,0.7841025641025641
0.5252272869984154,1.145128205128205,0.3739194139194139,0.7841025641025641
0.5253452530014329,1.145128205128205,0.3739194139194139,0.7841025641025641
0.5302524819999235,1.145128205128205,0.3739194139194139,0.7841025641025641
0.537794648000272,1.145128205128205,0.3739194139194139,0.7841025641025641
0.5418989739991957,1.145128205128205,0.3739194139194139,0.7841025641025641
0.5444189660047414,1.145128205128205,0.3739194139194139,0.7841025641025641
0.5445225419971393,1.145128205128205,0.3739194139194139,0.7841025641025641
0.5500477250025142,1.145128205128205,0.3739194139194139,0.7841025641025641
0.5512214250047691,1.145128205128205,0.3739194139194139,0.7841025641025641
0.5516314139968017,1.145128205128205,0.3739194139194139,0.7841025641025641
0.5560220379993552,1.145128205128205,0.3739194139194139,0.7841025641025641
0.5569828169973334,1.145128205128205,0.3739194139194139,0.7841025641025641
0.55790633399738,1.145128205128205,0.3739194139194139,0.7841025641025641
0.5588553020061227,1.145128205128205,0.3739194139194139,0.7841025641025641
0.5605282229953445,1.145128205128205,0.3739194139194139,0.7841025641025641
0.5638063950027572,2.5505494505494504,0.6084249084249085,2.452234432234432
0.5654471960006049,2.5505494505494504,0.6084249084249085,2.452234432234432
0.5699261690024287,2.5505494505494504,0.6084249084249085,2.452234432234432
0.5702094150037738,2.5505494505494504,0.6084249084249085,2.452234432234432
0.5756662060011877,2.5505494505494504,0.6084249084249085,2.452234432234432
0.5760867290082388,2.5505494505494504,0.6084249084249085,2.452234432234432
0.5801652450027177,2.5505494505494504,0.6084249084249085,2.452234432234432
0.5832934619975276,2.5505494505494504,0.6084249084249085,2.452234432234432
0.5878351540013682,2.5505494505494504,0.6084249084249085,2.452234432234432
0.5943436070083408,2.036410256410256,0.8082783882783882,2.0887912087912084
0.5983056410041172,2.036410256410256,0.8082783882783882,2.0887912087912084
0.6042914599966025,0.2836630036630036,0.32717948717948714,0.23934065934065935
0.6095101100072498,0.2836630036630036,0.32717948717948714,0.23934065934065935
0.612202710006386,0.2836630036630036,0.32717948717948714,0.23934065934065935
0.6185759979998693,1.1580219780219778,0.24095238095238095,1.066959706959707
0.6229759749985533,1.1580219780219778,0.24095238095238095,1.066959706959707
0.624003488002927,1.1580219780219778,0.24095238095238095,1.066959706959707
0.62490392899781,1.1580219780219778,0.24095238095238095,1.066959706959707
0.6266680080007063,1.1580219780219778,0.24095238095238095,1.066959706959707
0.629806530996575,1.1580219780219778,0.24095238095238095,1.066959706959707
0.6314795240032254,1.1580219780219778,0.24095238095238095,1.066959706959707
0.6361620459938422,1.1580219780219778,0.24095238095238095,1.066959706959707
0.6365082499978598,1.1580219780219778,0.24095238095238095,1.066959706959707
0.6416764830064494,1.1580219780219778,0.24095238095238095,1.066959706959707
0.6448186509951483,1.531941391941392,0.42710622710622714,1.4158974358974357
0.645804293002584,1.531941391941392,0.42710622710622714,1.4158974358974357
0.6475673069944605,1.531941391941392,0.42710622710622714,1.4158974358974357
0.6499101060035173,1.531941391941392,0.42710622710622714,1.4158974358974357
0.6501715119957225,1.531941391941392,0.42710622710622714,1.4158974358974357
0.6574570310040144,1.531941391941392,0.42710622710622714,1.4158974358974357
0.6620937179977773,0.0,0.10153846153846154,0.5391208791208791
0.6622985540016089,0.0,0.10153846153846154,0.5391208791208791
0.6677308170037577,0.0,0.10153846153846154,0.5391208791208791
0.6699846160045126,1.8768498168498167,0.6116483516483516,1.884102564102564
0.6701768670027377,1.8768498168498167,0.6116483516483516,1.884102564102564
0.6757668000063859,1.8768498168498167,0.6116483516483516,1.884102564102564
0.6767274360026931,0.2602930402930403,0.32476190476190475,0.5568498168498168
0.6776705020020017,0.2602930402930403,0.32476190476190475,0.5568498168498168
0.6792402389983181,0.0,0.23208791208791207,0.6608058608058608
0.6855147510068491,0.0,0.23208791208791207,0.6608058608058608
0.6897293950023595,0.0,0.23208791208791207,0.6608058608058608
0.6913622559950454,0.0,0.23208791208791207,0.6608058608058608
0.6946856639988255,0.0,0.23208791208791207,0.6608058608058608
0.6963537240080768,3.3,1.5545054945054944,0.9791208791208791
0.7003446489979979,3.3,1.5545054945054944,0.9791208791208791
0.7052588719961932,3.3,1.5545054945054944,0.9791208791208791
0.7085534640063997,3.3,1.5545054945054944,0.9791208791208791
0.708813054006896,3.3,1.5545054945054944,0.9791208791208791
0.7144669169938425,3.3,1.5545054945054944,0.9791208791208791
0.7146320720057702,3.3,1.5545054945054944,0.9791208791208791
0.7215313950000564,3.3,1.5545054945054944,0.9791208791208791
0.7251574100082507,1.9389010989010989,0.8638827838827838,2.1766300366300366
0.7319931859965436,1.9389010989010989,0.8638827838827838,2.1766300366300366
0.7399665200064192,1.9389010989010989,0.8638827838827838,2.1766300366300366
0.7443814449943602,1.9389010989010989,0.8638827838827838,2.1766300366300366
0.7453442249970976,1.9389010989010989,0.8638827838827838,2.1766300366300366
0.7463621520000743,1.9389010989010989,0.8638827838827838,2.1766300366300366
0.7473241719999351,1.9389010989010989,0.8638827838827838,2.1766300366300366
0.7482922280032653,1.9389010989010989,0.8638827838827838,2.1766300366300366
0.749289208004484,1.9389010989010989,0.8638827838827838,2.1766300366300366
0.7496149869984947,1.9389010989010989,0.8638827838827838,2.1766300366300366
0.7566539109975565,1.9389010989010989,0.8638827838827838,2.1766300366300366
0.7610409049957525,1.9389010989010989,0.8638827838827838,2.1766300366300366
0.7620519129995955,1.9389010989010989,0.8638827838827838,2.1766300366300366
0.7630307950021233,1.9389010989010989,0.8638827838827838,2.1766300366300366
0.7640224219940137,1.9389010989010989,0.8638827838827838,2.1766300366300366
0.7643912220082711,1.4432967032967032,0.8936996336996336,1.4658608058608058
0.7709383729961701,1.4432967032967032,0.8936996336996336,1.4658608058608058
0.7745886570046423,1.4432967032967032,0.8936996336996336,1.4658608058608058
0.7795202700071968,3.3,1.8446153846153845,1.17010989010989
0.7850322070007678,2.621465201465201,0.8332600732600732,3.0534065934065935
0.7862342339940369,2.621465201465201,0.8332600732600732,3.0534065934065935
0.7932120180048514,2.1395604395604395,0.8590476190476191,2.44981684981685
0.7973196499951882,1.1983150183150182,0.39487179487179486,0.664029304029304
0.7996937120042276,0.6422710622710622,0.4851282051282051,0.7486446886446886
0.7999448939954164,0.6422710622710622,0.4851282051282051,0.7486446886446886
0.8073217540077167,0.6422710622710622,0.4851282051282051,0.7486446886446886
0.8123523850081256,0.6422710622710622,0.4851282051282051,0.7486446886446886
0.8162941250047879,1.0943589743589743,0.21838827838827837,0.8437362637362636
0.8220453069952782,1.0943589743589743,0.21838827838827837,0.8437362637362636
0.8283602029987378,1.0943589743589743,0.21838827838827837,0.8437362637362636
0.8322839430038584,1.0943589743589743,0.21838827838827837,0.8437362637362636
0.8399767679948127,1.0943589743589743,0.21838827838827837,0.8437362637362636
0.844098532004864,1.0943589743589743,0.21838827838827837,0.8437362637362636
0.8473084940051194,2.492527472527472,1.1644688644688646,0.904981684981685
0.848227187001612,2.492527472527472,1.1644688644688646,0.904981684981685
0.8498839259991655,2.492527472527472,1.1644688644688646,0.904981684981685
0.8546728390065255,2.492527472527472,1.1644688644688646,0.904981684981685
0.859996280996711,2.492527472527472,1.1644688644688646,0.904981684981685
0.8608994780079229,2.8454945054945053,0.9082051282051282,2.997802197802198
0.8618099390005227,2.8454945054945053,0.9082051282051282,2.997802197802198
0.8635765320068458,2.8454945054945053,0.9082051282051282,2.997802197802198
0.8660737890022574,2.8454945054945053,0.9082051282051282,2.997802197802198
0.8736536789947422,2.8454945054945053,0.9082051282051282,2.997802197802198
0.8784588090056786,1.166080586080586,0.307032967032967,0.5246153846153846
0.8786515350075206,1.166080586080586,0.307032967032967,0.5246153846153846
0.8840109110024059,2.3652014652014652,0.8582417582417583,2.5086446886446883
0.8884630009997636,1.4062271062271061,0.4456410256410256,1.4666666666666666
0.8945442469994305,1.4062271062271061,0.4456410256410256,1.4666666666666666
0.8984174910001457,0.6035897435897435,0.4391941391941392,0.6342124542124542
0.9053319880040362,0.6035897435897435,0.4391941391941392,0.6342124542124542
0.9086949229968013,0.6035897435897435,0.4391941391941392,0.6342124542124542
0.9090689620061312,0.6035897435897435,0.4391941391941392,0.6342124542124542
0.9146375669952249,0.6035897435897435,0.4391941391941392,0.6342124542124542
0.9149580679950304,0.6035897435897435,0.4391941391941392,0.6342124542124542
0.9229771289974451,0.6035897435897435,0.4391941391941392,0.6342124542124542
0.9270972569938749,0.6035897435897435,0.4391941391941392,0.6342124542124542
0.9295915749971755,0.6035897435897435,0.4391941391941392,0.6342124542124542
0.9297200779983541,0.8783882783882784,0.2683516483516483,0.38278388278388276
0.9350719110079808,0.8783882783882784,0.2683516483516483,0.38278388278388276
0.9403281260019867,1.2192673992673992,0.2917216117216117,1.157216117216117
0.940593078994425,0.03545787545787545,0.21838827838827837,0.49721611721611714
0.9462319260055665,0.03545787545787545,0.21838827838827837,0.49721611721611714
0.9470619600033388,0.03545787545787545,0.21838827838827837,0.49721611721611714
0.948659089001012,0.03545787545787545,0.21838827838827837,0.49721611721611714
0.9553959040058544,0.03545787545787545,0.21838827838827837,0.49721611721611714
0.9604137610003818,0.2989743589743589,0.31267399267399265,0.51010989010989
0.9638415469962638,0.2989743589743589,0.31267399267399265,0.51010989010989
0.9641550890082726,0.2989743589743589,0.31267399267399265,0.51010989010989
0.9723094210057752,0.2989743589743589,0.31267399267399265,0.51010989010989
0.9766083410067949,0.2989743589743589,0.31267399267399265,0.51010989010989
0.9775296629959485,0.2989743589743589,0.31267399267399265,0.51010989010989
0.9791302079975139,0.2989743589743589,0.31267399267399265,0.51010989010989
0.9832892720005475,2.4038827838827834,0.7905494505494506,2.8495238095238093
0.9865858620032668,2.4038827838827834,0.7905494505494506,2.8495238095238093
0.9871044339961372,2.4038827838827834,0.7905494505494506,2.8495238095238093
0.9909238209947944,2.4038827838827834,0.7905494505494506,2.8495238095238093
0.9948902089963667,2.4038827838827834,0.7905494505494506,2.8495238095238093
0.9979381029988872,2.4038827838827834,0.7905494505494506,2.8495238095238093
1.000395811002818,0.0,0.13941391941391942,0.606007326007326
1.0080744529986987,0.0,0.13941391941391942,0.606007326007326
1.0130452330049593,0.0,0.13941391941391942,0.606007326007326
1.017237097999896,0.0,0.13941391941391942,0.606007326007326
1.0217627380043268,0.0,0.13941391941391942,0.606007326007326
1.0276687709992984,0.0,0.13941391941391942,0.606007326007326
1.0331149690027814,0.0,0.13941391941391942,0.606007326007326
1.0354458100046031,1.9783882783882782,1.1265934065934065,0.788937728937729
1.0454009639943251,1.9783882783882782,1.1265934065934065,0.788937728937729
1.0520231580012478,2.622271062271062,0.9799267399267398,2.864029304029304
1.0561986639950192,2.622271062271062,0.9799267399267398,2.864029304029304
1.0572055840020766,2.622271062271062,0.9799267399267398,2.864029304029304
1.058243343999493,2.622271062271062,0.9799267399267398,2.864029304029304
1.0591870219941484,2.622271062271062,0.9799267399267398,2.864029304029304
1.0601148720015772,2.622271062271062,0.9799267399267398,2.864029304029304
1.0610604499961482,2.622271062271062,0.9799267399267398,2.864029304029304
1.0627253760030726,2.622271062271062,0.9799267399267398,2.864029304029304
1.066632442001719,2.622271062271062,0.9799267399267398,2.864029304029304
1.071500381003716,2.622271062271062,0.9799267399267398,2.864029304029304
1.0759553789976053,2.622271062271062,0.9799267399267398,2.864029304029304
1.076291000994388,0.5012454212454212,0.2868864468864469,0.6551648351648351
1.0818457679997664,0.5012454212454212,0.2868864468864469,0.6551648351648351
1.0827024320024066,1.743076923076923,0.6841758241758242,2.137142857142857
1.0852979170012986,1.743076923076923,0.6841758241758242,2.137142857142857
1.0898823250026908,1.743076923076923,0.6841758241758242,2.137142857142857
1.0900774670008104,1.743076923076923,0.6841758241758242,2.137142857142857
1.0972944319946691,1.743076923076923,0.6841758241758242,2.137142857142857
1.1011370490014087,0.2957509157509157,0.25223443223443226,0.40776556776556777
1.1065414610056905,2.2644688644688644,0.5786080586080585,2.1024908424908424
1.1074483730044449,3.3,1.7285714285714286,1.432014652014652
1.1090619710012106,3.3,1.7285714285714286,1.432014652014652
1.113224012995488,3.3,1.7285714285714286,1.432014652014652
1.1155043119943002,3.3,1.7285714285714286,1.432014652014652
1.1157043580024038,3.3,1.7285714285714286,1.432014652014652
1.1203918749961304,3.3,1.7285714285714286,1.432014652014652
1.1205080250074388,0.06849816849816849,0.1813186813186813,0.311062271062271
1.1255598860007012,0.06849816849816849,0.1813186813186813,0.311062271062271
1.1296575290034525,3.3,1.8164102564102564,1.4569963369963368
1.1318922530044802,3.3,1.8164102564102564,1.4569963369963368
1.1327587669948116,3.3,1.8164102564102564,1.4569963369963368
1.134250086004613,3.3,1.8164102564102564,1.4569963369963368
1.1383978689991636,3.3,1.8164102564102564,1.4569963369963368
1.1428771159989992,3.3,1.8164102564102564,1.4569963369963368
1.1430745440011378,3.3,1.8164102564102564,1.4569963369963368
1.1526288300083252,3.3,1.8164102564102564,1.4569963369963368
1.1600654350040713,3.3,1.8164102564102564,1.4569963369963368
1.1644469489983749,0.0,0.17003663003663003,0.4851282051282051
1.164734573001624,0.0,0.17003663003663003,0.4851282051282051
1.1751628810015973,0.0,0.17003663003663003,0.4851282051282051
1.1828017649968388,1.5496703296703296,0.5205860805860806,1.2007326007326007
1.1890470770013053,3.3,1.656043956043956,1.3232234432234433
1.1931666669988772,2.3917948717948714,0.7075457875457875,2.9341391941391937
1.1971657539979788,2.3917948717948714,0.7075457875457875,2.9341391941391937
1.1995554199966136,2.3917948717948714,0.7075457875457875,2.9341391941391937
1.2089651230053278,2.6166300366300366,0.9742857142857142,2.8454945054945053
1.2166227340057958,2.6166300366300366,0.9742857142857142,2.8454945054945053
1.2224904129980132,2.6166300366300366,0.9742857142857142,2.8454945054945053
1.2297299199999543,2.6166300366300366,0.9742857142857142,2.8454945054945053
1.234243177997996,2.6166300366300366,0.9742857142857142,2.8454945054945053
1.2345021369983442,0.7687912087912088,0.4899633699633699,0.6986813186813187
1.2429842809942784,0.7687912087912088,0.4899633699633699,0.6986813186813187
1.2485222579998663,0.7687912087912088,0.4899633699633699,0.6986813186813187
1.2488862190075452,0.7687912087912088,0.4899633699633699,0.6986813186813187
1.2564157800079556,0.7687912087912088,0.4899633699633699,0.6986813186813187
1.2624439369974425,0.7687912087912088,0.4899633699633699,0.6986813186813187
1.268776233002427,0.7687912087912088,0.4899633699633699,0.6986813186813187
1.2740582270052982,0.7687912087912088,0.4899633699633699,0.6986813186813187
1.2755262760038022,3.3,1.8978021978021975,1.224908424908425
1.2832765939965611,3.3,1.8978021978021975,1.224908424908425
1.28843073999451,2.1105494505494504,0.6164835164835165,2.1097435897435894
1.2907577480073087,1.822051282051282,0.5520146520146519,1.4537728937728938
1.291102546005277,1.0822710622710623,0.33684981684981685,1.0315018315018314
1.2946876490022987,1.0822710622710623,0.33684981684981685,1.0315018315018314
1.2949619650025852,1.0822710622710623,0.33684981684981685,1.0315018315018314
1.2996611440030392,1.0822710622710623,0.33684981684981685,1.0315018315018314
1.2998000630032038,0.8614652014652014,0.32395604395604394,1.0959706959706959
1.304648196004564,0.8614652014652014,0.32395604395604394,1.0959706959706959
1.309569126999122,0.8614652014652014,0.32395604395604394,1.0959706959706959
1.3146373240015237,0.8614652014652014,0.32395604395604394,1.0959706959706959
1.3239803460019175,1.353040293040293,0.31267399267399265,1.1257875457875457
1.3319276929978514,1.353040293040293,0.31267399267399265,1.1257875457875457
1.3370210150023922,1.016190476190476,0.2989743589743589,0.8832234432234431
1.3432237480010372,1.016190476190476,0.2989743589743589,0.8832234432234431
1.3472362519969465,1.016190476190476,0.2989743589743589,0.8832234432234431
1.3496167900011642,1.016190476190476,0.2989743589743589,0.8832234432234431
1.3499116400053026,1.016190476190476,0.2989743589743589,0.8832234432234431
1.3548603710078169,1.016190476190476,0.2989743589743589,0.8832234432234431
1.3592159749969142,1.016190476190476,0.2989743589743589,0.8832234432234431
1.3600157580076484,1.016190476190476,0.2989743589743589,0.8832234432234431
1.361527297005523,1.016190476190476,0.2989743589743589,0.8832234432234431
1.365672497995547,1.016190476190476,0.2989743589743589,0.8832234432234431
1.3684870110009797,1.016190476190476,0.2989743589743589,0.8832234432234431
1.371391474007396,1.016190476190476,0.2989743589743589,0.8832234432234431
1.374912201994448,1.016190476190476,0.2989743589743589,0.8832234432234431
1.3751242629950866,0.6003663003663003,0.37875457875457874,0.7107692307692308
1.3800304229953326,0.6003663003663003,0.37875457875457874,0.7107692307692308
1.3801420840027276,0.6003663003663003,0.37875457875457874,0.7107692307692308
1.3849490599968703,0.6003663003663003,0.37875457875457874,0.7107692307692308
1.385121732004336,0.6003663003663003,0.37875457875457874,0.7107692307692308
1.3899509479961125,0.6003663003663003,0.37875457875457874,0.7107692307692308
1.3901532460004091,0.6003663003663003,0.37875457875457874,0.7107692307692308
1.3948997010011226,0.6003663003663003,0.37875457875457874,0.7107692307692308
1.3951163519959664,0.6003663003663003,0.37875457875457874,0.7107692307692308
1.399960002003354,0.6003663003663003,0.37875457875457874,0.7107692307692308
1.404705434004427,0.6003663003663003,0.37875457875457874,0.7107692307692308
1.4048079089989187,0.6003663003663003,0.37875457875457874,0.7107692307692308
1.409744917997159,0.6003663003663003,0.37875457875457874,0.7107692307692308
1.415316974002053,0.6648351648351648,0.2369230769230769,0.7019047619047618
1.4170561539940536,3.3,1.6109157509157508,1.0049084249084248
1.4202943819982465,3.3,1.6109157509157508,1.0049084249084248
1.4219114690058632,0.0,0.12732600732600732,0.49882783882783877
1.4258298860077048,0.0,0.12732600732600732,0.49882783882783877
1.4297977130045183,2.194358974358974,0.7446153846153846,2.5078388278388277
1.4337472110055387,2.194358974358974,0.7446153846153846,2.5078388278388277
1.436865007999586,0.6761172161172161,0.4432234432234432,0.3304029304029304
1.44004872100777,0.6761172161172161,0.4432234432234432,0.3304029304029304
1.4409305040026084,0.6761172161172161,0.4432234432234432,0.3304029304029304
1.4425216810050188,0.6761172161172161,0.4432234432234432,0.3304029304029304
1.446587747996091,2.1991941391941388,0.9807326007326007,1.008937728937729
1.4504458349983906,2.1991941391941388,0.9807326007326007,1.008937728937729
1.4550536010065116,2.1991941391941388,0.9807326007326007,1.008937728937729
1.4552760070073418,2.6343589743589746,1.2805128205128204,0.909010989010989
1.4601394960045582,2.6343589743589746,1.2805128205128204,0.909010989010989
1.465789907000726,2.6343589743589746,1.2805128205128204,0.909010989010989
1.4668140440044226,2.6343589743589746,1.2805128205128204,0.909010989010989
1.4676911809947342,2.6343589743589746,1.2805128205128204,0.909010989010989
1.4686396869947203,2.6343589743589746,1.2805128205128204,0.909010989010989
1.4703469819942256,2.6343589743589746,1.2805128205128204,0.909010989010989
1.4734861100005219,2.6343589743589746,1.2805128205128204,0.909010989010989
1.4757546930050012,2.6343589743589746,1.2805128205128204,0.909010989010989
1.4760642260080203,2.6343589743589746,1.2805128205128204,0.909010989010989
1.480765924003208,2.6343589743589746,1.2805128205128204,0.909010989010989
1.4809178270079428,2.8422710622710623,0.6261538461538461,2.428864468864469
1.486189381001168,2.8422710622710623,0.6261538461538461,2.428864468864469
1.4891893820022233,2.8422710622710623,0.6261538461538461,2.428864468864469
1.4908570279949345,1.7914285714285711,0.4778754578754579,1.4892307692307691
1.495160111997393,1.1999267399267397,0.20549450549450549,0.7333333333333333
1.4966520739981206,1.1999267399267397,0.20549450549450549,0.7333333333333333
1.501126026007114,1.1999267399267397,0.20549450549450549,0.7333333333333333
1.5020378360059112,1.1999267399267397,0.20549450549450549,0.7333333333333333
1.5037878529983573,1.1999267399267397,0.20549450549450549,0.7333333333333333
1.5076342329994077,1.1999267399267397,0.20549450549450549,0.7333333333333333
1.511483013004181,1.1999267399267397,0.20549450549450549,0.7333333333333333
1.5160472029965604,0.6696703296703297,0.24901098901098898,0.5624908424908425
1.5168890149943763,0.6696703296703297,0.24901098901098898,0.5624908424908425
1.5185136000072816,0.6696703296703297,0.24901098901098898,0.5624908424908425
1.5231236389954574,0.6696703296703297,0.24901098901098898,0.5624908424908425
1.523381232007523,0.6696703296703297,0.24901098901098898,0.5624908424908425
1.5286450309940847,0.6696703296703297,0.24901098901098898,0.5624908424908425
1.5318786919960985,0.6696703296703297,0.24901098901098898,0.5624908424908425
1.533642188005615,0.6696703296703297,0.24901098901098898,0.5624908424908425
1.5366705110063776,0.6696703296703297,0.24901098901098898,0.5624908424908425
1.5397242979961447,0.2079120879120879,0.25384615384615383,0.5495970695970696
1.542183893994661,2.6504761904761907,0.6769230769230768,2.8326007326007323
1.5423730409966083,1.7446886446886447,0.5342857142857143,1.7116483516483516
1.5478385129972594,2.6037362637362635,1.1926739926739927,1.0049084249084248
1.5487646459951065,2.6037362637362635,1.1926739926739927,1.0049084249084248
1.5497112050070427,2.6037362637362635,1.1926739926739927,1.0049084249084248
1.55069662599999,2.6037362637362635,1.1926739926739927,1.0049084249084248
1.552284816003521,2.6037362637362635,1.1926739926739927,1.0049084249084248
1.556103252005414,2.6037362637362635,1.1926739926739927,1.0049084249084248
1.5613672909967136,0.0,0.45369963369963373,0.5608791208791208
1.5645456479978748,1.9171428571428573,0.5358974358974359,1.6302564102564103
1.5661855899961665,2.071868131868132,0.9444688644688644,2.2967032967032965
1.5700718250009231,2.071868131868132,0.9444688644688644,2.2967032967032965
1.5743621830042684,2.071868131868132,0.9444688644688644,2.2967032967032965
1.575905783000053,2.071868131868132,0.9444688644688644,2.2967032967032965
1.5801244030008093,2.071868131868132,0.9444688644688644,2.2967032967032965
1.582327473006444,2.071868131868132,0.9444688644688644,2.2967032967032965
1.5831524480017833,2.071868131868132,0.9444688644688644,2.2967032967032965
1.5855369600030826,2.071868131868132,0.9444688644688644,2.2967032967032965
1.5904310309997527,2.071868131868132,0.9444688644688644,2.2967032967032965
1.590690741999424,1.9131135531135532,0.6245421245421244,1.863150183150183
1.5949436009977944,1.9131135531135532,0.6245421245421244,1.863150183150183
1.5971133739949437,0.5657142857142857,0.3908424908424908,0.5504029304029303
1.598504445006256,0.0,0.16197802197802197,0.35619047619047617
1.6027662260021316,0.0,0.16197802197802197,0.35619047619047617
1.6055562359979376,0.0,0.16197802197802197,0.35619047619047617
1.6085654950002208,0.0,0.16197802197802197,0.35619047619047617
1.611434767008177,0.0,0.16197802197802197,0.35619047619047617
1.6143936330045108,0.0,0.16197802197802197,0.35619047619047617
1.617226001995732,0.0,0.16197802197802197,0.35619047619047617
1.6213518989970908,0.0,0.16197802197802197,0.35619047619047617
1.6235448939987691,0.0,0.16197802197802197,0.35619047619047617
1.6243191649991786,0.0,0.16197802197802197,0.35619047619047617
1.626364181007375,0.0,0.16197802197802197,0.35619047619047617
1.6277923559973715,0.0,0.16197802197802197,0.35619047619047617
1.632609924999997,0.0,0.16197802197802197,0.35619047619047617
1.6382737039966742,0.0,0.16197802197802197,0.35619047619047617
1.638500107001164,2.523150183150183,1.4295970695970697,1.0806593406593406
1.6432857350009726,2.523150183150183,1.4295970695970697,1.0806593406593406
1.6488528339978075,3.287106227106227,1.652014652014652,1.6592673992673992
1.6497573819942772,2.173406593406593,0.9694505494505494,2.2765567765567765
1.6506948409951292,2.173406593406593,0.9694505494505494,2.2765567765567765
1.652257854002528,2.173406593406593,0.9694505494505494,2.2765567765567765
1.6558397409971803,2.173406593406593,0.9694505494505494,2.2765567765567765
1.656164355998044,2.173406593406593,0.9694505494505494,2.2765567765567765
1.6610207939957036,2.173406593406593,0.9694505494505494,2.2765567765567765
1.665852742997231,2.173406593406593,0.9694505494505494,2.2765567765567765
1.6707234060013434,2.173406593406593,0.9694505494505494,2.2765567765567765
1.6756498890026705,2.173406593406593,0.9694505494505494,2.2765567765567765
1.6804727099952288,2.173406593406593,0.9694505494505494,2.2765567765567765
1.6805999700009124,2.173406593406593,0.9694505494505494,2.2765567765567765
1.6854038349993061,2.173406593406593,0.9694505494505494,2.2765567765567765
1.6911317170015536,2.173406593406593,0.9694505494505494,2.2765567765567765
1.6913710049993824,1.0178021978021978,0.32395604395604394,1.295018315018315
1.6959499229997164,1.0178021978021978,0.32395604395604394,1.295018315018315
1.6968067090056138,1.0178021978021978,0.32395604395604394,1.295018315018315
1.6984387900010915,1.0178021978021978,0.32395604395604394,1.295018315018315
1.7022206459951121,1.0178021978021978,0.32395604395604394,1.295018315018315
1.7067387090064585,1.2007326007326007,0.5197802197802197,0.39890109890109887
1.7082527409947943,1.2007326007326007,0.5197802197802197,0.39890109890109887
1.713172610005131,1.2007326007326007,0.5197802197802197,0.39890109890109887
1.7179710560012609,1.2007326007326007,0.5197802197802197,0.39890109890109887
1.718147787003545,1.2007326007326007,0.5197802197802197,0.39890109890109887
1.7230520370067097,2.137948717948718,0.801025641025641,2.314432234432234
1.7279248440027004,2.137948717948718,0.801025641025641,2.314432234432234
1.7327803689986467,2.137948717948718,0.801025641025641,2.314432234432234
1.7329615909984568,2.137948717948718,0.801025641025641,2.314432234432234
1.7376861450029537,2.137948717948718,0.801025641025641,2.314432234432234
1.7379617740079993,2.137948717948718,0.801025641025641,2.314432234432234
1.7427556199982064,2.137948717948718,0.801025641025641,2.314432234432234
1.7476555180037394,2.137948717948718,0.801025641025641,2.314432234432234
1.7525489490071777,2.137948717948718,0.801025641025641,2.314432234432234
1.7526445039984537,1.2982417582417582,0.33282051282051284,1.361098901098901
1.757344280005782,1.2982417582417582,0.33282051282051284,1.361098901098901
1.7575635889952537,1.2982417582417582,0.33282051282051284,1.361098901098901
1.762351862998912,1.2982417582417582,0.33282051282051284,1.361098901098901
1.7671553770051105,1.2982417582417582,0.33282051282051284,1.361098901098901
1.7674153529951582,1.2982417582417582,0.33282051282051284,1.361098901098901
1.7722275069972966,1.2982417582417582,0.33282051282051284,1.361098901098901
1.772331911008223,0.8453479853479853,0.22805860805860806,0.4045421245421245
1.7771781040064525,0.8453479853479853,0.22805860805860806,0.4045421245421245
1.782051179005066,0.8453479853479853,0.22805860805860806,0.4045421245421245
1.7821432229975471,0.8453479853479853,0.22805860805860806,0.4045421245421245
1.7868430579983396,0.8453479853479853,0.22805860805860806,0.4045421245421245
1.7871277189988177,0.8453479853479853,0.22805860805860806,0.4045421245421245
1.7917799020069651,0.8453479853479853,0.22805860805860806,0.4045421245421245
1.7920201149972854,1.3272527472527473,0.28608058608058606,0.7841025641025641
1.7968069070047932,1.3272527472527473,0.28608058608058606,0.7841025641025641
1.7969049230014207,1.3272527472527473,0.28608058608058606,0.7841025641025641
1.8017371570022078,1.3272527472527473,0.28608058608058606,0.7841025641025641
1.8060055690002628,1.3272527472527473,0.28608058608058606,0.7841025641025641
1.8088170319970232,1.3272527472527473,0.28608058608058606,0.7841025641025641
1.8132288189954124,1.3272527472527473,0.28608058608058606,0.7841025641025641
1.8140850470081205,1.3272527472527473,0.28608058608058606,0.7841025641025641
1.8156669279997004,1.3272527472527473,0.28608058608058606,0.7841025641025641
1.8203603080037283,1.3272527472527473,0.28608058608058606,0.7841025641025641
1.8206260970036965,2.4860805860805857,0.6269597069597069,2.6706227106227107
1.8258576460066251,2.4860805860805857,0.6269597069597069,2.6706227106227107
1.8288231839978835,2.4860805860805857,0.6269597069597069,2.6706227106227107
1.831305843006703,2.4860805860805857,0.6269597069597069,2.6706227106227107
1.8314160349982558,1.2942124542124542,0.2925274725274725,1.2942124542124542
1.8368068340059835,1.2942124542124542,0.2925274725274725,1.2942124542124542
1.8392789200006519,1.2942124542124542,0.2925274725274725,1.2942124542124542
1.8445782939961646,2.5102564102564098,0.6043956043956044,2.6367765567765566
1.8469299620046513,1.9816117216117215,0.7986080586080586,1.8131868131868132
1.84721374399669,1.9816117216117215,0.7986080586080586,1.8131868131868132
1.8524090120045003,1.9816117216117215,0.7986080586080586,1.8131868131868132
1.8547665130026871,1.9816117216117215,0.7986080586080586,1.8131868131868132
1.8550631920079468,3.3,1.8623443223443221,1.5964102564102562
1.859610908999457,3.3,1.8623443223443221,1.5964102564102562
1.859923459996935,3.3,1.8623443223443221,1.5964102564102562
1.8643887399957748,3.3,1.8623443223443221,1.5964102564102562
1.8659595409990288,3.3,1.8623443223443221,1.5964102564102562
1.8703750559943728,3.3,1.8623443223443221,1.5964102564102562
1.8712567589973332,3.3,1.8623443223443221,1.5964102564102562
1.8728539680014364,3.3,1.8623443223443221,1.5964102564102562
1.8771543330076383,3.3,1.8623443223443221,1.5964102564102562
1.877994224007125,3.3,1.8623443223443221,1.5964102564102562
1.8801458999951137,3.3,1.8623443223443221,1.5964102564102562
1.8809408439992694,3.3,1.8623443223443221,1.5964102564102562
1.8824758639966603,3.3,1.8623443223443221,1.5964102564102562
1.8867056940071052,3.3,1.8623443223443221,1.5964102564102562
1.8892846910021035,3.3,1.8623443223443221,1.5964102564102562
1.8940642520028632,3.3,1.8623443223443221,1.5964102564102562
1.8994591780065093,3.3,1.8623443223443221,1.5964102564102562
1.9011709589976817,3.3,1.8623443223443221,1.5964102564102562
1.9042193460045382,3.3,1.8623443223443221,1.5964102564102562
1.9065402690030169,3.3,1.8623443223443221,1.5964102564102562
1.9068074940005317,3.3,1.8623443223443221,1.5964102564102562
1.9124533440044615,3.3,1.8623443223443221,1.5964102564102562
1.9127058610029053,3.3,1.8623443223443221,1.5964102564102562
1.9173109099938301,3.3,1.8623443223443221,1.5964102564102562
1.9175594950065715,0.0821978021978022,0.17809523809523808,0.5205860805860806
1.9229037670011166,0.0821978021978022,0.17809523809523808,0.5205860805860806
1.9251559690019349,0.0821978021978022,0.17809523809523808,0.5205860805860806
1.9254093549971003,0.0821978021978022,0.17809523809523808,0.5205860805860806
1.9309697150019929,0.0821978021978022,0.17809523809523808,0.5205860805860806
1.9312553759955335,0.0821978021978022,0.17809523809523808,0.5205860805860806
1.9366668809961993,0.0821978021978022,0.17809523809523808,0.5205860805860806
1.938343485002406,0.7986080586080586,0.41098901098901097,0.5600732600732601
1.9413926910056034,0.7986080586080586,0.41098901098901097,0.5600732600732601
1.943827702998533,0.7986080586080586,0.41098901098901097,0.5600732600732601
1.9439572650007904,0.7986080586080586,0.41098901098901097,0.5600732600732601
1.9493382799992105,0.7986080586080586,0.41098901098901097,0.5600732600732601
1.9508834879961796,2.3877655677655674,0.8397069597069596,2.5948717948717945
1.955327497998951,2.3877655677655674,0.8397069597069596,2.5948717948717945
1.9561651609983528,2.3877655677655674,0.8397069597069596,2.5948717948717945
1.9577771199983545,2.3877655677655674,0.8397069597069596,2.5948717948717945
1.9615440269990359,2.3877655677655674,0.8397069597069596,2.5948717948717945
1.9662168579961872,2.3877655677655674,0.8397069597069596,2.5948717948717945
1.9663277170038782,2.3877655677655674,0.8397069597069596,2.5948717948717945
1.9710489400022198,2.3877655677655674,0.8397069597069596,2.5948717948717945
1.971246285000234,1.3772161172161173,0.30542124542124544,1.41992673992674
1.9760085710004205,1.3772161172161173,0.30542124542124544,1.41992673992674
1.9761064360063756,0.21838827838827837,0.26673992673992675,0.40534798534798533
1.981419966003159,0.21838827838827837,0.26673992673992675,0.40534798534798533
1.9840335479966598,0.21838827838827837,0.26673992673992675,0.40534798534798533
1.989248119003605,0.21838827838827837,0.26673992673992675,0.40534798534798533
1.9916751200071303,0.21838827838827837,0.26673992673992675,0.40534798534798533
1.9919051169999875,0.21838827838827837,0.26673992673992675,0.40534798534798533
1.997097205996397,2.402271062271062,1.216043956043956,1.0057142857142858
2.0005045879952377,2.402271062271062,1.216043956043956,1.0057142857142858
2.0007117000059225,2.402271062271062,1.216043956043956,1.0057142857142858
2.0052745830034837,2.3120146520146516,0.5383150183150183,2.198388278388278
2.0055463610042352,2.3120146520146516,0.5383150183150183,2.198388278388278
2.011126151002827,2.3120146520146516,0.5383150183150183,2.198388278388278
2.0120813230023487,2.3120146520146516,0.5383150183150183,2.198388278388278
2.013121776995831,2.3120146520146516,0.5383150183150183,2.198388278388278
2.013983412995003,2.3120146520146516,0.5383150183150183,2.198388278388278
2.0155715120054083,2.3120146520146516,0.5383150183150183,2.198388278388278
2.019304628003738,2.3120146520146516,0.5383150183150183,2.198388278388278
2.024769252006081,2.3120146520146516,0.5383150183150183,2.198388278388278
2.0263596510048956,2.3120146520146516,0.5383150183150183,2.198388278388278
2.030765710005653,2.3120146520146516,0.5383150183150183,2.198388278388278
2.031682268003351,1.6576556776556775,0.3594139194139194,1.2958241758241758
2.0331964180077193,1.6576556776556775,0.3594139194139194,1.2958241758241758
2.037343289994169,1.6576556776556775,0.3594139194139194,1.2958241758241758
2.0401980349997757,1.6576556776556775,0.3594139194139194,1.2958241758241758
2.04359740599466,1.6576556776556775,0.3594139194139194,1.2958241758241758
2.043904238002142,1.4384615384615385,0.7147985347985348,0.6390476190476191
2.04871411100612,1.4384615384615385,0.7147985347985348,0.6390476190476191
2.0530615280003985,1.4126739926739926,0.3747252747252747,0.9702564102564102
2.055265478004003,1.4126739926739926,0.3747252747252747,0.9702564102564102
2.0555362949962728,1.4126739926739926,0.3747252747252747,0.9702564102564102
2.0604325419990346,1.4126739926739926,0.3747252747252747,0.9702564102564102
2.0605986139999004,2.526373626373626,0.7438095238095238,2.830989010989011
2.0653991470026085,2.526373626373626,0.7438095238095238,2.830989010989011
2.065575754008023,2.2016117216117213,0.9356043956043956,2.390989010989011
2.070503904003999,2.306373626373626,0.7164102564102564,2.540879120879121
2.07538285299961,2.306373626373626,0.7164102564102564,2.540879120879121
2.0798146129964152,2.306373626373626,0.7164102564102564,2.540879120879121
2.0813881530048093,2.306373626373626,0.7164102564102564,2.540879120879121
2.0851910339988535,2.306373626373626,0.7164102564102564,2.540879120879121
2.0905098719958914,2.306373626373626,0.7164102564102564,2.540879120879121
2.093002855006489,1.3038827838827838,0.3102564102564102,1.3989743589743588
2.093184890007251,1.3038827838827838,0.3102564102564102,1.3989743589743588
2.0978659389948007,1.3038827838827838,0.3102564102564102,1.3989743589743588
2.098112763997051,1.3038827838827838,0.3102564102564102,1.3989743589743588
2.10285588199622,1.3038827838827838,0.3102564102564102,1.3989743589743588
2.1030335039977217,1.3038827838827838,0.3102564102564102,1.3989743589743588
2.108496800006833,1.3038827838827838,0.3102564102564102,1.3989743589743588
2.109458214996266,1.3038827838827838,0.3102564102564102,1.3989743589743588
2.11042650899617,1.3038827838827838,0.3102564102564102,1.3989743589743588
2.1119808530056616,1.3038827838827838,0.3102564102564102,1.3989743589743588
2.1160598800051957,1.3038827838827838,0.3102564102564102,1.3989743589743588
2.119190469995374,1.3038827838827838,0.3102564102564102,1.3989743589743588
2.1209821140073473,1.3038827838827838,0.3102564102564102,1.3989743589743588
2.124051361999591,1.3038827838827838,0.3102564102564102,1.3989743589743588
2.126425897004083,1.3038827838827838,0.3102564102564102,1.3989743589743588
2.1265435730019817,1.3038827838827838,0.3102564102564102,1.3989743589743588
2.1311977800069144,1.3038827838827838,0.3102564102564102,1.3989743589743588
2.1314180769986706,1.0564835164835162,0.22725274725274724,0.946080586080586
2.136317765995045,1.0564835164835162,0.22725274725274724,0.946080586080586
2.14090220000071,2.8535531135531134,1.4094505494505494,1.0798534798534798
2.141770415008068,2.8535531135531134,1.4094505494505494,1.0798534798534798
2.1433893390058074,2.8535531135531134,1.4094505494505494,1.0798534798534798
2.147330615000101,2.8535531135531134,1.4094505494505494,1.0798534798534798
2.150563022994902,2.8535531135531134,1.4094505494505494,1.0798534798534798
2.1521375230076956,2.8535531135531134,1.4094505494505494,1.0798534798534798
2.15680951300601,1.9848351648351645,0.0,0.6519413919413919
2.1570692420064006,1.9848351648351645,0.0,0.6519413919413919
2.162416410006699,1.9848351648351645,0.0,0.6519413919413919
2.163888383001904,1.9848351648351645,0.0,0.6519413919413919
2.168900445001782,1.9848351648351645,0.0,0.6519413919413919
2.173636619001627,1.9848351648351645,0.0,0.6519413919413919
2.1737401300051715,1.9848351648351645,0.0,0.6519413919413919
2.179375549996621,1.9848351648351645,0.0,0.6519413919413919
2.179633043007925,1.9848351648351645,0.0,0.6519413919413919
2.1849725280044368,1.9848351648351645,0.0,0.6519413919413919
2.1881856179970782,1.9848351648351645,0.0,0.6519413919413919
2.188483691003057,1.9848351648351645,0.0,0.6519413919413919
2.194047042998136,1.9848351648351645,0.0,0.6519413919413919
2.1955990610003937,0.755091575091575,0.0,0.5858608058608058
2.2001028939994285,0.06205128205128205,0.0,0.4174358974358974
2.200930081002298,0.06205128205128205,0.0,0.4174358974358974
2.2025589940021746,0.06205128205128205,0.0,0.4174358974358974
2.2063532089960063,0.06205128205128205,0.0,0.4174358974358974
2.210929346998455,0.06205128205128205,0.0,0.4174358974358974
2.2111468560033245,0.8034432234432234,0.0,0.33926739926739924
2.216373778996058,0.8034432234432234,0.0,0.33926739926739924
2.2186824370000977,0.8034432234432234,0.0,0.33926739926739924
2.2188949099945603,0.8034432234432234,0.0,0.33926739926739924
2.223918018004042,0.8034432234432234,0.0,0.33926739926739924
2.2287027050042525,0.8034432234432234,0.0,0.33926739926739924
2.2341961430065567,0.8034432234432234,0.0,0.33926739926739924
2.2360080719954567,0.8034432234432234,0.0,0.33926739926739924
2.239129823996336,0.21355311355311357,0.0,0.2909157509157509
2.2407960050040856,0.0,0.0,0.3586080586080586
2.2446188390022144,0.0,0.0,0.3586080586080586
2.249169910006458,0.0,0.0,0.3586080586080586
2.249388131996966,0.0,0.0,0.3586080586080586
2.2546903990005376,0.0,0.0,0.3586080586080586
2.2570435300003737,0.0,0.0,0.3586080586080586
2.2572862800006988,0.0,0.0,0.3586080586080586
2.262512697998318,0.0,0.0,0.3586080586080586
2.264981372994953,0.0,0.0,0.3586080586080586
2.2703109970025253,2.178241758241758,0.0,1.8131868131868132
2.2727853560063522,2.178241758241758,0.0,1.8131868131868132
2.2783855860034237,3.3,0.0,1.1241758241758242
2.279248765000375,0.07494505494505493,0.0,0.25787545787545785
2.2808937929949025,0.07494505494505493,0.0,0.25787545787545785
2.2846256110060494,0.07494505494505493,0.0,0.25787545787545785
2.28904565499397,0.07494505494505493,0.0,0.25787545787545785
2.2907188490062254,0.07494505494505493,0.0,0.25787545787545785
2.294452097004978,0.07494505494505493,0.0,0.25787545787545785
2.299079680000432,0.07494505494505493,0.0,0.25787545787545785
2.2992427999997744,0.07494505494505493,0.0,0.25787545787545785
2.3046155180054484,0.07494505494505493,0.0,0.25787545787545785
2.3061608450079802,0.07494505494505493,0.0,0.25787545787545785
2.3107736950041726,0.07494505494505493,0.0,0.25787545787545785
2.3109402080008294,0.07494505494505493,0.0,0.25787545787545785
2.3164979510038393,0.07494505494505493,0.0,0.25787545787545785
2.316747051998391,0.0136996336996337,0.0,0.39487179487179486
2.322275704005733,0.0136996336996337,0.0,0.39487179487179486
2.3237531810009386,2.7697435897435896,0.0,2.294285714285714
2.328655292003532,2.7697435897435896,0.0,2.294285714285714
2.3335847450071014,2.7697435897435896,0.0,2.294285714285714
2.3384273650008254,2.7697435897435896,0.0,2.294285714285714
2.3386614869959885,2.7697435897435896,0.0,2.294285714285714
2.3434869720076676,2.7697435897435896,0.0,2.294285714285714
2.3483744870027294,0.9259340659340659,0.0,0.4754578754578754
2.3533920680056326,1.983223443223443,0.0,1.5988278388278387
2.3582805059995735,2.5038095238095237,0.0,0.7204395604395604
2.363250312002492,0.0,0.0,0.3916483516483516
2.368103725006222,0.0,0.0,0.3916483516483516
2.3682367099972907,0.0,0.0,0.3916483516483516
2.372944087997894,0.0,0.0,0.3916483516483516
2.3732044610078447,0.0,0.0,0.3916483516483516
2.3778948039980605,0.0,0.0,0.3916483516483516
2.3781972590077203,0.0,0.0,0.3916483516483516
2.3831051339948317,0.0,0.0,0.3916483516483516
2.3880189180054003,3.3,0.0,1.4763369963369963
2.3881248490069993,2.049304029304029,0.0,1.6592673992673992
2.393019085007836,2.049304029304029,0.0,1.6592673992673992
2.397891612999956,2.049304029304029,0.0,1.6592673992673992
2.402837535002618,2.049304029304029,0.0,1.6592673992673992
2.4077399170055287,2.2362637362637363,0.0,1.9558241758241757
2.4079008419939782,2.2362637362637363,0.0,1.9558241758241757
2.4129028799943626,2.2362637362637363,0.0,1.9558241758241757
2.4182526910008164,2.2362637362637363,0.0,1.9558241758241757
2.420712455001194,1.4304029304029304,0.0,1.2015384615384614
2.426189449004596,1.4304029304029304,0.0,1.2015384615384614
2.4286214019957697,1.4304029304029304,0.0,1.2015384615384614
2.428769692007336,1.4304029304029304,0.0,1.2015384615384614
2.434250228005112,1.4304029304029304,0.0,1.2015384615384614
2.436081395004294,1.4304029304029304,0.0,1.2015384615384614
2.4391783960018074,1.4304029304029304,0.0,1.2015384615384614
2.4416598139941925,1.4304029304029304,0.0,1.2015384615384614
2.447081945996615,1.4304029304029304,0.0,1.2015384615384614
2.450442136003403,1.4304029304029304,0.0,1.2015384615384614
2.4507088780082995,1.4304029304029304,0.0,1.2015384615384614
2.4559658439975465,1.4304029304029304,0.0,1.2015384615384614
2.458694506000029,0.24095238095238095,0.0,0.2836630036630036
2.4629654540040065,0.24095238095238095,0.0,0.2836630036630036
2.465048799000215,2.1589010989010986,0.0,1.6447619047619046
2.465852901994367,2.1589010989010986,0.0,1.6447619047619046
2.467960306996247,2.1589010989010986,0.0,1.6447619047619046
2.4693906720058294,2.1589010989010986,0.0,1.6447619047619046
2.4741419140045764,2.1589010989010986,0.0,1.6447619047619046
2.474403218002408,2.1589010989010986,0.0,1.6447619047619046
2.4791724310052814,0.523003663003663,0.0,0.40937728937728934
2.4792662800027756,0.25384615384615383,0.0,0.32073260073260074
2.484090883997851,0.25384615384615383,0.0,0.32073260073260074
2.484212834999198,3.3,0.0,1.2660073260073261
2.4889807110012043,3.3,0.0,1.2660073260073261
2.4892936700052815,3.3,0.0,1.2660073260073261
2.493874516003416,3.3,0.0,1.2660073260073261
2.4947133740060963,3.3,0.0,1.2660073260073261
2.4964035589946434,3.3,0.0,1.2660073260073261
2.50021247100085,3.3,0.0,1.2660073260073261
2.505322723998688,3.3,0.0,1.2660073260073261
2.5097915600053966,2.399047619047619,2.5747252747252745,0.7454212454212454
2.5106871769967256,2.399047619047619,2.5747252747252745,0.7454212454212454
2.5122692300064955,2.399047619047619,2.5747252747252745,0.7454212454212454
2.5167733720008982,1.0137728937728938,2.5545787545787544,0.4029304029304029
2.517681547004031,1.0137728937728938,2.5545787545787544,0.4029304029304029
2.519489575002808,1.0137728937728938,2.5545787545787544,0.4029304029304029
2.522616329995799,1.0137728937728938,2.5545787545787544,0.4029304029304029
2.525006626994582,1.0137728937728938,2.5545787545787544,0.4029304029304029
2.525142603000859,1.0137728937728938,2.5545787545787544,0.4029304029304029
2.530696629008162,1.0137728937728938,2.5545787545787544,0.4029304029304029
2.5309690050053177,1.0137728937728938,2.5545787545787544,0.4029304029304029
2.536090866997256,1.0137728937728938,2.5545787545787544,0.4029304029304029
2.5392452700034482,1.0137728937728938,2.5545787545787544,0.4029304029304029
2.5409791020065313,1.0137728937728938,2.5545787545787544,0.4029304029304029
2.543305112005328,1.0137728937728938,2.5545787545787544,0.4029304029304029
2.5435312500048894,3.3,3.3,1.2466666666666666
2.5481633190065622,3.3,3.3,1.2466666666666666
2.548998220998328,3.3,3.3,1.2466666666666666
2.55078080399835,3.3,3.3,1.2466666666666666
2.5532795330072986,3.3,3.3,1.2466666666666666
2.558545330000925,3.3,3.3,1.2466666666666666
2.560891329005244,0.0,3.3,0.21838827838827837
2.5611418320040684,0.0,3.3,0.21838827838827837
2.5666091599996435,0.0,3.3,0.21838827838827837
2.5674856310070027,0.0,3.3,0.21838827838827837
2.569682717003161,0.0,3.3,0.21838827838827837
2.569945328999893,0.0,3.3,0.21838827838827837
2.574725345999468,0.0,3.3,0.21838827838827837
2.5748935650044587,0.0,3.3,0.21838827838827837
2.5797355899994727,0.0,3.3,0.21838827838827837
2.584669489006046,0.0,3.3,0.21838827838827837
2.584752334005316,0.0,3.3,0.21838827838827837
2.5894498900015606,0.0,3.3,0.21838827838827837
2.5897222490020795,1.6165567765567763,1.4432967032967032,0.9154578754578755
2.5949688410037197,1.6165567765567763,1.4432967032967032,0.9154578754578755
2.5981321400031447,1.6165567765567763,1.4432967032967032,0.9154578754578755
2.59902576499735,0.0,1.0516483516483515,0.2643223443223443
2.600821576997987,0.0,1.0516483516483515,0.2643223443223443
2.60400043700065,2.1556776556776556,0.7784615384615384,1.49003663003663
2.605596923996927,2.1556776556776556,0.7784615384615384,1.49003663003663
2.6096501470019575,2.1556776556776556,0.7784615384615384,1.49003663003663
2.6127537209977163,2.1556776556776556,0.7784615384615384,1.49003663003663
2.614292865007883,1.3095238095238093,0.8856410256410255,0.9323809523809523
2.618531215994153,1.3095238095238093,0.8856410256410255,0.9323809523809523
2.6213194980082335,1.3095238095238093,0.8856410256410255,0.9323809523809523
2.625446053003543,3.008278388278388,0.8840293040293039,2.353113553113553
2.627608192997286,3.008278388278388,0.8840293040293039,2.353113553113553
2.6284377289994154,3.008278388278388,0.8840293040293039,2.353113553113553
2.6305704889964545,3.008278388278388,0.8840293040293039,2.353113553113553
2.6313528650061926,3.008278388278388,0.8840293040293039,2.353113553113553
2.633817298003123,3.008278388278388,0.8840293040293039,2.353113553113553
2.6392523829999845,2.984102564102564,1.4698901098901098,0.9895970695970695
2.6408772760041757,2.984102564102564,1.4698901098901098,0.9895970695970695
2.6447598499944434,2.984102564102564,1.4698901098901098,0.9895970695970695
2.6489839590067277,2.984102564102564,1.4698901098901098,0.9895970695970695
2.650643572997069,2.984102564102564,1.4698901098901098,0.9895970695970695
2.6545261919964105,1.5013186813186812,0.5326739926739926,1.1419047619047618
2.6582959439983824,1.8736263736263734,0.9968498168498168,0.6672527472527472
2.6644405660044868,1.8736263736263734,0.9968498168498168,0.6672527472527472
2.6681992320081918,1.7180952380952381,0.921098901098901,0.6656410256410257
2.672664530997281,1.7180952380952381,0.921098901098901,0.6656410256410257
2.6736372940067668,1.7180952380952381,0.921098901098901,0.6656410256410257
2.6745488659944385,1.7180952380952381,0.921098901098901,0.6656410256410257
2.67613921299926,1.7180952380952381,0.921098901098901,0.6656410256410257
2.6799499100015964,1.7180952380952381,0.921098901098901,0.6656410256410257
2.6844196729944088,1.7180952380952381,0.921098901098901,0.6656410256410257
2.6852948349987855,1.7180952380952381,0.921098901098901,0.6656410256410257
2.6869276350043947,1.7180952380952381,0.921098901098901,0.6656410256410257
2.69068322100793,1.7180952380952381,0.921098901098901,0.6656410256410257
2.6959860240021953,1.7180952380952381,0.921098901098901,0.6656410256410257
2.6989974530006293,0.767985347985348,0.0,0.5745787545787545
2.701332683005603,0.767985347985348,0.0,0.5745787545787545
2.701503156000399,0.767985347985348,0.0,0.5745787545787545
2.706704295007512,0.767985347985348,0.0,0.5745787545787545
2.7099499280011514,0.767985347985348,0.0,0.5745787545787545
2.7115204080037074,0.767985347985348,0.0,0.5745787545787545
2.7159970329958014,1.0645421245421245,0.0,0.5681318681318681
2.716279405998648,1.0645421245421245,0.0,0.5681318681318681
2.721420930000022,1.0645421245421245,0.0,0.5681318681318681
2.7251666039956035,1.0645421245421245,0.0,0.5681318681318681
2.7305070809961762,2.5843956043956045,0.0,2.1202197802197804
2.7328688200068427,1.2934065934065933,0.0,0.6728937728937728
2.7336655630060704,1.2934065934065933,0.0,0.6728937728937728
2.735229268000694,1.2934065934065933,0.0,0.6728937728937728
2.7396249010052998,1.2934065934065933,0.0,0.6728937728937728
2.7405080559983617,1.2934065934065933,0.0,0.6728937728937728
2.742127589008305,1.2934065934065933,0.0,0.6728937728937728
2.746598569006892,1.2934065934065933,0.0,0.6728937728937728
2.7469071399973473,2.6037362637362635,0.0,2.320879120879121
2.7521558529988397,2.6037362637362635,0.0,2.320879120879121
2.755257671000436,2.6037362637362635,0.0,2.320879120879121
2.7569174600066617,2.6037362637362635,0.0,2.320879120879121
2.762848137994297,2.6037362637362635,0.0,2.320879120879121
2.768987517003552,2.6037362637362635,0.0,2.320879120879121
2.772802972001955,1.0274725274725274,0.0,0.49399267399267394
2.778067266001017,1.0274725274725274,0.0,0.49399267399267394
2.780396407993976,1.0274725274725274,0.0,0.49399267399267394
2.780586342996685,1.0274725274725274,0.0,0.49399267399267394
2.7857811379944906,1.0274725274725274,0.0,0.49399267399267394
2.7895964549970813,2.1589010989010986,0.0,1.2007326007326007
2.794059609004762,2.1589010989010986,0.0,1.2007326007326007
2.7956037029944127,2.1589010989010986,0.0,1.2007326007326007
2.800196715994389,2.1589010989010986,0.0,1.2007326007326007
2.8004118490061956,2.1589010989010986,0.0,1.2007326007326007
2.8056769100076053,2.1589010989010986,0.0,1.2007326007326007
2.8073959830071544,2.5441025641025643,0.0,2.1677655677655676
2.8107127730036154,2.5441025641025643,0.0,2.1677655677655676
2.8122655369952554,2.5441025641025643,0.0,2.1677655677655676
2.81636507899384,2.5441025641025643,0.0,2.1677655677655676
2.8195365099963965,0.14908424908424908,0.0,0.3586080586080586
2.821810335997725,0.14908424908424908,0.0,0.3586080586080586
2.822035667995806,0.14908424908424908,0.0,0.3586080586080586
2.8310558929952094,2.112161172161172,0.0,0.7196336996336996
2.840139216001262,2.112161172161172,0.0,0.7196336996336996
2.844953487001476,3.3,0.0,1.0443956043956042
2.8512745490006637,2.526373626373626,0.0,2.174212454212454
2.85813689600036,2.2878388278388275,0.0,1.9453479853479854
2.8632204860041384,2.2878388278388275,0.0,1.9453479853479854
2.865549887996167,2.2878388278388275,0.0,1.9453479853479854
2.865812927004299,2.2878388278388275,0.0,1.9453479853479854
2.874185391003266,2.2878388278388275,0.0,1.9453479853479854
2.879685214997153,2.2878388278388275,0.0,1.9453479853479854
2.8814025100000435,2.2878388278388275,0.0,1.9453479853479854
2.8869560599996476,2.2878388278388275,0.0,1.9453479853479854
2.8873140409996267,2.2878388278388275,0.0,1.9453479853479854
2.8964293799945153,2.2878388278388275,0.0,1.9453479853479854
2.904026017000433,2.2878388278388275,0.0,1.9453479853479854
2.910042635994614,1.00007326007326,0.0,0.6543589743589743
2.91580158600118,1.00007326007326,0.0,0.6543589743589743
2.925033113002428,1.3127472527472526,0.0,0.9783150183150182
2.9298217549949186,0.0,0.0,0.3997069597069597
2.9375629520072835,0.0,0.0,0.3997069597069597
2.9414736129983794,0.7212454212454212,0.0,0.5834432234432234
2.9463295280002058,1.1902564102564102,0.0,0.8574358974358974
2.955081213003723,1.1902564102564102,0.0,0.8574358974358974
2.961405255002319,1.1902564102564102,0.0,0.8574358974358974
2.9659448960010195,1.1902564102564102,0.0,0.8574358974358974
2.966215000007651,2.258827838827839,0.0,0.751062271062271
2.972216132999165,2.258827838827839,0.0,0.751062271062271
2.975968897007988,2.258827838827839,0.0,0.751062271062271
2.984804773994256,2.258827838827839,0.0,0.751062271062271
2.992584100997192,2.258827838827839,0.0,0.751062271062271
2.9990071360080037,2.258827838827839,0.0,0.751062271062271
3.0045769520074828,2.258827838827839,0.0,0.751062271062271
3.004714046997833,1.0613186813186812,0.0,0.5463736263736263
3.0108662599959644,2.548937728937729,0.0,2.553772893772894
3.017261665998376,1.8671794871794871,0.0,1.7108424908424908
3.0225479430082487,1.8671794871794871,0.0,1.7108424908424908
3.0228177120006876,0.913040293040293,0.0,0.6366300366300366
3.0280321080063004,0.913040293040293,0.0,0.6366300366300366
3.031140195002081,2.42967032967033,0.0,2.625494505494505
3.0339196559943957,2.42967032967033,0.0,2.625494505494505
3.0427475400065305,2.42967032967033,0.0,2.625494505494505
3.048818630995811,2.42967032967033,0.0,2.625494505494505
3.05827734900231,2.41032967032967,0.0,2.541684981684982
3.063692024006741,2.41032967032967,0.0,2.541684981684982
3.0655637460004073,2.41032967032967,0.0,2.541684981684982
3.0686168749962235,2.41032967032967,0.0,2.541684981684982
3.071613003994571,2.41032967032967,0.0,2.541684981684982
3.0745402299944544,2.41032967032967,0.0,2.541684981684982
3.076176756003406,2.41032967032967,0.0,2.541684981684982
3.080844198993873,0.04593406593406593,0.0,0.4448351648351648
3.0879702160018496,3.0276190476190474,0.0,3.0203663003663
3.091838374006329,3.0276190476190474,0.0,3.0203663003663
3.0969643970020115,3.0276190476190474,0.0,3.0203663003663
3.1004207840014715,3.0276190476190474,0.0,3.0203663003663
3.100722642004257,3.0276190476190474,0.0,3.0203663003663
3.1077456640050514,3.0276190476190474,0.0,3.0203663003663
3.1125912709976546,1.9759706959706957,2.5747252747252745,2.1129670329670325
3.1128069539990975,1.9759706959706957,2.5747252747252745,2.1129670329670325
3.117832696007099,1.9759706959706957,2.5747252747252745,2.1129670329670325
3.1240817430079915,1.9759706959706957,2.5747252747252745,2.1129670329670325
3.128094448999036,3.3,2.7624908424908425,1.7180952380952381
3.130696321008145,3.3,2.7624908424908425,1.7180952380952381
3.137680587999057,3.3,2.7624908424908425,1.7180952380952381
3.1416118680062937,0.7446153846153846,3.3,0.4198534798534798
3.1460915899951942,0.7446153846153846,3.3,0.4198534798534798
3.146929681999609,0.7446153846153846,3.3,0.4198534798534798
3.148601388995303,0.7446153846153846,3.3,0.4198534798534798
3.152289428995573,1.2095970695970695,2.896263736263736,0.8767765567765567
3.158565856007044,1.2095970695970695,2.896263736263736,0.8767765567765567
3.1624110160046257,2.3265201465201466,1.3602930402930402,2.5118681318681317
3.1681926870078314,2.3265201465201466,1.3602930402930402,2.5118681318681317
3.1683459720079554,2.3265201465201466,1.3602930402930402,2.5118681318681317
3.1748756720044184,2.3265201465201466,1.3602930402930402,2.5118681318681317
3.1786804129951634,0.9726739926739927,1.4432967032967032,0.8928937728937728
3.1840232130052755,0.0,1.1145054945054944,0.5367032967032966
3.1901080929965246,1.05003663003663,0.917069597069597,0.4416117216117216
3.193388359999517,1.813992673992674,1.3417582417582417,1.8325274725274725
3.1942608039971674,1.813992673992674,1.3417582417582417,1.8325274725274725
3.1959766700019827,1.813992673992674,1.3417582417582417,1.8325274725274725
3.2002870129945222,1.813992673992674,1.3417582417582417,1.8325274725274725
3.202603989004274,1.813992673992674,1.3417582417582417,1.8325274725274725
3.207417052006349,1.813992673992674,1.3417582417582417,1.8325274725274725
3.213005572994007,1.813992673992674,1.3417582417582417,1.8325274725274725
3.213274684996577,1.4489377289377288,1.0564835164835162,0.6688644688644688
3.2186824530072045,1.4489377289377288,1.0564835164835162,0.6688644688644688
3.220935464007198,0.5407326007326007,0.8389010989010988,0.5616849816849817
3.221216024001478,0.5407326007326007,0.8389010989010988,0.5616849816849817
3.2266905510041397,0.5407326007326007,0.8389010989010988,0.5616849816849817
3.227054463000968,0.5407326007326007,0.8389010989010988,0.5616849816849817
3.231794674997218,1.714065934065934,0.8284249084249083,1.6286446886446886
3.231975365008111,1.714065934065934,0.8284249084249083,1.6286446886446886
3.2382749850075925,1.714065934065934,0.8284249084249083,1.6286446886446886
3.2414361919945804,1.714065934065934,0.8284249084249083,1.6286446886446886
3.2430545300012454,2.3974358974358974,0.1087912087912088,2.5046153846153842
3.2478580030001467,2.3974358974358974,0.1087912087912088,2.5046153846153842
3.254954928997904,2.3974358974358974,0.1087912087912088,2.5046153846153842
3.2596792520052986,1.3707692307692307,0.0,1.1652747252747253
3.2653614330047276,2.635970695970696,0.0,2.7745787545787546
3.2662093859980814,2.635970695970696,0.0,2.7745787545787546
3.2680288109986577,2.635970695970696,0.0,2.7745787545787546
3.271459171999595,2.635970695970696,0.0,2.7745787545787546
3.2814033339964226,1.2547252747252746,0.0,1.1846153846153846
3.289287420004257,3.3,0.0,1.2700366300366301
3.2938542640040396,3.3,0.0,1.2700366300366301
3.293960541996057,3.3,0.0,1.2700366300366301
3.299690375002683,3.3,0.0,1.2700366300366301
3.299919555996894,3.3,0.0,1.2700366300366301
3.306598088995088,3.3,0.0,1.2700366300366301
3.3112334470060887,3.3,0.0,1.2700366300366301
3.3114556490036193,3.3,0.0,1.2700366300366301
3.319288682003389,3.3,0.0,1.2700366300366301
3.323680856003193,3.3,0.0,1.2700366300366301
3.323960845998954,3.3,0.0,1.2700366300366301
3.330195333008305,2.233040293040293,0.0,2.357142857142857
3.335161341994535,1.1789743589743589,0.0,1.1564102564102563
3.341007360999356,1.1789743589743589,0.0,1.1564102564102563
3.3466741230076877,1.1789743589743589,0.0,1.1564102564102563
3.3560316530056298,1.1789743589743589,0.0,1.1564102564102563
3.3619554879987845,0.5310622710622711,0.0,0.4126007326007326
3.3740004150022287,2.697216117216117,0.0,2.933333333333333
3.383162812999217,2.697216117216117,0.0,2.933333333333333
3.3906751979957335,3.3,0.0,1.622197802197802
3.3955719049990876,3.3,0.0,1.622197802197802
3.403608658001758,0.5552380952380952,0.0,0.5584615384615385
3.409553303004941,2.0347985347985347,0.0,2.1637362637362636
3.4128430080018006,2.0347985347985347,0.0,2.1637362637362636
3.4156064609996974,2.0347985347985347,0.0,2.1637362637362636
3.4216184039978543,2.0347985347985347,0.0,2.1637362637362636
3.4251268740044907,1.3812454212454213,1.7640293040293038,1.6810256410256408
3.425443920001271,2.0388278388278387,2.573113553113553,2.5175091575091573
3.4341303240071284,2.0388278388278387,2.573113553113553,2.5175091575091573
3.440568225996685,0.6076190476190476,2.5747252747252745,0.581025641025641
3.444526969004073,0.6076190476190476,2.5747252747252745,0.581025641025641
3.448382746995776,3.3,2.747985347985348,1.696336996336996
3.45427381900663,3.3,2.747985347985348,1.696336996336996
3.46203140700527,3.3,2.747985347985348,1.696336996336996
3.4661452580039622,3.3,2.747985347985348,1.696336996336996
3.4718676899938146,3.3,2.747985347985348,1.696336996336996
3.4761911670066183,3.3,2.747985347985348,1.696336996336996
3.477739416004624,3.3,2.747985347985348,1.696336996336996
3.4816484759940067,3.3,2.747985347985348,1.696336996336996
3.488205082001514,3.3,2.747985347985348,1.696336996336996
3.4933682569972007,3.3,2.747985347985348,1.696336996336996
3.4942222429963294,0.7534798534798535,1.2079853479853477,0.4013186813186813
3.4957661609951174,0.7534798534798535,1.2079853479853477,0.4013186813186813
3.5029424660024233,0.7534798534798535,1.2079853479853477,0.4013186813186813
3.5068946209939895,0.7534798534798535,1.2079853479853477,0.4013186813186813
3.5107375960069476,0.7534798534798535,1.2079853479853477,0.4013186813186813
3.514594238004065,0.7534798534798535,1.2079853479853477,0.4013186813186813
3.5223346690036124,0.7534798534798535,1.2079853479853477,0.4013186813186813
3.526963231008267,0.7534798534798535,1.2079853479853477,0.4013186813186813
3.527862292001373,1.859120879120879,1.199120879120879,2.0146520146520146
3.529482742000255,1.859120879120879,1.199120879120879,2.0146520146520146
3.532760778994998,1.859120879120879,1.199120879120879,2.0146520146520146
3.534578117003548,1.859120879120879,1.199120879120879,2.0146520146520146
3.5374089800025104,1.859120879120879,1.199120879120879,2.0146520146520146
3.5400521039991872,1.859120879120879,1.199120879120879,2.0146520146520146
3.5446811160072684,1.859120879120879,1.199120879120879,2.0146520146520146
3.5449264380004024,3.2903296703296703,1.9598534798534797,1.54
3.550183769999421,3.2903296703296703,1.9598534798534797,1.54
3.5546588559955126,1.93003663003663,1.0105494505494506,2.108131868131868
3.559387033994426,1.93003663003663,1.0105494505494506,2.108131868131868
3.5595270229969174,1.93003663003663,1.0105494505494506,2.108131868131868
3.5642207649943884,1.93003663003663,1.0105494505494506,2.108131868131868
3.5644505259988364,1.93003663003663,1.0105494505494506,2.108131868131868
3.572140265998314,1.93003663003663,1.0105494505494506,2.108131868131868
3.5760373640077887,1.93003663003663,1.0105494505494506,2.108131868131868
3.5798153479991015,1.93003663003663,1.0105494505494506,2.108131868131868
3.5871777459979057,1.93003663003663,1.0105494505494506,2.108131868131868
3.5914354150008876,1.93003663003663,1.0105494505494506,2.108131868131868
3.5931029390048934,1.3482051282051282,0.5729670329670329,1.0226373626373626
3.5970716419979,1.3482051282051282,0.5729670329670329,1.0226373626373626
3.602393737004604,1.3482051282051282,0.5729670329670329,1.0226373626373626
3.602699531998951,1.3482051282051282,0.5729670329670329,1.0226373626373626
3.6082976540055824,1.3482051282051282,0.5729670329670329,1.0226373626373626
3.6085269070026698,1.3482051282051282,0.5729670329670329,1.0226373626373626
3.6134656659996836,1.3482051282051282,0.5729670329670329,1.0226373626373626
3.6199445980018936,1.3482051282051282,0.5729670329670329,1.0226373626373626
3.6238914620043943,2.3007326007326006,0.7035164835164834,2.760879120879121
3.6276918619987555,3.3,1.8849084249084247,1.498901098901099
3.632436682994012,2.0468864468864467,1.0242490842490841,2.465934065934066
3.6326030570053263,2.0468864468864467,1.0242490842490841,2.465934065934066
3.639301944000181,2.0468864468864467,1.0242490842490841,2.465934065934066
3.643236675998196,2.0468864468864467,1.0242490842490841,2.465934065934066
3.6470597269944847,2.0468864468864467,1.0242490842490841,2.465934065934066
3.6568343389953952,2.283003663003663,0.8437362637362636,2.6117948717948716
3.6614564519986743,2.283003663003663,0.8437362637362636,2.6117948717948716
3.6617067140032304,2.283003663003663,0.8437362637362636,2.6117948717948716
3.6679453660035506,1.4247619047619047,0.7824908424908424,0.6197069597069597
3.6744537850026973,1.7527472527472527,0.5246153846153846,1.6955311355311353
3.6783714939956553,1.1104761904761904,0.3352380952380952,1.3312820512820513
3.6840509369940264,1.1104761904761904,0.3352380952380952,1.3312820512820513
3.684294090999174,1.1104761904761904,0.3352380952380952,1.3312820512820513
3.6896027979964856,1.1104761904761904,0.3352380952380952,1.3312820512820513
3.691233377001481,1.1104761904761904,0.3352380952380952,1.3312820512820513
3.695751317005488,1.1104761904761904,0.3352380952380952,1.3312820512820513
3.6961132020078367,1.1104761904761904,0.3352380952380952,1.3312820512820513
3.7012991350056836,1.1104761904761904,0.3352380952380952,1.3312820512820513
3.7051686229970073,2.3684249084249083,0.6922344322344323,2.7415384615384615
3.7087866840010975,1.9332600732600733,1.079047619047619,2.2362637362637363
3.7135565170028713,1.9332600732600733,1.079047619047619,2.2362637362637363
3.721858823002549,1.9332600732600733,1.079047619047619,2.2362637362637363
3.7265837580052903,2.4747985347985346,0.842124542124542,2.8954578754578755
3.7268288119958015,2.4747985347985346,0.842124542124542,2.8954578754578755
3.731458037000266,2.4747985347985346,0.842124542124542,2.8954578754578755
3.7317249170009745,2.4747985347985346,0.842124542124542,2.8954578754578755
3.73947811400285,2.4747985347985346,0.842124542124542,2.8954578754578755
3.744029319001129,2.4747985347985346,0.842124542124542,2.8954578754578755
3.745677105995128,2.4747985347985346,0.842124542124542,2.8954578754578755
3.749084451003,2.4747985347985346,0.842124542124542,2.8954578754578755
3.7493462950078538,2.4747985347985346,0.842124542124542,2.8954578754578755
3.7563528479950037,2.4747985347985346,0.842124542124542,2.8954578754578755
3.760275424006977,0.2868864468864469,0.3021978021978022,0.3158974358974359
3.764468609006144,0.2868864468864469,0.3021978021978022,0.3158974358974359
3.767121387005318,2.8164835164835162,1.6173626373626373,1.3425641025641024
3.7738765999965835,2.8164835164835162,1.6173626373626373,1.3425641025641024
3.778632198998821,2.8164835164835162,1.6173626373626373,1.3425641025641024
3.782514673002879,2.8164835164835162,1.6173626373626373,1.3425641025641024
3.789246906002518,2.8164835164835162,1.6173626373626373,1.3425641025641024
3.793774559002486,1.8019047619047617,1.108058608058608,1.2853479853479852
3.793993418003083,1.8019047619047617,1.108058608058608,1.2853479853479852
3.7988972890016157,1.8019047619047617,1.108058608058608,1.2853479853479852
3.8110511169943493,1.8019047619047617,1.108058608058608,1.2853479853479852
3.821426431997679,1.8019047619047617,1.108058608058608,1.2853479853479852
3.8309373640076956,1.8019047619047617,1.108058608058608,1.2853479853479852
3.8380694730003597,3.3,1.6044688644688643,1.3691575091575092
3.844395018008072,3.3,1.6044688644688643,1.3691575091575092
3.848297738994006,3.3,1.6044688644688643,1.3691575091575092
3.8554953840066446,2.1129670329670325,0.8018315018315018,2.3998534798534794
3.861478803999489,2.1129670329670325,0.8018315018315018,2.3998534798534794
3.866028764998191,2.1129670329670325,0.8018315018315018,2.3998534798534794
3.86632115500106,2.1129670329670325,0.8018315018315018,2.3998534798534794
3.8727619419951225,2.1129670329670325,0.8018315018315018,2.3998534798534794
3.87681482899643,0.7712087912087912,0.2071062271062271,0.5318681318681319
3.881320708998828,0.7712087912087912,0.2071062271062271,0.5318681318681319
3.8815919369953917,0.7712087912087912,0.2071062271062271,0.5318681318681319
3.888931687004515,0.7712087912087912,0.2071062271062271,0.5318681318681319
3.893277939001564,0.7712087912087912,0.2071062271062271,0.5318681318681319
3.8949534989951644,3.3,1.7253479853479854,1.2926007326007325
3.8980728010064922,3.3,1.7253479853479854,1.2926007326007325
3.901119308997295,3.3,1.7253479853479854,1.2926007326007325
3.903133533007349,1.9566300366300364,0.5109157509157509,2.311208791208791
3.9051368640066357,1.9566300366300364,0.5109157509157509,2.311208791208791
3.906117689999519,1.9566300366300364,0.5109157509157509,2.311208791208791
3.9070520639943425,1.9566300366300364,0.5109157509157509,2.311208791208791
3.90936957699887,1.9566300366300364,0.5109157509157509,2.311208791208791
3.9096203289955156,1.9566300366300364,0.5109157509157509,2.311208791208791
3.9141131450014655,1.9566300366300364,0.5109157509157509,2.311208791208791
3.916144896997139,1.9566300366300364,0.5109157509157509,2.311208791208791
3.918571347006946,1.9566300366300364,0.5109157509157509,2.311208791208791
3.9271519720059587,1.9566300366300364,0.5109157509157509,2.311208791208791
3.9341302910033846,1.9566300366300364,0.5109157509157509,2.311208791208791
3.9392589680064702,1.9566300366300364,0.5109157509157509,2.311208791208791
3.9434689920017263,1.9566300366300364,0.5109157509157509,2.311208791208791
3.943831284996122,1.9566300366300364,0.5109157509157509,2.311208791208791
3.95201326199458,1.9566300366300364,0.5109157509157509,2.311208791208791
3.957212202003575,1.9566300366300364,0.5109157509157509,2.311208791208791
3.9589141699980246,1.9566300366300364,0.5109157509157509,2.311208791208791
3.9627578259969596,1.9566300366300364,0.5109157509157509,2.311208791208791
3.9700454929989064,1.9566300366300364,0.5109157509157509,2.311208791208791
3.973428266006522,1.9566300366300364,0.5109157509157509,2.311208791208791
3.973678688998916,1.9566300366300364,0.5109157509157509,2.311208791208791
3.978415960998973,1.9566300366300364,0.5109157509157509,2.311208791208791
3.978596421002294,1.9566300366300364,0.5109157509157509,2.311208791208791
3.9854718720016535,1.9566300366300364,0.5109157509157509,2.311208791208791
3.9893577640032163,1.9566300366300364,0.5109157509157509,2.311208791208791
3.9924235020007472,1.9566300366300364,0.5109157509157509,2.311208791208791
3.995047396994778,1.9566300366300364,0.5109157509157509,2.311208791208791
4.000301808002405,1.9566300366300364,0.5109157509157509,2.311208791208791
4.00416087800113,1.9566300366300364,0.5109157509157509,2.311208791208791
4.006652819007286,1.9566300366300364,0.5109157509157509,2.311208791208791
4.012285100994632,1.9566300366300364,0.5109157509157509,2.311208791208791
4.012541799005703,1.1652747252747253,0.2683516483516483,1.3643223443223442
4.019578013001592,1.1652747252747253,0.2683516483516483,1.3643223443223442
4.024363621007069,1.1652747252747253,0.2683516483516483,1.3643223443223442
4.029041129993857,1.1652747252747253,0.2683516483516483,1.3643223443223442
4.029200247998233,1.1652747252747253,0.2683516483516483,1.3643223443223442
4.035238430995378,1.1652747252747253,0.2683516483516483,1.3643223443223442
4.040072429997963,1.1652747252747253,0.2683516483516483,1.3643223443223442
4.044815401008236,2.311208791208791,0.6938461538461538,3.013919413919414
4.04492233300698,2.311208791208791,0.6938461538461538,3.013919413919414
4.050560866002343,2.311208791208791,0.6938461538461538,3.013919413919414
4.0508150789974025,2.311208791208791,0.6938461538461538,3.013919413919414
4.058377595996717,2.311208791208791,0.6938461538461538,3.013919413919414
4.062880440003937,3.3,1.647985347985348,1.4916483516483516
4.063818163005635,3.3,1.647985347985348,1.4916483516483516
4.065479583005072,1.950989010989011,0.9307692307692307,2.481245421245421
4.072581542000989,2.1556776556776556,0.8799999999999999,2.822124542124542
4.077249524998479,2.1556776556776556,0.8799999999999999,2.822124542124542
4.083237785001984,2.1556776556776556,0.8799999999999999,2.822124542124542
4.083548144000815,2.1556776556776556,0.8799999999999999,2.822124542124542
4.089472209001542,2.1556776556776556,0.8799999999999999,2.822124542124542
4.095139708006172,2.1556776556776556,0.8799999999999999,2.822124542124542
4.102432558996952,0.09267399267399268,0.2594871794871795,0.49076923076923074
4.106201047994546,3.3,1.9292307692307693,1.684249084249084
4.112338851002278,3.3,1.9292307692307693,1.684249084249084
4.11792012200749,3.3,1.9292307692307693,1.684249084249084
4.125603792999755,0.03062271062271062,0.22967032967032966,0.3852014652014652
4.1319307219964685,0.03062271062271062,0.22967032967032966,0.3852014652014652
4.138271600008011,0.8904761904761904,0.1772893772893773,0.8453479853479853
4.143602404001285,0.8904761904761904,0.1772893772893773,0.8453479853479853
4.144448195002042,0.8904761904761904,0.1772893772893773,0.8453479853479853
4.1460675279959105,0.8904761904761904,0.1772893772893773,0.8453479853479853
4.152789576997748,0.8904761904761904,0.1772893772893773,0.8453479853479853
4.15821565000806,0.8904761904761904,0.1772893772893773,0.8453479853479853
4.1586215590068605,0.925128205128205,0.5350915750915751,0.788937728937729
4.167764222002006,0.925128205128205,0.5350915750915751,0.788937728937729
4.175175037002191,0.925128205128205,0.5350915750915751,0.788937728937729
4.179375353996875,0.925128205128205,0.5350915750915751,0.788937728937729
4.181640171998879,0.925128205128205,0.5350915750915751,0.788937728937729
4.181894812005339,0.925128205128205,0.5350915750915751,0.788937728937729
4.190714409007342,0.925128205128205,0.5350915750915751,0.788937728937729
4.1981418219947955,0.925128205128205,0.5350915750915751,0.788937728937729
4.204592016001698,3.3,2.0267399267399266,1.4876190476190476
4.210300848993938,3.3,2.0267399267399266,1.4876190476190476
4.22150595599669,3.3,2.0267399267399266,1.4876190476190476
4.230536615999881,0.27076923076923076,0.34007326007326005,0.6454945054945055
4.238161866000155,0.27076923076923076,0.34007326007326005,0.6454945054945055
4.244159560999833,1.8413919413919413,0.7212454212454212,2.441758241758242
4.2482833310059505,1.8413919413919413,0.7212454212454212,2.441758241758242
4.252141140997992,1.8413919413919413,0.7212454212454212,2.441758241758242
4.256801395997172,1.8413919413919413,0.7212454212454212,2.441758241758242
4.260807272003149,1.8413919413919413,0.7212454212454212,2.441758241758242
4.264632057005656,2.415164835164835,0.850989010989011,3.2935531135531133
4.271224053998594,2.415164835164835,0.850989010989011,3.2935531135531133
4.27447992299858,2.415164835164835,0.850989010989011,3.2935531135531133
4.275410625996301,2.415164835164835,0.850989010989011,3.2935531135531133
4.276973109997925,2.415164835164835,0.850989010989011,3.2935531135531133
4.280890027002897,0.0,0.20146520146520144,0.5084981684981685
4.2894563890004065,0.0,0.20146520146520144,0.5084981684981685
4.293521633997443,0.0,0.20146520146520144,0.5084981684981685
4.296855050008162,0.0,0.20146520146520144,0.5084981684981685
4.298316148997401,0.4899633699633699,0.4214652014652014,0.5552380952380952
4.305758995003998,0.4899633699633699,0.4214652014652014,0.5552380952380952
4.31072269899596,0.4899633699633699,0.4214652014652014,0.5552380952380952
4.315118521000841,0.4899633699633699,0.4214652014652014,0.5552380952380952
4.316958605006221,1.9106959706959707,1.17010989010989,0.9791208791208791
4.320250367003609,1.9106959706959707,1.17010989010989,0.9791208791208791
4.320527578005567,1.9106959706959707,1.17010989010989,0.9791208791208791
4.327621803007787,1.9106959706959707,1.17010989010989,0.9791208791208791
4.33325750399672,1.9106959706959707,1.17010989010989,0.9791208791208791
4.340950912999688,1.9106959706959707,1.17010989010989,0.9791208791208791
4.345650136005133,1.9106959706959707,1.17010989010989,0.9791208791208791
4.345767071994487,1.9106959706959707,1.17010989010989,0.9791208791208791
4.3541233529977035,1.9106959706959707,1.17010989010989,0.9791208791208791
4.35829165999894,1.9106959706959707,1.17010989010989,0.9791208791208791
4.3607887200050754,0.1095970695970696,0.28124542124542123,0.3763369963369963
4.360981424993952,2.6778754578754578,0.8324542124542124,2.7044688644688644
4.36582781499601,2.6778754578754578,0.8324542124542124,2.7044688644688644
4.3736908480059355,2.6778754578754578,0.8324542124542124,2.7044688644688644
4.380908728999202,2.6778754578754578,0.8324542124542124,2.7044688644688644
4.387202309007989,2.8535531135531134,0.8163369963369963,2.6085714285714285
4.390510013996391,2.8535531135531134,0.8163369963369963,2.6085714285714285
4.391357735003112,2.8535531135531134,0.8163369963369963,2.6085714285714285
4.392929288995219,2.8535531135531134,0.8163369963369963,2.6085714285714285
4.397226146000321,2.8535531135531134,0.8163369963369963,2.6085714285714285
4.399872623005649,2.8535531135531134,0.8163369963369963,2.6085714285714285
4.404915160994278,2.8535531135531134,0.8163369963369963,2.6085714285714285
4.4074352479947265,2.8535531135531134,0.8163369963369963,2.6085714285714285
4.407554293007706,2.8535531135531134,0.8163369963369963,2.6085714285714285
4.412218593002763,2.8535531135531134,0.8163369963369963,2.6085714285714285
4.412488324000151,2.8535531135531134,0.8163369963369963,2.6085714285714285
4.420268636997207,2.8535531135531134,0.8163369963369963,2.6085714285714285
4.4272852660069475,2.8535531135531134,0.8163369963369963,2.6085714285714285
4.430680912002572,1.9074725274725273,1.037948717948718,1.6149450549450548
4.430977377007366,1.9074725274725273,1.037948717948718,1.6149450549450548
4.438135643998976,1.9074725274725273,1.037948717948718,1.6149450549450548
4.441485137998825,1.9074725274725273,1.037948717948718,1.6149450549450548
4.4423241750046145,1.9074725274725273,1.037948717948718,1.6149450549450548
4.443963612997322,1.9074725274725273,1.037948717948718,1.6149450549450548
4.448451574004139,1.9074725274725273,1.037948717948718,1.6149450549450548
4.448838163996697,1.9074725274725273,1.037948717948718,1.6149450549450548
4.459545331003028,1.9074725274725273,1.037948717948718,1.6149450549450548
4.467956542008324,1.9074725274725273,1.037948717948718,1.6149450549450548
4.4749995860038325,1.9074725274725273,1.037948717948718,1.6149450549450548
4.48006592800084,1.3594871794871795,0.2232234432234432,1.070989010989011
4.4829437879961915,1.3594871794871795,0.2232234432234432,1.070989010989011
4.490226567999343,1.3594871794871795,0.2232234432234432,1.070989010989011
4.49503891900531,1.3393406593406594,0.09831501831501832,0.6527472527472526
4.504199230999802,1.3393406593406594,0.09831501831501832,0.6527472527472526
4.510028681994299,1.3393406593406594,0.09831501831501832,0.6527472527472526
4.521137789997738,1.0854945054945053,0.19985347985347984,0.5254212454212454
4.530840004998026,1.0854945054945053,0.19985347985347984,0.5254212454212454
4.5407240519998595,1.0854945054945053,0.19985347985347984,0.5254212454212454
4.549154103006003,1.0854945054945053,0.19985347985347984,0.5254212454212454
4.557417867006734,2.5876190476190475,0.788937728937729,2.0114285714285716
4.5645641470036935,2.5876190476190475,0.788937728937729,2.0114285714285716
4.57097595500818,2.5876190476190475,0.788937728937729,2.0114285714285716
4.574182912998367,1.4094505494505494,0.19018315018315018,0.9605860805860806
4.575804526000866,1.4094505494505494,0.19018315018315018,0.9605860805860806
4.580376822006656,1.4094505494505494,0.19018315018315018,0.9605860805860806
4.580605210998328,1.4094505494505494,0.19018315018315018,0.9605860805860806
4.58763949299464,1.212820512820513,0.5915018315018314,0.4222710622710622
4.591642382001737,2.763296703296703,0.7147985347985348,2.341025641025641
4.594648584999959,2.763296703296703,0.7147985347985348,2.341025641025641
4.59705085499445,2.763296703296703,0.7147985347985348,2.341025641025641
4.597290784004144,2.763296703296703,0.7147985347985348,2.341025641025641
4.604231364006409,2.763296703296703,0.7147985347985348,2.341025641025641
4.608136844006367,2.763296703296703,0.7147985347985348,2.341025641025641
4.612777397007449,2.763296703296703,0.7147985347985348,2.341025641025641
4.620678442006465,2.763296703296703,0.7147985347985348,2.341025641025641
4.626883082994027,2.763296703296703,0.7147985347985348,2.341025641025641
4.629958460005582,2.763296703296703,0.7147985347985348,2.341025641025641
4.632339193994994,1.518241758241758,0.2756043956043956,1.2652014652014651
4.632645770005183,1.518241758241758,0.2756043956043956,1.2652014652014651
4.639886110002408,1.518241758241758,0.2756043956043956,1.2652014652014651
4.643719959000009,3.2339194139194136,0.8243956043956043,2.7036630036630034
4.647583690995816,3.2339194139194136,0.8243956043956043,2.7036630036630034
4.655065383005422,3.2339194139194136,0.8243956043956043,2.7036630036630034
4.661501205002423,3.2339194139194136,0.8243956043956043,2.7036630036630034
4.670277188997716,0.09912087912087912,0.24417582417582417,0.3811721611721612
4.6786459569993895,2.7906959706959706,0.689010989010989,2.3047619047619046
4.6906952429999365,3.3,1.6455677655677654,1.2660073260073261
4.700465062007424,2.6408058608058607,0.9718681318681318,0.8526007326007327
4.7126003809971735,2.6408058608058607,0.9718681318681318,0.8526007326007327
4.728263616998447,3.3,1.851062271062271,1.6125274725274723
4.740562343999045,3.3,1.851062271062271,1.6125274725274723
4.753811340997345,0.8711355311355311,0.5012454212454212,0.5786080586080585
4.761871310998686,0.8711355311355311,0.5012454212454212,0.5786080586080585
4.76984067200101,0.8711355311355311,0.5012454212454212,0.5786080586080585
4.774550772999646,0.8711355311355311,0.5012454212454212,0.5786080586080585
4.780657113005873,3.3,1.854285714285714,1.44007326007326
4.787529324006755,3.3,1.854285714285714,1.44007326007326
4.794162902995595,2.7125274725274724,0.7857142857142856,2.3128205128205126
4.800602144998265,2.7125274725274724,0.7857142857142856,2.3128205128205126
4.807112370006507,2.7125274725274724,0.7857142857142856,2.3128205128205126
4.8113376749970485,2.46996336996337,0.5399267399267399,1.926007326007326
4.813149003995932,2.46996336996337,0.5399267399267399,1.926007326007326
4.818284950000816,2.46996336996337,0.5399267399267399,1.926007326007326
4.821658251006738,2.46996336996337,0.5399267399267399,1.926007326007326
4.8277281659975415,2.46996336996337,0.5399267399267399,1.926007326007326
4.831617834002827,2.46996336996337,0.5399267399267399,1.926007326007326
4.838913451996632,2.46996336996337,0.5399267399267399,1.926007326007326
4.842838933996973,2.46996336996337,0.5399267399267399,1.926007326007326
4.847722278995207,2.46996336996337,0.5399267399267399,1.926007326007326
4.855226711006253,2.46996336996337,0.5399267399267399,1.926007326007326
4.859379572997568,2.46996336996337,0.5399267399267399,1.926007326007326
4.861740253007156,2.46996336996337,0.5399267399267399,1.926007326007326
4.861969998004497,2.46996336996337,0.5399267399267399,1.926007326007326
4.870138048994704,2.46996336996337,0.5399267399267399,1.926007326007326
4.874118829000508,2.46996336996337,0.5399267399267399,1.926007326007326
4.878081155999098,2.46996336996337,0.5399267399267399,1.926007326007326
4.881504261997179,2.46996336996337,0.5399267399267399,1.926007326007326
4.881837007007562,2.46996336996337,0.5399267399267399,1.926007326007326
4.8903371170017635,2.46996336996337,0.5399267399267399,1.926007326007326
4.895183571003145,2.46996336996337,0.5399267399267399,1.926007326007326
4.895306046993937,2.46996336996337,0.5399267399267399,1.926007326007326
4.900975538999774,2.46996336996337,0.5399267399267399,1.926007326007326
4.901240078004776,1.859120879120879,0.6124542124542125,2.079120879120879
4.906512129004113,1.859120879120879,0.6124542124542125,2.079120879120879
4.909602454004926,1.859120879120879,0.6124542124542125,2.079120879120879
4.911890892995871,1.859120879120879,0.6124542124542125,2.079120879120879
4.912198828998953,1.859120879120879,0.6124542124542125,2.079120879120879
4.920270960996277,1.859120879120879,0.6124542124542125,2.079120879120879
4.925146608002251,0.6108424908424909,0.44402930402930396,0.5761904761904761
4.9299553250020836,0.6108424908424909,0.44402930402930396,0.5761904761904761
4.930075871001463,0.6108424908424909,0.44402930402930396,0.5761904761904761
4.937394253996899,0.6108424908424909,0.44402930402930396,0.5761904761904761
4.941156486995169,0.6108424908424909,0.44402930402930396,0.5761904761904761
4.950047481004731,1.995311355311355,0.4553113553113553,1.9534065934065934
4.9584164639964,1.995311355311355,0.4553113553113553,1.9534065934065934
4.964459216003888,1.995311355311355,0.4553113553113553,1.9534065934065934
4.97094458299398,1.995311355311355,0.4553113553113553,1.9534065934065934
4.976268316007918,1.995311355311355,0.4553113553113553,1.9534065934065934
4.9777255240041995,1.995311355311355,0.4553113553113553,1.9534065934065934
4.98483867100731,1.995311355311355,0.4553113553113553,1.9534065934065934
4.988008158994489,1.995311355311355,0.4553113553113553,1.9534065934065934
4.9896392630034825,1.995311355311355,0.4553113553113553,1.9534065934065934
4.994065838007373,1.4852014652014651,0.25787545787545785,1.531135531135531
4.995590899998206,1.4852014652014651,0.25787545787545785,1.531135531135531
4.999509910005145,1.4852014652014651,0.25787545787545785,1.531135531135531
5.003312222994282,1.4852014652014651,0.25787545787545785,1.531135531135531
5.0072958700038726,1.4852014652014651,0.25787545787545785,1.531135531135531
5.010440519996337,1.4852014652014651,0.25787545787545785,1.531135531135531
5.012720283004455,1.4852014652014651,0.25787545787545785,1.531135531135531
5.013070888002403,1.4852014652014651,0.25787545787545785,1.531135531135531
5.0187305889994605,1.4852014652014651,0.25787545787545785,1.531135531135531
5.01892118199612,1.4852014652014651,0.25787545787545785,1.531135531135531
5.024201649008319,1.4852014652014651,0.25787545787545785,1.531135531135531
5.026765493006678,1.4852014652014651,0.25787545787545785,1.531135531135531
5.032270787996822,2.46996336996337,0.6317948717948718,2.8366300366300368
5.0333554959943285,2.46996336996337,0.6317948717948718,2.8366300366300368
5.0336538330011535,2.46996336996337,0.6317948717948718,2.8366300366300368
5.038650557995425,2.46996336996337,0.6317948717948718,2.8366300366300368
5.042156424999121,2.46996336996337,0.6317948717948718,2.8366300366300368
5.042386247005197,2.46996336996337,0.6317948717948718,2.8366300366300368
5.047299785001087,2.46996336996337,0.6317948717948718,2.8366300366300368
5.052271110995207,2.5602197802197804,0.5141391941391941,2.984102564102564
5.057215316002839,2.5602197802197804,0.5141391941391941,2.984102564102564
5.062184144000639,2.5602197802197804,0.5141391941391941,2.984102564102564
5.066408337006578,2.5602197802197804,0.5141391941391941,2.984102564102564
5.068632345995866,2.2765567765567765,0.8227838827838827,2.540879120879121
5.0689687529957155,2.2765567765567765,0.8227838827838827,2.540879120879121
5.073801935999654,2.2765567765567765,0.8227838827838827,2.540879120879121
5.0811233860003995,0.7953846153846154,0.31267399267399265,0.7244688644688644
5.086952502999338,0.7953846153846154,0.31267399267399265,0.7244688644688644
5.091573764002533,0.7953846153846154,0.31267399267399265,0.7244688644688644
5.091788063000422,0.7953846153846154,0.31267399267399265,0.7244688644688644
5.097521168994717,0.7953846153846154,0.31267399267399265,0.7244688644688644
5.09780419600429,0.7953846153846154,0.31267399267399265,0.7244688644688644
5.10562221800501,0.7953846153846154,0.31267399267399265,0.7244688644688644
5.110162928001955,0.7953846153846154,0.31267399267399265,0.7244688644688644
5.111743297005887,0.7953846153846154,0.31267399267399265,0.7244688644688644
5.116901265995693,0.7953846153846154,0.31267399267399265,0.7244688644688644
5.120278657996096,0.7953846153846154,0.31267399267399265,0.7244688644688644
5.120520219003083,0.7953846153846154,0.31267399267399265,0.7244688644688644
5.125556725994102,1.129010989010989,0.3352380952380952,1.1419047619047618
5.129147856001509,2.0654212454212453,0.5729670329670329,2.4135531135531134
5.129335980003816,1.688278388278388,0.3924542124542124,1.6906959706959706
5.13490146699769,1.688278388278388,0.3924542124542124,1.6906959706959706
5.135733564005932,0.12893772893772892,0.24578754578754577,0.5479853479853479
5.136723750998499,0.12893772893772892,0.24578754578754577,0.5479853479853479
5.137684514003922,0.12893772893772892,0.24578754578754577,0.5479853479853479
5.139369504002389,0.12893772893772892,0.24578754578754577,0.5479853479853479
5.14320720199612,0.12893772893772892,0.24578754578754577,0.5479853479853479
5.147763679007767,3.3,1.759194139194139,1.926007326007326
5.148116690994357,3.3,1.759194139194139,1.926007326007326
5.1527288329962175,3.3,1.759194139194139,1.926007326007326
5.153064747995813,3.3,1.759194139194139,1.926007326007326
5.157642139005475,3.3,1.759194139194139,1.926007326007326
5.157977231996483,3.3,1.759194139194139,1.926007326007326
5.16245473100571,3.3,1.759194139194139,1.926007326007326
5.16345842499868,3.3,1.759194139194139,1.926007326007326
5.164325792997261,3.3,1.759194139194139,1.926007326007326
5.165959667996503,3.3,1.759194139194139,1.926007326007326
5.170713305007666,3.3,1.759194139194139,1.926007326007326
5.176040813996224,1.5327472527472528,0.6785347985347985,0.6422710622710622
5.178472044004593,0.025787545787545788,0.19018315018315018,0.5560439560439561
5.178581486994517,0.025787545787545788,0.19018315018315018,0.5560439560439561
5.184667456996976,0.025787545787545788,0.19018315018315018,0.5560439560439561
5.189209279997158,3.3,1.51018315018315,1.934065934065934
5.189493536003283,3.3,1.51018315018315,1.934065934065934
5.194133918994339,3.3,1.51018315018315,1.934065934065934
5.194381777007948,3.3,1.51018315018315,1.934065934065934
5.1990304100036155,3.3,1.51018315018315,1.934065934065934
5.1992620730015915,3.3,1.51018315018315,1.934065934065934
5.203903624002123,3.3,1.51018315018315,1.934065934065934
5.204164769995259,3.3,1.51018315018315,1.934065934065934
5.208684237994021,3.3,1.51018315018315,1.934065934065934
5.209532752007362,1.8252747252747252,0.381978021978022,1.818021978021978
5.211144711007364,1.8252747252747252,0.381978021978022,1.818021978021978
5.215771764997044,1.8252747252747252,0.381978021978022,1.818021978021978
5.215935662999982,1.8252747252747252,0.381978021978022,1.818021978021978
5.220515188993886,1.8252747252747252,0.381978021978022,1.818021978021978
5.2208057759999065,1.8252747252747252,0.381978021978022,1.818021978021978
5.226290488004452,1.8252747252747252,0.381978021978022,1.818021978021978
5.228005669996492,1.8252747252747252,0.381978021978022,1.818021978021978
5.231714227003977,0.9662271062271062,0.19663003663003664,0.48754578754578753
5.235548042008304,0.8372893772893772,0.1676190476190476,0.5987545787545787
5.240796469995985,0.8372893772893772,0.1676190476190476,0.5987545787545787
5.244499079999514,0.8372893772893772,0.1676190476190476,0.5987545787545787
5.249813796996023,0.8372893772893772,0.1676190476190476,0.5987545787545787
5.253556933996151,0.8372893772893772,0.1676190476190476,0.5987545787545787
5.258099910002784,0.8372893772893772,0.1676190476190476,0.5987545787545787
5.259667468999396,0.8372893772893772,0.1676190476190476,0.5987545787545787
5.264293763000751,0.8372893772893772,0.1676190476190476,0.5987545787545787
5.264577559995814,0.8372893772893772,0.1676190476190476,0.5987545787545787
5.2697901079955045,0.8372893772893772,0.1676190476190476,0.5987545787545787
5.272888097999385,1.3046886446886445,0.25787545787545785,1.4384615384615385
5.275358582002809,1.3046886446886445,0.25787545787545785,1.4384615384615385
5.28335369200795,1.3046886446886445,0.25787545787545785,1.4384615384615385
5.287157586993999,0.01531135531135531,0.17406593406593407,0.32556776556776557
5.292676658005803,1.999340659340659,0.4931868131868131,1.8663736263736261
5.294629151001573,1.999340659340659,0.4931868131868131,1.8663736263736261
5.296231369997258,0.3416849816849817,0.24417582417582417,0.4391941391941392
5.300834027002566,0.0,0.17648351648351646,0.45692307692307693
5.301102537996485,0.0,0.17648351648351646,0.45692307692307693
5.306429114003549,0.0,0.17648351648351646,0.45692307692307693
5.30796436399396,0.0,0.17648351648351646,0.45692307692307693
5.312554345000535,0.0,0.17648351648351646,0.45692307692307693
5.31271620800544,0.0,0.17648351648351646,0.45692307692307693
5.318460316993878,0.0,0.17648351648351646,0.45692307692307693
5.318603164996603,0.0,0.17648351648351646,0.45692307692307693
5.324093379007536,0.0,0.17648351648351646,0.45692307692307693
5.325104957999429,0.0,0.17648351648351646,0.45692307692307693
5.32601135900768,0.0,0.17648351648351646,0.45692307692307693
5.327674822998233,0.0,0.17648351648351646,0.45692307692307693
5.330788446008228,0.0,0.17648351648351646,0.45692307692307693
5.3324862029985525,0.0,0.17648351648351646,0.45692307692307693
5.33767278000596,0.0,0.17648351648351646,0.45692307692307693
5.339937522003311,0.0,0.17648351648351646,0.45692307692307693
5.340115273007541,0.0,0.17648351648351646,0.45692307692307693
5.346651416999521,0.0,0.17648351648351646,0.45692307692307693
5.355990120006027,0.0,0.17648351648351646,0.45692307692307693
5.36090335699555,1.025054945054945,0.14344322344322344,0.8840293040293039
5.370829442006652,1.025054945054945,0.14344322344322344,0.8840293040293039
5.378418608001084,3.3,1.598021978021978,1.5633699633699631
5.382986462995177,0.0,0.1555311355311355,0.5520146520146519
5.383250284998212,0.0,0.1555311355311355,0.5520146520146519
5.390305167995393,1.9945054945054943,0.8671062271062271,2.021904761904762
5.394100913996226,1.9517948717948717,0.5697435897435897,1.9824175824175823
5.398785012002918,1.9517948717948717,0.5697435897435897,1.9824175824175823
5.399250057002064,1.9517948717948717,0.5697435897435897,1.9824175824175823
5.404558009002358,1.9517948717948717,0.5697435897435897,1.9824175824175823
5.405629344008048,2.3716483516483513,0.9025641025641026,0.9654212454212454
5.406471251000767,2.1323076923076925,0.6189010989010989,2.0098168498168496
5.408015594002791,2.1323076923076925,0.6189010989010989,2.0098168498168496
5.412642078998033,2.1323076923076925,0.6189010989010989,2.0098168498168496
5.412780938000651,2.1323076923076925,0.6189010989010989,2.0098168498168496
5.419091446005041,2.1323076923076925,0.6189010989010989,2.0098168498168496
5.422517522005364,2.6230769230769226,0.6269597069597069,2.553772893772894
5.42275264300406,2.6230769230769226,0.6269597069597069,2.553772893772894
5.428241524001351,2.6230769230769226,0.6269597069597069,2.553772893772894
5.429984044007142,2.6230769230769226,0.6269597069597069,2.553772893772894
5.433546896994812,2.6230769230769226,0.6269597069597069,2.553772893772894
5.440857406007126,3.3,1.7011721611721609,1.349010989010989
5.445448002996272,2.7939194139194137,0.7043223443223443,2.6303296703296706
5.446306761994492,2.7939194139194137,0.7043223443223443,2.6303296703296706
5.447888064998551,2.7939194139194137,0.7043223443223443,2.6303296703296706
5.454085085002589,2.7939194139194137,0.7043223443223443,2.6303296703296706
5.457599608998862,2.7939194139194137,0.7043223443223443,2.6303296703296706
5.45776484599628,0.253040293040293,0.21032967032967032,0.46014652014652013
5.463415503007127,0.253040293040293,0.21032967032967032,0.46014652014652013
5.464233869002783,0.253040293040293,0.21032967032967032,0.46014652014652013
5.467423465001048,0.253040293040293,0.21032967032967032,0.46014652014652013
5.469342604003032,0.253040293040293,0.21032967032967032,0.46014652014652013
5.47096742100257,0.253040293040293,0.21032967032967032,0.46014652014652013
5.47597127899644,0.253040293040293,0.21032967032967032,0.46014652014652013
5.479769748999388,0.253040293040293,0.21032967032967032,0.46014652014652013
5.4878475760051515,0.253040293040293,0.21032967032967032,0.46014652014652013
5.493437619006727,2.2169230769230768,0.9452747252747251,2.1597069597069596
5.493623393995222,1.0524542124542122,0.1926007326007326,0.8920879120879119
5.500645317006274,1.0524542124542122,0.1926007326007326,0.8920879120879119
5.5059147809952265,1.0524542124542122,0.1926007326007326,0.8920879120879119
5.507448264994309,2.5102564102564098,0.7397802197802198,2.3378021978021977
5.514377344996319,2.5102564102564098,0.7397802197802198,2.3378021978021977
5.5217387409938965,2.5102564102564098,0.7397802197802198,2.3378021978021977
5.528999999005464,2.5102564102564098,0.7397802197802198,2.3378021978021977
5.53510014800122,2.5102564102564098,0.7397802197802198,2.3378021978021977
5.54035990400007,0.253040293040293,0.21274725274725276,0.29333333333333333
5.541196018006303,0.253040293040293,0.21274725274725276,0.29333333333333333
5.542809528007638,1.66007326007326,0.8356776556776556,0.7228571428571429
5.547246410002117,1.66007326007326,0.8356776556776556,0.7228571428571429
5.548297571003786,2.3128205128205126,0.9098168498168498,2.253992673992674
5.550022273993818,2.3128205128205126,0.9098168498168498,2.253992673992674
5.554137954008183,2.3128205128205126,0.9098168498168498,2.253992673992674
5.555954052004381,2.3128205128205126,0.9098168498168498,2.253992673992674
5.5583095970068825,2.3128205128205126,0.9098168498168498,2.253992673992674
5.558444807000342,2.3128205128205126,0.9098168498168498,2.253992673992674
5.563815515997703,2.3128205128205126,0.9098168498168498,2.253992673992674
5.5668171500001336,2.3128205128205126,0.9098168498168498,2.253992673992674
5.569928858007188,2.3128205128205126,0.9098168498168498,2.253992673992674
5.570227004005574,2.3128205128205126,0.9098168498168498,2.253992673992674
5.574918070007698,2.3128205128205126,0.9098168498168498,2.253992673992674
5.575202783002169,2.3128205128205126,0.9098168498168498,2.253992673992674
5.580713550007204,2.3128205128205126,0.9098168498168498,2.253992673992674
5.581053033994976,2.3128205128205126,0.9098168498168498,2.253992673992674
5.591552586003672,2.3128205128205126,0.9098168498168498,2.253992673992674
5.598165097995661,2.3128205128205126,0.9098168498168498,2.253992673992674
5.604002449006657,2.7697435897435896,0.7438095238095238,2.6577289377289377
5.608012800003053,2.8463003663003663,1.3562637362637362,1.4876190476190476
5.611089637997793,2.8463003663003663,1.3562637362637362,1.4876190476190476
5.61346691599465,2.8463003663003663,1.3562637362637362,1.4876190476190476
5.613577554002404,2.8463003663003663,1.3562637362637362,1.4876190476190476
5.619446355005493,2.8463003663003663,1.3562637362637362,1.4876190476190476
5.6262078050058335,2.8616117216117214,0.8018315018315018,2.7858608058608056
5.6308699829969555,2.2797802197802195,0.7873260073260073,2.241904761904762
5.6311761859979015,2.2797802197802195,0.7873260073260073,2.241904761904762
5.639857693997328,2.2797802197802195,0.7873260073260073,2.241904761904762
5.647205002998817,2.2797802197802195,0.7873260073260073,2.241904761904762
5.653546954999911,2.2797802197802195,0.7873260073260073,2.241904761904762
5.657119548995979,2.2797802197802195,0.7873260073260073,2.241904761904762
5.657226283001364,2.2797802197802195,0.7873260073260073,2.241904761904762
5.661878625003737,2.2797802197802195,0.7873260073260073,2.241904761904762
5.6621445680066245,2.2797802197802195,0.7873260073260073,2.241904761904762
5.6690671940014,2.2797802197802195,0.7873260073260073,2.241904761904762
5.67339564699796,2.2797802197802195,0.7873260073260073,2.241904761904762
5.6750496129971,2.2797802197802195,0.7873260073260073,2.241904761904762
5.680092826994951,2.2797802197802195,0.7873260073260073,2.241904761904762
5.685523477994138,2.2797802197802195,0.7873260073260073,2.241904761904762
5.685672132007312,2.2797802197802195,0.7873260073260073,2.241904761904762
5.690863993004314,2.2797802197802195,0.7873260073260073,2.241904761904762
5.694046339005581,1.8687912087912086,0.42630036630036633,1.3336996336996336
5.69494587299414,1.8687912087912086,0.42630036630036633,1.3336996336996336
5.696896836001542,1.8687912087912086,0.42630036630036633,1.3336996336996336
5.6986246870073956,1.8687912087912086,0.42630036630036633,1.3336996336996336
5.702535831995192,2.8148717948717947,0.6616117216117217,2.793113553113553
5.7049725459946785,2.8148717948717947,0.6616117216117217,2.793113553113553
5.705161688005319,2.173406593406593,0.8783882783882784,2.2314285714285713
5.710143710995908,2.173406593406593,0.8783882783882784,2.2314285714285713
5.714907898000092,0.9783150183150182,0.17406593406593407,0.26673992673992675
5.721518314996501,0.9783150183150182,0.17406593406593407,0.26673992673992675
5.726101738997386,0.9783150183150182,0.17406593406593407,0.26673992673992675
5.727098219998879,2.0621978021978022,0.5794139194139193,1.9816117216117215
5.727982875003363,2.0621978021978022,0.5794139194139193,1.9816117216117215
5.729904906998854,2.0621978021978022,0.5794139194139193,1.9816117216117215
5.732690634002211,2.0621978021978022,0.5794139194139193,1.9816117216117215
5.7361349970015,2.0621978021978022,0.5794139194139193,1.9816117216117215
5.736360180002521,2.0621978021978022,0.5794139194139193,1.9816117216117215
5.741804763994878,2.0621978021978022,0.5794139194139193,1.9816117216117215
5.742808491006144,2.9905494505494503,0.7115750915750916,2.844688644688645
5.743642253000871,2.9905494505494503,0.7115750915750916,2.844688644688645
5.745191206005984,2.9905494505494503,0.7115750915750916,2.844688644688645
5.751746156995068,2.357142857142857,0.5084981684981685,2.1991941391941388
5.755843696999364,1.6125274725274723,0.3416849816849817,1.137069597069597
5.758190195003408,1.6125274725274723,0.3416849816849817,1.137069597069597
5.7583872609975515,1.6125274725274723,0.3416849816849817,1.137069597069597
5.764389910997124,1.6125274725274723,0.3416849816849817,1.137069597069597
5.7708356070070295,3.3,1.8051282051282052,1.684249084249084
5.77481579099549,3.3,1.8051282051282052,1.684249084249084
5.778502458008006,3.3,1.8051282051282052,1.684249084249084
5.784557791004772,3.3,1.8051282051282052,1.684249084249084
5.792187951999949,2.2636630036630034,0.6720879120879121,2.6424175824175826
5.796403145999648,2.2636630036630034,0.6720879120879121,2.6424175824175826
5.799228439005674,2.2636630036630034,0.6720879120879121,2.6424175824175826
5.804666379000992,2.2636630036630034,0.6720879120879121,2.6424175824175826
5.804834777998622,2.2765567765567765,0.7832967032967032,2.297509157509157
5.811130791000323,2.2765567765567765,0.7832967032967032,2.297509157509157
5.817924855000456,2.2765567765567765,0.7832967032967032,2.297509157509157
5.820973440000671,2.2765567765567765,0.7832967032967032,2.297509157509157
5.822962310994626,1.232967032967033,0.3505494505494505,0.5713553113553113
5.82450045600126,1.232967032967033,0.3505494505494505,0.5713553113553113
5.829228165996028,2.2008058608058607,0.7526739926739926,2.614212454212454
5.8374760699953185,2.2008058608058607,0.7526739926739926,2.614212454212454
5.841286299997591,2.2008058608058607,0.7526739926739926,2.614212454212454
5.846978293004213,1.1588278388278386,0.4899633699633699,0.4383882783882784
5.847170394001296,2.257216117216117,0.5705494505494505,2.386959706959707
5.855061822003336,2.257216117216117,0.5705494505494505,2.386959706959707
5.859833887996501,2.257216117216117,0.5705494505494505,2.386959706959707
5.865881028003059,2.257216117216117,0.5705494505494505,2.386959706959707
5.87208127300255,2.257216117216117,0.5705494505494505,2.386959706959707
5.875943817998632,2.257216117216117,0.5705494505494505,2.386959706959707
5.880720151995774,2.257216117216117,0.5705494505494505,2.386959706959707
5.887253392007551,0.8695238095238095,0.34087912087912087,0.5592673992673992
5.891362306996598,0.8695238095238095,0.34087912087912087,0.5592673992673992
5.894530596997356,0.8695238095238095,0.34087912087912087,0.5592673992673992
5.896576226004981,0.8695238095238095,0.34087912087912087,0.5592673992673992
5.8974005519994535,0.8695238095238095,0.34087912087912087,0.5592673992673992
5.8991550270002335,0.8695238095238095,0.34087912087912087,0.5592673992673992
5.902996125005302,0.8695238095238095,0.34087912087912087,0.5592673992673992
5.906124001005082,0.8695238095238095,0.34087912087912087,0.5592673992673992
5.908374138001818,2.305567765567765,0.8252014652014652,2.4756043956043956
5.908650766999926,0.8606593406593407,0.17567765567765567,0.43032967032967034
5.914092557999538,0.8606593406593407,0.17567765567765567,0.43032967032967034
5.916012411005795,0.8606593406593407,0.17567765567765567,0.43032967032967034
5.919455679002567,0.8606593406593407,0.17567765567765567,0.43032967032967034
5.919631886004936,2.3684249084249083,0.5455677655677655,2.8817582417582415
5.924540360996616,2.3684249084249083,0.5455677655677655,2.8817582417582415
5.929003380006179,2.3684249084249083,0.5455677655677655,2.8817582417582415
5.9298880610003835,2.3684249084249083,0.5455677655677655,2.8817582417582415
5.930789292004192,2.3684249084249083,0.5455677655677655,2.8817582417582415
5.933000335004181,2.3684249084249083,0.5455677655677655,2.8817582417582415
5.933280721001211,2.3684249084249083,0.5455677655677655,2.8817582417582415
5.938979769998696,2.3684249084249083,0.5455677655677655,2.8817582417582415
5.939065935002873,0.0,0.2079120879120879,0.5592673992673992
5.943918837001547,0.0,0.2079120879120879,0.5592673992673992
5.949174630994094,0.0,0.2079120879120879,0.5592673992673992
5.953294630002347,0.0,0.2079120879120879,0.5592673992673992
5.954909355001291,0.0,0.2079120879120879,0.5592673992673992
5.958738597997581,0.0,0.2079120879120879,0.5592673992673992
5.962561667998671,0.0,0.2079120879120879,0.5592673992673992
5.968494208995253,0.0,0.2079120879120879,0.5592673992673992
5.976431571005378,1.726959706959707,0.4738461538461538,1.747106227106227
5.981693476001965,1.3264468864468864,0.17406593406593407,1.4634432234432233
5.98449851400801,1.3264468864468864,0.17406593406593407,1.4634432234432233
5.988008366999566,1.3264468864468864,0.17406593406593407,1.4634432234432233
5.988220768995234,1.3264468864468864,0.17406593406593407,1.4634432234432233
5.992803522996837,1.3264468864468864,0.17406593406593407,1.4634432234432233
5.993111855001189,1.3264468864468864,0.17406593406593407,1.4634432234432233
5.997769412002526,0.7091575091575092,0.3158974358974359,0.6575824175824176
5.998084816004848,0.8654945054945055,0.3964835164835165,1.4594139194139193
6.005119431996718,0.8654945054945055,0.3964835164835165,1.4594139194139193
6.010039127999335,0.8654945054945055,0.3964835164835165,1.4594139194139193
6.012433309995686,0.8654945054945055,0.3964835164835165,1.4594139194139193
6.012789284999599,0.8654945054945055,0.3964835164835165,1.4594139194139193
6.022341260002577,0.8654945054945055,0.3964835164835165,1.4594139194139193
6.029596463005873,0.01934065934065934,0.20307692307692307,0.5391208791208791
6.035120576998452,1.0298901098901099,0.21435897435897436,0.7663736263736264
6.035287502003484,1.0298901098901099,0.21435897435897436,0.7663736263736264
6.040958683995996,0.06205128205128205,0.1539194139194139,0.5649084249084249
6.041258060999098,0.06205128205128205,0.1539194139194139,0.5649084249084249
6.046717338002054,0.06205128205128205,0.1539194139194139,0.5649084249084249
6.047766111994861,0.06205128205128205,0.1539194139194139,0.5649084249084249
6.048085905000335,1.5915750915750915,0.36827838827838827,1.3852747252747253
6.0563644409994595,1.5915750915750915,0.36827838827838827,1.3852747252747253
6.063024567003595,1.5915750915750915,0.36827838827838827,1.3852747252747253
6.06882160200621,1.5915750915750915,0.36827838827838827,1.3852747252747253
6.07450763900124,1.5915750915750915,0.36827838827838827,1.3852747252747253
6.074615115998313,1.5915750915750915,0.36827838827838827,1.3852747252747253
6.079173065998475,0.29816849816849816,0.28285714285714286,0.2925274725274725
6.079988512996351,0.29816849816849816,0.28285714285714286,0.2925274725274725
6.081720664995373,0.29816849816849816,0.28285714285714286,0.2925274725274725
6.089174267995986,0.29816849816849816,0.28285714285714286,0.2925274725274725
6.093625273002544,0.29816849816849816,0.28285714285714286,0.2925274725274725
6.093996283001616,0.29816849816849816,0.28285714285714286,0.2925274725274725
6.099978006008314,0.29816849816849816,0.28285714285714286,0.2925274725274725
6.105281506999745,0.0,0.12249084249084248,0.2715750915750916
6.106866432004608,0.0,0.12249084249084248,0.2715750915750916
6.1112776259979,0.0,0.12249084249084248,0.2715750915750916
6.1121752629987895,0.0,0.12249084249084248,0.2715750915750916
6.113801018000231,0.0,0.12249084249084248,0.2715750915750916
6.118698006001068,0.0,0.12249084249084248,0.2715750915750916
6.121941542995046,0.0,0.12249084249084248,0.2715750915750916
6.123512671998469,0.0,0.12249084249084248,0.2715750915750916
6.127303746994585,0.0,0.12249084249084248,0.2715750915750916
6.133275214000605,0.0,0.12249084249084248,0.2715750915750916
6.138405097008217,0.0,0.12249084249084248,0.2715750915750916
6.140772889004438,0.07413919413919413,0.20146520146520144,0.3473260073260073
6.140956276998622,0.07413919413919413,0.20146520146520144,0.3473260073260073
6.146227541001281,0.07413919413919413,0.20146520146520144,0.3473260073260073
6.149461712004268,0.07413919413919413,0.20146520146520144,0.3473260073260073
6.150432117996388,1.0411721611721612,0.2224175824175824,0.581025641025641
6.152045725000789,1.0411721611721612,0.2224175824175824,0.581025641025641
6.1568288459966425,1.0411721611721612,0.2224175824175824,0.581025641025641
6.162469307993888,1.0411721611721612,0.2224175824175824,0.581025641025641
6.163527135999175,1.0411721611721612,0.2224175824175824,0.581025641025641
6.163811079997686,1.0411721611721612,0.2224175824175824,0.581025641025641
6.169318738000584,1.0411721611721612,0.2224175824175824,0.581025641025641
6.17027967699687,1.0411721611721612,0.2224175824175824,0.581025641025641
6.171141789003741,1.0411721611721612,0.2224175824175824,0.581025641025641
6.172746423995704,1.0411721611721612,0.2224175824175824,0.581025641025641
6.17666423600167,1.0411721611721612,0.2224175824175824,0.581025641025641
6.181355257998803,1.0411721611721612,0.2224175824175824,0.581025641025641
6.181546752006398,2.4038827838827834,0.5705494505494505,2.959120879120879
6.1863972730061505,2.4038827838827834,0.5705494505494505,2.959120879120879
6.191936777002411,2.4038827838827834,0.5705494505494505,2.959120879120879
6.1935374879976735,1.2772893772893772,0.26996336996336995,0.8638827838827838
6.1971483640081715,0.6519413919413919,0.3618315018315018,0.5939194139194138
6.197319842001889,0.17326007326007326,0.21677655677655677,0.39890109890109887
6.202229582006112,0.17326007326007326,0.21677655677655677,0.39890109890109887
6.202341759999399,2.5553846153846154,0.9662271062271062,1.1136996336996337
6.2090305739984615,2.5553846153846154,0.9662271062271062,1.1136996336996337
6.21355168800801,2.5553846153846154,0.9662271062271062,1.1136996336996337
6.213694560996373,0.9726739926739927,0.1805128205128205,0.6736996336996337
6.220376822995604,0.9726739926739927,0.1805128205128205,0.6736996336996337
6.223843172003399,0.9726739926739927,0.1805128205128205,0.6736996336996337
6.224121371997171,3.3,1.763223443223443,1.7736996336996336
6.228831578002428,3.3,1.763223443223443,1.7736996336996336
6.236899024006561,1.3876923076923076,0.24095238095238095,1.349010989010989
6.241623551002704,1.3876923076923076,0.24095238095238095,1.349010989010989
6.247048712000833,1.7027838827838828,0.39890109890109887,1.5005128205128204
6.248674372007372,2.2926739926739925,0.5995604395604395,2.808424908424908
6.252995558999828,2.2926739926739925,0.5995604395604395,2.808424908424908
6.253897264003172,2.2926739926739925,0.5995604395604395,2.808424908424908
6.255518810998183,2.2926739926739925,0.5995604395604395,2.808424908424908
6.2593862539943075,2.2926739926739925,0.5995604395604395,2.808424908424908
6.263567507994594,2.2926739926739925,0.5995604395604395,2.808424908424908
6.2654389569943305,2.224981684981685,1.0758241758241758,1.062930402930403
6.2678030590031995,2.224981684981685,1.0758241758241758,1.062930402930403
