time,emg1,emg2,emg3
0.016421685999375768,0.3771428571428571,0.2957509157509157,0.3997069597069597
0.01669159298762679,0.3771428571428571,0.2957509157509157,0.3997069597069597
0.024014103997615166,0.3771428571428571,0.2957509157509157,0.3997069597069597
0.031168909001280554,0.4786813186813187,0.4029304029304029,0.6326007326007326
0.03568867399008013,2.1266666666666665,0.7736263736263735,2.2128937728937728
0.0360498209920479,2.1266666666666665,0.7736263736263735,2.2128937728937728
0.043338644987670705,2.1266666666666665,0.7736263736263735,2.2128937728937728
0.04821472999174148,3.09047619047619,0.8034432234432234,3.3
0.053672173991799355,3.09047619047619,0.8034432234432234,3.3
0.054736535996198654,3.09047619047619,0.8034432234432234,3.3
0.05506172998866532,3.09047619047619,0.8034432234432234,3.3
0.06146210899169091,3.09047619047619,0.8034432234432234,3.3
0.06585653898946475,3.09047619047619,0.8034432234432234,3.3
0.06773496798996348,3.09047619047619,0.8034432234432234,3.3
0.06977127799473237,3.09047619047619,0.8034432234432234,3.3
0.07088219399156515,3.3,1.4956776556776556,1.1233699633699634
0.07122666398936417,3.3,1.4956776556776556,1.1233699633699634
0.07745536899892613,3.3,1.4956776556776556,1.1233699633699634
0.08095874299760908,1.1556043956043955,0.16278388278388278,1.3143589743589743
0.08117377400049008,1.1556043956043955,0.16278388278388278,1.3143589743589743
0.0863544719904894,1.1556043956043955,0.16278388278388278,1.3143589743589743
0.08975209599884693,1.1556043956043955,0.16278388278388278,1.3143589743589743
0.08995081199100241,1.1556043956043955,0.16278388278388278,1.3143589743589743
0.09485720399243291,1.1556043956043955,0.16278388278388278,1.3143589743589743
0.09953083698928822,1.1556043956043955,0.16278388278388278,1.3143589743589743
0.10501034099434037,1.1556043956043955,0.16278388278388278,1.3143589743589743
0.10668433699174784,1.1556043956043955,0.16278388278388278,1.3143589743589743
0.11056744499364868,1.1556043956043955,0.16278388278388278,1.3143589743589743
0.11504356999648735,2.4393406593406595,0.6720879120879121,2.888205128205128
0.11661098498734646,2.4393406593406595,0.6720879120879121,2.888205128205128
0.12054025298857596,0.7865201465201466,0.2627106227106227,0.8904761904761904
0.12549087399384007,0.5802197802197803,0.4045421245421245,0.6865934065934066
0.13283992899232544,0.5802197802197803,0.4045421245421245,0.6865934065934066
0.13593915398814715,0.5802197802197803,0.4045421245421245,0.6865934065934066
0.13894002400047611,0.5802197802197803,0.4045421245421245,0.6865934065934066
0.14141335598833393,0.5802197802197803,0.4045421245421245,0.6865934065934066
0.14157233499281574,0.5802197802197803,0.4045421245421245,0.6865934065934066
0.14681884399033152,0.5802197802197803,0.4045421245421245,0.6865934065934066
0.14981908600020688,0.5802197802197803,0.4045421245421245,0.6865934065934066
0.15214617499441374,0.5802197802197803,0.4045421245421245,0.6865934065934066
0.15237995199277066,2.1975824175824172,0.47706959706959706,2.598095238095238
0.15694299899041653,2.1975824175824172,0.47706959706959706,2.598095238095238
0.1578900999884354,2.1975824175824172,0.47706959706959706,2.598095238095238
0.15888502799498383,2.1975824175824172,0.47706959706959706,2.598095238095238
0.15980467699409928,2.1975824175824172,0.47706959706959706,2.598095238095238
0.16141280299052596,2.1975824175824172,0.47706959706959706,2.598095238095238
0.16584719299862627,2.1975824175824172,0.47706959706959706,2.598095238095238
0.16620353500184137,1.6044688644688643,0.46498168498168496,2.0146520146520146
0.17073252999398392,1.6044688644688643,0.46498168498168496,2.0146520146520146
0.1715888929902576,1.6044688644688643,0.46498168498168496,2.0146520146520146
0.17319401499116793,1.6044688644688643,0.46498168498168496,2.0146520146520146
0.17703424899082165,1.6044688644688643,0.46498168498168496,2.0146520146520146
0.18519268099043984,1.6044688644688643,0.46498168498168496,2.0146520146520146
0.19124548599938862,2.834212454212454,0.49157509157509155,3.3
0.19708652899134904,2.834212454212454,0.49157509157509155,3.3
0.20537335799599532,2.834212454212454,0.49157509157509155,3.3
0.2099865409982158,2.834212454212454,0.49157509157509155,3.3
0.21022294298745692,2.834212454212454,0.49157509157509155,3.3
0.21955301599518862,2.834212454212454,0.49157509157509155,3.3
0.22410501999547705,2.834212454212454,0.49157509157509155,3.3
0.22497980699699838,2.834212454212454,0.49157509157509155,3.3
0.22663533099694178,2.834212454212454,0.49157509157509155,3.3
0.2303288629918825,2.834212454212454,0.49157509157509155,3.3
0.23635668298811652,2.834212454212454,0.49157509157509155,3.3
0.24170011599198915,2.834212454212454,0.49157509157509155,3.3
0.24408797599608079,2.834212454212454,0.49157509157509155,3.3
0.24419680998835247,0.6745054945054945,0.28285714285714286,1.353040293040293
0.2504323319881223,0.6745054945054945,0.28285714285714286,1.353040293040293
0.2543951219995506,0.6745054945054945,0.28285714285714286,1.353040293040293
0.2584336500003701,1.796263736263736,0.2498168498168498,2.1306959706959705
0.26393749899580143,1.796263736263736,0.2498168498168498,2.1306959706959705
0.26404051399731543,0.020146520146520144,0.1789010989010989,0.6382417582417582
0.2705787299928488,0.020146520146520144,0.1789010989010989,0.6382417582417582
0.27449706199695356,0.020146520146520144,0.1789010989010989,0.6382417582417582
0.28190686099696904,0.020146520146520144,0.1789010989010989,0.6382417582417582
0.28527915399172343,0.020146520146520144,0.1789010989010989,0.6382417582417582
0.28624917699198704,0.020146520146520144,0.1789010989010989,0.6382417582417582
0.28785918999346904,0.020146520146520144,0.1789010989010989,0.6382417582417582
0.29179946798831224,0.020146520146520144,0.1789010989010989,0.6382417582417582
0.29737635199853685,3.3,1.5835164835164834,1.4368498168498167
0.2975764680013526,3.3,1.5835164835164834,1.4368498168498167
0.302681749992189,3.3,1.5835164835164834,1.4368498168498167
0.30586446799861733,0.03868131868131868,0.24578754578754577,0.6857875457875457
0.30759148798824754,0.03868131868131868,0.24578754578754577,0.6857875457875457
0.3118780569930095,0.03868131868131868,0.24578754578754577,0.6857875457875457
0.31329047300096136,0.03868131868131868,0.24578754578754577,0.6857875457875457
0.3191948140010936,0.03868131868131868,0.24578754578754577,0.6857875457875457
0.3243308800010709,0.03868131868131868,0.24578754578754577,0.6857875457875457
0.3276619239913998,0.03868131868131868,0.24578754578754577,0.6857875457875457
0.3291361149895238,0.03868131868131868,0.24578754578754577,0.6857875457875457
0.33433779700135347,0.03868131868131868,0.24578754578754577,0.6857875457875457
0.33753956799046136,1.551282051282051,0.24901098901098898,1.7857875457875456
0.33918852799979504,1.551282051282051,0.24901098901098898,1.7857875457875456
0.34228866899502464,1.551282051282051,0.24901098901098898,1.7857875457875456
0.3457246589969145,1.551282051282051,0.24901098901098898,1.7857875457875456
0.3522361289942637,1.551282051282051,0.24901098901098898,1.7857875457875456
0.3564436109882081,1.551282051282051,0.24901098901098898,1.7857875457875456
0.3588271909975447,1.551282051282051,0.24901098901098898,1.7857875457875456
0.35894265498791356,1.551282051282051,0.24901098901098898,1.7857875457875456
0.365880429992103,1.551282051282051,0.24901098901098898,1.7857875457875456
0.3718334079894703,1.551282051282051,0.24901098901098898,1.7857875457875456
0.37628279298951384,1.551282051282051,0.24901098901098898,1.7857875457875456
0.3765598549944116,1.551282051282051,0.24901098901098898,1.7857875457875456
0.3831273620016873,1.551282051282051,0.24901098901098898,1.7857875457875456
0.38664321300166193,1.551282051282051,0.24901098901098898,1.7857875457875456
0.38679704899550416,1.551282051282051,0.24901098901098898,1.7857875457875456
0.391871371990419,1.236996336996337,0.6213186813186813,0.9057875457875458
0.39810107999073807,2.283003663003663,0.7857142857142856,2.332161172161172
0.40146786099649034,1.448131868131868,0.7228571428571429,0.6833699633699634
0.40178869498777203,1.448131868131868,0.7228571428571429,0.6833699633699634
0.4065517080016434,1.448131868131868,0.7228571428571429,0.6833699633699634
0.4068344739935128,1.448131868131868,0.7228571428571429,0.6833699633699634
0.41195335998781957,1.448131868131868,0.7228571428571429,0.6833699633699634
0.4174172310013091,1.448131868131868,0.7228571428571429,0.6833699633699634
0.4177930110017769,1.4972893772893772,0.17245421245421244,1.7841758241758239
0.42405926100036595,1.4972893772893772,0.17245421245421244,1.7841758241758239
0.4282704959914554,0.20227106227106226,0.21435897435897436,0.4964102564102564
0.4325970950012561,1.041978021978022,0.473040293040293,1.1185347985347984
0.4328871019970393,2.424835164835165,0.6446886446886446,2.759267399267399
0.4396145329956198,2.424835164835165,0.6446886446886446,2.759267399267399
0.4435565749881789,2.424835164835165,0.6446886446886446,2.759267399267399
0.450433993988554,2.424835164835165,0.6446886446886446,2.759267399267399
0.4546846699959133,2.424835164835165,0.6446886446886446,2.759267399267399
0.4571407769981306,2.0557509157509157,0.30864468864468864,2.1750183150183147
0.45728287698875647,1.4618315018315018,0.1571428571428571,1.5827106227106227
0.46292817799258046,1.4618315018315018,0.1571428571428571,1.5827106227106227
0.4630722539877752,0.24336996336996336,0.3441025641025641,0.6019780219780219
0.4695706979982788,0.24336996336996336,0.3441025641025641,0.6019780219780219
0.47370926100120414,0.24336996336996336,0.3441025641025641,0.6019780219780219
0.4769409860018641,0.24336996336996336,0.3441025641025641,0.6019780219780219
0.47751217999029905,0.24336996336996336,0.3441025641025641,0.6019780219780219
0.4841408359934576,0.24336996336996336,0.3441025641025641,0.6019780219780219
0.4882244559994433,0.24336996336996336,0.3441025641025641,0.6019780219780219
0.4922235909907613,1.274871794871795,0.3312087912087912,1.315970695970696
0.49952617299277335,1.274871794871795,0.3312087912087912,1.315970695970696
0.5042251589911757,1.274871794871795,0.3312087912087912,1.315970695970696
0.5107665510004153,1.274871794871795,0.3312087912087912,1.315970695970696
0.5176146369922208,1.274871794871795,0.3312087912087912,1.315970695970696
0.5235581109882332,2.718168498168498,0.4279120879120879,2.8664468864468864
0.5287279100011801,2.718168498168498,0.4279120879120879,2.8664468864468864
0.530402881995542,2.718168498168498,0.4279120879120879,2.8664468864468864
0.5366346259979764,2.718168498168498,0.4279120879120879,2.8664468864468864
0.5406040319940075,1.5464468864468863,0.19904761904761903,1.6383150183150184
0.5438283109979238,1.5464468864468863,0.19904761904761903,1.6383150183150184
0.5452043839904945,0.02175824175824176,0.18695970695970696,0.4424175824175824
0.5519644250016427,0.02175824175824176,0.18695970695970696,0.4424175824175824
0.5562702899915166,0.02175824175824176,0.18695970695970696,0.4424175824175824
0.558624195997254,0.02175824175824176,0.18695970695970696,0.4424175824175824
0.5588628879922908,0.9557509157509158,0.12168498168498168,0.8405128205128204
0.5666063319949899,0.9557509157509158,0.12168498168498168,0.8405128205128204
0.5699471419939073,1.1805860805860806,0.3553846153846154,1.1564102564102563
0.5709689130017068,3.3,1.5649816849816849,1.0613186813186812
0.5720065489877015,3.3,1.5649816849816849,1.0613186813186812
0.5723286269931123,3.3,1.5649816849816849,1.0613186813186812
0.5773230279883137,3.3,1.5649816849816849,1.0613186813186812
0.5842946179909632,2.335384615384615,0.9557509157509158,0.7704029304029304
0.5883188279985916,3.1533333333333333,0.6479120879120879,3.0574358974358975
0.5914151030010544,3.1533333333333333,0.6479120879120879,3.0574358974358975
0.5943670559936436,3.1533333333333333,0.6479120879120879,3.0574358974358975
0.5995149160007713,2.7826373626373626,0.5576556776556777,2.784249084249084
0.6012544830009574,2.7826373626373626,0.5576556776556777,2.784249084249084
0.6044522679876536,2.7826373626373626,0.5576556776556777,2.784249084249084
0.6054005159967346,2.2644688644688644,0.5890842490842491,2.198388278388278
0.6071037910005543,2.2644688644688644,0.5890842490842491,2.198388278388278
0.6106897999998182,2.2644688644688644,0.5890842490842491,2.198388278388278
0.6109671000012895,2.2644688644688644,0.5890842490842491,2.198388278388278
0.6183697849919554,2.2644688644688644,0.5890842490842491,2.198388278388278
0.6219133939885069,2.2644688644688644,0.5890842490842491,2.198388278388278
0.6220801279996522,2.2644688644688644,0.5890842490842491,2.198388278388278
0.6283504279999761,2.2644688644688644,0.5890842490842491,2.198388278388278
0.6329732259910088,2.2644688644688644,0.5890842490842491,2.198388278388278
0.6388168849953217,2.5199267399267398,0.3223443223443223,2.3660073260073258
0.6390151649975451,3.3,2.003369963369963,1.2047619047619047
0.6455753229965921,3.3,2.003369963369963,1.2047619047619047
0.6501403829897754,3.3,0.6495238095238095,3.3
0.6502533299935749,3.3,0.6495238095238095,3.3
0.6550881969887996,3.3,0.6495238095238095,3.3
0.6612312919896794,3.3,0.6495238095238095,3.3
0.6666965299955336,1.7438827838827837,0.2063003663003663,1.4787545787545788
0.667011523997644,1.7438827838827837,0.2063003663003663,1.4787545787545788
0.6726113779877778,1.7438827838827837,0.2063003663003663,1.4787545787545788
0.6735636299999896,1.7438827838827837,0.2063003663003663,1.4787545787545788
0.6745247369981371,2.497362637362637,0.42388278388278383,2.3797069597069593
0.6754413449962158,2.497362637362637,0.42388278388278383,2.3797069597069593
0.6774270169989904,2.497362637362637,0.42388278388278383,2.3797069597069593
0.6803173399966909,2.497362637362637,0.42388278388278383,2.3797069597069593
0.6832094080018578,0.05641025641025641,0.22967032967032966,0.7051282051282051
0.6856961979938205,0.05641025641025641,0.22967032967032966,0.7051282051282051
0.6911824339913437,0.05641025641025641,0.22967032967032966,0.7051282051282051
0.6936976139986655,3.3,1.5762637362637362,1.2660073260073261
0.701330894997227,3.3,1.5762637362637362,1.2660073260073261
0.7062171489960747,3.3,1.5762637362637362,1.2660073260073261
0.7123979189927923,3.3,1.5762637362637362,1.2660073260073261
0.7178182139905402,3.3,1.5762637362637362,1.2660073260073261
0.7181483789900085,0.7389743589743589,0.3553846153846154,0.5181684981684981
0.7238063769909786,0.7389743589743589,0.3553846153846154,0.5181684981684981
0.7240015040006256,0.7389743589743589,0.3553846153846154,0.5181684981684981
0.7308370409882627,0.7389743589743589,0.3553846153846154,0.5181684981684981
0.7351325709896628,1.4263736263736264,0.32395604395604394,1.365128205128205
0.7368154139985563,1.4263736263736264,0.32395604395604394,1.365128205128205
0.7408361669949954,1.647985347985348,0.1571428571428571,1.8091575091575092
0.7464966929983348,1.647985347985348,0.1571428571428571,1.8091575091575092
0.7566701929899864,1.647985347985348,0.1571428571428571,1.8091575091575092
0.7637153510004282,0.5407326007326007,0.2063003663003663,0.6406593406593406
0.7678260059910826,0.5407326007326007,0.2063003663003663,0.6406593406593406
0.7704944519937271,3.3,0.6334065934065934,3.3
0.7751754109922331,3.3,0.6334065934065934,3.3
0.7753998400003184,1.0363369963369962,0.17003663003663003,0.6656410256410257
0.7819170339935226,1.0363369963369962,0.17003663003663003,0.6656410256410257
0.7852749390003737,1.0363369963369962,0.17003663003663003,0.6656410256410257
0.786959085991839,1.0363369963369962,0.17003663003663003,0.6656410256410257
0.7906494159979047,1.0363369963369962,0.17003663003663003,0.6656410256410257
0.8009277550008846,2.291062271062271,0.8147252747252747,2.0694505494505493
0.8087755299929995,0.386007326007326,0.3384615384615384,0.6027838827838827
0.8139825049875071,0.386007326007326,0.3384615384615384,0.6027838827838827
0.8176412619941402,0.386007326007326,0.3384615384615384,0.6027838827838827
0.8265320679929573,0.386007326007326,0.3384615384615384,0.6027838827838827
0.8347446619882248,0.386007326007326,0.3384615384615384,0.6027838827838827
0.8396925349952653,0.386007326007326,0.3384615384615384,0.6027838827838827
0.8444974589947378,0.386007326007326,0.3384615384615384,0.6027838827838827
0.8538168359955307,0.04593406593406593,0.15633699633699633,0.3811721611721612
0.8621090889937477,0.04593406593406593,0.15633699633699633,0.3811721611721612
0.8692783949954901,0.04593406593406593,0.15633699633699633,0.3811721611721612
0.8745821099873865,0.04593406593406593,0.15633699633699633,0.3811721611721612
0.8764849369908916,2.24996336996337,0.20468864468864467,2.3305494505494506
0.880746745999204,2.24996336996337,0.20468864468864467,2.3305494505494506
0.8816530619951664,2.24996336996337,0.20468864468864467,2.3305494505494506
0.883358020990272,2.24996336996337,0.20468864468864467,2.3305494505494506
0.8873708329920191,2.24996336996337,0.20468864468864467,2.3305494505494506
0.8904581209935714,2.24996336996337,0.20468864468864467,2.3305494505494506
0.8927819980017375,2.24996336996337,0.20468864468864467,2.3305494505494506
0.8929871459986316,2.24996336996337,0.20468864468864467,2.3305494505494506
0.9011546999972779,2.24996336996337,0.20468864468864467,2.3305494505494506
0.9078696929936996,2.24996336996337,0.20468864468864467,2.3305494505494506
0.9142732879990945,3.3,1.5085714285714285,1.1821978021978021
0.9197849379997933,2.4635164835164836,0.3884249084249084,2.5787545787545785
0.9252477580012055,2.4635164835164836,0.3884249084249084,2.5787545787545785
0.9277203929959796,2.4635164835164836,0.3884249084249084,2.5787545787545785
0.9381297999934759,2.4635164835164836,0.3884249084249084,2.5787545787545785
0.9478792570007499,2.4635164835164836,0.3884249084249084,2.5787545787545785
0.9537813249917235,0.2643223443223443,0.31347985347985347,0.6479120879120879
0.9601372530014487,2.117802197802198,0.2949450549450549,2.141978021978022
0.9661469619895797,2.117802197802198,0.2949450549450549,2.141978021978022
0.9700974070001394,2.117802197802198,0.2949450549450549,2.141978021978022
0.9740609539876459,2.117802197802198,0.2949450549450549,2.141978021978022
0.9779898739943746,2.117802197802198,0.2949450549450549,2.141978021978022
0.9830428299901541,2.117802197802198,0.2949450549450549,2.141978021978022
0.9869385649944888,0.8389010989010988,0.42065934065934063,0.6648351648351648
0.9908970409887843,0.8389010989010988,0.42065934065934063,0.6648351648351648
0.9951472259999719,0.8389010989010988,0.42065934065934063,0.6648351648351648
0.99864252799307,1.0935531135531134,0.14989010989010987,1.137069597069597
1.0050505839899415,3.2290842490842486,1.2394139194139193,0.8880586080586079
1.009459565000725,0.012087912087912087,0.13296703296703297,0.7333333333333333
1.0097092829964822,0.012087912087912087,0.13296703296703297,0.7333333333333333
1.018756969991955,0.012087912087912087,0.13296703296703297,0.7333333333333333
1.0256759629992303,1.4578021978021978,0.30622710622710625,1.4465201465201465
1.0335584499989636,1.4578021978021978,0.30622710622710625,1.4465201465201465
1.0391296969901305,1.5005128205128204,0.5665201465201465,0.9517216117216116
1.0506398149882443,1.0024908424908423,0.0556043956043956,0.7873260073260073
1.0570168049889617,2.278168498168498,0.5439560439560439,2.394212454212454
1.0623676859977422,0.8203663003663003,0.3432967032967033,0.5939194139194138
1.0638352379901335,0.025787545787545788,0.09912087912087912,0.6680586080586081
1.0681790879898472,0.2635164835164835,0.12732600732600732,0.8356776556776556
1.069857405993389,0.2635164835164835,0.12732600732600732,0.8356776556776556
1.0730496420001145,0.2635164835164835,0.12732600732600732,0.8356776556776556
1.0745892679988174,0.2635164835164835,0.12732600732600732,0.8356776556776556
1.0800074949947884,0.2635164835164835,0.12732600732600732,0.8356776556776556
1.0804642779985443,0.2635164835164835,0.12732600732600732,0.8356776556776556
1.0858851539960597,0.2635164835164835,0.12732600732600732,0.8356776556776556
1.0862217739922926,0.048351648351648346,0.18615384615384614,0.4520879120879121
1.0926933369919425,0.048351648351648346,0.18615384615384614,0.4520879120879121
1.0976362989895279,0.048351648351648346,0.18615384615384614,0.4520879120879121
1.1017854730016552,0.048351648351648346,0.18615384615384614,0.4520879120879121
1.1042560669884551,0.07333333333333333,0.21194139194139192,0.4512820512820513
1.109728602998075,0.07333333333333333,0.21194139194139192,0.4512820512820513
1.1115336079965346,1.743076923076923,0.34087912087912087,2.174212454212454
1.1146677249926142,1.743076923076923,0.34087912087912087,2.174212454212454
1.1163002089888323,1.0943589743589743,0.1402197802197802,1.1967032967032967
1.1201315020007314,1.0943589743589743,0.1402197802197802,1.1967032967032967
1.1247526049992302,1.0943589743589743,0.1402197802197802,1.1967032967032967
1.1249861419928493,0.17084249084249084,0.2635164835164835,0.5689377289377289
1.130250314992736,0.17084249084249084,0.2635164835164835,0.5689377289377289
1.133355603000382,0.17084249084249084,0.2635164835164835,0.5689377289377289
1.1357019819988636,0.17084249084249084,0.2635164835164835,0.5689377289377289
1.1359087579912739,0.17084249084249084,0.2635164835164835,0.5689377289377289
1.142222092996235,0.17084249084249084,0.2635164835164835,0.5689377289377289
1.1459934169979533,0.17084249084249084,0.2635164835164835,0.5689377289377289
1.151171309989877,3.3,0.5721611721611721,3.3
1.1542499299976043,3.3,0.5721611721611721,3.3
1.155864792992361,3.3,0.5721611721611721,3.3
1.1615346829930786,3.3,0.5721611721611721,3.3
1.161704567988636,3.3,0.5721611721611721,3.3
1.1678509399935137,3.3,0.5721611721611721,3.3
1.1716961359925335,3.0936996336996336,0.5818315018315018,3.3
1.1783733919874066,3.0936996336996336,0.5818315018315018,3.3
1.1823031209933106,3.0936996336996336,0.5818315018315018,3.3
1.185418701992603,0.05318681318681319,0.14505494505494507,0.6108424908424909
1.1872802719881292,3.3,0.6269597069597069,3.3
1.1905052109941607,2.4087179487179484,0.42630036630036633,2.8704761904761904
1.1913951829919824,2.4087179487179484,0.42630036630036633,2.8704761904761904
1.1932254650018876,2.4087179487179484,0.42630036630036633,2.8704761904761904
1.1961280989926308,2.4087179487179484,0.42630036630036633,2.8704761904761904
1.1995179349905811,2.4087179487179484,0.42630036630036633,2.8704761904761904
1.1997432279895293,2.4087179487179484,0.42630036630036633,2.8704761904761904
1.2045856369950343,2.4087179487179484,0.42630036630036633,2.8704761904761904
1.2108357129909564,2.0509157509157507,0.5157509157509157,2.39018315018315
1.2148216829955345,2.3297435897435896,0.689010989010989,2.3466666666666667
1.2179943429946434,2.437728937728938,0.45692307692307693,2.8471062271062273
1.2197281339904293,2.437728937728938,0.45692307692307693,2.8471062271062273
1.222925921989372,2.437728937728938,0.45692307692307693,2.8471062271062273
1.2252931859984528,2.437728937728938,0.45692307692307693,2.8471062271062273
1.2255390809878008,2.437728937728938,0.45692307692307693,2.8471062271062273
1.230225696999696,2.437728937728938,0.45692307692307693,2.8471062271062273
1.2360069179994753,2.437728937728938,0.45692307692307693,2.8471062271062273
1.236155267994036,2.437728937728938,0.45692307692307693,2.8471062271062273
1.2407621009915601,2.437728937728938,0.45692307692307693,2.8471062271062273
1.2410414629994193,2.437728937728938,0.45692307692307693,2.8471062271062273
1.246482290996937,0.1104029304029304,0.2498168498168498,0.5012454212454212
1.24895491899224,0.1104029304029304,0.2498168498168498,0.5012454212454212
1.2546373219956877,0.1104029304029304,0.2498168498168498,0.5012454212454212
1.2549498509906698,0.1104029304029304,0.2498168498168498,0.5012454212454212
1.2602533889876213,0.1104029304029304,0.2498168498168498,0.5012454212454212
1.2626241269899765,0.8590476190476191,0.381978021978022,0.527032967032967
1.26284031799878,0.8590476190476191,0.381978021978022,0.527032967032967
1.26737982899067,0.8590476190476191,0.381978021978022,0.527032967032967
1.2682736699935049,0.8590476190476191,0.381978021978022,0.527032967032967
1.2698991450015455,2.2604395604395604,0.9613919413919414,0.759120879120879
1.2737538449873682,2.2604395604395604,0.9613919413919414,0.759120879120879
1.2782012399984524,2.2604395604395604,0.9613919413919414,0.759120879120879
1.2797086529899389,2.2604395604395604,0.9613919413919414,0.759120879120879
1.284018838996417,2.2604395604395604,0.9613919413919414,0.759120879120879
1.285519701996236,2.2604395604395604,0.9613919413919414,0.759120879120879
1.29044177698961,2.2604395604395604,0.9613919413919414,0.759120879120879
1.2906502190016909,2.2604395604395604,0.9613919413919414,0.759120879120879
1.295469795993995,2.2604395604395604,0.9613919413919414,0.759120879120879
1.2956088859937154,1.9622710622710622,0.26190476190476186,1.9799999999999998
1.299811665987363,1.9622710622710622,0.26190476190476186,1.9799999999999998
1.302639099987573,0.4214652014652014,0.3183150183150183,0.6084249084249085
1.3067539319890784,0.4214652014652014,0.3183150183150183,0.6084249084249085
1.3098051109991502,3.3,0.6624175824175824,3.3
1.3119630589935696,3.3,0.6624175824175824,3.3
1.3131202079966897,3.3,0.6624175824175824,3.3
1.31339357199613,3.3,0.6624175824175824,3.3
1.3180092739930842,3.3,0.6624175824175824,3.3
1.3182928479945986,3.3,0.6624175824175824,3.3
1.323705089991563,3.3,0.6624175824175824,3.3
1.3252710859960644,3.3,0.6624175824175824,3.3
1.3291372889943887,3.3,0.6624175824175824,3.3
1.3345943989988882,3.3,0.6624175824175824,3.3
1.3363889479951467,3.3,0.6624175824175824,3.3
1.339551245997427,3.3,0.6624175824175824,3.3
1.3418024409911595,0.4351648351648352,0.2909157509157509,0.5995604395604395
1.3420232659991598,0.4351648351648352,0.2909157509157509,0.5995604395604395
1.3475614819908515,0.4351648351648352,0.2909157509157509,0.5995604395604395
1.349123634994612,0.4351648351648352,0.2909157509157509,0.5995604395604395
1.3535255679889815,3.3,1.4787545787545788,1.05003663003663
1.3543758759915363,2.597289377289377,0.4383882783882784,2.7383150183150184
1.3560012399975676,2.597289377289377,0.4383882783882784,2.7383150183150184
1.3597649299917975,1.5335531135531135,0.19018315018315018,1.6697435897435895
1.3649555379961384,1.5335531135531135,0.19018315018315018,1.6697435897435895
1.3687187399918912,1.087106227106227,0.39567765567765567,1.573846153846154
1.3743360619992018,2.1685714285714286,0.78007326007326,2.103296703296703
1.374579809998977,2.1685714285714286,0.78007326007326,2.103296703296703
1.3801626789936563,1.166080586080586,0.14263736263736262,1.216043956043956
1.3809782710013678,1.166080586080586,0.14263736263736262,1.216043956043956
1.3826060559949838,1.166080586080586,0.14263736263736262,1.216043956043956
1.3864358569990145,1.166080586080586,0.14263736263736262,1.216043956043956
1.3910317359986948,1.166080586080586,0.14263736263736262,1.216043956043956
1.3926107869920088,1.166080586080586,0.14263736263736262,1.216043956043956
1.3965280010015704,2.484468864468864,0.4279120879120879,2.5344322344322343
1.400518397000269,2.484468864468864,0.4279120879120879,2.5344322344322343
1.4041735589999007,2.484468864468864,0.4279120879120879,2.5344322344322343
1.4096947729995009,2.484468864468864,0.4279120879120879,2.5344322344322343
1.4099871219950728,2.341025641025641,0.47062271062271055,2.561831501831502
1.415623503999086,2.341025641025641,0.47062271062271055,2.561831501831502
1.4158074430015404,2.5054212454212452,0.5286446886446886,2.598095238095238
1.4209021610004129,2.5054212454212452,0.5286446886446886,2.598095238095238
1.4249804179999046,2.5054212454212452,0.5286446886446886,2.598095238095238
1.4282022639963543,2.5054212454212452,0.5286446886446886,2.598095238095238
1.4298972959950333,2.5054212454212452,0.5286446886446886,2.598095238095238
1.4330851159902522,2.5054212454212452,0.5286446886446886,2.598095238095238
1.4347165009967284,2.5054212454212452,0.5286446886446886,2.598095238095238
1.4394059789919993,2.5054212454212452,0.5286446886446886,2.598095238095238
1.4395822879887419,2.5054212454212452,0.5286446886446886,2.598095238095238
1.4444462389947148,2.5054212454212452,0.5286446886446886,2.598095238095238
1.4499679009895772,2.5054212454212452,0.5286446886446886,2.598095238095238
1.4508706889901077,2.5054212454212452,0.5286446886446886,2.598095238095238
1.4524784789973637,2.5054212454212452,0.5286446886446886,2.598095238095238
1.4562600049976027,2.5054212454212452,0.5286446886446886,2.598095238095238
1.4607488499896135,2.5054212454212452,0.5286446886446886,2.598095238095238
1.4615907059924211,2.5054212454212452,0.5286446886446886,2.598095238095238
1.4632318819931243,2.5054212454212452,0.5286446886446886,2.598095238095238
1.4670011199923465,2.5054212454212452,0.5286446886446886,2.598095238095238
1.4715392399957636,2.5054212454212452,0.5286446886446886,2.598095238095238
1.471779745988897,2.565054945054945,0.5197802197802197,2.614212454212454
1.477063881000504,2.565054945054945,0.5197802197802197,2.614212454212454
1.4810303169942927,2.565054945054945,0.5197802197802197,2.614212454212454
1.484864389989525,2.565054945054945,0.5197802197802197,2.614212454212454
1.4894042230007472,2.565054945054945,0.5197802197802197,2.614212454212454
1.4896878539875615,2.565054945054945,0.5197802197802197,2.614212454212454
1.494854063988896,2.565054945054945,0.5197802197802197,2.614212454212454
1.499716673992225,2.46996336996337,0.47465201465201456,2.5021978021978017
1.502677134994883,2.46996336996337,0.47465201465201456,2.5021978021978017
1.5056782519968692,2.46996336996337,0.47465201465201456,2.5021978021978017
1.5080179989890894,2.46996336996337,0.47465201465201456,2.5021978021978017
1.5084394089935813,2.46996336996337,0.47465201465201456,2.5021978021978017
1.5168735399929574,2.46996336996337,0.47465201465201456,2.5021978021978017
1.5232569329964463,2.46996336996337,0.47465201465201456,2.5021978021978017
1.5283002159994794,2.46996336996337,0.47465201465201456,2.5021978021978017
1.5332758360018488,2.46996336996337,0.47465201465201456,2.5021978021978017
1.537343512987718,2.238681318681319,0.7252747252747253,2.042051282051282
1.539369229998556,2.238681318681319,0.7252747252747253,2.042051282051282
1.5409269239899004,2.238681318681319,0.7252747252747253,2.042051282051282
1.5477301380014978,2.238681318681319,0.7252747252747253,2.042051282051282
1.552590228995541,2.8277655677655673,0.4754578754578754,2.9913553113553113
1.5595726549945539,2.5424908424908423,0.4528937728937729,2.792307692307692
1.565468200991745,3.3,1.6729670329670328,0.9791208791208791
1.5704247079993365,3.3,1.6729670329670328,0.9791208791208791
1.5732982539921068,1.0983882783882783,0.2804395604395604,1.1644688644688646
1.5780755059968214,1.0983882783882783,0.2804395604395604,1.1644688644688646
1.5819057829939993,2.2096703296703293,0.921098901098901,0.6720879120879121
1.587173822990735,0.3747252747252747,0.32798534798534795,0.5931135531135531
1.5910942269983934,1.0613186813186812,0.3723076923076923,0.9799267399267398
1.594866210987675,1.0613186813186812,0.3723076923076923,0.9799267399267398
1.6001366029959172,2.2185347985347987,0.3352380952380952,2.1838827838827837
1.603231909990427,2.2185347985347987,0.3352380952380952,2.1838827838827837
1.60556027200073,2.2185347985347987,0.3352380952380952,2.1838827838827837
1.6057056069985265,2.2185347985347987,0.3352380952380952,2.1838827838827837
1.6103216219926253,2.2185347985347987,0.3352380952380952,2.1838827838827837
1.6106361169950105,2.2185347985347987,0.3352380952380952,2.1838827838827837
1.615407895995304,2.2185347985347987,0.3352380952380952,2.1838827838827837
1.6155622590013081,2.2185347985347987,0.3352380952380952,2.1838827838827837
1.6201095169963082,2.2185347985347987,0.3352380952380952,2.1838827838827837
1.620981957996264,2.2185347985347987,0.3352380952380952,2.1838827838827837
1.6228247519902652,2.2185347985347987,0.3352380952380952,2.1838827838827837
1.6251134519989137,2.2185347985347987,0.3352380952380952,2.1838827838827837
1.625408845997299,2.2185347985347987,0.3352380952380952,2.1838827838827837
1.629961533995811,2.2185347985347987,0.3352380952380952,2.1838827838827837
1.630339544994058,2.2185347985347987,0.3352380952380952,2.1838827838827837
1.6348969059908995,2.2185347985347987,0.3352380952380952,2.1838827838827837
1.6352062819933053,2.2185347985347987,0.3352380952380952,2.1838827838827837
1.6397286159917712,2.2185347985347987,0.3352380952380952,2.1838827838827837
1.6400187019899022,2.532820512820513,1.0846886446886446,0.8711355311355311
1.6453192839981057,2.532820512820513,1.0846886446886446,0.8711355311355311
1.647711008990882,2.532820512820513,1.0846886446886446,0.8711355311355311
1.6479150699888123,1.5770695970695972,0.3505494505494505,1.5923809523809522
1.652526334990398,1.5770695970695972,0.3505494505494505,1.5923809523809522
1.6527838879992487,1.5770695970695972,0.3505494505494505,1.5923809523809522
1.6573962409893284,2.4345054945054945,0.36747252747252745,2.424029304029304
1.658244009988266,2.4345054945054945,0.36747252747252745,2.424029304029304
1.6598467589938082,2.4345054945054945,0.36747252747252745,2.424029304029304
1.663601939988439,2.4345054945054945,0.36747252747252745,2.424029304029304
1.668153952996363,2.4345054945054945,0.36747252747252745,2.424029304029304
1.6684971759968903,1.763223443223443,0.7067399267399267,0.5044688644688645
1.6737976069998695,1.763223443223443,0.7067399267399267,0.5044688644688645
1.6768853109970223,1.763223443223443,0.7067399267399267,0.5044688644688645
1.679893213993637,0.7293040293040293,0.21999999999999997,0.6616117216117217
1.6823326199955773,2.7157509157509154,1.1096703296703296,0.8372893772893772
1.6825343410018831,0.0,0.19904761904761903,0.5439560439560439
1.6878041649906663,0.0,0.19904761904761903,0.5439560439560439
1.6900648849987192,0.0,0.19904761904761903,0.5439560439560439
1.6903289379988564,0.0,0.19904761904761903,0.5439560439560439
1.6956271919916617,2.484468864468864,0.6519413919413919,2.5392673992673993
1.6979511949903099,2.258827838827839,0.4005128205128205,2.1766300366300366
1.6982049259968335,2.258827838827839,0.4005128205128205,2.1766300366300366
1.7027820949879242,2.258827838827839,0.4005128205128205,2.1766300366300366
1.7031308479927247,0.0,0.1813186813186813,0.4391941391941392
1.7124902319919784,0.0,0.1813186813186813,0.4391941391941392
1.7211026209988631,0.0,0.1813186813186813,0.4391941391941392
1.7283983419911237,0.9823443223443222,0.18454212454212454,0.7349450549450549
1.7325582259945804,0.9823443223443222,0.18454212454212454,0.7349450549450549
1.7356250479933806,2.752014652014652,0.51010989010989,2.9139926739926736
1.737935685989214,2.752014652014652,0.51010989010989,2.9139926739926736
1.7381534449959872,2.752014652014652,0.51010989010989,2.9139926739926736
1.7428559010004392,2.287032967032967,1.0306959706959706,0.8026373626373626
1.7429573229892412,2.287032967032967,1.0306959706959706,0.8026373626373626
1.7478095459955512,2.9405860805860806,0.7317216117216117,3.036483516483516
1.7527683489897754,2.9405860805860806,0.7317216117216117,3.036483516483516
1.7575867269915761,2.9405860805860806,0.7317216117216117,3.036483516483516
1.7578537719964515,2.9405860805860806,0.7317216117216117,3.036483516483516
1.7627212989900727,2.9405860805860806,0.7317216117216117,3.036483516483516
1.7676024999964284,2.9405860805860806,0.7317216117216117,3.036483516483516
1.7677026210003532,2.9405860805860806,0.7317216117216117,3.036483516483516
1.7726009170000907,2.9405860805860806,0.7317216117216117,3.036483516483516
1.7773576009931276,2.9405860805860806,0.7317216117216117,3.036483516483516
1.7774837639881298,2.9405860805860806,0.7317216117216117,3.036483516483516
1.782281392996083,2.9405860805860806,0.7317216117216117,3.036483516483516
1.7824219389876816,3.3,1.5158241758241757,1.1435164835164835
1.788995534996502,3.3,1.5158241758241757,1.1435164835164835
1.7931736909959,3.3,1.5158241758241757,1.1435164835164835
1.7956534499971895,3.3,1.5158241758241757,1.1435164835164835
1.801149599996279,3.3,1.5158241758241757,1.1435164835164835
1.8027087599912193,3.3,1.5158241758241757,1.1435164835164835
1.806554728987976,3.3,1.5158241758241757,1.1435164835164835
1.811108437992516,3.3,0.6809523809523809,3.3
1.811423647988704,3.3,0.6809523809523809,3.3
1.8160113880003337,3.3,0.6809523809523809,3.3
1.8168790409981739,3.3,0.6809523809523809,3.3
1.8177835069946013,3.3,0.6809523809523809,3.3
1.8193925619998481,3.3,0.6809523809523809,3.3
1.823130291988491,3.3,1.7237362637362637,1.1539926739926738
1.8281218880001688,3.3,1.7237362637362637,1.1539926739926738
1.8323102349968394,2.731062271062271,1.0145787545787546,0.7067399267399267
1.834443061001366,2.731062271062271,1.0145787545787546,0.7067399267399267
1.8364612180012045,2.731062271062271,1.0145787545787546,0.7067399267399267
1.837306389992591,2.731062271062271,1.0145787545787546,0.7067399267399267
1.8393922549876152,2.731062271062271,1.0145787545787546,0.7067399267399267
1.8402202839934034,2.731062271062271,1.0145787545787546,0.7067399267399267
1.8423455559968716,2.731062271062271,1.0145787545787546,0.7067399267399267
1.8431176729936851,2.731062271062271,1.0145787545787546,0.7067399267399267
1.8453861539892387,2.731062271062271,1.0145787545787546,0.7067399267399267
1.8456424799951492,2.731062271062271,1.0145787545787546,0.7067399267399267
1.8499001449963544,2.731062271062271,1.0145787545787546,0.7067399267399267
1.852125432997127,2.731062271062271,1.0145787545787546,0.7067399267399267
1.8529163599887397,2.731062271062271,1.0145787545787546,0.7067399267399267
1.854479169996921,2.731062271062271,1.0145787545787546,0.7067399267399267
1.8587241369968979,2.731062271062271,1.0145787545787546,0.7067399267399267
1.8609409209893784,3.3,1.4449084249084247,1.008937728937729
1.8612931139941793,3.3,1.4449084249084247,1.008937728937729
1.8661100619938225,3.3,1.4449084249084247,1.008937728937729
1.8710196889878716,3.3,1.4449084249084247,1.008937728937729
1.8758678879967192,3.3,1.4449084249084247,1.008937728937729
1.8807035939971684,3.3,1.4449084249084247,1.008937728937729
1.8808617219910957,3.3,1.4449084249084247,1.008937728937729
1.8856078479875578,3.3,1.4449084249084247,1.008937728937729
1.8857320959941717,3.3,1.4449084249084247,1.008937728937729
1.890566633999697,3.3,1.4449084249084247,1.008937728937729
1.8954560860001948,3.3,1.4449084249084247,1.008937728937729
1.9003200299921446,3.3,1.4449084249084247,1.008937728937729
1.9051961609948194,3.3,1.4449084249084247,1.008937728937729
1.90531690599164,3.3,1.4449084249084247,1.008937728937729
1.9104429089929909,3.3,1.4449084249084247,1.008937728937729
1.914491013987572,3.3,1.4449084249084247,1.008937728937729
1.9175077709951438,2.9405860805860806,0.44080586080586076,3.3
1.9198286099999677,2.9405860805860806,0.44080586080586076,3.3
1.9202028759900713,2.9405860805860806,0.44080586080586076,3.3
1.9256755349924788,2.9405860805860806,0.44080586080586076,3.3
1.9272328279912472,2.9405860805860806,0.44080586080586076,3.3
1.9317069339886075,2.9405860805860806,0.44080586080586076,3.3
1.9320169659913518,2.9405860805860806,0.44080586080586076,3.3
1.9373066179978196,2.9405860805860806,0.44080586080586076,3.3
1.9396461680007633,2.9405860805860806,0.44080586080586076,3.3
1.93981237099797,2.9405860805860806,0.44080586080586076,3.3
1.9443718939874088,2.9405860805860806,0.44080586080586076,3.3
1.9452413379913196,2.9405860805860806,0.44080586080586076,3.3
1.946870701998705,3.0034432234432233,0.5882783882783883,3.3
1.9505593840003712,3.0034432234432233,0.5882783882783883,3.3
1.9554820819903398,2.4586813186813186,0.49238095238095236,2.6956043956043954
1.960360993994982,2.4586813186813186,0.49238095238095236,2.6956043956043954
1.9604658780008322,2.4586813186813186,0.49238095238095236,2.6956043956043954
1.9653405809949618,2.4586813186813186,0.49238095238095236,2.6956043956043954
1.9654446749918861,2.4586813186813186,0.49238095238095236,2.6956043956043954
1.9702778270002455,2.0702564102564103,0.4174358974358974,2.343443223443223
1.9751821719983127,3.3,1.6238095238095236,1.2176556776556777
1.980029996993835,3.3,1.6238095238095236,1.2176556776556777
1.9849903059948701,3.3,1.6238095238095236,1.2176556776556777
1.9899882999889087,3.3,1.6238095238095236,1.2176556776556777
1.9941539769934025,2.2217582417582418,1.004102564102564,0.7865201465201466
1.9965673510014312,2.2217582417582418,1.004102564102564,0.7865201465201466
1.9967356409906643,2.2217582417582418,1.004102564102564,0.7865201465201466
2.0014097219973337,2.2217582417582418,1.004102564102564,0.7865201465201466
2.001659262998146,2.2217582417582418,1.004102564102564,0.7865201465201466
2.006752957997378,2.2217582417582418,1.004102564102564,0.7865201465201466
2.010996699988027,2.2217582417582418,1.004102564102564,0.7865201465201466
2.0126867599901743,3.3,1.556117216117216,1.3506227106227104
2.0158985259913607,3.3,1.556117216117216,1.3506227106227104
2.017537720996188,3.3,1.556117216117216,1.3506227106227104
2.02126614098961,3.3,1.556117216117216,1.3506227106227104
2.028325507999398,3.3,1.556117216117216,1.3506227106227104
2.0334571540006436,0.0,0.17487179487179486,0.5906959706959707
2.0372718610015,0.0,0.17487179487179486,0.5906959706959707
2.040143738995539,1.0492307692307692,0.46014652014652013,0.6680586080586081
2.042921091997414,1.0492307692307692,0.46014652014652013,0.6680586080586081
2.045819997001672,0.04593406593406593,0.17487179487179486,0.5173626373626373
2.0493106200010516,0.04593406593406593,0.17487179487179486,0.5173626373626373
2.0495541479904205,0.04593406593406593,0.17487179487179486,0.5173626373626373
2.0543822170002386,2.2314285714285713,0.7631501831501831,2.282197802197802
2.0544873749895487,2.2314285714285713,0.7631501831501831,2.282197802197802
2.059286899995641,1.2063736263736262,0.14989010989010987,1.3933333333333333
2.065043656999478,1.2063736263736262,0.14989010989010987,1.3933333333333333
2.0652247719990555,1.2063736263736262,0.14989010989010987,1.3933333333333333
2.0700253599934513,1.2063736263736262,0.14989010989010987,1.3933333333333333
2.0701456459937617,1.2063736263736262,0.14989010989010987,1.3933333333333333
2.074972517992137,1.2063736263736262,0.14989010989010987,1.3933333333333333
2.0751458199956687,1.2063736263736262,0.14989010989010987,1.3933333333333333
2.0799090349901235,1.2063736263736262,0.14989010989010987,1.3933333333333333
2.0801460910006426,1.2063736263736262,0.14989010989010987,1.3933333333333333
2.0849234399938723,1.2063736263736262,0.14989010989010987,1.3933333333333333
2.0850300780002726,1.2063736263736262,0.14989010989010987,1.3933333333333333
2.0901223799883155,1.2063736263736262,0.14989010989010987,1.3933333333333333
2.094577609997941,1.2063736263736262,0.14989010989010987,1.3933333333333333
2.095435646988335,1.2063736263736262,0.14989010989010987,1.3933333333333333
2.0970560659916373,1.2063736263736262,0.14989010989010987,1.3933333333333333
2.101164229999995,1.2063736263736262,0.14989010989010987,1.3933333333333333
2.103718681988539,1.2063736263736262,0.14989010989010987,1.3933333333333333
2.1092389739933424,1.2063736263736262,0.14989010989010987,1.3933333333333333
2.110801700997399,3.3,1.4142857142857141,1.2063736263736262
2.116929194991826,3.3,1.4142857142857141,1.2063736263736262
2.1210683469980722,3.3,1.4142857142857141,1.2063736263736262
2.1234341870003846,3.3,1.4142857142857141,1.2063736263736262
2.123608214998967,3.3,1.4142857142857141,1.2063736263736262
2.1285039729991695,3.3,1.4142857142857141,1.2063736263736262
2.133192238994525,1.0508424908424907,0.28608058608058606,1.2394139194139193
2.1334018579946132,1.0508424908424907,0.28608058608058606,1.2394139194139193
2.1380803719948744,1.0508424908424907,0.28608058608058606,1.2394139194139193
2.138321049991646,1.00007326007326,0.1652014652014652,0.8977289377289376
2.1431974939914653,1.00007326007326,0.1652014652014652,0.8977289377289376
2.1487370069953613,0.40776556776556777,0.38681318681318677,0.6326007326007326
2.1503673159895698,0.40776556776556777,0.38681318681318677,0.6326007326007326
2.154158719989937,0.40776556776556777,0.38681318681318677,0.6326007326007326
2.159134705987526,1.3433699633699634,0.19743589743589743,1.3425641025641024
2.1639660369983176,1.3433699633699634,0.19743589743589743,1.3425641025641024
2.168967569989036,1.3433699633699634,0.19743589743589743,1.3425641025641024
2.1731534199934686,2.3619780219780218,0.43032967032967034,2.9236630036630036
2.175950071992702,2.3619780219780218,0.43032967032967034,2.9236630036630036
2.179408504991443,2.3619780219780218,0.43032967032967034,2.9236630036630036
2.180175125991809,3.3,1.6568498168498167,0.7413919413919414
2.1816863610001747,3.3,1.6568498168498167,0.7413919413919414
2.186102223000489,3.3,1.6568498168498167,0.7413919413919414
2.1876378109882353,3.3,0.6906227106227106,3.3
2.1918601659999695,3.3,0.6906227106227106,3.3
2.1946386079944205,3.3,0.6906227106227106,3.3
2.198146914000972,1.0822710622710623,0.15633699633699633,0.9895970695970695
2.198363036994124,1.0822710622710623,0.15633699633699633,0.9895970695970695
2.203205175988842,1.0822710622710623,0.15633699633699633,0.9895970695970695
2.203420568999718,1.696336996336996,0.5286446886446886,2.173406593406593
2.2081847160006873,1.696336996336996,0.5286446886446886,2.173406593406593
2.208344719998422,1.696336996336996,0.5286446886446886,2.173406593406593
2.213463670996134,1.696336996336996,0.5286446886446886,2.173406593406593
2.2163277879881207,1.3909157509157508,0.2175824175824176,1.2837362637362637
2.2198390330013353,1.3909157509157508,0.2175824175824176,1.2837362637362637
2.220201880991226,1.3909157509157508,0.2175824175824176,1.2837362637362637
2.225056526993285,1.3909157509157508,0.2175824175824176,1.2837362637362637
2.225233480989118,1.3909157509157508,0.2175824175824176,1.2837362637362637
2.2294848809979158,1.3909157509157508,0.2175824175824176,1.2837362637362637
2.2316769960016245,1.3909157509157508,0.2175824175824176,1.2837362637362637
2.232479878992308,1.3909157509157508,0.2175824175824176,1.2837362637362637
2.2346044589939993,1.3909157509157508,0.2175824175824176,1.2837362637362637
2.235419111995725,1.1789743589743589,0.15794871794871795,1.3006593406593405
2.237604301000829,1.1789743589743589,0.15794871794871795,1.3006593406593405
2.238404460993479,1.0298901098901099,0.4899633699633699,0.5721611721611721
2.240503627996077,1.0298901098901099,0.4899633699633699,0.5721611721611721
2.2419448569999076,1.0298901098901099,0.4899633699633699,0.5721611721611721
2.2467318779963534,0.0,0.12893772893772892,0.5350915750915751
2.246850811992772,3.1767032967032964,0.6261538461538461,3.3
2.2516300809948007,3.1767032967032964,0.6261538461538461,3.3
2.2517703999910736,3.1767032967032964,0.6261538461538461,3.3
2.256543776995386,3.1767032967032964,0.6261538461538461,3.3
2.256701634993078,3.1767032967032964,0.6261538461538461,3.3
2.261450508987764,1.0903296703296703,0.527032967032967,0.6197069597069597
2.261591843998758,1.0903296703296703,0.527032967032967,0.6197069597069597
2.266393074998632,1.0903296703296703,0.527032967032967,0.6197069597069597
2.266517739990377,1.0903296703296703,0.527032967032967,0.6197069597069597
2.271377715995186,1.0903296703296703,0.527032967032967,0.6197069597069597
2.27149095099594,2.5271794871794873,0.581025641025641,2.6883516483516483
2.2763258359918837,2.5271794871794873,0.581025641025641,2.6883516483516483
2.276494310994167,1.622197802197802,0.20307692307692307,1.544029304029304
2.281533927001874,1.622197802197802,0.20307692307692307,1.544029304029304
2.2856718029943295,2.181465201465201,0.971062271062271,0.767985347985348
2.28846629698819,2.181465201465201,0.971062271062271,0.767985347985348
2.291932888998417,2.181465201465201,0.971062271062271,0.767985347985348
2.29225152899744,2.181465201465201,0.971062271062271,0.767985347985348
2.2971007089945488,2.194358974358974,0.423076923076923,2.2757509157509155
2.301893645999371,2.194358974358974,0.423076923076923,2.2757509157509155
2.306678833992919,0.12893772893772892,0.20307692307692307,0.423076923076923
2.3068546259892173,0.12893772893772892,0.20307692307692307,0.423076923076923
2.3122851999942213,0.12893772893772892,0.20307692307692307,0.423076923076923
2.3147455459984485,0.12893772893772892,0.20307692307692307,0.423076923076923
2.3148835109896027,1.4158974358974357,0.2248351648351648,1.2458608058608058
2.319914281993988,1.4158974358974357,0.2248351648351648,1.2458608058608058
2.3237781310017454,1.4158974358974357,0.2248351648351648,1.2458608058608058
2.3290887929906603,1.4158974358974357,0.2248351648351648,1.2458608058608058
2.3321300559910014,1.4158974358974357,0.2248351648351648,1.2458608058608058
2.334460174999549,1.4158974358974357,0.2248351648351648,1.2458608058608058
2.3347288539953297,1.4158974358974357,0.2248351648351648,1.2458608058608058
2.339971927998704,1.4158974358974357,0.2248351648351648,1.2458608058608058
2.342317913993611,0.9339926739926739,0.43113553113553116,0.5592673992673992
2.342570747990976,0.09831501831501832,0.24901098901098898,0.3771428571428571
2.347092874988448,0.09831501831501832,0.24901098901098898,0.3771428571428571
2.3487042719934834,3.2452014652014647,0.5753846153846153,3.3
2.3524763119930867,1.7479120879120877,0.726080586080586,1.4223443223443224
2.357989878990338,1.7479120879120877,0.726080586080586,1.4223443223443224
2.358939271987765,1.1145054945054944,0.5423443223443223,0.5697435897435897
2.3599296519969357,1.1145054945054944,0.5423443223443223,0.5697435897435897
2.3615812069911044,0.415018315018315,0.40937728937728934,0.5657142857142857
2.365341801996692,0.415018315018315,0.40937728937728934,0.5657142857142857
2.370582668998395,1.9880586080586078,0.40534798534798533,2.2443223443223443
2.374372438993305,2.4425641025641025,0.5294505494505495,2.6109890109890106
2.3796516459988197,2.4425641025641025,0.5294505494505495,2.6109890109890106
2.382658836999326,2.4425641025641025,0.5294505494505495,2.6109890109890106
2.384278882993385,2.4425641025641025,0.5294505494505495,2.6109890109890106
2.3887168949877378,2.4425641025641025,0.5294505494505495,2.6109890109890106
2.38954588699562,2.4425641025641025,0.5294505494505495,2.6109890109890106
2.3912051249935757,2.4425641025641025,0.5294505494505495,2.6109890109890106
2.3952613479923457,2.4425641025641025,0.5294505494505495,2.6109890109890106
2.397756614998798,2.4425641025641025,0.5294505494505495,2.6109890109890106
2.403299130994128,2.4425641025641025,0.5294505494505495,2.6109890109890106
2.404990391994943,0.22886446886446887,0.3843956043956044,0.6398534798534798
2.408108439994976,0.22886446886446887,0.3843956043956044,0.6398534798534798
2.4105761849932605,0.22886446886446887,0.3843956043956044,0.6398534798534798
2.4106966629915405,0.22886446886446887,0.3843956043956044,0.6398534798534798
2.4161669919994893,0.22886446886446887,0.3843956043956044,0.6398534798534798
2.417731568988529,1.6238095238095236,0.1789010989010989,1.8486446886446886
2.4214462179952534,3.3,1.7890109890109889,1.1797802197802196
2.4270585810008924,3.3,1.7890109890109889,1.1797802197802196
2.4279296249878826,1.581904761904762,0.6487179487179486,0.834065934065934
2.4294990449998295,1.581904761904762,0.6487179487179486,0.834065934065934
2.4333323299943004,1.581904761904762,0.6487179487179486,0.834065934065934
2.43926863699744,2.3378021978021977,0.3731135531135531,2.2564102564102564
2.444843924997258,2.6536996336996337,1.0814652014652013,0.7405860805860806
2.4452061759948265,2.9575091575091577,0.5641025641025641,3.3
2.4498716599919135,2.9575091575091577,0.5641025641025641,3.3
2.450068078993354,1.2063736263736262,0.40937728937728934,1.0290842490842491
2.4557697299896972,1.2063736263736262,0.40937728937728934,1.0290842490842491
2.4559102519997396,1.2063736263736262,0.40937728937728934,1.0290842490842491
2.4608700339886127,1.2063736263736262,0.40937728937728934,1.0290842490842491
2.4656438139936654,1.2063736263736262,0.40937728937728934,1.0290842490842491
2.4658730819937773,1.2063736263736262,0.40937728937728934,1.0290842490842491
2.4706139329937287,1.2063736263736262,0.40937728937728934,1.0290842490842491
2.4708278389880434,1.2063736263736262,0.40937728937728934,1.0290842490842491
2.4754697309981566,1.2063736263736262,0.40937728937728934,1.0290842490842491
2.475704753000173,1.2063736263736262,0.40937728937728934,1.0290842490842491
2.4809629079973092,1.2063736263736262,0.40937728937728934,1.0290842490842491
2.4835377509880345,1.2063736263736262,0.40937728937728934,1.0290842490842491
2.4881885849899845,1.2063736263736262,0.40937728937728934,1.0290842490842491
2.488406673001009,1.2063736263736262,0.40937728937728934,1.0290842490842491
2.4931166439928347,1.2063736263736262,0.40937728937728934,1.0290842490842491
2.498777306987904,1.2063736263736262,0.40937728937728934,1.0290842490842491
2.499054479994811,1.2063736263736262,0.40937728937728934,1.0290842490842491
2.504585958988173,1.2063736263736262,0.40937728937728934,1.0290842490842491
2.505439120999654,1.2063736263736262,0.40937728937728934,1.0290842490842491
2.507073284999933,1.2063736263736262,0.40937728937728934,1.0290842490842491
2.511619148994214,1.2063736263736262,0.40937728937728934,1.0290842490842491
2.511786247996497,1.2063736263736262,0.40937728937728934,1.0290842490842491
2.5169772619992727,1.2063736263736262,0.40937728937728934,1.0290842490842491
2.5201216909918003,1.2063736263736262,0.40937728937728934,1.0290842490842491
2.5224578529887367,0.8002197802197801,0.4593406593406593,0.6124542124542125
2.5227337969990913,0.05399267399267399,0.23047619047619047,0.5375091575091575
2.5272654529981082,0.05399267399267399,0.23047619047619047,0.5375091575091575
2.5281313479936216,1.692307692307692,0.3884249084249084,1.7189010989010989
2.5299252760014497,1.692307692307692,0.3884249084249084,1.7189010989010989
2.533251800996368,1.692307692307692,0.3884249084249084,1.7189010989010989
2.5348803569941083,2.586007326007326,0.5415384615384615,2.5997069597069595
2.538675982999848,2.586007326007326,0.5415384615384615,2.5997069597069595
2.543559635989368,1.1854212454212454,0.12007326007326008,1.0476190476190474
2.5483795269974507,2.3845421245421243,0.6487179487179486,2.31040293040293
2.5529933629877632,2.3845421245421243,0.6487179487179486,2.31040293040293
2.553298784987419,2.3845421245421243,0.6487179487179486,2.31040293040293
2.558633202992496,2.3845421245421243,0.6487179487179486,2.31040293040293
2.5603255509922747,2.3845421245421243,0.6487179487179486,2.31040293040293
2.5636016389908036,2.3845421245421243,0.6487179487179486,2.31040293040293
2.565152967988979,2.3845421245421243,0.6487179487179486,2.31040293040293
2.569896015993436,2.3845421245421243,0.6487179487179486,2.31040293040293
2.574786883997149,2.5956776556776555,0.6124542124542125,2.5312087912087913
2.5794386799971107,2.5956776556776555,0.6124542124542125,2.5312087912087913
2.5796797899965895,2.5956776556776555,0.6124542124542125,2.5312087912087913
2.584505965001881,2.5956776556776555,0.6124542124542125,2.5312087912087913
2.590190464994521,2.5956776556776555,0.6124542124542125,2.5312087912087913
2.591118518001167,2.352307692307692,0.7309157509157509,2.266080586080586
2.5919865959876915,2.352307692307692,0.7309157509157509,2.266080586080586
2.593774789987947,2.352307692307692,0.7309157509157509,2.266080586080586
2.5962464769982034,1.2643956043956044,0.2087179487179487,1.012967032967033
2.596454732993152,1.2643956043956044,0.2087179487179487,1.012967032967033
2.6010869499878027,1.2643956043956044,0.2087179487179487,1.012967032967033
2.6013191689999076,2.644029304029304,1.099194139194139,0.7196336996336996
2.6061220049887197,2.644029304029304,1.099194139194139,0.7196336996336996
2.6062626799975988,2.644029304029304,1.099194139194139,0.7196336996336996
2.6108482720010215,2.644029304029304,1.099194139194139,0.7196336996336996
2.611155886988854,2.644029304029304,1.099194139194139,0.7196336996336996
2.615944374992978,2.644029304029304,1.099194139194139,0.7196336996336996
2.6160697969899047,2.419194139194139,0.47706959706959706,2.3563369963369962
2.6215658859873656,2.419194139194139,0.47706959706959706,2.3563369963369962
2.6231150179955876,2.419194139194139,0.47706959706959706,2.3563369963369962
2.6269386549975025,2.419194139194139,0.47706959706959706,2.3563369963369962
2.6315368169889553,2.419194139194139,0.47706959706959706,2.3563369963369962
2.6318124679964967,2.419194139194139,0.47706959706959706,2.3563369963369962
2.6370342899899697,2.419194139194139,0.47706959706959706,2.3563369963369962
2.64020387698838,2.419194139194139,0.47706959706959706,2.3563369963369962
2.64179478699225,2.419194139194139,0.47706959706959706,2.3563369963369962
2.646352596988436,2.419194139194139,0.47706959706959706,2.3563369963369962
2.6472051229939098,2.419194139194139,0.47706959706959706,2.3563369963369962
2.648808959987946,2.186300366300366,1.0468131868131867,0.7333333333333333
2.6529346460010856,2.186300366300366,1.0468131868131867,0.7333333333333333
2.655228410993004,2.186300366300366,1.0468131868131867,0.7333333333333333
2.6554536589974305,2.186300366300366,1.0468131868131867,0.7333333333333333
2.6610679739969783,2.186300366300366,1.0468131868131867,0.7333333333333333
2.6612046209920663,2.186300366300366,1.0468131868131867,0.7333333333333333
2.6672539959981805,2.186300366300366,1.0468131868131867,0.7333333333333333
2.671719171994482,1.6576556776556775,0.40937728937728934,1.7857875457875456
2.67259476298932,2.6408058608058607,0.5761904761904761,2.681904761904762
2.6741843829950085,2.6408058608058607,0.5761904761904761,2.681904761904762
2.6779398529906757,2.6408058608058607,0.5761904761904761,2.681904761904762
2.6824614819925046,1.7301831501831502,0.7542857142857142,0.6414652014652015
2.6840685950010084,0.03223443223443223,0.23934065934065935,0.5197802197802197
2.687826644993038,0.03223443223443223,0.23934065934065935,0.5197802197802197
2.6930929779919097,0.03223443223443223,0.23934065934065935,0.5197802197802197
2.6961246829887386,1.9767765567765565,0.2989743589743589,1.859120879120879
2.6993931839970173,1.9767765567765565,0.2989743589743589,1.859120879120879
2.7003068889898714,1.9767765567765565,0.2989743589743589,1.859120879120879
2.701868459000252,1.9767765567765565,0.2989743589743589,1.859120879120879
2.705951088995789,1.9767765567765565,0.2989743589743589,1.859120879120879
2.709187132990337,1.9767765567765565,0.2989743589743589,1.859120879120879
2.7101620249886764,1.9767765567765565,0.2989743589743589,1.859120879120879
2.7112795879947953,2.378901098901099,0.7236630036630036,2.314432234432234
2.711589282989735,2.378901098901099,0.7236630036630036,2.314432234432234
2.7165563409944298,2.378901098901099,0.7236630036630036,2.314432234432234
2.722543454990955,1.0564835164835162,0.09992673992673992,1.0266666666666666
2.7269664339983137,1.0564835164835162,0.09992673992673992,1.0266666666666666
2.727920074990834,1.0564835164835162,0.09992673992673992,1.0266666666666666
2.7295849369984353,1.0564835164835162,0.09992673992673992,1.0266666666666666
2.734007307997672,1.0564835164835162,0.09992673992673992,1.0266666666666666
2.734921837996808,1.0564835164835162,0.09992673992673992,1.0266666666666666
2.735877024999354,1.0564835164835162,0.09992673992673992,1.0266666666666666
2.7374724719993537,1.0564835164835162,0.09992673992673992,1.0266666666666666
2.742000250000274,1.0564835164835162,0.09992673992673992,1.0266666666666666
2.7422942119883373,2.1161904761904764,0.9726739926739927,0.792967032967033
2.746844376990339,2.1161904761904764,0.9726739926739927,0.792967032967033
2.747157113000867,3.1968498168498165,0.5826373626373627,3.3
2.7518776639917633,3.1968498168498165,0.5826373626373627,3.3
2.757508272989071,2.9776556776556777,0.5294505494505495,3.211355311355311
2.7583773309888784,2.9776556776556777,0.5294505494505495,3.211355311355311
2.7599956929916516,2.9776556776556777,0.5294505494505495,3.211355311355311
2.7638313669885974,2.9776556776556777,0.5294505494505495,3.211355311355311
2.7686453459900804,2.9776556776556777,0.5294505494505495,3.211355311355311
2.76878816599492,2.9776556776556777,0.5294505494505495,3.211355311355311
2.7802963449939853,2.9776556776556777,0.5294505494505495,3.211355311355311
2.7896165419952013,2.9776556776556777,0.5294505494505495,3.211355311355311
2.798101663996931,2.9776556776556777,0.5294505494505495,3.211355311355311
2.80485353799304,2.9776556776556777,0.5294505494505495,3.211355311355311
2.810696543994709,2.9776556776556777,0.5294505494505495,3.211355311355311
2.8170786970003974,1.9243956043956043,0.4794871794871795,2.1315018315018315
2.8230497619952075,1.9243956043956043,0.4794871794871795,2.1315018315018315
2.828406909990008,1.9243956043956043,0.4794871794871795,2.1315018315018315
2.828669277994777,1.129010989010989,0.4931868131868131,0.8783882783882784
2.837471695995191,1.129010989010989,0.4931868131868131,0.8783882783882784
2.846640299001592,1.129010989010989,0.4931868131868131,0.8783882783882784
2.8552324769989355,1.129010989010989,0.4931868131868131,0.8783882783882784
2.863284234001185,1.129010989010989,0.4931868131868131,0.8783882783882784
2.870653438993031,0.6761172161172161,0.32717948717948714,0.5778021978021978
2.8779944829875603,2.041245421245421,0.7728205128205128,1.9082783882783882
2.884564144987962,2.041245421245421,0.7728205128205128,1.9082783882783882
2.8905964709992986,0.024175824175824173,0.16278388278388278,0.7035164835164834
2.897358878995874,0.024175824175824173,0.16278388278388278,0.7035164835164834
2.903555411990965,0.024175824175824173,0.16278388278388278,0.7035164835164834
2.909129863997805,0.0,0.18776556776556774,0.4827106227106227
2.9202200889994856,3.3,1.4763369963369963,1.4843956043956044
2.930288029994699,0.0,0.1958241758241758,0.6035897435897435
2.9394154609908583,0.0,0.1958241758241758,0.6035897435897435
2.948600974996225,1.2660073260073261,0.2804395604395604,1.195091575091575
2.9553138589981245,1.8317216117216117,0.7752380952380952,1.58996336996337
2.9632140259927837,2.456263736263736,0.5915018315018314,2.764908424908425
2.9683984279981814,2.456263736263736,0.5915018315018314,2.764908424908425
2.9713238769909367,2.456263736263736,0.5915018315018314,2.764908424908425
2.974356088991044,2.456263736263736,0.5915018315018314,2.764908424908425
2.9763409559964202,2.456263736263736,0.5915018315018314,2.764908424908425
2.9786352399969473,2.456263736263736,0.5915018315018314,2.764908424908425
2.9895885409932816,2.456263736263736,0.5915018315018314,2.764908424908425
2.9990318119962467,2.456263736263736,0.5915018315018314,2.764908424908425
3.006758416988305,2.5553846153846154,0.5906959706959707,3.1106227106227102
3.015513523001573,3.1855677655677654,0.6366300366300366,3.3
3.0224869389930973,3.1855677655677654,0.6366300366300366,3.3
3.0296310049889144,3.1855677655677654,0.6366300366300366,3.3
3.0357697059953352,2.162124542124542,0.4319413919413919,2.686739926739927
3.0409588209877256,2.162124542124542,0.4319413919413919,2.686739926739927
3.0451708709879313,0.18454212454212454,0.32395604395604394,0.7075457875457875
3.0464628729969263,0.18454212454212454,0.32395604395604394,0.7075457875457875
3.0466380500001833,0.18454212454212454,0.32395604395604394,0.7075457875457875
3.0544023319962434,0.18454212454212454,0.32395604395604394,0.7075457875457875
3.061655087993131,0.18454212454212454,0.32395604395604394,0.7075457875457875
3.0666525729902787,0.18454212454212454,0.32395604395604394,0.7075457875457875
3.0708377229893813,0.18454212454212454,0.32395604395604394,0.7075457875457875
3.073511400987627,0.18454212454212454,0.32395604395604394,0.7075457875457875
3.0809345999878133,0.18454212454212454,0.32395604395604394,0.7075457875457875
3.087081585996202,0.18454212454212454,0.32395604395604394,0.7075457875457875
3.0926789509976516,0.18454212454212454,0.32395604395604394,0.7075457875457875
3.103178258999833,2.3845421245421243,0.6535531135531135,2.7286446886446885
3.1110924519889522,2.3845421245421243,0.6535531135531135,2.7286446886446885
3.118983426000341,2.3845421245421243,0.6535531135531135,2.7286446886446885
3.1244425819895696,1.2772893772893772,0.09670329670329669,1.4158974358974357
3.1247213409951655,1.2772893772893772,0.09670329670329669,1.4158974358974357
3.134972749990993,1.2772893772893772,0.09670329670329669,1.4158974358974357
3.1432329719973495,1.2772893772893772,0.09670329670329669,1.4158974358974357
3.1505018979951274,1.2772893772893772,0.09670329670329669,1.4158974358974357
3.1574064820015337,1.2772893772893772,0.09670329670329669,1.4158974358974357
3.164167636001366,1.0774358974358973,0.11604395604395604,1.1241758241758242
3.1702383019874105,1.0774358974358973,0.11604395604395604,1.1241758241758242
3.175426140995114,1.0774358974358973,0.11604395604395604,1.1241758241758242
3.17892555599974,1.0774358974358973,0.11604395604395604,1.1241758241758242
3.187401407994912,1.0774358974358973,0.11604395604395604,1.1241758241758242
3.1942440860002534,1.0774358974358973,0.11604395604395604,1.1241758241758242
3.2010561829956714,1.0774358974358973,0.11604395604395604,1.1241758241758242
3.20669444098894,1.0774358974358973,0.11604395604395604,1.1241758241758242
3.2164031239954056,2.087985347985348,0.5624908424908425,2.241098901098901
3.223442687987699,2.958315018315018,0.44080586080586076,3.3
3.231408820996876,2.958315018315018,0.44080586080586076,3.3
3.2375946219981415,2.958315018315018,0.44080586080586076,3.3
3.2409586739959195,2.958315018315018,0.44080586080586076,3.3
3.2412218839890556,2.958315018315018,0.44080586080586076,3.3
3.2496486909949454,2.958315018315018,0.44080586080586076,3.3
3.2580352899967693,2.958315018315018,0.44080586080586076,3.3
3.2675706099980744,2.958315018315018,0.44080586080586076,3.3
3.2753255629941123,0.0,0.16117216117216115,0.523003663003663
3.2815235369926086,0.0,0.16117216117216115,0.523003663003663
3.2860606999893207,0.0,0.16117216117216115,0.523003663003663
3.2863076609937707,0.0,0.16117216117216115,0.523003663003663
3.2945789669902297,0.0,0.16117216117216115,0.523003663003663
3.3021393369999714,0.0,0.16117216117216115,0.523003663003663
3.3067035989952274,0.39487179487179486,0.3626373626373626,0.5221978021978021
3.3069585689954692,0.39487179487179486,0.3626373626373626,0.5221978021978021
3.3162592820008285,0.39487179487179486,0.3626373626373626,0.5221978021978021
3.3237254839914385,0.39487179487179486,0.3626373626373626,0.5221978021978021
3.3313005579984747,0.0,0.2071062271062271,0.6398534798534798
3.336024896998424,0.0,0.2071062271062271,0.6398534798534798
3.3362424849910894,0.0,0.2071062271062271,0.6398534798534798
3.3435839820012916,0.0,0.2071062271062271,0.6398534798534798
3.3522802169900388,0.0,0.2071062271062271,0.6398534798534798
3.3596469079930102,0.0,0.2071062271062271,0.6398534798534798
3.3670994759886526,0.0,0.2071062271062271,0.6398534798534798
3.3742818780010566,0.0,0.2071062271062271,0.6398534798534798
3.38090197899146,0.0,0.2071062271062271,0.6398534798534798
3.3858800979942316,0.0,0.2071062271062271,0.6398534798534798
3.393046371988021,0.0,0.2071062271062271,0.6398534798534798
3.401920057993266,2.382124542124542,0.7607326007326007,2.386959706959707
3.407697852991987,2.382124542124542,0.7607326007326007,2.386959706959707
3.4078151029971195,2.382124542124542,0.7607326007326007,2.386959706959707
3.4178573569952277,2.382124542124542,0.7607326007326007,2.386959706959707
3.4249699770007282,2.382124542124542,0.7607326007326007,2.386959706959707
3.4339374439878156,2.382124542124542,0.7607326007326007,2.386959706959707
3.4410302069882164,2.382124542124542,0.7607326007326007,2.386959706959707
3.4493743419880047,1.4674725274725273,0.6753113553113552,0.6189010989010989
3.4559848709905054,3.145274725274725,0.630989010989011,3.3
3.4641145169880474,3.145274725274725,0.630989010989011,3.3
3.4701369819958927,3.145274725274725,0.630989010989011,3.3
3.474228292994667,1.5174358974358972,0.6205128205128204,0.6914285714285714
3.4794731439906172,1.5174358974358972,0.6205128205128204,0.6914285714285714
3.4798381909931777,1.5174358974358972,0.6205128205128204,0.6914285714285714
3.4874075219995575,1.5174358974358972,0.6205128205128204,0.6914285714285714
3.4946065729891416,1.5174358974358972,0.6205128205128204,0.6914285714285714
3.5015345469873864,2.5150915750915748,0.5399267399267399,2.5118681318681317
3.5071418180014007,2.5150915750915748,0.5399267399267399,2.5118681318681317
3.516610424994724,1.1886446886446886,0.37150183150183147,1.1443223443223443
3.5261439259920735,1.1886446886446886,0.37150183150183147,1.1443223443223443
3.534035191987641,0.14586080586080585,0.24175824175824176,0.423076923076923
3.541804302993114,2.2878388278388275,0.6994871794871794,2.253186813186813
3.5501487599976826,1.2079853479853477,0.12893772893772892,1.1757509157509156
3.5562212279910455,1.2079853479853477,0.12893772893772892,1.1757509157509156
3.5625436830014223,1.2079853479853477,0.12893772893772892,1.1757509157509156
3.56738716099062,1.2079853479853477,0.12893772893772892,1.1757509157509156
3.571595057990635,2.0734798534798533,0.4254945054945055,2.2040293040293037
3.5719531849899795,2.0734798534798533,0.4254945054945055,2.2040293040293037
3.5814223749912344,2.0734798534798533,0.4254945054945055,2.2040293040293037
3.588669844000833,2.0734798534798533,0.4254945054945055,2.2040293040293037
3.5950840409932425,2.0734798534798533,0.4254945054945055,2.2040293040293037
3.6014734279888216,1.4594139194139193,0.15875457875457877,1.4972893772893772
3.6070570559968473,1.4594139194139193,0.15875457875457877,1.4972893772893772
3.6072520129964687,1.4594139194139193,0.15875457875457877,1.4972893772893772
3.617685368997627,1.4594139194139193,0.15875457875457877,1.4972893772893772
3.62695516399981,1.4594139194139193,0.15875457875457877,1.4972893772893772
3.6367744659946766,3.041318681318681,0.7115750915750916,3.0606593406593405
3.6461350619938457,2.605347985347985,0.5745787545787545,2.6762637362637363
3.653595931988093,2.605347985347985,0.5745787545787545,2.6762637362637363
3.6608593739947537,2.605347985347985,0.5745787545787545,2.6762637362637363
3.6675250709959073,1.0532600732600732,0.5842490842490843,0.7123809523809523
3.6725410029903287,1.0685714285714285,0.37150183150183147,1.0572893772893772
3.6787067419936648,2.3039560439560436,0.6624175824175824,2.0968498168498164
3.685409344994696,2.3039560439560436,0.6624175824175824,2.0968498168498164
3.691181878995849,0.19179487179487179,0.24659340659340656,0.3441025641025641
3.6989618579973467,2.250769230769231,0.41098901098901097,2.3224908424908426
3.7053195019980194,2.250769230769231,0.41098901098901097,2.3224908424908426
3.7107357880013296,2.250769230769231,0.41098901098901097,2.3224908424908426
3.711181165999733,2.250769230769231,0.41098901098901097,2.3224908424908426
3.7193425269942963,2.8422710622710623,0.47062271062271055,3.3
3.726102632994298,2.8422710622710623,0.47062271062271055,3.3
3.7332954199955566,2.8422710622710623,0.47062271062271055,3.3
3.7389290959981736,2.8422710622710623,0.47062271062271055,3.3
3.74878673699277,2.8422710622710623,0.47062271062271055,3.3
3.756307976989774,2.8422710622710623,0.47062271062271055,3.3
3.7634992379898904,2.8422710622710623,0.47062271062271055,3.3
3.769245575997047,2.8422710622710623,0.47062271062271055,3.3
3.774498290993506,2.8422710622710623,0.47062271062271055,3.3
3.7788161489879712,1.54,0.17406593406593407,1.8953846153846152
3.7793537489924347,3.3,1.714065934065934,1.1217582417582417
3.785418272993411,3.3,1.714065934065934,1.1217582417582417
3.7903911829926074,3.3,1.714065934065934,1.1217582417582417
3.794479249001597,3.3,1.714065934065934,1.1217582417582417
3.799534435995156,2.116996336996337,0.3618315018315018,2.1758241758241756
3.8019193910004105,2.116996336996337,0.3618315018315018,2.1758241758241756
3.8114876039908268,2.116996336996337,0.3618315018315018,2.1758241758241756
3.8210692110005766,1.5625641025641024,0.3723076923076923,1.7479120879120877
3.8297892510017846,1.2756776556776557,0.14102564102564102,1.4344322344322344
3.8372914739884436,1.2756776556776557,0.14102564102564102,1.4344322344322344
3.8435403759940527,1.041978021978022,0.14263736263736262,1.0621245421245422
3.848805096000433,1.041978021978022,0.14263736263736262,1.0621245421245422
3.8489991339884,1.041978021978022,0.14263736263736262,1.0621245421245422
3.858369654000853,1.041978021978022,0.14263736263736262,1.0621245421245422
3.8662975059996825,1.041978021978022,0.14263736263736262,1.0621245421245422
3.8746963089943165,1.569010989010989,0.3932600732600733,1.8317216117216117
3.8827340149873635,1.569010989010989,0.3932600732600733,1.8317216117216117
3.8891056229913374,0.06446886446886446,0.25384615384615383,0.6865934065934066
3.8957276180008193,0.06446886446886446,0.25384615384615383,0.6865934065934066
3.900521742994897,0.06446886446886446,0.25384615384615383,0.6865934065934066
3.906276000998332,0.06446886446886446,0.25384615384615383,0.6865934065934066
3.9157921299920417,0.06446886446886446,0.25384615384615383,0.6865934065934066
3.9242019369994523,2.4167765567765565,0.6463003663003662,2.6383882783882786
3.9328763789962977,2.4167765567765565,0.6463003663003662,2.6383882783882786
3.9393805539875757,2.4167765567765565,0.6463003663003662,2.6383882783882786
3.9445958569995128,2.4167765567765565,0.6463003663003662,2.6383882783882786
3.9468592919874936,0.0,0.19824175824175824,0.664029304029304
3.955741252997541,0.0,0.19824175824175824,0.664029304029304
3.9644103839964373,0.0,0.19824175824175824,0.664029304029304
3.97140736199799,0.0,0.19824175824175824,0.664029304029304
3.9784776759915985,0.0,0.19824175824175824,0.664029304029304
3.985165339996456,0.0,0.19824175824175824,0.664029304029304
3.9908721129904734,0.0,0.19824175824175824,0.664029304029304
4.000884714987478,2.4747985347985346,0.6108424908424909,2.8616117216117214
4.008130804999382,2.4747985347985346,0.6108424908424909,2.8616117216117214
4.015921525991871,2.4747985347985346,0.6108424908424909,2.8616117216117214
4.022865393999382,2.709304029304029,0.5238095238095237,3.207326007326007
4.0292219309922075,1.0186080586080586,0.5278388278388277,0.6261538461538461
4.034214946994325,1.0186080586080586,0.5278388278388277,0.6261538461538461
4.038289619988063,1.0186080586080586,0.5278388278388277,0.6261538461538461
4.0407966549973935,1.5770695970695972,0.22886446886446887,2.00014652014652
4.052515407995088,1.5770695970695972,0.22886446886446887,2.00014652014652
4.062801171996398,1.5770695970695972,0.22886446886446887,2.00014652014652
4.0703067899885355,1.5770695970695972,0.22886446886446887,2.00014652014652
4.077856676987722,1.5770695970695972,0.22886446886446887,2.00014652014652
4.084021930990275,1.5770695970695972,0.22886446886446887,2.00014652014652
4.0896916079946095,1.5770695970695972,0.22886446886446887,2.00014652014652
4.09983089499292,2.2636630036630034,0.7357509157509158,2.3764835164835163
4.1080164079903625,2.2636630036630034,0.7357509157509158,2.3764835164835163
4.115088509992347,3.142051282051282,0.6189010989010989,3.3
4.120405737994588,2.1564835164835165,0.8252014652014652,2.1846886446886447
4.12132355599897,0.43435897435897436,0.3884249084249084,0.42388278388278383
4.12239751398738,0.43435897435897436,0.3884249084249084,0.42388278388278383
4.122744613996474,0.43435897435897436,0.3884249084249084,0.42388278388278383
4.130687402997864,2.598095238095238,0.755091575091575,2.9695970695970697
4.136621703990386,2.598095238095238,0.755091575091575,2.9695970695970697
4.142962030993658,2.598095238095238,0.755091575091575,2.9695970695970697
4.1504879109998,2.598095238095238,0.755091575091575,2.9695970695970697
4.156778845994268,2.598095238095238,0.755091575091575,2.9695970695970697
4.164144172988017,2.598095238095238,0.755091575091575,2.9695970695970697
4.169865621995996,0.12329670329670328,0.2191941391941392,0.49560439560439556
4.178889322996838,0.12329670329670328,0.2191941391941392,0.49560439560439556
4.186728677988867,2.706080586080586,0.5173626373626373,2.764908424908425
4.1915481069881935,2.706080586080586,0.5173626373626373,2.764908424908425
4.199574429992936,2.706080586080586,0.5173626373626373,2.764908424908425
4.206371427993872,2.706080586080586,0.5173626373626373,2.764908424908425
4.2145285199949285,1.8413919413919413,0.5286446886446886,2.0194871794871796
4.22158206399763,1.8413919413919413,0.5286446886446886,2.0194871794871796
4.227515977996518,1.8413919413919413,0.5286446886446886,2.0194871794871796
4.236472800999763,3.2935531135531133,0.7309157509157509,3.3
4.244781030996819,3.2935531135531133,0.7309157509157509,3.3
4.253064765987801,2.4135531135531134,0.4464468864468864,2.6367765567765566
4.260061244000099,2.4135531135531134,0.4464468864468864,2.6367765567765566
4.2672057460004,2.4135531135531134,0.4464468864468864,2.6367765567765566
4.27260042099806,0.0,0.10153846153846154,0.37875457875457874
4.272798754987889,0.0,0.10153846153846154,0.37875457875457874
4.281920501991408,0.0,0.10153846153846154,0.37875457875457874
4.289981213994906,3.3,1.88007326007326,1.1878388278388277
4.298024543997599,3.3,1.88007326007326,1.1878388278388277
4.304576406997512,2.461904761904762,0.5012454212454212,2.5827838827838825
4.308547777996864,3.1098168498168497,0.7615384615384615,3.1364102564102563
4.314277510988177,3.1098168498168497,0.7615384615384615,3.1364102564102563
4.319987375987694,3.1098168498168497,0.7615384615384615,3.1364102564102563
4.327390296995873,3.1098168498168497,0.7615384615384615,3.1364102564102563
4.333249698000145,3.1968498168498165,0.7365567765567765,3.3
4.33957624399045,3.1968498168498165,0.7365567765567765,3.3
4.347019773995271,3.1968498168498165,0.7365567765567765,3.3
4.353748418987379,0.0821978021978022,0.15875457875457877,0.5769963369963369
4.35800437600119,0.0821978021978022,0.15875457875457877,0.5769963369963369
4.362608158990042,0.0821978021978022,0.15875457875457877,0.5769963369963369
4.3713494569965405,0.0821978021978022,0.15875457875457877,0.5769963369963369
4.379822233997402,0.0821978021978022,0.15875457875457877,0.5769963369963369
4.3873126699909335,0.0821978021978022,0.15875457875457877,0.5769963369963369
4.393850321997888,0.0821978021978022,0.15875457875457877,0.5769963369963369
4.3984430489945225,0.0821978021978022,0.15875457875457877,0.5769963369963369
4.407681822995073,0.0821978021978022,0.15875457875457877,0.5769963369963369
4.4181939419941045,0.0,0.1643956043956044,0.5778021978021978
4.427350762998685,0.0,0.1643956043956044,0.5778021978021978
4.434597843996016,2.925274725274725,0.5504029304029303,3.2419780219780217
4.440533486995264,2.925274725274725,0.5504029304029303,3.2419780219780217
4.4479669489955995,0.3158974358974359,0.3199267399267399,0.5350915750915751
4.455121234001126,3.1130402930402927,0.585054945054945,3.3
4.461485105988686,3.1130402930402927,0.585054945054945,3.3
4.467976113999612,3.1130402930402927,0.585054945054945,3.3
4.4731069919944275,3.1130402930402927,0.585054945054945,3.3
4.477753355997265,3.1130402930402927,0.585054945054945,3.3
4.4851755919953575,3.1130402930402927,0.585054945054945,3.3
4.4896798729896545,3.1130402930402927,0.585054945054945,3.3
4.489916483988054,3.1130402930402927,0.585054945054945,3.3
4.497481061989674,3.1130402930402927,0.585054945054945,3.3
4.504191112995613,2.7584615384615385,0.46498168498168496,3.0268131868131865
4.508462838988635,3.3,0.6398534798534798,3.3
4.511559910999495,3.3,0.6398534798534798,3.3
4.512082143992302,3.3,0.6398534798534798,3.3
4.517922939994605,3.3,0.6398534798534798,3.3
4.524380252987612,3.3,0.6398534798534798,3.3
4.531110279989662,3.3,0.6398534798534798,3.3
4.537029573999462,3.3,0.6398534798534798,3.3
4.542014640988782,0.9775091575091575,0.4827106227106227,0.5044688644688645
4.54726496899093,0.9775091575091575,0.4827106227106227,0.5044688644688645
4.547551222000038,3.227472527472527,0.6785347985347985,3.3
4.555741646996466,3.3,1.5085714285714285,1.0548717948717947
4.564007480992586,3.3,1.5085714285714285,1.0548717948717947
4.570988093997585,3.3,1.5085714285714285,1.0548717948717947
4.5766268219886115,3.3,1.5085714285714285,1.0548717948717947
4.58687336598814,3.3,1.5085714285714285,1.0548717948717947
4.596573540999088,3.3,1.5085714285714285,1.0548717948717947
4.603581524992478,3.3,1.5085714285714285,1.0548717948717947
4.60784348899324,0.011282051282051281,0.2643223443223443,0.6205128205128204
4.610089080990292,0.011282051282051281,0.2643223443223443,0.6205128205128204
4.610284315000172,0.011282051282051281,0.2643223443223443,0.6205128205128204
4.618512417990132,0.011282051282051281,0.2643223443223443,0.6205128205128204
4.624870711995754,1.61010989010989,0.2328937728937729,1.8937728937728935
4.63348171999678,3.175897435897436,0.7236630036630036,3.3
4.640012085001217,2.121025641025641,0.8687179487179487,2.067032967032967
4.647936508001294,2.121025641025641,0.8687179487179487,2.067032967032967
4.6552519779943395,2.121025641025641,0.8687179487179487,2.067032967032967
4.659855100995628,2.121025641025641,0.8687179487179487,2.067032967032967
4.667651482988731,3.3,1.8494505494505493,1.212014652014652
4.675941330991918,3.3,1.8494505494505493,1.212014652014652
4.682723551988602,3.3,1.8494505494505493,1.212014652014652
4.689821364998352,0.6374358974358975,0.361025641025641,0.6108424908424909
4.695277681996231,0.6374358974358975,0.361025641025641,0.6108424908424909
4.696633466999629,0.6374358974358975,0.361025641025641,0.6108424908424909
4.704891942994436,0.6374358974358975,0.361025641025641,0.6108424908424909
4.71273910299351,0.6374358974358975,0.361025641025641,0.6108424908424909
4.719076085995766,2.3555311355311352,0.7083516483516483,2.5070329670329667
4.723638010997092,2.3555311355311352,0.7083516483516483,2.5070329670329667
4.723769406991778,2.3555311355311352,0.7083516483516483,2.5070329670329667
4.733291229000315,2.3555311355311352,0.7083516483516483,2.5070329670329667
4.740672656000243,2.3555311355311352,0.7083516483516483,2.5070329670329667
4.747718316997634,2.3555311355311352,0.7083516483516483,2.5070329670329667
4.753530483998475,2.3555311355311352,0.7083516483516483,2.5070329670329667
4.7615619149873964,2.3555311355311352,0.7083516483516483,2.5070329670329667
4.76957834699715,3.3,1.5134065934065932,0.9895970695970695
4.7745329879981,3.3,1.5134065934065932,0.9895970695970695
4.782264531997498,3.3,1.5134065934065932,0.9895970695970695
4.788696648000041,3.3,1.5134065934065932,0.9895970695970695
4.79367657599505,3.3,1.5134065934065932,0.9895970695970695
4.800770097994246,3.3,1.5134065934065932,0.9895970695970695
4.807449557993095,3.3,1.5134065934065932,0.9895970695970695
4.813540225994075,3.3,1.5134065934065932,0.9895970695970695
4.818325642001582,3.3,1.5134065934065932,0.9895970695970695
4.822749091996229,3.3,1.5134065934065932,0.9895970695970695
4.824303546993178,3.3,1.5134065934065932,0.9895970695970695
4.832682309992379,3.3,1.5134065934065932,0.9895970695970695
4.839026271991315,3.3,1.5134065934065932,0.9895970695970695
4.845424483995885,3.3,1.5134065934065932,0.9895970695970695
4.850566148990765,3.3,0.6197069597069597,3.3
4.8533746609900845,3.3,0.6197069597069597,3.3
4.857215390991769,3.3,0.6197069597069597,3.3
4.864922698994633,3.3,0.6197069597069597,3.3
4.8708138819929445,0.43274725274725273,0.38681318681318677,0.5520146520146519
4.876155405989266,3.3,1.6044688644688643,1.4344322344322344
4.878079206988332,3.3,1.6044688644688643,1.4344322344322344
4.879925602988806,3.3,1.6044688644688643,1.4344322344322344
4.882238071993925,3.3,1.6044688644688643,1.4344322344322344
4.882483602996217,3.3,1.6044688644688643,1.4344322344322344
4.88973638699099,3.3,1.6044688644688643,1.4344322344322344
4.897595410991926,3.3,1.6044688644688643,1.4344322344322344
4.905092410990619,3.3,1.6044688644688643,1.4344322344322344
4.911921957987943,3.3,1.6044688644688643,1.4344322344322344
4.918239350998192,3.3,1.6044688644688643,1.4344322344322344
4.923024527990492,1.4175091575091574,0.0975091575091575,1.3957509157509156
4.931284359001438,1.4175091575091574,0.0975091575091575,1.3957509157509156
4.938109954993706,1.4175091575091574,0.0975091575091575,1.3957509157509156
4.9438026799907675,1.4175091575091574,0.0975091575091575,1.3957509157509156
4.952443582995329,1.4175091575091574,0.0975091575091575,1.3957509157509156
4.963698847001069,1.4175091575091574,0.0975091575091575,1.3957509157509156
4.972310525001376,1.4175091575091574,0.0975091575091575,1.3957509157509156
4.981410178996157,1.5303296703296703,0.34007326007326005,1.6407326007326006
4.988628596998751,0.1265201465201465,0.13216117216117215,0.5600732600732601
4.9940977999940515,0.1265201465201465,0.13216117216117215,0.5600732600732601
4.99446392498794,0.1265201465201465,0.13216117216117215,0.5600732600732601
5.002089606990921,0.1265201465201465,0.13216117216117215,0.5600732600732601
5.008036620987696,0.1265201465201465,0.13216117216117215,0.5600732600732601
5.014710646995809,0.1265201465201465,0.13216117216117215,0.5600732600732601
5.020119859997067,0.1265201465201465,0.13216117216117215,0.5600732600732601
5.0229375649942085,0.1265201465201465,0.13216117216117215,0.5600732600732601
5.026470648997929,0.0,0.18373626373626373,0.5520146520146519
5.0347246149904095,0.0,0.18373626373626373,0.5520146520146519
5.041508968992275,2.6327472527472526,0.5971428571428571,2.8454945054945053
5.046740660996875,3.3,1.39010989010989,1.0097435897435898
5.0490773060009815,3.1194871794871792,0.6293772893772893,3.3
5.05798600599519,3.1194871794871792,0.6293772893772893,3.3
5.064637220988516,3.1194871794871792,0.6293772893772893,3.3
5.070539313994232,3.1194871794871792,0.6293772893772893,3.3
5.078821381001035,1.701978021978022,0.7736263736263735,1.4416849816849817
5.0866018749948125,0.8695238095238095,0.17567765567765567,0.838095238095238
5.095693583993125,0.8695238095238095,0.17567765567765567,0.838095238095238
5.1035682009969605,2.3200732600732596,0.4126007326007326,2.382124542124542
5.112012601995957,0.04996336996336996,0.1789010989010989,0.4005128205128205
5.118006231990876,2.1959706959706957,0.7736263736263735,2.079120879120879
5.123673371999757,2.1959706959706957,0.7736263736263735,2.079120879120879
5.133090856994386,2.1959706959706957,0.7736263736263735,2.079120879120879
5.141848968996783,1.2176556776556777,0.11765567765567764,1.0274725274725274
5.148660252001719,1.2176556776556777,0.11765567765567764,1.0274725274725274
5.153636529998039,1.2176556776556777,0.11765567765567764,1.0274725274725274
5.159805590999895,1.2176556776556777,0.11765567765567764,1.0274725274725274
5.164917392001371,1.1265934065934065,0.5117216117216117,0.5753846153846153
5.168806755988044,1.1265934065934065,0.5117216117216117,0.5753846153846153
5.172544619999826,1.1265934065934065,0.5117216117216117,0.5753846153846153
5.180920940998476,1.1265934065934065,0.5117216117216117,0.5753846153846153
5.187459818989737,1.1789743589743589,0.5971428571428571,0.7172161172161172
5.1929363230010495,3.232307692307692,1.3224175824175823,1.2700366300366301
5.193050735993893,3.232307692307692,1.3224175824175823,1.2700366300366301
5.198973400998511,3.232307692307692,1.3224175824175823,1.2700366300366301
5.203905946997111,3.232307692307692,1.3224175824175823,1.2700366300366301
5.208841309999116,3.232307692307692,1.3224175824175823,1.2700366300366301
5.21439962599834,3.232307692307692,1.3224175824175823,1.2700366300366301
5.215715929996804,3.232307692307692,1.3224175824175823,1.2700366300366301
5.224940493993927,3.232307692307692,1.3224175824175823,1.2700366300366301
5.233155813999474,3.232307692307692,1.3224175824175823,1.2700366300366301
5.240496104990598,3.232307692307692,1.3224175824175823,1.2700366300366301
5.24598135999986,3.232307692307692,1.3224175824175823,1.2700366300366301
5.255199799998081,3.232307692307692,1.3224175824175823,1.2700366300366301
5.263689864994376,3.232307692307692,1.3224175824175823,1.2700366300366301
5.270508199988399,3.232307692307692,1.3224175824175823,1.2700366300366301
5.277837806992466,1.2547252747252746,0.4722344322344322,0.904981684981685
5.28579658200033,1.2547252747252746,0.4722344322344322,0.904981684981685
5.292711492991657,1.2547252747252746,0.4722344322344322,0.904981684981685
5.296576847991673,2.6198534798534796,0.40776556776556777,2.759267399267399
5.3032380349905,2.6198534798534796,0.40776556776556777,2.759267399267399
5.308360732989968,2.6198534798534796,0.40776556776556777,2.759267399267399
5.312465417999192,2.6198534798534796,0.40776556776556777,2.759267399267399
5.313735225994606,2.6198534798534796,0.40776556776556777,2.759267399267399
5.3242217719962355,2.6198534798534796,0.40776556776556777,2.759267399267399
5.333719652990112,2.5827838827838825,1.0758241758241758,0.7107692307692308
5.346831948991166,2.5827838827838825,1.0758241758241758,0.7107692307692308
5.356434787987382,2.5827838827838825,1.0758241758241758,0.7107692307692308
5.366833013991709,2.5827838827838825,1.0758241758241758,0.7107692307692308
5.376013319997583,2.5827838827838825,1.0758241758241758,0.7107692307692308
5.38452151499223,2.5827838827838825,1.0758241758241758,0.7107692307692308
5.392747922000126,0.07897435897435898,0.26915750915750913,0.6704761904761904
5.399130919991876,0.07897435897435898,0.26915750915750913,0.6704761904761904
5.404498213989427,0.07897435897435898,0.26915750915750913,0.6704761904761904
5.404780712997308,0.07897435897435898,0.26915750915750913,0.6704761904761904
5.416836663993308,0.07897435897435898,0.26915750915750913,0.6704761904761904
5.424730041995645,0.07897435897435898,0.26915750915750913,0.6704761904761904
5.433234085998265,0.07897435897435898,0.26915750915750913,0.6704761904761904
5.441833519987995,1.6383150183150184,0.3457142857142857,1.652014652014652
5.449518319001072,1.6383150183150184,0.3457142857142857,1.652014652014652
5.455948945993441,1.6383150183150184,0.3457142857142857,1.652014652014652
5.464722988996073,1.3385347985347984,0.16278388278388278,1.3884981684981685
5.471547476990963,1.3385347985347984,0.16278388278388278,1.3884981684981685
5.479298072998063,1.1644688644688646,0.4512820512820513,0.8074725274725274
5.484537355994689,1.1644688644688646,0.4512820512820513,0.8074725274725274
5.486065090997727,1.1644688644688646,0.4512820512820513,0.8074725274725274
5.494775243991171,1.1644688644688646,0.4512820512820513,0.8074725274725274
5.502035537996562,1.1644688644688646,0.4512820512820513,0.8074725274725274
5.509683087992016,0.4254945054945055,0.3046153846153846,0.614065934065934
5.516005125988158,1.4175091575091574,0.3231501831501831,1.5383882783882783
5.521832113998244,1.4175091575091574,0.3231501831501831,1.5383882783882783
5.530568188987672,1.4175091575091574,0.3231501831501831,1.5383882783882783
5.537491600000067,1.4175091575091574,0.3231501831501831,1.5383882783882783
5.545553582996945,1.7253479853479854,0.2498168498168498,1.6471794871794871
5.551739420989179,1.7253479853479854,0.2498168498168498,1.6471794871794871
5.557008044997929,2.4425641025641025,0.3231501831501831,2.5279853479853482
5.558534641997539,2.4425641025641025,0.3231501831501831,2.5279853479853482
5.564657801995054,2.4425641025641025,0.3231501831501831,2.5279853479853482
5.570520403998671,2.4425641025641025,0.3231501831501831,2.5279853479853482
5.578928489994723,1.9493772893772894,0.40534798534798533,2.154065934065934
5.586342668990255,1.822051282051282,0.2796336996336996,1.8115750915750917
5.59234364698932,1.822051282051282,0.2796336996336996,1.8115750915750917
5.59840524700121,1.822051282051282,0.2796336996336996,1.8115750915750917
5.603939745997195,1.822051282051282,0.2796336996336996,1.8115750915750917
5.613415229992825,1.822051282051282,0.2796336996336996,1.8115750915750917
5.621991028994671,1.822051282051282,0.2796336996336996,1.8115750915750917
5.63111299299635,1.822051282051282,0.2796336996336996,1.8115750915750917
5.638685665995581,1.822051282051282,0.2796336996336996,1.8115750915750917
5.646013511999627,1.822051282051282,0.2796336996336996,1.8115750915750917
5.65277423299267,3.3,0.6583882783882784,3.3
5.658620330999838,1.5528937728937728,0.1571428571428571,1.3433699633699634
5.664963592993445,1.4545787545787545,0.14666666666666667,1.5126007326007325
5.669781452001189,1.8736263736263734,0.5141391941391941,2.075897435897436
5.677284656994743,1.8736263736263734,0.5141391941391941,2.075897435897436
5.682387281995034,1.8736263736263734,0.5141391941391941,2.075897435897436
5.685396601998946,0.0701098901098901,0.2175824175824176,0.6471062271062271
5.688304625000455,3.3,0.6503296703296703,3.3
5.691137679998064,3.3,0.6503296703296703,3.3
5.69471081798838,3.3,0.6503296703296703,3.3
5.702779158993508,3.3,0.6503296703296703,3.3
5.709184548992198,3.3,0.6503296703296703,3.3
5.715839946991764,3.3,0.6503296703296703,3.3
5.721641780997743,2.6875457875457873,0.4029304029304029,3.1130402930402927
5.728932326994254,2.6875457875457873,0.4029304029304029,3.1130402930402927
5.735113495000405,3.3,1.394139194139194,1.0298901098901099
5.740526212990517,3.3,1.394139194139194,1.0298901098901099
5.740875485993456,3.3,1.394139194139194,1.0298901098901099
5.748840679996647,3.3,1.394139194139194,1.0298901098901099
5.755562107995502,3.3,1.394139194139194,1.0298901098901099
5.762724369997159,3.3,1.394139194139194,1.0298901098901099
5.7681971339916345,3.3,1.394139194139194,1.0298901098901099
5.7685271599912085,3.3,1.394139194139194,1.0298901098901099
5.77797336599906,3.3,1.394139194139194,1.0298901098901099
5.785895117995096,3.3,1.394139194139194,1.0298901098901099
5.7942669879994355,3.3,1.394139194139194,1.0298901098901099
5.801835801001289,3.3,1.394139194139194,1.0298901098901099
5.809015761988121,0.17003663003663003,0.22644688644688646,0.386007326007326
5.815104574998259,0.17003663003663003,0.22644688644688646,0.386007326007326
5.819778245000634,2.8100366300366297,0.4126007326007326,3.3
5.827165538998088,2.8100366300366297,0.4126007326007326,3.3
5.83418019299279,2.9534798534798536,0.7413919413919414,3.2879120879120878
5.8394092559901765,2.9534798534798536,0.7413919413919414,3.2879120879120878
5.840778607991524,2.9534798534798536,0.7413919413919414,3.2879120879120878
5.849784033998731,2.9534798534798536,0.7413919413919414,3.2879120879120878
5.858607956994092,2.9534798534798536,0.7413919413919414,3.2879120879120878
5.867286704989965,1.7446886446886447,0.2369230769230769,1.6568498168498167
5.8751306740014115,0.06608058608058608,0.18615384615384614,0.6293772893772893
5.88292643299792,1.4537728937728938,0.1958241758241758,1.701978021978022
5.889394824989722,1.4537728937728938,0.1958241758241758,1.701978021978022
5.896282362999045,1.4537728937728938,0.1958241758241758,1.701978021978022
5.901613020992954,1.4537728937728938,0.1958241758241758,1.701978021978022
5.902006108997739,1.4537728937728938,0.1958241758241758,1.701978021978022
5.910190739989048,1.4537728937728938,0.1958241758241758,1.701978021978022
5.918213067998295,2.8777289377289375,0.4964102564102564,3.2460073260073257
5.926147328995285,2.8777289377289375,0.4964102564102564,3.2460073260073257
5.9324236050015315,2.8777289377289375,0.4964102564102564,3.2460073260073257
5.937372745000175,2.9518681318681317,1.1145054945054944,0.9541391941391941
5.9448328360012965,2.9518681318681317,1.1145054945054944,0.9541391941391941
5.950557307995041,2.9518681318681317,1.1145054945054944,0.9541391941391941
5.961264422992826,1.5303296703296703,0.6164835164835165,0.7284981684981684
5.970451725996099,1.7301831501831502,0.09831501831501832,1.8913553113553112
5.979555719997734,1.7301831501831502,0.09831501831501832,1.8913553113553112
5.987684861000162,0.007252747252747252,0.19985347985347984,0.6124542124542125
5.996320100995945,0.0,0.15311355311355312,0.5955311355311355
6.003055502995267,1.938095238095238,0.2772161172161172,1.9542124542124542
6.009421137001482,0.8912820512820512,0.32798534798534795,1.2716483516483517
6.016129857991473,0.8912820512820512,0.32798534798534795,1.2716483516483517
6.021599536994472,0.8912820512820512,0.32798534798534795,1.2716483516483517
6.021957938995911,0.8912820512820512,0.32798534798534795,1.2716483516483517
6.032353534988943,0.8912820512820512,0.32798534798534795,1.2716483516483517
6.0400742149940925,3.3,0.3465201465201465,3.3
6.049480969988508,0.788937728937729,0.3578021978021978,0.523003663003663
6.05752289800148,3.175897435897436,0.8058608058608058,3.059047619047619
6.0647858809970785,2.5666666666666664,0.4786813186813187,3.0316483516483514
6.070576782993157,3.1501098901098903,0.5665201465201465,3.3
6.080409118992975,3.1501098901098903,0.5665201465201465,3.3
6.088718262995826,0.8953113553113552,0.1112087912087912,0.734139194139194
6.097949125993182,0.8953113553113552,0.1112087912087912,0.734139194139194
6.1053712719876785,1.8478388278388278,0.28608058608058606,1.6866666666666665
6.110178180999355,1.8478388278388278,0.28608058608058606,1.6866666666666665
6.1187372759886784,1.236996336996337,0.42065934065934063,0.9646153846153847
6.12728831799177,1.236996336996337,0.42065934065934063,0.9646153846153847
6.13335962400015,1.236996336996337,0.42065934065934063,0.9646153846153847
6.139264704994275,1.3578754578754577,0.12893772893772892,1.270842490842491
6.145800444995984,1.3578754578754577,0.12893772893772892,1.270842490842491
6.149673579988303,1.3578754578754577,0.12893772893772892,1.270842490842491
6.157238412997685,1.3578754578754577,0.12893772893772892,1.270842490842491
6.163374307987397,1.5762637362637362,0.1958241758241758,1.4513553113553113
6.167935965000652,1.5762637362637362,0.1958241758241758,1.4513553113553113
6.175880573995528,2.8213186813186812,1.1064468864468864,0.7913553113553113
6.182845333998557,2.8213186813186812,1.1064468864468864,0.7913553113553113
6.188631618992076,0.518974358974359,0.2957509157509157,0.4786813186813187
6.197315886995057,2.984102564102564,0.5729670329670329,3.3
6.205306860996643,3.3,1.6109157509157508,1.083076923076923
6.2136518569896,0.19743589743589743,0.23934065934065935,0.4802930402930403
6.221022134996019,0.19743589743589743,0.23934065934065935,0.4802930402930403
6.2280202849942725,0.19743589743589743,0.23934065934065935,0.4802930402930403
6.233590976000414,1.436043956043956,0.6608058608058608,0.8163369963369963
6.243788166000741,1.436043956043956,0.6608058608058608,0.8163369963369963
6.25215199199738,1.4432967032967032,0.16117216117216115,1.502930402930403
6.259531887000776,2.1395604395604395,0.8824175824175824,2.017875457875458
6.265072024994879,2.1395604395604395,0.8824175824175824,2.017875457875458
6.265353090988356,2.1395604395604395,0.8824175824175824,2.017875457875458
6.271448772997246,2.1395604395604395,0.8824175824175824,2.017875457875458
6.275946497000405,2.1395604395604395,0.8824175824175824,2.017875457875458
6.276170801997068,2.1395604395604395,0.8824175824175824,2.017875457875458
6.282691430998966,2.1395604395604395,0.8824175824175824,2.017875457875458
6.286901847997797,2.1395604395604395,0.8824175824175824,2.017875457875458
6.289291301000048,2.1395604395604395,0.8824175824175824,2.017875457875458
6.2971786029957,2.1395604395604395,0.8824175824175824,2.017875457875458
6.304365790987504,2.1395604395604395,0.8824175824175824,2.017875457875458
6.310677859000862,0.3916483516483516,0.15472527472527473,0.8477655677655677
6.316134175998741,0.3916483516483516,0.15472527472527473,0.8477655677655677
6.317250613996293,0.3916483516483516,0.15472527472527473,0.8477655677655677
6.317490285000531,0.3916483516483516,0.15472527472527473,0.8477655677655677
6.324442728000577,0.3916483516483516,0.15472527472527473,0.8477655677655677
6.331623598991428,0.014505494505494505,0.1958241758241758,0.5778021978021978
6.338069580990123,0.014505494505494505,0.1958241758241758,0.5778021978021978
6.343587183000636,0.014505494505494505,0.1958241758241758,0.5778021978021978
6.343794768996304,0.0,0.14908424908424908,0.5367032967032966
6.350896958989324,3.3,0.6648351648351648,3.3
6.356038678990444,3.3,0.6648351648351648,3.3
6.359777965990361,3.3,0.6648351648351648,3.3
6.365701484988676,3.3,0.6648351648351648,3.3
6.369954230001895,3.3,0.6648351648351648,3.3
6.37239786698774,2.1395604395604395,0.8413186813186813,1.9985347985347983
6.380516128992895,2.1395604395604395,0.8413186813186813,1.9985347985347983
6.387198781987536,1.4118681318681316,0.12813186813186814,1.4336263736263737
6.392689416999929,3.04051282051282,0.5737728937728938,3.3
6.39294531098858,3.04051282051282,0.5737728937728938,3.3
6.400826719996985,3.04051282051282,0.5737728937728938,3.3
6.405397344991798,3.04051282051282,0.5737728937728938,3.3
6.405800661988906,3.04051282051282,0.5737728937728938,3.3
6.412971131998347,3.04051282051282,0.5737728937728938,3.3
6.418017947988119,3.04051282051282,0.5737728937728938,3.3
6.42213428899413,3.04051282051282,0.5737728937728938,3.3
6.4245736109878635,3.04051282051282,0.5737728937728938,3.3
6.4247200949903345,3.04051282051282,0.5737728937728938,3.3
6.432331439995323,1.9558241758241757,0.4819047619047619,2.2878388278388275
6.438722599996254,3.3,1.7052014652014653,1.328058608058608
6.443297197998618,1.510989010989011,0.1418315018315018,1.9187545787545788
6.44343588699121,0.03304029304029304,0.1539194139194139,0.49882783882783877
6.448714332000236,0.03304029304029304,0.1539194139194139,0.49882783882783877
6.451677785997163,0.03304029304029304,0.1539194139194139,0.49882783882783877
6.454000314988662,0.03304029304029304,0.1539194139194139,0.49882783882783877
6.4542150189954555,0.03304029304029304,0.1539194139194139,0.49882783882783877
6.462008381000487,0.03304029304029304,0.1539194139194139,0.49882783882783877
6.467474785997183,0.5254212454212454,0.42630036630036633,0.5326739926739926
6.469603626988828,0.5254212454212454,0.42630036630036633,0.5326739926739926
6.469797653990099,0.5254212454212454,0.42630036630036633,0.5326739926739926
6.476538814997184,0.5254212454212454,0.42630036630036633,0.5326739926739926
6.48042423199513,1.0137728937728938,0.2095238095238095,1.0387545787545787
6.484989492993918,1.0137728937728938,0.2095238095238095,1.0387545787545787
6.485318545994232,2.958315018315018,0.6229304029304029,3.2169963369963366
6.49069954699371,2.958315018315018,0.6229304029304029,3.2169963369963366
6.493178983990219,2.958315018315018,0.6229304029304029,3.2169963369963366
6.501336691988399,2.958315018315018,0.6229304029304029,3.2169963369963366
6.505463921988849,2.958315018315018,0.6229304029304029,3.2169963369963366
6.510298825989594,2.958315018315018,0.6229304029304029,3.2169963369963366
6.514417723999941,2.958315018315018,0.6229304029304029,3.2169963369963366
6.516763139996328,2.958315018315018,0.6229304029304029,3.2169963369963366
6.516915660991799,2.958315018315018,0.6229304029304029,3.2169963369963366
6.523191706990474,2.958315018315018,0.6229304029304029,3.2169963369963366
6.52824374899501,0.02336996336996337,0.18776556776556774,0.46739926739926735
6.5316479329922,0.9202930402930403,0.27238095238095233,1.3063003663003663
6.531866725999862,0.9202930402930403,0.27238095238095233,1.3063003663003663
6.53867809199437,0.9202930402930403,0.27238095238095233,1.3063003663003663
6.544361719992594,0.9202930402930403,0.27238095238095233,1.3063003663003663
6.544577295993804,0.01934065934065934,0.1402197802197802,0.4859340659340659
6.552891753992299,0.01934065934065934,0.1402197802197802,0.4859340659340659
6.559720424993429,2.4747985347985346,0.4738461538461538,2.8495238095238093
6.563332209989312,1.2515018315018314,0.05882783882783882,0.7736263736263735
6.571226545987884,0.0,0.17406593406593407,0.6205128205128204
6.576565444993321,0.0,0.17406593406593407,0.6205128205128204
6.578634892997798,0.0,0.17406593406593407,0.6205128205128204
6.57895617900067,0.0,0.17406593406593407,0.6205128205128204
6.585430275998078,0.0,0.17406593406593407,0.6205128205128204
6.588501563994214,0.0,0.17406593406593407,0.6205128205128204
6.59080967499176,0.0,0.17406593406593407,0.6205128205128204
6.591018614999484,0.0,0.17406593406593407,0.6205128205128204
6.596343450990389,0.0,0.17406593406593407,0.6205128205128204
6.598648487997707,0.0,0.17406593406593407,0.6205128205128204
6.598900751996553,3.3,0.938021978021978,1.4183150183150184
6.606932456998038,3.3,0.938021978021978,1.4183150183150184
6.612320806001662,3.3,0.938021978021978,1.4183150183150184
6.6134696819935925,1.983223443223443,0.0846153846153846,2.5465201465201464
6.613643416989362,1.983223443223443,0.0846153846153846,2.5465201465201464
6.620650099997874,1.983223443223443,0.0846153846153846,2.5465201465201464
6.624617681998643,1.983223443223443,0.0846153846153846,2.5465201465201464
6.629928901995299,1.983223443223443,0.0846153846153846,2.5465201465201464
6.630342899996322,1.983223443223443,0.0846153846153846,2.5465201465201464
6.63480790599715,1.983223443223443,0.0846153846153846,2.5465201465201464
6.635180324999965,1.983223443223443,0.0846153846153846,2.5465201465201464
6.64246657199692,1.983223443223443,0.0846153846153846,2.5465201465201464
6.6473539659928065,1.983223443223443,0.0846153846153846,2.5465201465201464
6.652455078990897,2.7197802197802194,0.6253479853479853,0.8542124542124543
6.655457403001492,2.7197802197802194,0.6253479853479853,0.8542124542124543
6.658464779990027,2.7197802197802194,0.6253479853479853,0.8542124542124543
6.660433936995105,2.7197802197802194,0.6253479853479853,0.8542124542124543
6.661633427997003,2.7197802197802194,0.6253479853479853,0.8542124542124543
6.661866980997729,2.7197802197802194,0.6253479853479853,0.8542124542124543
6.668312754001818,2.7197802197802194,0.6253479853479853,0.8542124542124543
6.671452665992547,2.7197802197802194,0.6253479853479853,0.8542124542124543
6.673800904987729,2.7197802197802194,0.6253479853479853,0.8542124542124543
6.673986917987349,2.7197802197802194,0.6253479853479853,0.8542124542124543
6.679314029999659,1.4755311355311356,0.0547985347985348,1.8083516483516484
6.682350128001417,0.7961904761904761,0.40695970695970696,0.664029304029304
6.684695663992898,0.07897435897435898,0.1087912087912088,0.5866666666666667
6.684895501995925,0.07897435897435898,0.1087912087912088,0.5866666666666667
6.693814273996395,0.07897435897435898,0.1087912087912088,0.5866666666666667
6.701281768997433,0.07897435897435898,0.1087912087912088,0.5866666666666667
6.70567895998829,0.07897435897435898,0.1087912087912088,0.5866666666666667
6.70591805598815,0.07897435897435898,0.1087912087912088,0.5866666666666667
6.714435736997984,0.07897435897435898,0.1087912087912088,0.5866666666666667
6.720745462997002,1.8607326007326006,0.44402930402930396,2.323296703296703
6.72445513898856,1.8607326007326006,0.44402930402930396,2.323296703296703
6.7297835539939115,1.8607326007326006,0.44402930402930396,2.323296703296703
6.732144807989243,1.8607326007326006,0.44402930402930396,2.323296703296703
6.732439628991415,1.8607326007326006,0.44402930402930396,2.323296703296703
6.737030018994119,1.8607326007326006,0.44402930402930396,2.323296703296703
6.737892985998769,1.8607326007326006,0.44402930402930396,2.323296703296703
6.738802526000654,1.8607326007326006,0.44402930402930396,2.323296703296703
6.740381928000716,1.8607326007326006,0.44402930402930396,2.323296703296703
6.744930317989201,1.8607326007326006,0.44402930402930396,2.323296703296703
6.745219542994164,2.4167765567765565,0.5391208791208791,2.9615384615384617
6.749857088987483,2.4167765567765565,0.5391208791208791,2.9615384615384617
6.7501621739938855,2.4167765567765565,0.5391208791208791,2.9615384615384617
6.757188805990154,2.4167765567765565,0.5391208791208791,2.9615384615384617
6.761465335992398,2.4167765567765565,0.5391208791208791,2.9615384615384617
6.762664522990235,2.4167765567765565,0.5391208791208791,2.9615384615384617
6.762805282996851,1.05003663003663,0.19904761904761903,1.876043956043956
6.769550779994461,1.05003663003663,0.19904761904761903,1.876043956043956
6.77512565998768,1.8091575091575092,0.2602930402930403,2.8430769230769233
6.775382501000422,1.9332600732600733,0.07978021978021978,2.9695970695970697
6.781551017993479,1.9332600732600733,0.07978021978021978,2.9695970695970697
6.785260727992863,2.406300366300366,0.28124542124542123,2.3378021978021977
6.785422716988251,2.406300366300366,0.28124542124542123,2.3378021978021977
6.789859381999122,2.406300366300366,0.28124542124542123,2.3378021978021977
6.790715202994761,2.406300366300366,0.28124542124542123,2.3378021978021977
6.792299025997636,2.406300366300366,0.28124542124542123,2.3378021978021977
6.796753217000514,2.406300366300366,0.28124542124542123,2.3378021978021977
6.797574304990121,2.406300366300366,0.28124542124542123,2.3378021978021977
6.799169763995451,2.406300366300366,0.28124542124542123,2.3378021978021977
6.803540473993053,2.406300366300366,0.28124542124542123,2.3378021978021977
6.805810174992075,2.406300366300366,0.28124542124542123,2.3378021978021977
6.806039100993075,2.406300366300366,0.28124542124542123,2.3378021978021977
6.811239400994964,1.3498168498168497,0.2562637362637363,0.6696703296703297
6.815924559996347,1.3498168498168497,0.2562637362637363,0.6696703296703297
6.816105484991567,1.3498168498168497,0.2562637362637363,0.6696703296703297
6.821310849991278,1.3498168498168497,0.2562637362637363,0.6696703296703297
6.824337672995171,1.3498168498168497,0.2562637362637363,0.6696703296703297
6.8267344839987345,1.3498168498168497,0.2562637362637363,0.6696703296703297
6.826919810991967,1.3498168498168497,0.2562637362637363,0.6696703296703297
6.832371257987688,1.3498168498168497,0.2562637362637363,0.6696703296703297
6.833910016997834,2.4546520146520145,0.3529670329670329,2.2225641025641028
6.837611013994319,2.4546520146520145,0.3529670329670329,2.2225641025641028
6.842136899998877,2.4546520146520145,0.3529670329670329,2.2225641025641028
6.843029711992131,2.4546520146520145,0.3529670329670329,2.2225641025641028
6.844623844997841,2.4546520146520145,0.3529670329670329,2.2225641025641028
6.848434706989792,2.4546520146520145,0.3529670329670329,2.2225641025641028
6.853805376988021,2.4546520146520145,0.3529670329670329,2.2225641025641028
6.856134140994982,2.4546520146520145,0.3529670329670329,2.2225641025641028
6.856429072999163,0.6342124542124542,0.10315018315018315,0.7051282051282051
6.860865713999374,0.6342124542124542,0.10315018315018315,0.7051282051282051
6.862439920994802,0.6342124542124542,0.10315018315018315,0.7051282051282051
6.866858921988751,0.6342124542124542,0.10315018315018315,0.7051282051282051
6.86840735199803,0.6342124542124542,0.10315018315018315,0.7051282051282051
6.872901706999983,0.6342124542124542,0.10315018315018315,0.7051282051282051
6.874430530995596,0.6342124542124542,0.10315018315018315,0.7051282051282051
6.8788557079969905,0.6342124542124542,0.10315018315018315,0.7051282051282051
6.8804801239894005,0.6342124542124542,0.10315018315018315,0.7051282051282051
6.8843409799883375,0.6342124542124542,0.10315018315018315,0.7051282051282051
6.888031813999987,0.6342124542124542,0.10315018315018315,0.7051282051282051
6.888140766997822,0.6342124542124542,0.10315018315018315,0.7051282051282051
6.893306881000171,0.6342124542124542,0.10315018315018315,0.7051282051282051
6.896348636000766,0.6342124542124542,0.10315018315018315,0.7051282051282051
6.899314748996403,0.6342124542124542,0.10315018315018315,0.7051282051282051
6.9024574299983215,0.6342124542124542,0.10315018315018315,0.7051282051282051
6.904827647987986,0.6342124542124542,0.10315018315018315,0.7051282051282051
6.904972422998981,0.6342124542124542,0.10315018315018315,0.7051282051282051
6.9103651469922625,0.6342124542124542,0.10315018315018315,0.7051282051282051
6.913095099997008,2.5521611721611723,0.518974358974359,2.298315018315018
6.917258132001734,2.5521611721611723,0.518974358974359,2.298315018315018
6.919591658996069,2.5521611721611723,0.518974358974359,2.298315018315018
6.919804307995946,2.5521611721611723,0.518974358974359,2.298315018315018
6.925107994989958,2.5521611721611723,0.518974358974359,2.298315018315018
6.9280733189953025,2.5521611721611723,0.518974358974359,2.298315018315018
6.93111944499833,3.3,0.9807326007326007,0.8187545787545787
6.933513359996141,3.3,0.9807326007326007,0.8187545787545787
6.933685974989203,3.3,0.9807326007326007,0.8187545787545787
6.938273028994445,3.3,0.9807326007326007,0.8187545787545787
6.939127834993997,3.3,0.9807326007326007,0.8187545787545787
6.940672507989802,3.3,0.9807326007326007,0.8187545787545787
6.944398565989104,3.3,0.9807326007326007,0.8187545787545787
6.949724637990585,3.3,0.9807326007326007,0.8187545787545787
6.951984808998532,3.3,0.9807326007326007,0.8187545787545787
6.95232182899781,3.3,0.9807326007326007,0.8187545787545787
6.9569028389960295,3.3,0.9807326007326007,0.8187545787545787
6.957215556991287,3.3,0.9807326007326007,0.8187545787545787
6.961694145997171,3.3,0.9807326007326007,0.8187545787545787
6.9625468509912025,3.3,0.9807326007326007,0.8187545787545787
6.964115690992912,3.3,0.9807326007326007,0.8187545787545787
6.967957967994153,3.3,0.9807326007326007,0.8187545787545787
6.971758576997672,2.1991941391941388,0.7236630036630036,0.938021978021978
6.977026846987428,2.1991941391941388,0.7236630036630036,0.938021978021978
6.979385241997079,1.1999267399267397,0.1249084249084249,0.5802197802197803
6.979697207993013,1.1999267399267397,0.1249084249084249,0.5802197802197803
6.98483328698785,1.1999267399267397,0.1249084249084249,0.5802197802197803
6.989309371987474,0.34007326007326005,0.195018315018315,0.8574358974358974
6.99014430999523,0.34007326007326005,0.195018315018315,0.8574358974358974
6.991728442997555,0.34007326007326005,0.195018315018315,0.8574358974358974
6.996179107998614,0.34007326007326005,0.195018315018315,0.8574358974358974
6.997733436000999,0.34007326007326005,0.195018315018315,0.8574358974358974
7.001471253999625,0.34007326007326005,0.195018315018315,0.8574358974358974
7.001597836992005,0.6712820512820512,0.26754578754578756,0.2369230769230769
7.006844856994576,0.6712820512820512,0.26754578754578756,0.2369230769230769
7.009815790996072,0.6712820512820512,0.26754578754578756,0.2369230769230769
7.01283980399603,0.6712820512820512,0.26754578754578756,0.2369230769230769
7.014482282989775,0.6712820512820512,0.26754578754578756,0.2369230769230769
7.018413136989693,0.6712820512820512,0.26754578754578756,0.2369230769230769
7.023830120000639,0.24498168498168496,0.2216117216117216,0.6583882783882784
7.026482380999369,2.1476190476190475,0.4383882783882784,2.9945787545787543
7.0310416579886805,0.8993406593406592,0.32798534798534795,1.4175091575091574
7.032660995988408,1.9074725274725273,0.630989010989011,2.2725274725274724
7.0357190049981,0.614065934065934,0.06285714285714286,0.70996336996337
7.038712971989298,0.614065934065934,0.06285714285714286,0.70996336996337
7.041011800989509,0.614065934065934,0.06285714285714286,0.70996336996337
7.041890822001733,0.614065934065934,0.06285714285714286,0.70996336996337
7.042772765998961,0.614065934065934,0.06285714285714286,0.70996336996337
7.044323493988486,0.614065934065934,0.06285714285714286,0.70996336996337
7.049501237997902,0.614065934065934,0.06285714285714286,0.70996336996337
7.052507607993903,0.614065934065934,0.06285714285714286,0.70996336996337
7.054850910993991,0.8872527472527472,0.12893772893772892,0.9686446886446887
7.055014795987518,0.8872527472527472,0.12893772893772892,0.9686446886446887
7.060331501998007,0.8872527472527472,0.12893772893772892,0.9686446886446887
7.062635263995617,0.8872527472527472,0.12893772893772892,0.9686446886446887
7.062916154987761,0.8872527472527472,0.12893772893772892,0.9686446886446887
7.068058113989537,0.8872527472527472,0.12893772893772892,0.9686446886446887
7.071738567989087,0.8872527472527472,0.12893772893772892,0.9686446886446887
7.077060071998858,0.8872527472527472,0.12893772893772892,0.9686446886446887
7.080028792988742,3.3,1.373992673992674,0.7276923076923076
7.082376145990565,3.3,1.373992673992674,0.7276923076923076
7.082643743997323,3.3,1.373992673992674,0.7276923076923076
7.08713148899551,3.3,1.373992673992674,0.7276923076923076
7.0880225939909,3.3,1.373992673992674,0.7276923076923076
7.089715220994549,3.3,1.373992673992674,0.7276923076923076
7.0927388629934285,3.3,1.373992673992674,0.7276923076923076
7.095767218997935,0.8630769230769231,0.10556776556776555,0.49399267399267394
7.098083796998253,1.0564835164835162,0.25868131868131866,1.1684981684981686
7.098348162995535,1.0564835164835162,0.25868131868131866,1.1684981684981686
7.103536580994842,1.0564835164835162,0.25868131868131866,1.1684981684981686
7.106591155999922,1.0564835164835162,0.25868131868131866,1.1684981684981686
7.108831200996065,1.0564835164835162,0.25868131868131866,1.1684981684981686
7.109060695991502,1.7906227106227104,0.5028571428571429,1.8027106227106224
7.11437784798909,1.7906227106227104,0.5028571428571429,1.8027106227106224
7.116761561992462,1.7906227106227104,0.5028571428571429,1.8027106227106224
7.116879698995035,1.7906227106227104,0.5028571428571429,1.8027106227106224
7.121981189993676,1.7906227106227104,0.5028571428571429,1.8027106227106224
7.125743808996049,1.5287179487179487,0.381978021978022,1.9163369963369963
7.130951282000751,2.0605860805860803,0.5947252747252747,3.055824175824176
7.134674433997134,2.0605860805860803,0.5947252747252747,3.055824175824176
7.139981875996455,0.7349450549450549,0.3924542124542124,1.4715018315018316
7.14317649298755,0.7349450549450549,0.3924542124542124,1.4715018315018316
7.144706731996848,0.7349450549450549,0.3924542124542124,1.4715018315018316
7.149196842990932,2.541684981684982,0.6148717948717949,3.078388278388278
7.150048155992408,2.541684981684982,0.6148717948717949,3.078388278388278
7.151607004998368,2.541684981684982,0.6148717948717949,3.078388278388278
7.1561187990009785,2.541684981684982,0.6148717948717949,3.078388278388278
7.156963507994078,2.541684981684982,0.6148717948717949,3.078388278388278
7.158505429993966,2.541684981684982,0.6148717948717949,3.078388278388278
7.162929523998173,2.541684981684982,0.6148717948717949,3.078388278388278
7.163773886990384,2.541684981684982,0.6148717948717949,3.078388278388278
7.165330161995371,2.541684981684982,0.6148717948717949,3.078388278388278
7.169848148987512,2.541684981684982,0.6148717948717949,3.078388278388278
7.170149956989917,2.541684981684982,0.6148717948717949,3.078388278388278
7.1753325129975565,2.541684981684982,0.6148717948717949,3.078388278388278
7.178333656993345,1.0234432234432234,0.14989010989010987,1.6786080586080585
7.180713012989145,1.0234432234432234,0.14989010989010987,1.6786080586080585
7.180880008992972,1.0234432234432234,0.14989010989010987,1.6786080586080585
7.186086154993973,1.0234432234432234,0.14989010989010987,1.6786080586080585
7.189815820995136,1.0234432234432234,0.14989010989010987,1.6786080586080585
7.1950612910004565,1.0234432234432234,0.14989010989010987,1.6786080586080585
7.198836007999489,1.0234432234432234,0.14989010989010987,1.6786080586080585
7.203323285997612,1.0234432234432234,0.14989010989010987,1.6786080586080585
7.203655853998498,2.518315018315018,0.5939194139194138,2.785054945054945
7.208884809995652,2.518315018315018,0.5939194139194138,2.785054945054945
7.211185814987402,1.7608058608058608,0.3747252747252747,1.7954578754578752
7.212068691995228,1.7608058608058608,0.3747252747252747,1.7954578754578752
7.212998975999653,1.7608058608058608,0.3747252747252747,1.7954578754578752
7.214574270998128,1.7608058608058608,0.3747252747252747,1.7954578754578752
7.218545572992298,1.7608058608058608,0.3747252747252747,1.7954578754578752
7.222288380988175,1.7608058608058608,0.3747252747252747,1.7954578754578752
7.227502028996241,1.7608058608058608,0.3747252747252747,1.7954578754578752
7.230508378997911,1.7608058608058608,0.3747252747252747,1.7954578754578752
7.23289214799297,1.7608058608058608,0.3747252747252747,1.7954578754578752
7.233040767998318,1.7608058608058608,0.3747252747252747,1.7954578754578752
7.238792819989612,1.7608058608058608,0.3747252747252747,1.7954578754578752
7.238945782999508,1.7608058608058608,0.3747252747252747,1.7954578754578752
7.243764432001626,1.7608058608058608,0.3747252747252747,1.7954578754578752
7.24922218399297,1.7608058608058608,0.3747252747252747,1.7954578754578752
7.25104242299858,1.8172161172161172,0.5544322344322344,1.5770695970695972
7.254424934988492,1.8172161172161172,0.5544322344322344,1.5770695970695972
7.254669262998505,1.8172161172161172,0.5544322344322344,1.5770695970695972
7.259721330992761,1.8172161172161172,0.5544322344322344,1.5770695970695972
7.264070193996304,1.8172161172161172,0.5544322344322344,1.5770695970695972
7.265033725998364,1.8172161172161172,0.5544322344322344,1.5770695970695972
7.2668530639930395,1.8172161172161172,0.5544322344322344,1.5770695970695972
7.269322794993059,1.8172161172161172,0.5544322344322344,1.5770695970695972
7.274717387990677,1.851062271062271,0.21032967032967032,2.024322344322344
7.277045269991504,1.851062271062271,0.21032967032967032,2.024322344322344
7.277273264990072,1.851062271062271,0.21032967032967032,2.024322344322344
7.2824680089979665,1.851062271062271,0.21032967032967032,2.024322344322344
7.285416967992205,1.851062271062271,0.21032967032967032,2.024322344322344
7.2878139069944154,1.851062271062271,0.21032967032967032,2.024322344322344
