time,emg1,emg2,emg3
0.003150342992739752,3.3,1.4876190476190476,0.5407326007326007
0.014542322998750024,1.6399267399267399,0.29413919413919415,1.9598534798534797
0.021981939993565902,2.3716483516483513,1.1273992673992674,0.7752380952380952
0.029349984994041733,0.7736263736263735,0.20065934065934066,1.2265201465201465
0.03396580800472293,0.7736263736263735,0.20065934065934066,1.2265201465201465
0.034111197004676796,0.7736263736263735,0.20065934065934066,1.2265201465201465
0.04036618399550207,0.7736263736263735,0.20065934065934066,1.2265201465201465
0.045440895002684556,2.0621978021978022,0.5681318681318681,2.1468131868131866
0.048389899005996995,2.0621978021978022,0.5681318681318681,2.1468131868131866
0.05038105699350126,2.0621978021978022,0.5681318681318681,2.1468131868131866
0.052293539003585465,2.0621978021978022,0.5681318681318681,2.1468131868131866
0.055162617994938046,2.0621978021978022,0.5681318681318681,2.1468131868131866
0.057979749006335624,0.6986813186813187,0.4222710622710622,1.0685714285714285
0.06166903300618287,0.6986813186813187,0.4222710622710622,1.0685714285714285
0.06721917500544805,0.6986813186813187,0.4222710622710622,1.0685714285714285
0.06823835999239236,0.6986813186813187,0.4222710622710622,1.0685714285714285
0.0685455689963419,0.6986813186813187,0.4222710622710622,1.0685714285714285
0.0748463490017457,0.6986813186813187,0.4222710622710622,1.0685714285714285
0.07852666500548366,0.6986813186813187,0.4222710622710622,1.0685714285714285
0.0839760779927019,2.1717948717948716,0.6132600732600733,2.2515750915750914
0.08578530099475756,2.1717948717948716,0.6132600732600733,2.2515750915750914
0.08843300999433268,2.1717948717948716,0.6132600732600733,2.2515750915750914
0.09351821799646132,2.1717948717948716,0.6132600732600733,2.2515750915750914
0.09762187200249173,2.1717948717948716,0.6132600732600733,2.2515750915750914
0.1008144630031893,2.1717948717948716,0.6132600732600733,2.2515750915750914
0.10246515000471845,2.1717948717948716,0.6132600732600733,2.2515750915750914
0.10570767699391581,2.1717948717948716,0.6132600732600733,2.2515750915750914
0.10665524800424464,0.9122344322344322,0.5254212454212454,0.46336996336996333
0.10831195999344345,0.9122344322344322,0.5254212454212454,0.46336996336996333
0.11147098400397226,0.9122344322344322,0.5254212454212454,0.46336996336996333
0.11381804499251302,0.9122344322344322,0.5254212454212454,0.46336996336996333
0.11401820200262591,2.003369963369963,0.5334798534798535,2.6690109890109888
0.11876570800086483,2.003369963369963,0.5334798534798535,2.6690109890109888
0.11900579799839761,2.003369963369963,0.5334798534798535,2.6690109890109888
0.12403547200665344,2.003369963369963,0.5334798534798535,2.6690109890109888
0.13342648799880408,1.0476190476190474,0.3078388278388278,1.224102564102564
0.13829697700566612,2.1750183150183147,0.7244688644688644,2.3603663003663002
0.1436882220004918,2.3652014652014652,0.8799999999999999,1.9308424908424908
0.145295502996305,2.3652014652014652,0.8799999999999999,1.9308424908424908
0.1491185199993197,2.3652014652014652,0.8799999999999999,1.9308424908424908
0.15374229100416414,0.0821978021978022,0.26109890109890105,0.5439560439560439
0.15396969599532895,1.4876190476190476,0.473040293040293,2.0057875457875456
0.15904849099752028,1.4876190476190476,0.473040293040293,2.0057875457875456
0.1629305359965656,2.0767032967032963,0.8106959706959707,1.5891575091575092
0.16679263299738523,2.0767032967032963,0.8106959706959707,1.5891575091575092
0.1713318809925113,2.0767032967032963,0.8106959706959707,1.5891575091575092
0.17154185799881816,0.0,0.22967032967032966,0.5157509157509157
0.1772261790029006,0.0,0.22967032967032966,0.5157509157509157
0.1773987060005311,0.0,0.22967032967032966,0.5157509157509157
0.18469564999395516,0.0,0.22967032967032966,0.5157509157509157
0.18957023200346157,2.394212454212454,0.9895970695970695,0.5689377289377289
0.19960466500197072,2.394212454212454,0.9895970695970695,0.5689377289377289
0.20844534199568443,2.394212454212454,0.9895970695970695,0.5689377289377289
0.21564815699821338,2.394212454212454,0.9895970695970695,0.5689377289377289
0.22070680900651496,3.3,1.5617582417582416,1.0613186813186812
0.22542790000443347,3.3,1.5617582417582416,1.0613186813186812
0.23385825799778104,3.3,1.5617582417582416,1.0613186813186812
0.23863794800126925,3.3,1.5617582417582416,1.0613186813186812
0.2387881920003565,3.3,1.5617582417582416,1.0613186813186812
0.2450979730056133,3.3,1.5617582417582416,1.0613186813186812
0.24888344400096685,0.5657142857142857,0.1821245421245421,0.47142857142857136
0.25318123000033665,0.5657142857142857,0.1821245421245421,0.47142857142857136
0.2548739689955255,0.5657142857142857,0.1821245421245421,0.47142857142857136
0.25924457899236586,0.7687912087912088,0.4625641025641025,1.062930402930403
0.2596411150007043,0.7687912087912088,0.4625641025641025,1.062930402930403
0.2668759480002336,0.7687912087912088,0.4625641025641025,1.062930402930403
0.2715751299983822,0.4416117216117216,0.18454212454212454,0.7381684981684982
0.2717411199992057,0.4416117216117216,0.18454212454212454,0.7381684981684982
0.27799459800007753,0.4416117216117216,0.18454212454212454,0.7381684981684982
0.28418100099952426,0.4416117216117216,0.18454212454212454,0.7381684981684982
0.2892845439928351,0.4416117216117216,0.18454212454212454,0.7381684981684982
0.29095350799616426,0.5407326007326007,0.356996336996337,0.47062271062271055
0.2956995819986332,0.5407326007326007,0.356996336996337,0.47062271062271055
0.30191726799239404,0.5407326007326007,0.356996336996337,0.47062271062271055
0.3058247989974916,0.5407326007326007,0.356996336996337,0.47062271062271055
0.3126211149938172,0.5407326007326007,0.356996336996337,0.47062271062271055
0.31545039199409075,0.5407326007326007,0.356996336996337,0.47062271062271055
0.3189179610053543,3.3,1.843003663003663,1.0677655677655677
0.3191821880027419,3.3,1.843003663003663,1.0677655677655677
0.32398291399294976,3.3,1.843003663003663,1.0677655677655677
0.3240998910041526,1.0919413919413918,0.2651282051282051,1.162051282051282
0.3342498319980223,1.0919413919413918,0.2651282051282051,1.162051282051282
0.341917846002616,1.0919413919413918,0.2651282051282051,1.162051282051282
0.34940046700648963,3.3,1.8035164835164832,1.025054945054945
0.3535872049978934,3.3,1.8035164835164832,1.025054945054945
0.3562892509944504,3.3,1.8035164835164832,1.025054945054945
0.3641524929989828,3.3,1.8035164835164832,1.025054945054945
0.36886480600514915,3.3,1.8035164835164832,1.025054945054945
0.36902546900091693,3.3,1.8035164835164832,1.025054945054945
0.374038138994365,3.3,1.8035164835164832,1.025054945054945
0.3810036679933546,3.3,1.8035164835164832,1.025054945054945
0.3853587640041951,2.186300366300366,0.7035164835164834,2.1403663003663005
0.3863425309973536,2.186300366300366,0.7035164835164834,2.1403663003663005
0.38727595399541315,2.186300366300366,0.7035164835164834,2.1403663003663005
0.38891550499829464,2.186300366300366,0.7035164835164834,2.1403663003663005
0.3934079430036945,2.186300366300366,0.7035164835164834,2.1403663003663005
0.3937202749948483,2.186300366300366,0.7035164835164834,2.1403663003663005
0.3997580349969212,2.186300366300366,0.7035164835164834,2.1403663003663005
0.40334506999352016,3.3,1.61010989010989,1.0274725274725274
0.4100089949934045,3.3,1.61010989010989,1.0274725274725274
0.41465683199930936,3.3,1.61010989010989,1.0274725274725274
0.42071179699269123,1.8518681318681318,0.5616849816849817,2.24996336996337
0.42550152400508523,1.8518681318681318,0.5616849816849817,2.24996336996337
0.4332731290051015,1.311135531135531,0.6809523809523809,0.3843956043956044
0.4392471080063842,0.9646153846153847,0.4762637362637362,1.2232967032967033
0.44565652099845465,2.096043956043956,0.6471062271062271,2.2056410256410253
0.44969281200610567,2.096043956043956,0.6471062271062271,2.2056410256410253
0.45223197700397577,0.14586080586080585,0.21597069597069596,0.40615384615384614
0.45709281899326015,0.14586080586080585,0.21597069597069596,0.40615384615384614
0.45720992499263957,2.3764835164835163,1.2716483516483517,0.9428571428571427
0.464216052001575,2.3764835164835163,1.2716483516483517,0.9428571428571427
0.46896184199431445,2.3764835164835163,1.2716483516483517,0.9428571428571427
0.4745647219970124,0.0,0.17648351648351646,0.5173626373626373
0.4749198339995928,0.0,0.17648351648351646,0.5173626373626373
0.48368235799716786,0.0,0.17648351648351646,0.5173626373626373
0.48948189700604416,0.4835164835164835,0.3578021978021978,0.5221978021978021
0.48961027299810667,0.4835164835164835,0.3578021978021978,0.5221978021978021
0.49783433599804994,0.4835164835164835,0.3578021978021978,0.5221978021978021
0.5057205640041502,0.4835164835164835,0.3578021978021978,0.5221978021978021
0.5120400419982616,0.4835164835164835,0.3578021978021978,0.5221978021978021
0.5155979609990027,0.5681318681318681,0.4351648351648352,0.473040293040293
0.5157996000052663,0.5681318681318681,0.4351648351648352,0.473040293040293
0.5207581699942239,2.4006593406593404,0.9912087912087911,1.9332600732600733
0.5266652870050166,2.4006593406593404,0.9912087912087911,1.9332600732600733
0.5333218180021504,2.4006593406593404,0.9912087912087911,1.9332600732600733
0.5375978950032732,2.4006593406593404,0.9912087912087911,1.9332600732600733
0.5393070839927532,2.4006593406593404,0.9912087912087911,1.9332600732600733
0.5425649429962505,2.4006593406593404,0.9912087912087911,1.9332600732600733
0.5437163850001525,2.4006593406593404,0.9912087912087911,1.9332600732600733
0.543988203004119,2.4006593406593404,0.9912087912087911,1.9332600732600733
0.5510333249985706,2.4006593406593404,0.9912087912087911,1.9332600732600733
0.5561205609992612,2.4006593406593404,0.9912087912087911,1.9332600732600733
0.56045482600166,2.4006593406593404,0.9912087912087911,1.9332600732600733
0.5608970019966364,2.4006593406593404,0.9912087912087911,1.9332600732600733
0.5663290160009637,2.4006593406593404,0.9912087912087911,1.9332600732600733
0.567235164999147,2.4006593406593404,0.9912087912087911,1.9332600732600733
0.5681611009931657,2.4006593406593404,0.9912087912087911,1.9332600732600733
0.5691507229930721,2.4006593406593404,0.9912087912087911,1.9332600732600733
0.5700953539926559,2.4006593406593404,0.9912087912087911,1.9332600732600733
0.5717954150022706,2.4006593406593404,0.9912087912087911,1.9332600732600733
0.5759905379964039,2.4006593406593404,0.9912087912087911,1.9332600732600733
0.5770784390042536,2.4006593406593404,0.9912087912087911,1.9332600732600733
0.5773814379936084,2.4006593406593404,0.9912087912087911,1.9332600732600733
0.5827116650034441,2.4006593406593404,0.9912087912087911,1.9332600732600733
0.5843858599982923,2.4006593406593404,0.9912087912087911,1.9332600732600733
0.5877204090065788,2.4006593406593404,0.9912087912087911,1.9332600732600733
0.5895849369990174,2.4006593406593404,0.9912087912087911,1.9332600732600733
0.5913408380001783,2.4006593406593404,0.9912087912087911,1.9332600732600733
0.5949739909992786,2.1234432234432234,0.6245421245421244,2.626300366300366
0.6019526470045093,2.1234432234432234,0.6245421245421244,2.626300366300366
0.605924931995105,2.2265934065934068,0.7897435897435897,2.1097435897435894
0.6109350269980496,2.2265934065934068,0.7897435897435897,2.1097435897435894
0.6150694679963635,2.2265934065934068,0.7897435897435897,2.1097435897435894
0.6185121839953354,2.2265934065934068,0.7897435897435897,2.1097435897435894
0.6188449850014877,2.2265934065934068,0.7897435897435897,2.1097435897435894
0.6236683150054887,2.2265934065934068,0.7897435897435897,2.1097435897435894
0.6339003070024773,2.2265934065934068,0.7897435897435897,2.1097435897435894
0.6413807869976154,2.2265934065934068,0.7897435897435897,2.1097435897435894
0.648645637993468,2.2265934065934068,0.7897435897435897,2.1097435897435894
0.6544228459970327,2.2265934065934068,0.7897435897435897,2.1097435897435894
0.6623402959958185,2.2265934065934068,0.7897435897435897,2.1097435897435894
0.6680245570023544,2.294285714285714,2.5763369963369964,2.1564835164835165
0.6767287730035605,2.294285714285714,2.5763369963369964,2.1564835164835165
0.688371146999998,2.3506959706959707,2.565054945054945,2.3958241758241754
0.6984819339995738,1.5037362637362637,2.5424908424908423,1.8567032967032966
0.7049639699980617,1.5037362637362637,2.5424908424908423,1.8567032967032966
0.7122415469930274,0.8324542124542124,1.6044688644688643,1.2813186813186812
0.7173531339940382,0.22967032967032966,1.3119413919413918,0.5673260073260072
0.7212091429973952,0.22967032967032966,1.3119413919413918,0.5673260073260072
0.726551825995557,0.22967032967032966,1.3119413919413918,0.5673260073260072
0.7269966610037955,3.3,1.843003663003663,0.9259340659340659
0.7346924799931003,3.3,1.843003663003663,0.9259340659340659
0.7422305789950769,3.3,1.843003663003663,0.9259340659340659
0.7494595000025583,3.3,1.843003663003663,0.9259340659340659
0.7534554199955892,0.7067399267399267,0.6616117216117217,0.5632967032967032
0.7572882999957073,0.7067399267399267,0.6616117216117217,0.5632967032967032
0.7633736620045966,0.7067399267399267,0.6616117216117217,0.5632967032967032
0.7686961669969605,0.9122344322344322,0.3723076923076923,1.3731868131868132
0.7702570279943757,0.3545787545787546,0.4287179487179487,0.3706959706959707
0.7746211040066555,0.3545787545787546,0.4287179487179487,0.3706959706959707
0.7762466739950469,0.3545787545787546,0.4287179487179487,0.3706959706959707
0.7807262499991339,0.3545787545787546,0.4287179487179487,0.3706959706959707
0.7817239839932881,0.3545787545787546,0.4287179487179487,0.3706959706959707
0.7827028939937009,0.3545787545787546,0.4287179487179487,0.3706959706959707
0.78364578000037,0.3545787545787546,0.4287179487179487,0.3706959706959707
0.7853387479990488,0.3545787545787546,0.4287179487179487,0.3706959706959707
0.788611543001025,0.3545787545787546,0.4287179487179487,0.3706959706959707
0.7902834069973323,0.3545787545787546,0.4287179487179487,0.3706959706959707
0.7946637599961832,0.3545787545787546,0.4287179487179487,0.3706959706959707
0.7957193540059961,0.3545787545787546,0.4287179487179487,0.3706959706959707
0.7966778029949637,0.3545787545787546,0.4287179487179487,0.3706959706959707
0.797653885994805,2.0775091575091573,1.0153846153846153,1.6117216117216115
0.7980062489950797,2.0775091575091573,1.0153846153846153,1.6117216117216115
0.8030262300017057,2.0775091575091573,1.0153846153846153,1.6117216117216115
0.8062404850061284,0.5794139194139193,0.19340659340659339,0.5737728937728938
0.8079181429930031,0.5794139194139193,0.19340659340659339,0.5737728937728938
0.8135470179986442,0.24417582417582417,0.37150183150183147,0.25142857142857145
0.8137516610004241,0.24417582417582417,0.37150183150183147,0.25142857142857145
0.8186175989976618,0.24417582417582417,0.37150183150183147,0.25142857142857145
0.8187688430043636,0.24417582417582417,0.37150183150183147,0.25142857142857145
0.8257988289988134,0.24417582417582417,0.37150183150183147,0.25142857142857145
0.8325446480012033,0.24417582417582417,0.37150183150183147,0.25142857142857145
0.8382193440047558,0.24417582417582417,0.37150183150183147,0.25142857142857145
0.8384445319970837,0.5544322344322344,0.5326739926739926,0.7405860805860806
0.8474804330035113,0.5544322344322344,0.5326739926739926,0.7405860805860806
0.8558468499977607,0.5544322344322344,0.5326739926739926,0.7405860805860806
0.8616506079997635,0.5544322344322344,0.5326739926739926,0.7405860805860806
0.8716484860051423,0.5544322344322344,0.5326739926739926,0.7405860805860806
0.8799813719961094,0.5544322344322344,0.5326739926739926,0.7405860805860806
0.8868767459935043,2.0686446886446883,0.9162637362637363,1.6157509157509156
0.8918039580021286,1.8478388278388278,0.8687179487179487,0.5681318681318681
0.8983690439927159,1.8478388278388278,0.8687179487179487,0.5681318681318681
0.9034127129998524,1.8478388278388278,0.8687179487179487,0.5681318681318681
0.9066365750040859,1.8478388278388278,0.8687179487179487,0.5681318681318681
0.9075474760029465,1.8478388278388278,0.8687179487179487,0.5681318681318681
0.9086040959955426,1.8478388278388278,0.8687179487179487,0.5681318681318681
0.9106457150046481,1.8478388278388278,0.8687179487179487,0.5681318681318681
0.9124860180018004,1.8478388278388278,0.8687179487179487,0.5681318681318681
0.9145503070030827,1.8478388278388278,0.8687179487179487,0.5681318681318681
0.9149530879949452,1.8478388278388278,0.8687179487179487,0.5681318681318681
0.9230702299973927,1.8478388278388278,0.8687179487179487,0.5681318681318681
0.9315126379951835,1.8478388278388278,0.8687179487179487,0.5681318681318681
0.9372767269960605,1.8478388278388278,0.8687179487179487,0.5681318681318681
0.9374693660065532,1.8478388278388278,0.8687179487179487,0.5681318681318681
0.9444589789927704,1.8478388278388278,0.8687179487179487,0.5681318681318681
0.9486291119974339,1.8478388278388278,0.8687179487179487,0.5681318681318681
0.9520648439938668,1.8478388278388278,0.8687179487179487,0.5681318681318681
0.9522974230058026,0.1571428571428571,0.16278388278388278,0.7115750915750916
0.9570216790016275,0.1571428571428571,0.16278388278388278,0.7115750915750916
0.9571679679938825,0.1571428571428571,0.16278388278388278,0.7115750915750916
0.966258354994352,0.1571428571428571,0.16278388278388278,0.7115750915750916
0.9720499219984049,0.1571428571428571,0.16278388278388278,0.7115750915750916
0.9801717439986533,0.1571428571428571,0.16278388278388278,0.7115750915750916
0.985093302995665,0.1571428571428571,0.16278388278388278,0.7115750915750916
0.9944928309996612,0.1571428571428571,0.16278388278388278,0.7115750915750916
0.9998243640002329,0.1571428571428571,0.16278388278388278,0.7115750915750916
1.0023366079985863,0.1571428571428571,0.16278388278388278,0.7115750915750916
1.0069703909975942,0.8372893772893772,0.3078388278388278,0.8147252747252747
1.0072458020003978,0.8445421245421244,0.4085714285714286,0.45772893772893775
1.015207272997941,0.8445421245421244,0.4085714285714286,0.45772893772893775
1.019992176006781,0.17003663003663003,0.18937728937728937,0.3852014652014652
1.020150750002358,0.17003663003663003,0.18937728937728937,0.3852014652014652
1.0249495530006243,0.17003663003663003,0.18937728937728937,0.3852014652014652
1.02522472399869,0.17003663003663003,0.18937728937728937,0.3852014652014652
1.0340218500059564,0.17003663003663003,0.18937728937728937,0.3852014652014652
1.0409274830017239,0.17003663003663003,0.18937728937728937,0.3852014652014652
1.046023842995055,0.17003663003663003,0.18937728937728937,0.3852014652014652
1.048397599006421,0.17003663003663003,0.18937728937728937,0.3852014652014652
1.0485971540038008,0.3553846153846154,0.27238095238095233,0.19985347985347984
1.0541097009991063,0.3553846153846154,0.27238095238095233,0.19985347985347984
1.0552278270042734,2.261245421245421,0.6898168498168498,2.8422710622710623
1.055499783004052,2.261245421245421,0.6898168498168498,2.8422710622710623
1.0604821580054704,2.261245421245421,0.6898168498168498,2.8422710622710623
1.06410592199245,2.261245421245421,0.6898168498168498,2.8422710622710623
1.0643261369987158,2.261245421245421,0.6898168498168498,2.8422710622710623
1.0704223130014725,2.261245421245421,0.6898168498168498,2.8422710622710623
1.075666379998438,2.261245421245421,0.6898168498168498,2.8422710622710623
1.0784460690047126,0.8751648351648351,0.4158241758241758,1.3973626373626373
1.083528799994383,0.8751648351648351,0.4158241758241758,1.3973626373626373
1.0862445870006923,2.2604395604395604,0.6422710622710622,2.605347985347985
1.0922738679946633,2.2604395604395604,0.6422710622710622,2.605347985347985
1.0958427129953634,2.2604395604395604,0.6422710622710622,2.605347985347985
1.0959657710045576,2.2604395604395604,0.6422710622710622,2.605347985347985
1.1009353559929878,2.2604395604395604,0.6422710622710622,2.605347985347985
1.1051565929956269,2.2604395604395604,0.6422710622710622,2.605347985347985
1.1072828220058,2.2604395604395604,0.6422710622710622,2.605347985347985
1.1081253949960228,0.66,0.5769963369963369,0.4762637362637362
1.109669434998068,0.66,0.5769963369963369,0.4762637362637362
1.1146043009939604,0.66,0.5769963369963369,0.4762637362637362
1.1196311690000584,0.66,0.5769963369963369,0.4762637362637362
1.1247587580000982,0.66,0.5769963369963369,0.4762637362637362
1.1321478519967059,0.66,0.5769963369963369,0.4762637362637362
1.1381379539961927,0.66,0.5769963369963369,0.4762637362637362
1.1450500899954932,0.66,0.5769963369963369,0.4762637362637362
1.1491344240057515,0.66,0.5769963369963369,0.4762637362637362
1.1515249450021656,0.66,0.5769963369963369,0.4762637362637362
1.1517397919960786,0.66,0.5769963369963369,0.4762637362637362
1.1585555500059854,0.66,0.5769963369963369,0.4762637362637362
1.1649053050059592,0.66,0.5769963369963369,0.4762637362637362
1.168153082995559,0.66,0.5769963369963369,0.4762637362637362
1.1700453189987456,0.66,0.5769963369963369,0.4762637362637362
1.1726899049972417,0.66,0.5769963369963369,0.4762637362637362
1.1776632520050043,0.66,0.5769963369963369,0.4762637362637362
1.1830032290017698,2.7584615384615385,1.3272527472527473,0.850989010989011
1.1840748279937543,2.7584615384615385,1.3272527472527473,0.850989010989011
1.1843534840008942,2.7584615384615385,1.3272527472527473,0.850989010989011
1.1910741829924518,2.2362637362637363,1.0323076923076921,0.6148717948717949
1.1950709210068453,2.2362637362637363,1.0323076923076921,0.6148717948717949
1.198172460004571,0.7583150183150182,0.4383882783882784,1.1072527472527471
1.2004974640003638,0.7583150183150182,0.4383882783882784,1.1072527472527471
1.2007942899945192,0.7583150183150182,0.4383882783882784,1.1072527472527471
1.2061886449955637,0.7583150183150182,0.4383882783882784,1.1072527472527471
1.2077743889967678,0.7583150183150182,0.4383882783882784,1.1072527472527471
1.2123655659961514,0.3449084249084249,0.415018315018315,0.20468864468864467
1.2125958819960942,0.3449084249084249,0.415018315018315,0.20468864468864467
1.2182260139961727,0.3449084249084249,0.415018315018315,0.20468864468864467
1.218544606002979,0.3449084249084249,0.415018315018315,0.20468864468864467
1.2232674169936217,0.3449084249084249,0.415018315018315,0.20468864468864467
1.2235524620045908,0.3449084249084249,0.415018315018315,0.20468864468864467
1.2289656159991864,0.3449084249084249,0.415018315018315,0.20468864468864467
1.2312977819965454,0.06446886446886446,0.21194139194139192,0.28527472527472525
1.2314727659977507,0.06446886446886446,0.21194139194139192,0.28527472527472525
1.236947509998572,2.3692307692307693,0.7019047619047618,2.8551648351648353
1.2385333230049582,2.3692307692307693,0.7019047619047618,2.8551648351648353
1.2424222139961785,2.3692307692307693,0.7019047619047618,2.8551648351648353
1.24716626299778,2.3692307692307693,0.7019047619047618,2.8551648351648353
1.2528445180068957,2.3692307692307693,0.7019047619047618,2.8551648351648353
1.2531005859927973,2.3692307692307693,0.7019047619047618,2.8551648351648353
1.2579039980046218,2.3692307692307693,0.7019047619047618,2.8551648351648353
1.263727890996961,2.3692307692307693,0.7019047619047618,2.8551648351648353
1.263864676002413,2.3692307692307693,0.7019047619047618,2.8551648351648353
1.2687540320039261,2.3692307692307693,0.7019047619047618,2.8551648351648353
1.2741139199933968,2.3692307692307693,0.7019047619047618,2.8551648351648353
1.2758658770035254,2.3692307692307693,0.7019047619047618,2.8551648351648353
1.279105793000781,2.3692307692307693,0.7019047619047618,2.8551648351648353
1.279961555992486,2.3692307692307693,0.7019047619047618,2.8551648351648353
1.2816036930016708,2.1266666666666665,0.6632234432234432,2.6714285714285713
1.285633046994917,2.1266666666666665,0.6632234432234432,2.6714285714285713
1.2889358490065206,2.1266666666666665,0.6632234432234432,2.6714285714285713
1.290562284993939,2.1266666666666665,0.6632234432234432,2.6714285714285713
1.2946549790067365,2.1266666666666665,0.6632234432234432,2.6714285714285713
1.2972391630028142,2.1266666666666665,0.6632234432234432,2.6714285714285713
1.301897832992836,2.1266666666666665,0.6632234432234432,2.6714285714285713
1.3021804879972478,2.1266666666666665,0.6632234432234432,2.6714285714285713
1.3070581810025033,2.1266666666666665,0.6632234432234432,2.6714285714285713
1.3126862270000856,2.1266666666666665,0.6632234432234432,2.6714285714285713
1.3136135310051031,2.1266666666666665,0.6632234432234432,2.6714285714285713
1.3146182310010772,1.647985347985348,0.5310622710622711,2.075897435897436
1.3154833629960194,1.647985347985348,0.5310622710622711,2.075897435897436
1.3170730080018984,1.647985347985348,0.5310622710622711,2.075897435897436
1.3209062810055912,1.647985347985348,0.5310622710622711,2.075897435897436
1.3258029970020289,1.647985347985348,0.5310622710622711,2.075897435897436
1.3303585539979395,0.718021978021978,0.423076923076923,0.5375091575091575
1.3311964029999217,1.7342124542124542,0.6253479853479853,1.8019047619047617
1.332829924998805,1.7342124542124542,0.6253479853479853,1.8019047619047617
1.3368657829996664,1.7342124542124542,0.6253479853479853,1.8019047619047617
1.3392678030068055,2.9679853479853477,1.4803663003663003,1.0476190476190474
1.3394414289941778,2.9679853479853477,1.4803663003663003,1.0476190476190474
1.3442400119965896,2.9679853479853477,1.4803663003663003,1.0476190476190474
1.349816849004128,2.9679853479853477,1.4803663003663003,1.0476190476190474
1.3501324029930402,2.9679853479853477,1.4803663003663003,1.0476190476190474
1.3550764950050507,2.9679853479853477,1.4803663003663003,1.0476190476190474
1.3603874330001418,2.9679853479853477,1.4803663003663003,1.0476190476190474
1.3620053680060664,1.942124542124542,0.6035897435897435,2.0928205128205124
1.365354674999253,1.942124542124542,0.6035897435897435,2.0928205128205124
1.3661995739967097,1.9445421245421244,0.8759706959706959,0.6019780219780219
1.3677931499987608,1.9445421245421244,0.8759706959706959,0.6019780219780219
1.3725008659966988,1.9445421245421244,0.8759706959706959,0.6019780219780219
1.378238549004891,1.4304029304029304,0.5157509157509157,1.5722344322344322
1.3784110489941668,1.4304029304029304,0.5157509157509157,1.5722344322344322
1.3830593019956723,1.4304029304029304,0.5157509157509157,1.5722344322344322
1.3833373810048215,1.4304029304029304,0.5157509157509157,1.5722344322344322
1.388040866004303,1.4304029304029304,0.5157509157509157,1.5722344322344322
1.3882505539950216,1.4304029304029304,0.5157509157509157,1.5722344322344322
1.393228700995678,1.4304029304029304,0.5157509157509157,1.5722344322344322
1.3982144110050285,1.4304029304029304,0.5157509157509157,1.5722344322344322
1.4021294220001437,2.0509157509157507,1.0758241758241758,0.7204395604395604
1.4060952230065595,2.0509157509157507,1.0758241758241758,0.7204395604395604
1.4107032570027513,2.0509157509157507,1.0758241758241758,0.7204395604395604
1.4110181409923825,2.0509157509157507,1.0758241758241758,0.7204395604395604
1.4157111550011905,2.1387545787545785,0.6551648351648351,2.8664468864468864
1.4159419999923557,2.1387545787545785,0.6551648351648351,2.8664468864468864
1.420621415003552,2.1387545787545785,0.6551648351648351,2.8664468864468864
1.420860106998589,2.1387545787545785,0.6551648351648351,2.8664468864468864
1.4255552440008614,2.1387545787545785,0.6551648351648351,2.8664468864468864
1.4257487279974157,2.1387545787545785,0.6551648351648351,2.8664468864468864
1.430592199001694,2.1387545787545785,0.6551648351648351,2.8664468864468864
1.4361455150065012,2.1387545787545785,0.6551648351648351,2.8664468864468864
1.436996171993087,2.1387545787545785,0.6551648351648351,2.8664468864468864
1.4388344089966267,2.1387545787545785,0.6551648351648351,2.8664468864468864
1.4412479369930224,2.1387545787545785,0.6551648351648351,2.8664468864468864
1.4413583830028074,2.1387545787545785,0.6551648351648351,2.8664468864468864
1.4469364200049313,2.1387545787545785,0.6551648351648351,2.8664468864468864
1.447357828001259,2.1387545787545785,0.6551648351648351,2.8664468864468864
1.4528471999947214,2.1387545787545785,0.6551648351648351,2.8664468864468864
1.4530796720064245,2.1387545787545785,0.6551648351648351,2.8664468864468864
1.458273262003786,2.1387545787545785,0.6551648351648351,2.8664468864468864
1.4606413709989283,2.597289377289377,0.9855677655677655,0.7373626373626374
1.4608320200059097,2.597289377289377,0.9855677655677655,0.7373626373626374
1.4662412290053908,2.597289377289377,0.9855677655677655,0.7373626373626374
1.4678745870041894,2.597289377289377,0.9855677655677655,0.7373626373626374
1.4729946620063856,2.597289377289377,0.9855677655677655,0.7373626373626374
1.4768535530020017,2.597289377289377,0.9855677655677655,0.7373626373626374
1.4809926900052233,2.597289377289377,0.9855677655677655,0.7373626373626374
1.4849933810037328,2.597289377289377,0.9855677655677655,0.7373626373626374
1.4880955620028544,1.4723076923076923,0.6720879120879121,0.6632234432234432
1.490536654004245,1.4723076923076923,0.6720879120879121,0.6632234432234432
1.496188074001111,1.4723076923076923,0.6720879120879121,0.6632234432234432
1.4964353169925744,2.028351648351648,0.5818315018315018,2.5078388278388277
1.5014677709987154,2.028351648351648,0.5818315018315018,2.5078388278388277
1.5063438240031246,2.028351648351648,0.5818315018315018,2.5078388278388277
1.5117102289950708,2.028351648351648,0.5818315018315018,2.5078388278388277
1.5141569900006289,2.028351648351648,0.5818315018315018,2.5078388278388277
1.519958877004683,2.028351648351648,0.5818315018315018,2.5078388278388277
1.5201472860062495,2.028351648351648,0.5818315018315018,2.5078388278388277
1.52505351700529,2.028351648351648,0.5818315018315018,2.5078388278388277
1.530716131994268,2.028351648351648,0.5818315018315018,2.5078388278388277
1.5315994900010992,2.028351648351648,0.5818315018315018,2.5078388278388277
1.5325743849971332,2.028351648351648,0.5818315018315018,2.5078388278388277
1.5335381079930812,2.028351648351648,0.5818315018315018,2.5078388278388277
1.5344837729935534,2.028351648351648,0.5818315018315018,2.5078388278388277
1.535485479995259,2.028351648351648,0.5818315018315018,2.5078388278388277
1.537069130994496,2.028351648351648,0.5818315018315018,2.5078388278388277
1.5411061299964786,2.2362637362637363,0.8227838827838827,2.3079853479853476
1.544327320996672,2.2362637362637363,0.8227838827838827,2.3079853479853476
1.54526111400628,2.2362637362637363,0.8227838827838827,2.3079853479853476
1.5468587929935893,2.2362637362637363,0.8227838827838827,2.3079853479853476
1.5508629179967102,2.2362637362637363,0.8227838827838827,2.3079853479853476
1.5541275709983893,2.4345054945054945,0.6616117216117217,2.884175824175824
1.5551120089949109,1.726959706959707,0.5205860805860806,2.2886446886446885
1.556075365995639,1.726959706959707,0.5205860805860806,2.2886446886446885
1.5569947640033206,1.726959706959707,0.5205860805860806,2.2886446886446885
1.5586987620044965,1.726959706959707,0.5205860805860806,2.2886446886446885
1.5626304400066147,1.726959706959707,0.5205860805860806,2.2886446886446885
1.5666688890050864,1.726959706959707,0.5205860805860806,2.2886446886446885
1.5697184860036941,1.726959706959707,0.5205860805860806,2.2886446886446885
1.572130938002374,1.726959706959707,0.5205860805860806,2.2886446886446885
1.5723090270039393,1.726959706959707,0.5205860805860806,2.2886446886446885
1.576975471994956,1.726959706959707,0.5205860805860806,2.2886446886446885
1.5770994430058636,1.726959706959707,0.5205860805860806,2.2886446886446885
1.5827295420021983,1.726959706959707,0.5205860805860806,2.2886446886446885
1.5829424590046983,0.8848351648351648,0.23128205128205126,1.357069597069597
1.5881534119980643,0.8848351648351648,0.23128205128205126,1.357069597069597
1.5912405099952593,0.8848351648351648,0.23128205128205126,1.357069597069597
1.592892247994314,0.8848351648351648,0.23128205128205126,1.357069597069597
1.5974011090002023,0.8848351648351648,0.23128205128205126,1.357069597069597
1.5982822280057007,0.8848351648351648,0.23128205128205126,1.357069597069597
1.599280862006708,0.8848351648351648,0.23128205128205126,1.357069597069597
1.6002024490007898,0.8848351648351648,0.23128205128205126,1.357069597069597
1.6018088489945512,0.8848351648351648,0.23128205128205126,1.357069597069597
1.6058647989993915,0.8848351648351648,0.23128205128205126,1.357069597069597
1.6090393860067707,2.9067399267399265,1.212820512820513,0.8147252747252747
1.6106973069981905,2.9067399267399265,1.212820512820513,0.8147252747252747
1.6145798159996048,2.9067399267399265,1.212820512820513,0.8147252747252747
1.618614400998922,2.17018315018315,0.6986813186813187,2.884175824175824
1.6225211520068115,2.0968498168498164,0.6761172161172161,2.2322344322344323
1.6266985870024655,2.0968498168498164,0.6761172161172161,2.2322344322344323
1.6290892910037655,2.0968498168498164,0.6761172161172161,2.2322344322344323
1.6292031180055346,2.0968498168498164,0.6761172161172161,2.2322344322344323
1.6340495549957268,2.0968498168498164,0.6761172161172161,2.2322344322344323
1.6397000099968864,2.0968498168498164,0.6761172161172161,2.2322344322344323
1.640560526997433,3.3,1.7382417582417582,1.2047619047619047
1.6416131169971777,3.3,1.7382417582417582,1.2047619047619047
1.6425634990009712,3.3,1.7382417582417582,1.2047619047619047
1.6442599019937916,3.3,1.7382417582417582,1.2047619047619047
1.6482409619929967,3.3,1.7382417582417582,1.2047619047619047
1.6514867700025206,3.3,1.7382417582417582,1.2047619047619047
1.6523555290041259,3.3,1.7382417582417582,1.2047619047619047
1.6539593560009962,3.3,1.7382417582417582,1.2047619047619047
1.6579508659924613,3.3,1.7382417582417582,1.2047619047619047
1.66198896500282,3.3,1.7382417582417582,1.2047619047619047
1.664441243003239,3.3,1.7382417582417582,1.2047619047619047
1.6701869259995874,3.3,1.7382417582417582,1.2047619047619047
1.6703336049977224,3.3,1.7382417582417582,1.2047619047619047
1.6750277709943475,3.3,1.7382417582417582,1.2047619047619047
1.6752956109994557,0.8243956043956043,0.5221978021978021,0.9331868131868131
1.6799772609956563,0.8243956043956043,0.5221978021978021,0.9331868131868131
1.6801787260046694,0.8243956043956043,0.5221978021978021,0.9331868131868131
1.684942924999632,0.8243956043956043,0.5221978021978021,0.9331868131868131
1.6851747909968253,0.8243956043956043,0.5221978021978021,0.9331868131868131
1.6900504149962217,0.8243956043956043,0.5221978021978021,0.9331868131868131
1.6901746130024549,0.8243956043956043,0.5221978021978021,0.9331868131868131
1.6951588119991357,0.8243956043956043,0.5221978021978021,0.9331868131868131
1.7002337949961657,0.8243956043956043,0.5221978021978021,0.9331868131868131
1.7041696149972267,0.8243956043956043,0.5221978021978021,0.9331868131868131
1.7080644910020055,0.8243956043956043,0.5221978021978021,0.9331868131868131
1.7119550259958487,0.8243956043956043,0.5221978021978021,0.9331868131868131
1.7165091600036249,0.8243956043956043,0.5221978021978021,0.9331868131868131
1.7168024540005717,0.8243956043956043,0.5221978021978021,0.9331868131868131
1.7215371609927388,2.302344322344322,0.9033699633699634,2.0573626373626372
1.7270051509985933,2.302344322344322,0.9033699633699634,2.0573626373626372
1.7286478409951087,2.302344322344322,0.9033699633699634,2.0573626373626372
1.7317840960022295,0.04996336996336996,0.19985347985347984,0.332014652014652
1.7335056150041055,0.04996336996336996,0.19985347985347984,0.332014652014652
1.73739237600239,0.04996336996336996,0.19985347985347984,0.332014652014652
1.741363081993768,0.04996336996336996,0.19985347985347984,0.332014652014652
1.745267121004872,0.04996336996336996,0.19985347985347984,0.332014652014652
1.7492845249944367,0.04996336996336996,0.19985347985347984,0.332014652014652
1.753261117002694,0.04996336996336996,0.19985347985347984,0.332014652014652
1.756387054992956,1.8204395604395605,0.6406593406593406,2.1161904761904764
1.7587047440028982,1.8204395604395605,0.6406593406593406,2.1161904761904764
1.7589144429948647,1.8204395604395605,0.6406593406593406,2.1161904761904764
1.7642953369941097,1.8204395604395605,0.6406593406593406,2.1161904761904764
1.7660250659973826,1.8204395604395605,0.6406593406593406,2.1161904761904764
1.7692102169967256,1.8204395604395605,0.6406593406593406,2.1161904761904764
1.7701977340038866,1.8204395604395605,0.6406593406593406,2.1161904761904764
1.7720488110062433,1.8204395604395605,0.6406593406593406,2.1161904761904764
1.7737440420023631,1.8204395604395605,0.6406593406593406,2.1161904761904764
1.777686599001754,1.8204395604395605,0.6406593406593406,2.1161904761904764
1.781460906000575,1.8204395604395605,0.6406593406593406,2.1161904761904764
1.785696626000572,1.8204395604395605,0.6406593406593406,2.1161904761904764
1.7880426149931736,1.8978021978021975,1.0468131868131867,0.5834432234432234
1.7882365849945927,1.8978021978021975,1.0468131868131867,0.5834432234432234
1.7931467619928299,1.8978021978021975,1.0468131868131867,0.5834432234432234
1.7980728599941358,1.8978021978021975,1.0468131868131867,0.5834432234432234
1.802775845004362,2.4514285714285715,0.7905494505494506,2.1806593406593406
1.8029138590063667,2.4514285714285715,0.7905494505494506,2.1806593406593406
1.8083940210053697,2.4514285714285715,0.7905494505494506,2.1806593406593406
1.8092959750065347,0.6954578754578754,0.3779487179487179,0.506080586080586
1.8109236000018427,0.6954578754578754,0.3779487179487179,0.506080586080586
1.8149524579930585,0.6954578754578754,0.3779487179487179,0.506080586080586
1.8189551469986327,0.6954578754578754,0.3779487179487179,0.506080586080586
1.8227438100002473,0.6954578754578754,0.3779487179487179,0.506080586080586
1.8284471920051146,0.6954578754578754,0.3779487179487179,0.506080586080586
1.828544621996116,0.6954578754578754,0.3779487179487179,0.506080586080586
1.833842979001929,0.6954578754578754,0.3779487179487179,0.506080586080586
1.8369625289924443,0.6954578754578754,0.3779487179487179,0.506080586080586
1.8393234940012917,0.6954578754578754,0.3779487179487179,0.506080586080586
1.839513168000849,0.6954578754578754,0.3779487179487179,0.506080586080586
1.8444280719995731,2.784249084249084,0.0,2.211282051282051
1.8445378089963924,2.784249084249084,0.0,2.211282051282051
1.8495789470034651,2.784249084249084,0.0,2.211282051282051
1.8532372240006225,2.784249084249084,0.0,2.211282051282051
1.8533626940043177,2.784249084249084,0.0,2.211282051282051
1.8584126560017467,2.784249084249084,0.0,2.211282051282051
1.8619976570043946,2.6875457875457873,0.0,1.9687179487179485
1.8621826879971195,2.6875457875457873,0.0,1.9687179487179485
1.8672580699931132,2.6875457875457873,0.0,1.9687179487179485
1.87054153700592,2.6875457875457873,0.0,1.9687179487179485
1.8722134290001122,0.07494505494505493,0.0,0.28527472527472525
1.8755169749929337,0.07494505494505493,0.0,0.28527472527472525
1.8763536199985538,1.1644688644688646,0.0,0.792967032967033
1.8779184430022724,1.1644688644688646,0.0,0.792967032967033
1.881747613006155,1.1644688644688646,0.0,0.792967032967033
1.8870808710053097,1.1644688644688646,0.0,0.792967032967033
1.889506966996123,1.1644688644688646,0.0,0.792967032967033
1.8896225770004094,1.1644688644688646,0.0,0.792967032967033
1.895115856998018,1.1644688644688646,0.0,0.792967032967033
1.8967216860037297,1.1644688644688646,0.0,0.792967032967033
1.900572970000212,1.1644688644688646,0.0,0.792967032967033
1.9051968819985632,1.1644688644688646,0.0,0.792967032967033
1.905410541992751,1.1644688644688646,0.0,0.792967032967033
1.9107389730052091,1.1644688644688646,0.0,0.792967032967033
1.913774091997766,1.1644688644688646,0.0,0.792967032967033
1.91626531300426,1.1644688644688646,0.0,0.792967032967033
1.921724322004593,1.1644688644688646,0.0,0.792967032967033
1.9240432410006179,1.1644688644688646,0.0,0.792967032967033
1.9242387389967917,1.1644688644688646,0.0,0.792967032967033
1.9295998650050024,1.1644688644688646,0.0,0.792967032967033
1.9319759179925313,0.5584615384615385,0.0,0.38358974358974357
1.9321430410054745,2.884175824175824,0.0,2.233040293040293
1.9375148520048242,2.884175824175824,0.0,2.233040293040293
1.9398379969934467,2.884175824175824,0.0,2.233040293040293
1.9401345850055804,2.884175824175824,0.0,2.233040293040293
1.9451984009938315,2.884175824175824,0.0,2.233040293040293
1.9500727169943275,2.884175824175824,0.0,2.233040293040293
1.95575197400467,2.884175824175824,0.0,2.233040293040293
1.9560158599924762,2.884175824175824,0.0,2.233040293040293
1.9620980640029302,2.884175824175824,0.0,2.233040293040293
1.9666159640037222,2.884175824175824,0.0,2.233040293040293
1.9675355420040432,2.884175824175824,0.0,2.233040293040293
1.9691053349961294,2.884175824175824,0.0,2.233040293040293
1.9736895020032534,2.884175824175824,0.0,2.233040293040293
1.974533729997347,2.884175824175824,0.0,2.233040293040293
1.975533513003029,2.884175824175824,0.0,2.233040293040293
1.977119887000299,2.884175824175824,0.0,2.233040293040293
1.9816290070011746,2.884175824175824,0.0,2.233040293040293
1.983113348003826,1.1161172161172161,2.5666666666666664,0.8155311355311355
1.9874408369942103,1.1161172161172161,2.5666666666666664,0.8155311355311355
1.9897287079948,1.1161172161172161,2.5666666666666664,0.8155311355311355
1.9905758189997869,1.1161172161172161,2.5666666666666664,0.8155311355311355
1.9921440290054306,1.1161172161172161,2.5666666666666664,0.8155311355311355
1.996375786999124,1.1161172161172161,2.5666666666666664,0.8155311355311355
1.998628778004786,1.818827838827839,3.2798534798534797,1.696336996336996
1.999470522001502,1.818827838827839,3.2798534798534797,1.696336996336996
2.000971247005509,2.1766300366300366,3.235531135531135,1.7567765567765568
2.0058976729924325,1.5585347985347984,2.797142857142857,1.1096703296703296
2.0102007889945526,1.5585347985347984,2.797142857142857,1.1096703296703296
2.0131187999941176,1.5585347985347984,2.797142857142857,1.1096703296703296
2.0160452620038996,1.5585347985347984,2.797142857142857,1.1096703296703296
2.018965797004057,1.5585347985347984,2.797142857142857,1.1096703296703296
2.021835095001734,1.5585347985347984,2.797142857142857,1.1096703296703296
2.0253408900025534,1.5585347985347984,2.797142857142857,1.1096703296703296
2.0256054189958377,1.0863003663003663,1.1717216117216116,1.0693772893772893
2.030622129997937,1.0863003663003663,1.1717216117216116,1.0693772893772893
2.0341533070022706,1.0863003663003663,1.1717216117216116,1.0693772893772893
2.034400161996018,1.0863003663003663,1.1717216117216116,1.0693772893772893
2.0396236880042125,1.0863003663003663,1.1717216117216116,1.0693772893772893
2.042188901003101,1.0863003663003663,1.1717216117216116,1.0693772893772893
2.0475756310042925,1.1781684981684981,0.8719413919413919,0.9533333333333331
2.0494393260014476,0.7841025641025641,0.8953113553113552,0.29736263736263735
2.051881328006857,0.7841025641025641,0.8953113553113552,0.29736263736263735
2.0521464129997185,0.7841025641025641,0.8953113553113552,0.29736263736263735
2.056839939003112,0.7841025641025641,0.8953113553113552,0.29736263736263735
2.0570445930061396,0.7841025641025641,0.8953113553113552,0.29736263736263735
2.0619049060042016,0.7841025641025641,0.8953113553113552,0.29736263736263735
2.0621009759925073,0.7841025641025641,0.8953113553113552,0.29736263736263735
2.0668123429932166,0.7841025641025641,0.8953113553113552,0.29736263736263735
2.0669616959930863,0.7841025641025641,0.8953113553113552,0.29736263736263735
2.0726395800011232,0.7841025641025641,0.8953113553113552,0.29736263736263735
2.0728444760025013,0.7841025641025641,0.8953113553113552,0.29736263736263735
2.0782797769934405,0.7841025641025641,0.8953113553113552,0.29736263736263735
2.0798584110016236,0.7841025641025641,0.8953113553113552,0.29736263736263735
2.0835252289980417,0.7841025641025641,0.8953113553113552,0.29736263736263735
2.0836497980053537,0.7841025641025641,0.8953113553113552,0.29736263736263735
2.0886108260019682,0.7841025641025641,0.8953113553113552,0.29736263736263735
2.092914702996495,0.7841025641025641,0.8953113553113552,0.29736263736263735
2.0951402939972468,0.7841025641025641,0.8953113553113552,0.29736263736263735
2.0959864369942807,0.9621978021978022,0.5278388278388277,1.083076923076923
2.0981297999969684,0.9621978021978022,0.5278388278388277,1.083076923076923
2.098936409005546,2.3345787545787546,0.9404395604395603,1.863150183150183
2.101091363001615,2.3345787545787546,0.9404395604395603,1.863150183150183
2.1019120650016703,0.8437362637362636,0.30945054945054945,0.5761904761904761
2.10344048999832,0.8437362637362636,0.30945054945054945,0.5761904761904761
2.107626627999707,1.0355311355311354,0.2925274725274725,1.1547985347985346
2.1098307039937936,0.3529670329670329,0.4488644688644688,0.2683516483516483
2.1106541600020137,0.3529670329670329,0.4488644688644688,0.2683516483516483
2.112838318993454,0.3529670329670329,0.4488644688644688,0.2683516483516483
2.1136845699948026,2.5432967032967033,0.7293040293040293,2.273333333333333
2.1158581619965844,2.5432967032967033,0.7293040293040293,2.273333333333333
2.11617185799696,3.3,2.0742857142857143,1.0742124542124543
2.1205992540053558,3.3,2.0742857142857143,1.0742124542124543
2.122176037999452,2.1927472527472527,0.7502564102564102,1.80029304029304
2.126844390993938,2.1927472527472527,0.7502564102564102,1.80029304029304
2.127044446999207,2.1927472527472527,0.7502564102564102,1.80029304029304
2.1319868190039415,2.1927472527472527,0.7502564102564102,1.80029304029304
2.137167826993391,2.1927472527472527,0.7502564102564102,1.80029304029304
2.1403852380026365,2.1927472527472527,0.7502564102564102,1.80029304029304
2.1412828559987247,2.1927472527472527,0.7502564102564102,1.80029304029304
2.142864419001853,2.1927472527472527,0.7502564102564102,1.80029304029304
2.146562816997175,2.1927472527472527,0.7502564102564102,1.80029304029304
2.1515887980058324,2.1927472527472527,0.7502564102564102,1.80029304029304
2.156519202006166,2.1927472527472527,0.7502564102564102,1.80029304029304
2.160560174001148,2.1927472527472527,0.7502564102564102,1.80029304029304
2.164552446003654,2.1927472527472527,0.7502564102564102,1.80029304029304
2.1678763200034155,2.1927472527472527,0.7502564102564102,1.80029304029304
2.1687310289999004,0.6882051282051282,0.49157509157509155,0.43597069597069593
2.170292452996364,0.6882051282051282,0.49157509157509155,0.43597069597069593
2.1750214680068893,2.6875457875457873,0.838095238095238,2.311208791208791
2.180686327992589,2.6875457875457873,0.838095238095238,2.311208791208791
2.1809165089944145,2.6875457875457873,0.838095238095238,2.311208791208791
2.18563020399597,2.6875457875457873,0.838095238095238,2.311208791208791
2.1859184479981195,2.6875457875457873,0.838095238095238,2.311208791208791
2.1902990639937343,2.6875457875457873,0.838095238095238,2.311208791208791
2.1918253930052742,2.6875457875457873,0.838095238095238,2.311208791208791
2.1961264769925037,2.6875457875457873,0.838095238095238,2.311208791208791
2.1977012419956736,2.6875457875457873,0.838095238095238,2.311208791208791
2.201312680001138,2.6875457875457873,0.838095238095238,2.311208791208791
2.2014824130019406,2.6875457875457873,0.838095238095238,2.311208791208791
2.205745722996653,2.6875457875457873,0.838095238095238,2.311208791208791
2.20801111900073,2.6875457875457873,0.838095238095238,2.311208791208791
2.2082963379943976,2.6875457875457873,0.838095238095238,2.311208791208791
2.2126277679926716,2.6875457875457873,0.838095238095238,2.311208791208791
2.214877639999031,1.1112820512820514,0.5616849816849817,1.2635897435897436
2.21568759100046,1.1112820512820514,0.5616849816849817,1.2635897435897436
2.2178836109960685,1.1112820512820514,0.5616849816849817,1.2635897435897436
2.2187894100061385,1.1112820512820514,0.5616849816849817,1.2635897435897436
2.2202994060062338,1.1112820512820514,0.5616849816849817,1.2635897435897436
2.2245424870052375,1.1112820512820514,0.5616849816849817,1.2635897435897436
2.2267046089982614,1.1112820512820514,0.5616849816849817,1.2635897435897436
2.227515228005359,1.1112820512820514,0.5616849816849817,1.2635897435897436
2.2289996890031034,1.1112820512820514,0.5616849816849817,1.2635897435897436
2.2332885259966133,0.2377289377289377,0.3046153846153846,0.27238095238095233
2.2361090750055155,0.2377289377289377,0.3046153846153846,0.27238095238095233
2.239745821003453,0.2377289377289377,0.3046153846153846,0.27238095238095233
2.2399608099949546,0.2377289377289377,0.3046153846153846,0.27238095238095233
2.2441852610063506,1.5553113553113551,0.29978021978021974,1.3465934065934064
2.2469940979935927,1.5553113553113551,0.29978021978021974,1.3465934065934064
2.2511617739946814,1.5553113553113551,0.29978021978021974,1.3465934065934064
2.2533272150030825,1.5553113553113551,0.29978021978021974,1.3465934065934064
2.2541353389970027,1.5553113553113551,0.29978021978021974,1.3465934065934064
2.2563068070012378,1.5553113553113551,0.29978021978021974,1.3465934065934064
2.2570682109944755,1.5553113553113551,0.29978021978021974,1.3465934065934064
2.2592085259966552,1.5553113553113551,0.29978021978021974,1.3465934065934064
2.2600418319925666,1.5553113553113551,0.29978021978021974,1.3465934065934064
2.2615851199952886,1.5553113553113551,0.29978021978021974,1.3465934065934064
2.265881489001913,1.5553113553113551,0.29978021978021974,1.3465934065934064
2.268088776996592,1.5553113553113551,0.29978021978021974,1.3465934065934064
2.26888424900244,1.5553113553113551,0.29978021978021974,1.3465934065934064
2.270402879003086,1.5553113553113551,0.29978021978021974,1.3465934065934064
2.275296095001977,1.5553113553113551,0.29978021978021974,1.3465934065934064
2.2753988670010585,1.5553113553113551,0.29978021978021974,1.3465934065934064
2.2802877299982356,1.5553113553113551,0.29978021978021974,1.3465934065934064
2.2860454309993656,2.194358974358974,0.9565567765567766,1.6576556776556775
2.28622881899355,2.194358974358974,0.9565567765567766,1.6576556776556775
2.291211303003365,2.194358974358974,0.9565567765567766,1.6576556776556775
2.296069278003415,2.194358974358974,0.9565567765567766,1.6576556776556775
2.300911158992676,2.0621978021978022,0.6551648351648351,2.332161172161172
2.305736253998475,2.0621978021978022,0.6551648351648351,2.332161172161172
2.311302080997848,2.0621978021978022,0.6551648351648351,2.332161172161172
2.3121448260062607,2.0621978021978022,0.6551648351648351,2.332161172161172
2.314413080996019,2.0621978021978022,0.6551648351648351,2.332161172161172
2.3146652199939126,2.0621978021978022,0.6551648351648351,2.332161172161172
2.3197915430064313,2.0621978021978022,0.6551648351648351,2.332161172161172
2.3226827879989287,2.0621978021978022,0.6551648351648351,2.332161172161172
2.326243114992394,2.0621978021978022,0.6551648351648351,2.332161172161172
2.326451533997897,2.0621978021978022,0.6551648351648351,2.332161172161172
2.331366447993787,2.0621978021978022,0.6551648351648351,2.332161172161172
2.3356897920020856,2.0621978021978022,0.6551648351648351,2.332161172161172
2.337838050996652,3.3,2.1266666666666665,0.9815384615384615
2.3387000640068436,3.3,2.1266666666666665,0.9815384615384615
2.34026321300189,2.2024175824175822,0.7373626373626374,2.0573626373626372
2.3438744529994437,2.2024175824175822,0.7373626373626374,2.0573626373626372
2.3440653839934384,2.2024175824175822,0.7373626373626374,2.0573626373626372
2.349317500993493,2.2024175824175822,0.7373626373626374,2.0573626373626372
2.351007485995069,2.2024175824175822,0.7373626373626374,2.0573626373626372
2.3541931270010537,2.2024175824175822,0.7373626373626374,2.0573626373626372
2.3558682989969384,2.2024175824175822,0.7373626373626374,2.0573626373626372
2.359651663005934,2.2024175824175822,0.7373626373626374,2.0573626373626372
2.364276110994979,2.2024175824175822,0.7373626373626374,2.0573626373626372
2.3644032159936614,1.016996336996337,0.6043956043956044,0.4174358974358974
2.3699316819984233,1.016996336996337,0.6043956043956044,0.4174358974358974
2.371622981998371,1.016996336996337,0.6043956043956044,0.4174358974358974
2.374770248992718,2.5827838827838825,0.7252747252747253,2.6609523809523807
2.376605388999451,2.3652014652014652,1.1153113553113554,0.518974358974359
2.3790349019982386,2.3652014652014652,1.1153113553113554,0.518974358974359
2.379252026003087,2.3652014652014652,1.1153113553113554,0.518974358974359
2.3840707180061145,2.3652014652014652,1.1153113553113554,0.518974358974359
2.389572971005691,2.3652014652014652,1.1153113553113554,0.518974358974359
2.391390965000028,2.3652014652014652,1.1153113553113554,0.518974358974359
2.393963915994391,2.3652014652014652,1.1153113553113554,0.518974358974359
2.399411289006821,2.3652014652014652,1.1153113553113554,0.518974358974359
2.4019111939996947,2.3652014652014652,1.1153113553113554,0.518974358974359
2.4021011239965446,2.3652014652014652,1.1153113553113554,0.518974358974359
2.406654841004638,2.3652014652014652,1.1153113553113554,0.518974358974359
2.4075940490001813,2.3652014652014652,1.1153113553113554,0.518974358974359
2.4091905990062514,2.3652014652014652,1.1153113553113554,0.518974358974359
2.4129545979958493,2.3652014652014652,1.1153113553113554,0.518974358974359
2.4182576019957196,2.3652014652014652,1.1153113553113554,0.518974358974359
2.4207615350023843,2.3813186813186813,0.5616849816849817,2.4586813186813186
2.4208836309990147,1.4610256410256408,0.3021978021978022,1.3836630036630035
2.426476520995493,1.4610256410256408,0.3021978021978022,1.3836630036630035
2.4267500120040495,1.4610256410256408,0.3021978021978022,1.3836630036630035
2.4313163759943563,1.4610256410256408,0.3021978021978022,1.3836630036630035
2.431609135994222,1.4610256410256408,0.3021978021978022,1.3836630036630035
2.4368956630059984,2.565054945054945,0.622124542124542,2.8624175824175824
2.439902261001407,2.565054945054945,0.622124542124542,2.8624175824175824
2.4427778579993173,2.565054945054945,0.622124542124542,2.8624175824175824
2.4458820120053133,2.565054945054945,0.622124542124542,2.8624175824175824
2.4482900610018987,2.565054945054945,0.622124542124542,2.8624175824175824
2.448569692001911,2.565054945054945,0.622124542124542,2.8624175824175824
2.453382424006122,2.565054945054945,0.622124542124542,2.8624175824175824
2.458983492993866,2.565054945054945,0.622124542124542,2.8624175824175824
2.4607566880004015,2.565054945054945,0.622124542124542,2.8624175824175824
2.4638651220011525,2.565054945054945,0.622124542124542,2.8624175824175824
2.465666003001388,2.565054945054945,0.622124542124542,2.8624175824175824
2.4687247200054117,1.7624175824175823,0.7405860805860806,0.7268864468864469
2.4710177020024275,0.5584615384615385,0.24659340659340656,0.29333333333333333
2.4712224999966566,0.5584615384615385,0.24659340659340656,0.29333333333333333
2.476900385998306,0.5584615384615385,0.24659340659340656,0.29333333333333333
2.4777425179927377,0.5584615384615385,0.24659340659340656,0.29333333333333333
2.47936834700522,0.5584615384615385,0.24659340659340656,0.29333333333333333
2.483095985997352,0.5584615384615385,0.24659340659340656,0.29333333333333333
2.483204641001066,0.5584615384615385,0.24659340659340656,0.29333333333333333
2.4882325819926336,0.5584615384615385,0.24659340659340656,0.29333333333333333
2.491773250992992,0.5584615384615385,0.24659340659340656,0.29333333333333333
2.492041272998904,2.7616849816849816,0.7623443223443224,3.004249084249084
2.496873233001679,2.4715750915750916,0.66,3.033260073260073
2.501884601006168,2.4715750915750916,0.66,3.033260073260073
2.506582297006389,2.4715750915750916,0.66,3.033260073260073
2.5068005890061613,2.4715750915750916,0.66,3.033260073260073
2.511342676996719,2.4715750915750916,0.66,3.033260073260073
2.5122693040029844,2.4715750915750916,0.66,3.033260073260073
2.514033016996109,2.4715750915750916,0.66,3.033260073260073
2.517113577996497,2.4715750915750916,0.66,3.033260073260073
2.519569740004954,2.4715750915750916,0.66,3.033260073260073
2.5247238960000686,2.4715750915750916,0.66,3.033260073260073
2.529017669003224,2.7778021978021976,1.166080586080586,0.701098901098901
2.5298968160059303,2.7778021978021976,1.166080586080586,0.701098901098901
2.5320279720035614,2.7778021978021976,1.166080586080586,0.701098901098901
2.5323433809971903,2.7778021978021976,1.166080586080586,0.701098901098901
2.537225734005915,2.7778021978021976,1.166080586080586,0.701098901098901
2.542345045992988,2.7778021978021976,1.166080586080586,0.701098901098901
2.5465825110004516,0.9033699633699634,0.14827838827838827,1.506153846153846
2.5488443759968504,0.9033699633699634,0.14827838827838827,1.506153846153846
2.5491213140048785,0.9033699633699634,0.14827838827838827,1.506153846153846
2.5540772779932013,0.9033699633699634,0.14827838827838827,1.506153846153846
2.559360989005654,0.9033699633699634,0.14827838827838827,1.506153846153846
2.5615836799988756,0.9033699633699634,0.14827838827838827,1.506153846153846
2.562416333006695,0.9033699633699634,0.14827838827838827,1.506153846153846
2.563915482998709,0.9033699633699634,0.14827838827838827,1.506153846153846
2.568226125993533,0.9033699633699634,0.14827838827838827,1.506153846153846
2.5703907330025686,0.9033699633699634,0.14827838827838827,1.506153846153846
2.5712201169953914,0.9033699633699634,0.14827838827838827,1.506153846153846
2.5727328280045185,0.9033699633699634,0.14827838827838827,1.506153846153846
2.576989687004243,0.9033699633699634,0.14827838827838827,1.506153846153846
2.579229718001443,0.9033699633699634,0.14827838827838827,1.506153846153846
2.579525024004397,0.9033699633699634,0.14827838827838827,1.506153846153846
2.584501695004292,0.9033699633699634,0.14827838827838827,1.506153846153846
2.58960033999756,0.8316483516483516,0.19904761904761903,0.9573626373626374
2.5932968470006017,0.8316483516483516,0.19904761904761903,0.9573626373626374
2.5982586040045135,0.8316483516483516,0.19904761904761903,0.9573626373626374
2.5983772199979285,3.3,1.847032967032967,1.220879120879121
2.6026511209929595,3.3,1.847032967032967,1.220879120879121
2.6062774680031,0.6084249084249085,0.21597069597069596,0.61003663003663
2.606462376003037,0.6084249084249085,0.21597069597069596,0.61003663003663
2.611264831997687,0.6084249084249085,0.21597069597069596,0.61003663003663
2.611494925004081,0.6084249084249085,0.21597069597069596,0.61003663003663
2.616691319999518,0.6084249084249085,0.21597069597069596,0.61003663003663
2.6205406859953655,0.6084249084249085,0.21597069597069596,0.61003663003663
2.6252680079924176,0.6084249084249085,0.21597069597069596,0.61003663003663
2.6255513390060514,0.6084249084249085,0.21597069597069596,0.61003663003663
2.6303808689990547,0.9412454212454211,0.5769963369963369,0.5794139194139193
2.6356550740019884,0.1805128205128205,0.27882783882783885,0.4867399267399267
2.639442051993683,1.4263736263736264,0.5463736263736263,1.801098901098901
2.6430702729994664,2.194358974358974,0.7252747252747253,2.1057142857142854
2.643261449993588,2.194358974358974,0.7252747252747253,2.1057142857142854
2.6482593690016074,2.194358974358974,0.7252747252747253,2.1057142857142854
2.6534823809925,2.194358974358974,0.7252747252747253,2.1057142857142854
2.655812128999969,2.194358974358974,0.7252747252747253,2.1057142857142854
2.656050503006554,2.194358974358974,0.7252747252747253,2.1057142857142854
2.6605766330030747,2.194358974358974,0.7252747252747253,2.1057142857142854
2.6614725760009605,2.194358974358974,0.7252747252747253,2.1057142857142854
2.6630290119937854,2.194358974358974,0.7252747252747253,2.1057142857142854
2.666861774996505,2.194358974358974,0.7252747252747253,2.1057142857142854
2.672153919003904,2.194358974358974,0.7252747252747253,2.1057142857142854
2.6744322949962225,2.194358974358974,0.7252747252747253,2.1057142857142854
2.674615220996202,2.194358974358974,0.7252747252747253,2.1057142857142854
2.679961337998975,2.194358974358974,0.7252747252747253,2.1057142857142854
2.6822611579991644,2.194358974358974,0.7252747252747253,2.1057142857142854
2.6824291289958637,2.194358974358974,0.7252747252747253,2.1057142857142854
2.6869813859957503,2.194358974358974,0.7252747252747253,2.1057142857142854
2.688575394000509,2.194358974358974,0.7252747252747253,2.1057142857142854
2.6924401209980715,2.194358974358974,0.7252747252747253,2.1057142857142854
2.6971085959958145,2.215311355311355,0.7002930402930403,2.0525274725274723
2.698016402995563,2.215311355311355,0.7002930402930403,2.0525274725274723
2.698933011997724,2.215311355311355,0.7002930402930403,2.0525274725274723
2.700633269996615,2.215311355311355,0.7002930402930403,2.0525274725274723
2.7050296009983867,2.215311355311355,0.7002930402930403,2.0525274725274723
2.7052996319980593,2.215311355311355,0.7002930402930403,2.0525274725274723
2.7098790890013333,2.067032967032967,1.0556776556776555,0.6189010989010989
2.7107311050058343,2.067032967032967,1.0556776556776555,0.6189010989010989
2.7123681619996205,2.067032967032967,1.0556776556776555,0.6189010989010989
2.716154195004492,2.1089377289377285,0.5802197802197803,1.9945054945054943
2.719996240004548,2.1089377289377285,0.5802197802197803,1.9945054945054943
2.7245179150049808,2.01062271062271,0.5882783882783883,1.6286446886446886
2.7248660960030975,2.01062271062271,0.5882783882783883,1.6286446886446886
2.7294255409942707,2.01062271062271,0.5882783882783883,1.6286446886446886
2.729749512000126,2.01062271062271,0.5882783882783883,1.6286446886446886
2.7343270349956583,2.01062271062271,0.5882783882783883,1.6286446886446886
2.734611477004364,2.01062271062271,0.5882783882783883,1.6286446886446886
2.7407224449998466,3.3,1.58996336996337,1.0508424908424907
2.746527253999375,2.423223443223443,0.726080586080586,1.9735531135531135
2.7528285890002735,2.423223443223443,0.726080586080586,1.9735531135531135
2.757819820995792,2.423223443223443,0.726080586080586,1.9735531135531135
2.761609907000093,2.423223443223443,0.726080586080586,1.9735531135531135
2.766284226003336,2.423223443223443,0.726080586080586,1.9735531135531135
2.76648960399325,2.423223443223443,0.726080586080586,1.9735531135531135
2.771168855004362,2.423223443223443,0.726080586080586,1.9735531135531135
2.7714081879967125,2.423223443223443,0.726080586080586,1.9735531135531135
2.7760426580061903,2.423223443223443,0.726080586080586,1.9735531135531135
2.7763344760023756,2.423223443223443,0.726080586080586,1.9735531135531135
2.780940462995204,2.423223443223443,0.726080586080586,1.9735531135531135
2.781274491993827,2.2684981684981684,0.4851282051282051,2.328937728937729
2.7858819200046128,2.2684981684981684,0.4851282051282051,2.328937728937729
2.786180755996611,2.2684981684981684,0.4851282051282051,2.328937728937729
2.7908296289970167,2.2684981684981684,0.4851282051282051,2.328937728937729
2.7911085009982344,2.2684981684981684,0.4851282051282051,2.328937728937729
2.7957332389923977,2.2233699633699633,0.4899633699633699,2.752820512820513
2.7965825779974693,2.2233699633699633,0.4899633699633699,2.752820512820513
2.7982770709932083,2.2233699633699633,0.4899633699633699,2.752820512820513
2.801622026003315,2.2233699633699633,0.4899633699633699,2.752820512820513
2.8032720110059017,2.0090109890109886,0.4198534798534798,2.3627838827838827
2.8073851310036844,2.0090109890109886,0.4198534798534798,2.3627838827838827
2.8101042049966054,2.0090109890109886,0.4198534798534798,2.3627838827838827
2.8158152060059365,2.0090109890109886,0.4198534798534798,2.3627838827838827
2.8269308199960506,2.0090109890109886,0.4198534798534798,2.3627838827838827
2.835458561006817,0.3158974358974359,0.2756043956043956,0.4810989010989011
2.845833396000671,0.3158974358974359,0.2756043956043956,0.4810989010989011
2.8519981150020612,0.3158974358974359,0.2756043956043956,0.4810989010989011
2.8554348979960196,0.3158974358974359,0.2756043956043956,0.4810989010989011
2.85563243899378,0.3158974358974359,0.2756043956043956,0.4810989010989011
2.862378039993928,0.3158974358974359,0.2756043956043956,0.4810989010989011
2.8658330509933876,0.3158974358974359,0.2756043956043956,0.4810989010989011
2.86606562200177,0.3158974358974359,0.2756043956043956,0.4810989010989011
2.871516323997639,0.3158974358974359,0.2756043956043956,0.4810989010989011
2.874114631995326,0.3158974358974359,0.2756043956043956,0.4810989010989011
2.88278663699748,0.3158974358974359,0.2756043956043956,0.4810989010989011
2.8876174979959615,0.3158974358974359,0.2756043956043956,0.4810989010989011
2.8957179309945786,0.3158974358974359,0.2756043956043956,0.4810989010989011
2.9005728519987315,0.3158974358974359,0.2756043956043956,0.4810989010989011
2.9056869549967814,0.3158974358974359,0.2756043956043956,0.4810989010989011
2.9109525969979586,0.3158974358974359,0.2756043956043956,0.4810989010989011
2.914243367005838,0.3158974358974359,0.2756043956043956,0.4810989010989011
2.915112460992532,2.1089377289377285,0.6076190476190476,2.8777289377289375
2.9167845789925195,2.1089377289377285,0.6076190476190476,2.8777289377289375
2.9218374219926773,2.1089377289377285,0.6076190476190476,2.8777289377289375
2.9262406600028044,0.718021978021978,0.21274725274725276,0.5367032967032966
2.9265610599977663,0.718021978021978,0.21274725274725276,0.5367032967032966
2.933418190004886,0.718021978021978,0.21274725274725276,0.5367032967032966
2.9373993250046624,2.1435897435897435,0.6398534798534798,2.6069597069597066
2.9421656070044264,3.3,1.8824908424908422,1.224908424908425
2.9486515570024494,3.3,1.8824908424908422,1.224908424908425
2.9526148489967454,3.3,1.8824908424908422,1.224908424908425
2.955876844993327,3.3,1.8824908424908422,1.224908424908425
2.956822259002365,3.3,1.8824908424908422,1.224908424908425
2.9586572440020973,3.3,1.8824908424908422,1.224908424908425
2.961753013994894,3.3,1.8824908424908422,1.224908424908425
2.9637598389963387,3.3,1.8824908424908422,1.224908424908425
2.9646464209945407,3.3,1.8824908424908422,1.224908424908425
2.966296541999327,3.3,1.8824908424908422,1.224908424908425
2.969468772003893,3.3,1.8824908424908422,1.224908424908425
2.971034508998855,3.3,1.8824908424908422,1.224908424908425
2.9761811810021754,3.3,1.8824908424908422,1.224908424908425
2.9797915590024786,3.3,1.8784615384615382,1.3054945054945053
2.984500799997477,3.3,1.8784615384615382,1.3054945054945053
2.9846618070005206,3.3,1.8784615384615382,1.3054945054945053
2.9903915419999976,3.3,1.8784615384615382,1.3054945054945053
2.990651831001742,3.3,1.8784615384615382,1.3054945054945053
2.998541192006087,3.3,1.8784615384615382,1.3054945054945053
3.0031648529984523,2.137948717948718,0.5576556776556777,2.5674725274725274
3.003431664998061,2.137948717948718,0.5576556776556777,2.5674725274725274
3.0081552189949434,2.137948717948718,0.5576556776556777,2.5674725274725274
3.0084063099930063,2.137948717948718,0.5576556776556777,2.5674725274725274
3.013794892001897,2.137948717948718,0.5576556776556777,2.5674725274725274
3.015481901995372,2.137948717948718,0.5576556776556777,2.5674725274725274
3.019342546002008,2.137948717948718,0.5576556776556777,2.5674725274725274
3.0248386570019647,2.137948717948718,0.5576556776556777,2.5674725274725274
3.0258221630065236,2.137948717948718,0.5576556776556777,2.5674725274725274
3.026147526994464,2.137948717948718,0.5576556776556777,2.5674725274725274
3.0325531720009167,2.137948717948718,0.5576556776556777,2.5674725274725274
3.0366022730013356,2.137948717948718,0.5576556776556777,2.5674725274725274
3.0405565969995223,2.137948717948718,0.5576556776556777,2.5674725274725274
3.0470780890027527,2.137948717948718,0.5576556776556777,2.5674725274725274
3.050313682993874,2.137948717948718,0.5576556776556777,2.5674725274725274
3.051245729002403,2.137948717948718,0.5576556776556777,2.5674725274725274
3.0528490629949374,2.137948717948718,0.5576556776556777,2.5674725274725274
3.05747369400342,2.137948717948718,0.5576556776556777,2.5674725274725274
3.0650529400008963,2.137948717948718,0.5576556776556777,2.5674725274725274
3.0697831050056266,2.137948717948718,0.5576556776556777,2.5674725274725274
3.0700461980013642,2.137948717948718,0.5576556776556777,2.5674725274725274
3.0746853500022553,2.137948717948718,0.5576556776556777,2.5674725274725274
3.074925983004505,2.137948717948718,0.5576556776556777,2.5674725274725274
3.0805172660038806,2.137948717948718,0.5576556776556777,2.5674725274725274
3.08078754300368,2.137948717948718,0.5576556776556777,2.5674725274725274
3.0854353019967675,2.137948717948718,0.5576556776556777,2.5674725274725274
3.085696251000627,2.137948717948718,0.5576556776556777,2.5674725274725274
3.0911757010035217,2.137948717948718,0.5576556776556777,2.5674725274725274
3.093142436002381,0.39487179487179486,0.3739194139194139,0.419047619047619
3.095190473002731,0.39487179487179486,0.3739194139194139,0.419047619047619
3.0969060939969495,0.39487179487179486,0.3739194139194139,0.419047619047619
3.1001518949924503,0.39487179487179486,0.3739194139194139,0.419047619047619
3.1010400899976958,0.39487179487179486,0.3739194139194139,0.419047619047619
3.1027407759975176,0.39487179487179486,0.3739194139194139,0.419047619047619
3.1066415590030374,0.39487179487179486,0.3739194139194139,0.419047619047619
3.112222162002581,0.39487179487179486,0.3739194139194139,0.419047619047619
3.112473952001892,0.39487179487179486,0.3739194139194139,0.419047619047619
3.1178124569996726,0.39487179487179486,0.3739194139194139,0.419047619047619
3.1210482830065303,0.39487179487179486,0.3739194139194139,0.419047619047619
3.121887223998783,0.39487179487179486,0.3739194139194139,0.419047619047619
3.1235106620006263,0.39487179487179486,0.3739194139194139,0.419047619047619
3.128576281000278,0.9299633699633699,0.20146520146520144,1.224908424908425
3.132570407993626,0.9299633699633699,0.20146520146520144,1.224908424908425
3.135737410004367,0.9299633699633699,0.20146520146520144,1.224908424908425
3.138180965994252,1.8816849816849814,0.9017582417582416,0.664029304029304
3.1443932239926653,1.8816849816849814,0.9017582417582416,0.664029304029304
3.1484404189977795,1.8413919413919413,0.5157509157509157,1.8897435897435895
3.1508650019968627,1.8413919413919413,0.5157509157509157,1.8897435897435895
3.151117693996639,1.8413919413919413,0.5157509157509157,1.8897435897435895
3.1558194660028676,1.8413919413919413,0.5157509157509157,1.8897435897435895
3.1560240010003326,1.8413919413919413,0.5157509157509157,1.8897435897435895
3.162646554003004,1.8413919413919413,0.5157509157509157,1.8897435897435895
3.1665349889954086,0.9726739926739927,0.17245421245421244,1.328058608058608
3.170459918997949,0.9726739926739927,0.17245421245421244,1.328058608058608
3.1743341060064267,0.9726739926739927,0.17245421245421244,1.328058608058608
3.178952271002345,0.9726739926739927,0.17245421245421244,1.328058608058608
3.1792174209986115,0.9726739926739927,0.17245421245421244,1.328058608058608
3.1839051940041827,0.9726739926739927,0.17245421245421244,1.328058608058608
3.1841639920021407,0.9758974358974358,0.2224175824175824,1.187032967032967
3.1887925379996886,0.9758974358974358,0.2224175824175824,1.187032967032967
3.189066167004057,0.523003663003663,0.3553846153846154,0.17084249084249084
3.195380221994128,0.523003663003663,0.3553846153846154,0.17084249084249084
3.1985708629945293,0.523003663003663,0.3553846153846154,0.17084249084249084
3.2003017630049726,0.523003663003663,0.3553846153846154,0.17084249084249084
3.2041738650004845,0.523003663003663,0.3553846153846154,0.17084249084249084
3.2089410009939456,0.523003663003663,0.3553846153846154,0.17084249084249084
3.209108209994156,0.523003663003663,0.3553846153846154,0.17084249084249084
3.2146748609957285,0.523003663003663,0.3553846153846154,0.17084249084249084
3.215598401002353,0.523003663003663,0.3553846153846154,0.17084249084249084
3.2172271860035835,0.523003663003663,0.3553846153846154,0.17084249084249084
3.2211700189945986,0.523003663003663,0.3553846153846154,0.17084249084249084
3.2268488139961846,0.523003663003663,0.3553846153846154,0.17084249084249084
3.2271389469970018,0.523003663003663,0.3553846153846154,0.17084249084249084
3.23356127399893,0.523003663003663,0.3553846153846154,0.17084249084249084
3.2374992270051735,0.27802197802197803,0.3046153846153846,0.16117216117216115
3.244177094005863,0.27802197802197803,0.3046153846153846,0.16117216117216115
3.2504814809944946,0.27802197802197803,0.3046153846153846,0.16117216117216115
3.253691471996717,0.10476190476190475,0.2063003663003663,0.4464468864468864
3.256008757001837,0.10476190476190475,0.2063003663003663,0.4464468864468864
3.2562613430054625,0.10476190476190475,0.2063003663003663,0.4464468864468864
3.2635515589936404,0.10476190476190475,0.2063003663003663,0.4464468864468864
3.2676356799929636,0.10476190476190475,0.2063003663003663,0.4464468864468864
3.271433881993289,0.10476190476190475,0.2063003663003663,0.4464468864468864
3.2790664049971383,2.7004395604395603,0.6736996336996337,2.5102564102564098
3.284176410001237,2.7004395604395603,0.6736996336996337,2.5102564102564098
3.2860277610016055,2.7004395604395603,0.6736996336996337,2.5102564102564098
3.288487156998599,2.7004395604395603,0.6736996336996337,2.5102564102564098
3.2887833260028856,2.7004395604395603,0.6736996336996337,2.5102564102564098
3.2950610010011587,2.7004395604395603,0.6736996336996337,2.5102564102564098
3.2982606870064046,2.7004395604395603,0.6736996336996337,2.5102564102564098
3.299918452001293,2.7004395604395603,0.6736996336996337,2.5102564102564098
3.30375950600137,2.7004395604395603,0.6736996336996337,2.5102564102564098
3.308000457996968,2.7004395604395603,0.6736996336996337,2.5102564102564098
3.310111868995591,2.7004395604395603,0.6736996336996337,2.5102564102564098
3.311499739997089,2.7004395604395603,0.6736996336996337,2.5102564102564098
3.318955298003857,2.7004395604395603,0.6736996336996337,2.5102564102564098
3.32284529399476,2.7004395604395603,0.6736996336996337,2.5102564102564098
3.3324678170029074,2.7004395604395603,0.6736996336996337,2.5102564102564098
3.337952628004132,0.6898168498168498,0.4383882783882784,0.42630036630036633
3.3383486249949783,0.6898168498168498,0.4383882783882784,0.42630036630036633
3.3468368239991833,0.6898168498168498,0.4383882783882784,0.42630036630036633
3.3509248460031813,1.0024908424908423,0.5423443223443223,0.40615384615384614
3.3539614470064407,1.0024908424908423,0.5423443223443223,0.40615384615384614
3.356598169004428,1.0024908424908423,0.5423443223443223,0.40615384615384614
3.3650908800045727,1.0024908424908423,0.5423443223443223,0.40615384615384614
3.3690913150057895,1.4046153846153846,0.3102564102564102,1.3433699633699634
3.3726362460001837,1.4046153846153846,0.3102564102564102,1.3433699633699634
3.372752181996475,1.4046153846153846,0.3102564102564102,1.3433699633699634
3.3804619000002276,1.4046153846153846,0.3102564102564102,1.3433699633699634
3.3843589030002477,1.4046153846153846,0.3102564102564102,1.3433699633699634
3.388237263003248,0.921098901098901,0.21274725274725276,1.079047619047619
3.3964527619973524,0.921098901098901,0.21274725274725276,1.079047619047619
3.402719388992409,0.0,0.1772893772893773,0.41340659340659336
3.4063324330054456,0.0,0.1772893772893773,0.41340659340659336
3.4064379049959825,0.0,0.1772893772893773,0.41340659340659336
3.4160744969994994,0.0,0.1772893772893773,0.41340659340659336
3.421656285005156,0.0,0.1772893772893773,0.41340659340659336
3.421845785996993,0.0,0.1772893772893773,0.41340659340659336
3.431434097001329,0.0,0.1772893772893773,0.41340659340659336
3.43769561299996,0.7091575091575092,0.4698168498168498,0.39487179487179486
3.443502209993312,0.7091575091575092,0.4698168498168498,0.39487179487179486
3.450990308992914,0.7091575091575092,0.4698168498168498,0.39487179487179486
3.455364841996925,0.13699633699633698,0.27882783882783885,0.4287179487179487
3.4566120189992944,0.13699633699633698,0.27882783882783885,0.4287179487179487
3.4568974300054833,0.13699633699633698,0.27882783882783885,0.4287179487179487
3.462036500000977,0.13699633699633698,0.27882783882783885,0.4287179487179487
3.4644430079933954,0.13699633699633698,0.27882783882783885,0.4287179487179487
3.470103700994514,0.13699633699633698,0.27882783882783885,0.4287179487179487
3.4717110060009873,0.2683516483516483,0.27882783882783885,0.15794871794871795
3.476123460000963,0.2683516483516483,0.27882783882783885,0.15794871794871795
3.477363953992608,0.2683516483516483,0.27882783882783885,0.15794871794871795
3.4777339410065906,0.2683516483516483,0.27882783882783885,0.15794871794871795
3.4838294999935897,0.2683516483516483,0.27882783882783885,0.15794871794871795
3.4871191769925645,1.2434432234432233,0.6793406593406592,0.5157509157509157
3.4880756289931014,1.2434432234432233,0.6793406593406592,0.5157509157509157
3.4890342300059274,1.2434432234432233,0.6793406593406592,0.5157509157509157
3.4906314160034526,1.2434432234432233,0.6793406593406592,0.5157509157509157
3.4972808489983436,1.2434432234432233,0.6793406593406592,0.5157509157509157
3.5012687989947153,0.9533333333333331,0.6116483516483516,0.5963369963369963
3.5051580349972937,1.7624175824175823,0.32073260073260074,1.7277655677655677
3.510829676000867,1.7624175824175823,0.32073260073260074,1.7277655677655677
3.5195238790038275,1.7624175824175823,0.32073260073260074,1.7277655677655677
3.5245798880059738,1.7624175824175823,0.32073260073260074,1.7277655677655677
3.5320603019936243,1.7624175824175823,0.32073260073260074,1.7277655677655677
3.535406063994742,1.7624175824175823,0.32073260073260074,1.7277655677655677
3.5357519170065643,1.7624175824175823,0.32073260073260074,1.7277655677655677
3.5406888290017378,1.7624175824175823,0.32073260073260074,1.7277655677655677
3.549377100003767,2.407106227106227,0.8743589743589744,2.166153846153846
3.5535013219923712,3.3,2.0605860805860803,1.2837362637362637
3.5558809310023207,3.3,2.0605860805860803,1.2837362637362637
3.5561053730052663,3.3,2.0605860805860803,1.2837362637362637
3.5635489319975022,3.3,2.0605860805860803,1.2837362637362637
3.5682824490068015,3.3,2.0605860805860803,1.2837362637362637
3.5685200479929335,3.3,2.0605860805860803,1.2837362637362637
3.5733008079987485,3.3,2.0605860805860803,1.2837362637362637
3.5806212040042737,1.514212454212454,0.518974358974359,2.1468131868131866
3.5850311209942447,1.514212454212454,0.518974358974359,2.1468131868131866
3.5860294589947443,1.514212454212454,0.518974358974359,2.1468131868131866
3.5863241939950967,1.514212454212454,0.518974358974359,2.1468131868131866
3.591491215993301,1.514212454212454,0.518974358974359,2.1468131868131866
3.5971015090035507,1.514212454212454,0.518974358974359,2.1468131868131866
3.597230655999738,1.514212454212454,0.518974358974359,2.1468131868131866
3.6019259530003183,2.4473992673992675,0.8123076923076923,2.5005860805860802
3.6028619860007893,2.4473992673992675,0.8123076923076923,2.5005860805860802
3.603748808003729,2.4473992673992675,0.8123076923076923,2.5005860805860802
3.605392134995782,1.0371428571428571,0.21516483516483517,1.5013186813186812
3.6119666900049197,3.3,1.9155311355311355,1.2845421245421245
3.6154674620047444,0.42630036630036633,0.365054945054945,0.42630036630036633
3.6157591869996395,2.1105494505494504,0.5979487179487178,2.5304029304029303
3.622101988992654,2.1105494505494504,0.5979487179487178,2.5304029304029303
3.6254133689944865,2.1605128205128206,0.6438827838827839,2.386959706959707
3.627110586006893,0.9871794871794871,0.5213919413919413,0.5608791208791208
3.630062030002591,0.6914285714285714,0.45692307692307693,0.4512820512820513
3.632456634004484,0.6914285714285714,0.45692307692307693,0.4512820512820513
3.6327116129978094,0.6914285714285714,0.45692307692307693,0.4512820512820513
3.6373413510009414,0.6914285714285714,0.45692307692307693,0.4512820512820513
3.637545200996101,0.6914285714285714,0.45692307692307693,0.4512820512820513
3.643977982006618,0.6914285714285714,0.45692307692307693,0.4512820512820513
3.6495013179956004,0.6914285714285714,0.45692307692307693,0.4512820512820513
3.649643640994327,0.6914285714285714,0.45692307692307693,0.4512820512820513
3.655126384997857,0.6914285714285714,0.45692307692307693,0.4512820512820513
3.65607271999761,1.7704761904761903,0.5552380952380952,2.261245421245421
3.6571481279970612,1.7704761904761903,0.5552380952380952,2.261245421245421
3.657724713004427,1.7704761904761903,0.5552380952380952,2.261245421245421
3.665102469996782,1.7704761904761903,0.5552380952380952,2.261245421245421
3.6697770150058204,1.7704761904761903,0.5552380952380952,2.261245421245421
3.676116066999384,1.7704761904761903,0.5552380952380952,2.261245421245421
3.682309707000968,1.7704761904761903,0.5552380952380952,2.261245421245421
3.6855176060053054,1.855091575091575,0.46659340659340653,2.1274725274725275
3.687260081002023,1.855091575091575,0.46659340659340653,2.1274725274725275
3.692028905992629,1.855091575091575,0.46659340659340653,2.1274725274725275
3.7012354439939372,0.012087912087912087,0.2071062271062271,0.3779487179487179
3.707805386002292,3.3,1.6850549450549448,1.4070329670329669
3.7137913619953906,3.3,1.6850549450549448,1.4070329670329669
3.7168977620021906,1.3683516483516485,0.5358974358974359,2.0017582417582416
3.7186098389938707,1.767252747252747,0.8824175824175824,0.5858608058608058
3.7228294020023895,1.767252747252747,0.8824175824175824,0.5858608058608058
3.724815583002055,1.767252747252747,0.8824175824175824,0.5858608058608058
3.7273655610042624,1.767252747252747,0.8824175824175824,0.5858608058608058
3.7324036929931026,1.767252747252747,0.8824175824175824,0.5858608058608058
3.7357387999945786,1.767252747252747,0.8824175824175824,0.5858608058608058
3.736695138999494,3.3,1.987252747252747,1.299047619047619
3.7384189080039505,3.3,1.987252747252747,1.299047619047619
3.7417249949940015,2.305567765567765,0.6672527472527472,2.5432967032967033
3.7445441119925817,2.305567765567765,0.6672527472527472,2.5432967032967033
3.7471026300045196,2.305567765567765,0.6672527472527472,2.5432967032967033
3.747222193997004,2.305567765567765,0.6672527472527472,2.5432967032967033
3.751889792998554,2.305567765567765,0.6672527472527472,2.5432967032967033
3.7521305349946488,2.305567765567765,0.6672527472527472,2.5432967032967033
3.7569898660003673,2.305567765567765,0.6672527472527472,2.5432967032967033
3.76330670400057,2.305567765567765,0.6672527472527472,2.5432967032967033
3.7692833360051736,2.305567765567765,0.6672527472527472,2.5432967032967033
3.779851236002287,0.0,0.1942124542124542,0.3706959706959707
3.786354862997541,0.0,0.1942124542124542,0.3706959706959707
3.790596103994176,0.0,0.1942124542124542,0.3706959706959707
3.7930962090031244,0.0032234432234432234,0.224029304029304,0.42952380952380953
3.8002088999928674,0.0032234432234432234,0.224029304029304,0.42952380952380953
3.8048640539927874,2.4087179487179484,0.9597802197802198,2.0887912087912084
3.8060464129957836,0.7059340659340658,0.1829304029304029,0.9654212454212454
3.813484361002338,1.5198534798534797,0.8429304029304028,0.6745054945054945
3.8174166950047947,2.2556043956043954,0.7164102564102564,2.352307692307692
3.8222074270015582,2.4586813186813186,0.9968498168498168,2.0968498168498164
3.8300575949979248,2.4586813186813186,0.9968498168498168,2.0968498168498164
3.834596126995166,0.6841758241758242,0.5004395604395604,0.4085714285714286
3.836232100002235,1.9896703296703295,0.6164835164835165,2.246739926739927
3.840144171001157,1.9896703296703295,0.6164835164835165,2.246739926739927
3.8461972950026393,2.1766300366300366,0.6503296703296703,2.2056410256410253
3.849369489995297,2.1766300366300366,0.6503296703296703,2.2056410256410253
3.851133834992652,0.04996336996336996,0.23208791208791207,0.3698901098901099
3.8543032110028435,0.04996336996336996,0.23208791208791207,0.3698901098901099
3.8561262370058103,0.04996336996336996,0.23208791208791207,0.3698901098901099
3.8587027250032406,0.04996336996336996,0.23208791208791207,0.3698901098901099
3.8658801910059992,0.04996336996336996,0.23208791208791207,0.3698901098901099
3.8704799779952737,1.0580952380952382,0.2361172161172161,1.3562637362637362
3.8707867140037706,0.02336996336996337,0.2208058608058608,0.43435897435897436
3.8779150680056773,0.02336996336996337,0.2208058608058608,0.43435897435897436
3.8828282009926625,0.02336996336996337,0.2208058608058608,0.43435897435897436
3.887625510004,0.02336996336996337,0.2208058608058608,0.43435897435897436
3.896856588005903,0.02336996336996337,0.2208058608058608,0.43435897435897436
3.9012480230012443,0.02336996336996337,0.2208058608058608,0.43435897435897436
3.902335545993992,0.02336996336996337,0.2208058608058608,0.43435897435897436
3.9026104049989954,0.02336996336996337,0.2208058608058608,0.43435897435897436
3.909884388005594,1.0435897435897434,0.19824175824175824,1.3683516483516485
3.9162645890028216,0.7518681318681318,0.5028571428571429,0.4520879120879121
3.9205476460047066,0.7518681318681318,0.5028571428571429,0.4520879120879121
3.9220602929999586,0.7518681318681318,0.5028571428571429,0.4520879120879121
3.931523096995079,0.7518681318681318,0.5028571428571429,0.4520879120879121
3.938589522993425,0.7518681318681318,0.5028571428571429,0.4520879120879121
3.946428070004913,0.7518681318681318,0.5028571428571429,0.4520879120879121
3.9500075149990153,0.7518681318681318,0.5028571428571429,0.4520879120879121
3.950119735003682,0.7518681318681318,0.5028571428571429,0.4520879120879121
3.9555066989996703,0.7518681318681318,0.5028571428571429,0.4520879120879121
3.9580765290011186,0.7518681318681318,0.5028571428571429,0.4520879120879121
3.9664969089935767,0.7518681318681318,0.5028571428571429,0.4520879120879121
3.973354133006069,0.7518681318681318,0.5028571428571429,0.4520879120879121
3.9803397729992867,0.2715750915750916,0.3142857142857142,0.30622710622710625
3.9841899489983916,0.2715750915750916,0.3142857142857142,0.30622710622710625
3.989010278994101,0.2715750915750916,0.3142857142857142,0.30622710622710625
3.9891937539941864,0.4448351648351648,0.3771428571428571,0.24901098901098898
3.997150594004779,0.4448351648351648,0.3771428571428571,0.24901098901098898
4.002593703000457,2.9663736263736262,1.3248351648351648,0.8252014652014652
4.004242402996169,2.9663736263736262,1.3248351648351648,0.8252014652014652
4.010997227000189,2.9663736263736262,1.3248351648351648,0.8252014652014652
4.014424255001359,2.9663736263736262,1.3248351648351648,0.8252014652014652
4.014672281002277,2.9663736263736262,1.3248351648351648,0.8252014652014652
4.019963615006418,2.9663736263736262,1.3248351648351648,0.8252014652014652
4.02231359599682,2.9663736263736262,1.3248351648351648,0.8252014652014652
4.022460973006673,2.9663736263736262,1.3248351648351648,0.8252014652014652
4.031271215004381,2.9663736263736262,1.3248351648351648,0.8252014652014652
4.035576548994868,2.2217582417582418,0.6745054945054945,2.6827106227106228
4.036559233005391,2.2217582417582418,0.6745054945054945,2.6827106227106228
4.037683253001887,2.2217582417582418,0.6745054945054945,2.6827106227106228
4.038000735992682,2.2217582417582418,0.6745054945054945,2.6827106227106228
4.0445744339958765,2.2217582417582418,0.6745054945054945,2.6827106227106228
4.049360004006303,2.2217582417582418,0.6745054945054945,2.6827106227106228
4.058240215992555,0.1643956043956044,0.19340659340659339,0.606007326007326
4.066612502996577,2.501391941391941,0.8622710622710623,2.2958974358974356
4.072812338999938,2.501391941391941,0.8622710622710623,2.2958974358974356
4.078390761002083,2.501391941391941,0.8622710622710623,2.2958974358974356
4.07853499900375,2.501391941391941,0.8622710622710623,2.2958974358974356
4.0833471859950805,2.501391941391941,0.8622710622710623,2.2958974358974356
4.089647625994985,2.501391941391941,0.8622710622710623,2.2958974358974356
4.09537187499518,2.501391941391941,0.8622710622710623,2.2958974358974356
4.100625628998387,2.501391941391941,0.8622710622710623,2.2958974358974356
4.103020551003283,2.501391941391941,0.8622710622710623,2.2958974358974356
4.1031287660007365,1.0903296703296703,0.23047619047619047,1.315970695970696
4.10885354099446,0.9791208791208791,0.18695970695970696,1.1926739926739927
4.109166930997162,2.3966300366300364,1.1838095238095236,0.7567032967032966
4.114139505996718,2.3966300366300364,1.1838095238095236,0.7567032967032966
4.119218003004789,2.3966300366300364,1.1838095238095236,0.7567032967032966
4.125590846000705,2.257216117216117,0.5995604395604395,2.461904761904762
4.130003486992791,2.257216117216117,0.5995604395604395,2.461904761904762
4.130300563992932,0.7631501831501831,0.4810989010989011,0.4585347985347985
4.136400196002796,0.7631501831501831,0.4810989010989011,0.4585347985347985
4.140390928005218,0.7631501831501831,0.4810989010989011,0.4585347985347985
4.145590111002093,0.7631501831501831,0.4810989010989011,0.4585347985347985
4.148245710006449,0.7631501831501831,0.4810989010989011,0.4585347985347985
4.154116288002115,0.7631501831501831,0.4810989010989011,0.4585347985347985
4.154222219993244,0.7631501831501831,0.4810989010989011,0.4585347985347985
4.160576182999648,0.7631501831501831,0.4810989010989011,0.4585347985347985
4.164766874993802,0.7631501831501831,0.4810989010989011,0.4585347985347985
4.167000333996839,0.7631501831501831,0.4810989010989011,0.4585347985347985
4.167340362997493,0.7631501831501831,0.4810989010989011,0.4585347985347985
4.1759888240048895,0.5109157509157509,0.4005128205128205,0.3706959706959707
4.180999799995334,0.5109157509157509,0.4005128205128205,0.3706959706959707
4.1855233590031276,0.5109157509157509,0.4005128205128205,0.3706959706959707
4.191526317998068,0.5109157509157509,0.4005128205128205,0.3706959706959707
4.198917008005083,0.5109157509157509,0.4005128205128205,0.3706959706959707
4.203593287005788,1.8913553113553112,0.5987545787545787,2.1806593406593406
4.203754136993666,1.8913553113553112,0.5987545787545787,2.1806593406593406
4.208633303001989,1.8913553113553112,0.5987545787545787,2.1806593406593406
4.2088741839979775,1.8913553113553112,0.5987545787545787,2.1806593406593406
4.214187443998526,1.8913553113553112,0.5987545787545787,2.1806593406593406
4.215884029996232,1.8913553113553112,0.5987545787545787,2.1806593406593406
4.219022888006293,1.8913553113553112,0.5987545787545787,2.1806593406593406
4.220707757995115,1.8913553113553112,0.5987545787545787,2.1806593406593406
4.224642083005165,1.8913553113553112,0.5987545787545787,2.1806593406593406
4.2311942980013555,1.8913553113553112,0.5987545787545787,2.1806593406593406
4.236759261999396,1.8913553113553112,0.5987545787545787,2.1806593406593406
4.237025497001014,2.049304029304029,0.6422710622710622,2.220952380952381
4.245293515996309,2.049304029304029,0.6422710622710622,2.220952380952381
4.249283006996848,2.049304029304029,0.6422710622710622,2.220952380952381
4.253209604998119,0.26190476190476186,0.29736263736263735,0.2506227106227106
4.258713108996744,0.26190476190476186,0.29736263736263735,0.2506227106227106
4.261318787001073,2.0815384615384613,1.0178021978021978,1.1886446886446886
4.265603498002747,1.6737728937728935,0.4383882783882784,1.6608791208791207
4.267285252004513,1.6737728937728935,0.4383882783882784,1.6608791208791207
4.272160203996464,1.6737728937728935,0.4383882783882784,1.6608791208791207
4.281682436994743,0.7446153846153846,0.34087912087912087,1.1580219780219778
4.289485942994361,0.7446153846153846,0.34087912087912087,1.1580219780219778
4.294975940996665,0.9122344322344322,0.5504029304029303,0.527032967032967
4.295295503994566,0.9122344322344322,0.5504029304029303,0.527032967032967
4.3033053090039175,0.9122344322344322,0.5504029304029303,0.527032967032967
4.3101529459963785,0.9122344322344322,0.5504029304029303,0.527032967032967
4.313984680993599,0.9122344322344322,0.5504029304029303,0.527032967032967
4.317802560006385,0.9122344322344322,0.5504029304029303,0.527032967032967
4.323521575002815,0.9122344322344322,0.5504029304029303,0.527032967032967
4.32384750500205,0.9122344322344322,0.5504029304029303,0.527032967032967
4.332079799001804,0.9122344322344322,0.5504029304029303,0.527032967032967
4.335988249993534,0.9122344322344322,0.5504029304029303,0.527032967032967
4.340024792996701,0.9122344322344322,0.5504029304029303,0.527032967032967
4.345969570000307,0.9122344322344322,0.5504029304029303,0.527032967032967
4.349306449003052,0.850989010989011,0.5375091575091575,0.49157509157509155
4.350160233996576,0.016923076923076923,0.18937728937728937,0.48432234432234433
4.3518043130025035,0.016923076923076923,0.18937728937728937,0.48432234432234433
4.35911369099631,0.016923076923076923,0.18937728937728937,0.48432234432234433
4.364911773998756,0.016923076923076923,0.18937728937728937,0.48432234432234433
4.3711728130001575,0.016923076923076923,0.18937728937728937,0.48432234432234433
4.375247249001404,0.016923076923076923,0.18937728937728937,0.48432234432234433
4.379181419004453,0.016923076923076923,0.18937728937728937,0.48432234432234433
4.381647026006249,0.016923076923076923,0.18937728937728937,0.48432234432234433
4.38724920200184,0.016923076923076923,0.18937728937728937,0.48432234432234433
4.3882982740033185,0.6648351648351648,0.49882783882783877,0.4391941391941392
4.388538868006435,0.6648351648351648,0.49882783882783877,0.4391941391941392
4.396620234998409,0.6648351648351648,0.49882783882783877,0.4391941391941392
4.403183483998873,0.6648351648351648,0.49882783882783877,0.4391941391941392
4.407229638003628,0.805054945054945,0.195018315018315,0.7164102564102564
4.411252043995773,1.2982417582417582,0.713992673992674,0.5520146520146519
4.413690757006407,1.2982417582417582,0.713992673992674,0.5520146520146519
4.419460042001447,2.2032234432234428,0.7204395604395604,2.477216117216117
4.419611336998059,2.2032234432234428,0.7204395604395604,2.477216117216117
4.4262232829933055,2.2032234432234428,0.7204395604395604,2.477216117216117
4.429543581994949,2.2032234432234428,0.7204395604395604,2.477216117216117
4.430443410994485,2.2032234432234428,0.7204395604395604,2.477216117216117
4.431545732004452,2.2032234432234428,0.7204395604395604,2.477216117216117
4.431872004002798,2.2032234432234428,0.7204395604395604,2.477216117216117
4.436594183993293,2.2032234432234428,0.7204395604395604,2.477216117216117
4.4448522530001355,2.2032234432234428,0.7204395604395604,2.477216117216117
4.4490413239982445,2.2032234432234428,0.7204395604395604,2.477216117216117
4.450708492004196,2.2032234432234428,0.7204395604395604,2.477216117216117
4.454670944993268,2.2032234432234428,0.7204395604395604,2.477216117216117
4.4621128129947465,2.2032234432234428,0.7204395604395604,2.477216117216117
4.46817821500008,2.2362637362637363,0.6736996336996337,2.2886446886446885
4.473190531993168,3.3,2.004175824175824,1.2337728937728938
4.479799738997826,3.3,2.004175824175824,1.2337728937728938
4.483137058006832,0.8002197802197801,0.4657875457875458,1.1346520146520145
4.483427632992971,0.8002197802197801,0.4657875457875458,1.1346520146520145
4.489524698001333,0.9525274725274724,0.1772893772893773,1.2410256410256408
4.497855013993103,0.9525274725274724,0.1772893772893773,1.2410256410256408
4.507096275003278,1.153186813186813,0.5181684981684981,1.6568498168498167
4.517630724993069,3.3,2.013846153846154,1.1338461538461537
4.525801926996792,3.3,2.013846153846154,1.1338461538461537
4.531073731006472,3.3,2.013846153846154,1.1338461538461537
4.533100512999226,3.3,2.013846153846154,1.1338461538461537
4.534381328994641,3.3,2.013846153846154,1.1338461538461537
4.54311136600154,3.3,2.013846153846154,1.1338461538461537
4.552323005002108,3.3,2.013846153846154,1.1338461538461537
4.560495786994579,0.06849816849816849,0.2627106227106227,0.5012454212454212
4.566682157004834,2.2394871794871793,0.7043223443223443,2.269304029304029
4.572390037996229,0.9855677655677655,0.1958241758241758,1.3578754578754577
4.583634480994078,0.9855677655677655,0.1958241758241758,1.3578754578754577
4.589109212000039,0.6938461538461538,0.38036630036630037,0.5036630036630036
4.592742156994063,0.6938461538461538,0.38036630036630037,0.5036630036630036
4.5979286240035435,0.6938461538461538,0.38036630036630037,0.5036630036630036
4.601224965997972,0.6938461538461538,0.38036630036630037,0.5036630036630036
4.60153465399344,0.6938461538461538,0.38036630036630037,0.5036630036630036
4.609490836999612,0.6938461538461538,0.38036630036630037,0.5036630036630036
4.617375344998436,3.3,1.9759706959706957,1.2378021978021978
4.6219562939950265,2.449010989010989,0.7002930402930403,2.8946520146520145
4.622204643004807,0.9194871794871795,0.22886446886446887,0.8155311355311355
4.632039625998004,0.9194871794871795,0.22886446886446887,0.8155311355311355
4.642203151001013,0.9194871794871795,0.22886446886446887,0.8155311355311355
4.651723218004918,2.489304029304029,1.0435897435897434,2.1065201465201464
4.660510575995431,2.489304029304029,1.0435897435897434,2.1065201465201464
4.664989298005821,3.3,1.913919413919414,1.5126007326007325
4.665903193003032,3.3,1.913919413919414,1.5126007326007325
4.6675985229958314,3.3,1.913919413919414,1.5126007326007325
4.673708336005802,3.3,1.913919413919414,1.5126007326007325
4.678814804996364,3.3,1.913919413919414,1.5126007326007325
4.680839516004198,3.3,1.913919413919414,1.5126007326007325
4.681755476005492,3.3,1.913919413919414,1.5126007326007325
4.683416201005457,0.7019047619047618,0.19340659340659339,0.5367032967032966
4.686649878000026,0.7019047619047618,0.19340659340659339,0.5367032967032966
4.688385178000317,0.618095238095238,0.49076923076923074,0.4416117216117216
4.694718505998026,0.618095238095238,0.49076923076923074,0.4416117216117216
4.699604865003494,0.772014652014652,0.39890109890109887,1.1153113553113554
4.7035280559939565,0.772014652014652,0.39890109890109887,1.1153113553113554
4.708152776001953,0.772014652014652,0.39890109890109887,1.1153113553113554
4.708414577005897,0.381978021978022,0.3747252747252747,0.42468864468864465
4.713406854993082,0.381978021978022,0.3747252747252747,0.42468864468864465
4.721069220002391,0.381978021978022,0.3747252747252747,0.42468864468864465
4.729732599997078,0.381978021978022,0.3747252747252747,0.42468864468864465
4.736941783005022,0.381978021978022,0.3747252747252747,0.42468864468864465
4.742481080000289,0.381978021978022,0.3747252747252747,0.42468864468864465
4.742845529995975,0.381978021978022,0.3747252747252747,0.42468864468864465
4.752426931998343,0.381978021978022,0.3747252747252747,0.42468864468864465
4.762603597002453,0.381978021978022,0.3747252747252747,0.42468864468864465
4.769673224000144,0.381978021978022,0.3747252747252747,0.42468864468864465
4.776796017002198,0.6801465201465201,0.48754578754578753,0.4553113553113553
4.781387919996632,0.6801465201465201,0.48754578754578753,0.4553113553113553
4.786907653993694,0.6801465201465201,0.48754578754578753,0.4553113553113553
4.788556811006856,0.6801465201465201,0.48754578754578753,0.4553113553113553
4.794608559997869,0.6801465201465201,0.48754578754578753,0.4553113553113553
4.798072125006001,0.6801465201465201,0.48754578754578753,0.4553113553113553
4.798233024994261,3.3,1.9936996336996335,1.3264468864468864
4.803933250994305,3.3,1.9936996336996335,1.3264468864468864
4.804060270005721,3.3,1.9936996336996335,1.3264468864468864
4.812224423003499,3.3,1.9936996336996335,1.3264468864468864
4.817418346996419,0.20307692307692307,0.3021978021978022,0.3852014652014652
4.818908660992747,0.20307692307692307,0.3021978021978022,0.3852014652014652
4.8251289629988605,0.20307692307692307,0.3021978021978022,0.3852014652014652
4.8300315819942625,1.1386813186813185,0.6229304029304029,0.4802930402930403
4.833187887998065,1.7180952380952381,0.6229304029304029,1.7124542124542126
4.834103410001262,1.7180952380952381,0.6229304029304029,1.7124542124542126
4.8358880059968214,1.7180952380952381,0.6229304029304029,1.7124542124542126
4.840457244994468,1.7180952380952381,0.6229304029304029,1.7124542124542126
4.849243970995303,2.484468864468864,0.9597802197802198,2.0589743589743588
4.854918216005899,1.0605128205128205,0.6108424908424909,0.4625641025641025
4.855750615999568,1.0605128205128205,0.6108424908424909,0.4625641025641025
4.858108062995598,1.0605128205128205,0.6108424908424909,0.4625641025641025
4.8583214770042105,1.0605128205128205,0.6108424908424909,0.4625641025641025
4.864903333000257,1.0605128205128205,0.6108424908424909,0.4625641025641025
4.868823482000153,0.9984615384615383,0.224029304029304,1.3095238095238093
4.872774278992438,0.9984615384615383,0.224029304029304,1.3095238095238093
4.8781623050017515,0.9984615384615383,0.224029304029304,1.3095238095238093
4.879092905001016,0.9984615384615383,0.224029304029304,1.3095238095238093
4.880016947994591,0.9984615384615383,0.224029304029304,1.3095238095238093
4.88096802700602,0.9984615384615383,0.224029304029304,1.3095238095238093
4.881925773006515,0.9984615384615383,0.224029304029304,1.3095238095238093
4.883593634003773,0.9984615384615383,0.224029304029304,1.3095238095238093
4.8869347120053135,0.9984615384615383,0.224029304029304,1.3095238095238093
4.887791158005712,0.9984615384615383,0.224029304029304,1.3095238095238093
4.889519593998557,0.9984615384615383,0.224029304029304,1.3095238095238093
4.892468359001214,0.9984615384615383,0.224029304029304,1.3095238095238093
4.895785639004316,0.9984615384615383,0.224029304029304,1.3095238095238093
4.896707191001042,0.9984615384615383,0.224029304029304,1.3095238095238093
4.898365044005914,0.9984615384615383,0.224029304029304,1.3095238095238093
4.90153289900627,0.9984615384615383,0.224029304029304,1.3095238095238093
4.9042580670065945,0.9984615384615383,0.224029304029304,1.3095238095238093
4.90769668899884,0.9984615384615383,0.224029304029304,1.3095238095238093
4.908007428995916,0.9984615384615383,0.224029304029304,1.3095238095238093
4.914199452003231,0.11362637362637362,0.26593406593406593,0.33282051282051284
4.91816532399389,0.11362637362637362,0.26593406593406593,0.33282051282051284
4.922007739995024,0.11362637362637362,0.26593406593406593,0.33282051282051284
4.928339185993536,0.11362637362637362,0.26593406593406593,0.33282051282051284
4.933249798006727,3.3,1.8752380952380951,1.2184615384615385
4.938810299994657,1.8671794871794871,0.6261538461538461,2.075897435897436
4.946598021997488,1.8671794871794871,0.6261538461538461,2.075897435897436
4.95255746699695,1.834945054945055,0.4351648351648352,2.0114285714285716
4.958951427004649,1.834945054945055,0.4351648351648352,2.0114285714285716
4.965123742993455,1.834945054945055,0.4351648351648352,2.0114285714285716
4.970739333002712,1.834945054945055,0.4351648351648352,2.0114285714285716
4.979960509997909,2.0557509157509157,0.755091575091575,1.9896703296703295
4.985726465994958,2.0557509157509157,0.755091575091575,1.9896703296703295
4.985919800994452,2.0557509157509157,0.755091575091575,1.9896703296703295
4.992560005994164,2.0557509157509157,0.755091575091575,1.9896703296703295
4.9988033050030936,2.0557509157509157,0.755091575091575,1.9896703296703295
5.004604365996784,2.0557509157509157,0.755091575091575,1.9896703296703295
5.011521702996106,0.8872527472527472,0.19824175824175824,1.1443223443223443
5.014918849992682,0.0,0.190989010989011,0.4561172161172161
5.015192266000668,0.0,0.190989010989011,0.4561172161172161
5.0209524870006135,0.0,0.190989010989011,0.4561172161172161
5.021079658006784,0.0,0.190989010989011,0.4561172161172161
5.028101304997108,1.041978021978022,0.28205128205128205,0.8711355311355311
5.032444821001263,1.041978021978022,0.28205128205128205,0.8711355311355311
5.033920579997357,1.041978021978022,0.28205128205128205,0.8711355311355311
5.04213962200447,1.041978021978022,0.28205128205128205,0.8711355311355311
5.049026908003725,2.4957509157509157,1.0468131868131867,1.9469597069597069
5.053733399996418,2.4957509157509157,1.0468131868131867,1.9469597069597069
5.0609244810038945,2.4957509157509157,1.0468131868131867,1.9469597069597069
5.068801201006863,3.3,1.8849084249084247,1.1725274725274726
5.076908992006793,3.3,1.8849084249084247,1.1725274725274726
5.081422813993413,1.016996336996337,0.44402930402930396,1.3095238095238093
5.0816652920038905,1.016996336996337,0.44402930402930396,1.3095238095238093
5.087597699006437,1.016996336996337,0.44402930402930396,1.3095238095238093
5.094756304999464,1.016996336996337,0.44402930402930396,1.3095238095238093
5.099254229993676,1.016996336996337,0.44402930402930396,1.3095238095238093
5.099509142994066,2.48043956043956,1.0411721611721612,1.8115750915750917
5.104241572000319,2.48043956043956,1.0411721611721612,1.8115750915750917
5.1045505960064474,2.48043956043956,1.0411721611721612,1.8115750915750917
5.109237380995182,2.48043956043956,1.0411721611721612,1.8115750915750917
5.1093978290009545,0.04351648351648352,0.2715750915750916,0.31347985347985347
5.1140820370055735,0.04351648351648352,0.2715750915750916,0.31347985347985347
5.114314268997987,0.04351648351648352,0.2715750915750916,0.31347985347985347
5.1200425069982884,0.04351648351648352,0.2715750915750916,0.31347985347985347
5.12101366299612,2.5199267399267398,0.6728937728937728,2.681904761904762
5.122013657994103,2.5199267399267398,0.6728937728937728,2.681904761904762
5.122940114000812,2.5199267399267398,0.6728937728937728,2.681904761904762
5.123837645995081,2.5199267399267398,0.6728937728937728,2.681904761904762
5.125634323005215,2.5199267399267398,0.6728937728937728,2.681904761904762
5.129100346995983,2.5199267399267398,0.6728937728937728,2.681904761904762
5.129245207004715,0.24739926739926738,0.31347985347985347,0.29333333333333333
5.134617820003768,0.24739926739926738,0.31347985347985347,0.29333333333333333
5.136998579997453,0.24739926739926738,0.31347985347985347,0.29333333333333333
5.1372390530013945,0.24739926739926738,0.31347985347985347,0.29333333333333333
5.142309090006165,0.24739926739926738,0.31347985347985347,0.29333333333333333
5.147212608993868,0.7164102564102564,0.18534798534798536,0.5383150183150183
5.152800377996755,0.7164102564102564,0.18534798534798536,0.5383150183150183
5.154401894993498,0.7164102564102564,0.18534798534798536,0.5383150183150183
5.158580378993065,0.7164102564102564,0.18534798534798536,0.5383150183150183
5.160421919004875,2.0573626373626372,0.6084249084249085,2.037216117216117
5.162856884999201,2.0573626373626372,0.6084249084249085,2.037216117216117
5.163078643003246,2.0573626373626372,0.6084249084249085,2.037216117216117
5.167713980001281,2.0573626373626372,0.6084249084249085,2.037216117216117
5.168429216006189,2.0573626373626372,0.6084249084249085,2.037216117216117
5.17065081599867,2.0573626373626372,0.6084249084249085,2.037216117216117
5.171006902004592,2.0573626373626372,0.6084249084249085,2.037216117216117
5.178562842993415,2.621465201465201,0.8147252747252747,2.6673992673992672
5.182599420004408,2.621465201465201,0.8147252747252747,2.6673992673992672
5.186595987994224,2.621465201465201,0.8147252747252747,2.6673992673992672
5.189796317994478,0.9823443223443222,0.6003663003663003,0.49721611721611714
5.192272307001986,0.39003663003663,0.2635164835164835,0.8235897435897436
5.197673200003919,2.0057875457875456,0.6761172161172161,2.071062271062271
5.199337262994959,2.0057875457875456,0.6761172161172161,2.071062271062271
5.2032186959986575,2.0057875457875456,0.6761172161172161,2.071062271062271
5.2070905750006204,0.9791208791208791,0.21677655677655677,1.199120879120879
5.211714894001489,0.9791208791208791,0.21677655677655677,1.199120879120879
5.2120732920011505,2.545714285714286,0.7615384615384615,2.797142857142857
5.218145295002614,2.545714285714286,0.7615384615384615,2.797142857142857
5.225080164003884,2.4554578754578755,0.9823443223443222,2.0347985347985347
5.229308772002696,2.4554578754578755,0.9823443223443222,2.0347985347985347
5.232009704006487,2.4554578754578755,0.9823443223443222,2.0347985347985347
5.2375865320063895,2.4554578754578755,0.9823443223443222,2.0347985347985347
5.244798729996546,2.4554578754578755,0.9823443223443222,2.0347985347985347
5.251807613996789,2.4554578754578755,0.9823443223443222,2.0347985347985347
5.258167013002094,2.4554578754578755,0.9823443223443222,2.0347985347985347
5.263062476005871,3.3,2.0944322344322344,1.2998534798534798
5.2707734370051185,3.3,2.0944322344322344,1.2998534798534798
5.276240303996019,3.3,2.0944322344322344,1.2998534798534798
5.276356255999417,3.3,2.0944322344322344,1.2998534798534798
5.28097279999929,3.3,2.0944322344322344,1.2998534798534798
5.281864399992628,3.3,2.0944322344322344,1.2998534798534798
5.283478154000477,3.3,2.0944322344322344,1.2998534798534798
5.287281308992533,3.3,2.0944322344322344,1.2998534798534798
5.291906097001629,3.3,2.0944322344322344,1.2998534798534798
5.292104018997634,3.3,2.0944322344322344,1.2998534798534798
5.296714741998585,3.3,2.0944322344322344,1.2998534798534798
5.2969824519968824,3.3,2.0944322344322344,1.2998534798534798
5.301673523004865,3.3,2.0944322344322344,1.2998534798534798
5.30189108599734,3.3,2.0944322344322344,1.2998534798534798
5.30645431400626,3.3,2.0944322344322344,1.2998534798534798
5.306753031996777,0.838095238095238,0.195018315018315,1.0258608058608059
5.311653301992919,0.838095238095238,0.195018315018315,1.0258608058608059
5.316591423004866,0.838095238095238,0.195018315018315,1.0258608058608059
5.321195850003278,0.838095238095238,0.195018315018315,1.0258608058608059
5.321335208005621,2.3378021978021977,0.6736996336996337,2.3216849816849816
5.32616164299543,2.3378021978021977,0.6736996336996337,2.3216849816849816
5.326304610003717,2.3378021978021977,0.6736996336996337,2.3216849816849816
5.331037205993198,2.3378021978021977,0.6736996336996337,2.3216849816849816
5.33122214100149,0.2498168498168498,0.3312087912087912,0.303003663003663
5.337817524006823,0.2498168498168498,0.3312087912087912,0.303003663003663
5.3456317450036295,3.3,1.6093040293040293,1.0363369963369962
5.350878545999876,3.3,1.6093040293040293,1.0363369963369962
5.35209171299357,3.3,1.6093040293040293,1.0363369963369962
5.352257150996593,3.3,1.6093040293040293,1.0363369963369962
5.361813295006868,3.3,1.6093040293040293,1.0363369963369962
5.365778453997336,3.3,1.6093040293040293,1.0363369963369962
5.368946275004419,3.3,1.6093040293040293,1.0363369963369962
5.370810275999247,3.3,1.6093040293040293,1.0363369963369962
5.373286246001953,3.3,1.6093040293040293,1.0363369963369962
5.37971095800458,3.3,1.6093040293040293,1.0363369963369962
5.382981093003764,2.5344322344322343,1.012161172161172,2.117802197802198
5.3839229729928775,2.5344322344322343,1.012161172161172,2.117802197802198
5.385751786001492,2.5344322344322343,1.012161172161172,2.117802197802198
5.387444969994249,2.5344322344322343,1.012161172161172,2.117802197802198
5.391548337996937,2.5344322344322343,1.012161172161172,2.117802197802198
5.395679727997049,0.03142857142857143,0.24659340659340656,0.46095238095238095
5.397958272005781,2.7036630036630034,0.7583150183150182,2.8575824175824174
5.398155742004747,2.7036630036630034,0.7583150183150182,2.8575824175824174
5.4053603560023475,2.7036630036630034,0.7583150183150182,2.8575824175824174
5.412973049998982,1.0822710622710623,0.22564102564102564,1.444102564102564
5.417654352000682,1.0822710622710623,0.22564102564102564,1.444102564102564
5.417761221004184,1.0822710622710623,0.22564102564102564,1.444102564102564
5.4225132660067175,1.0822710622710623,0.22564102564102564,1.444102564102564
5.422646860999521,1.0822710622710623,0.22564102564102564,1.444102564102564
5.432609651994426,1.0822710622710623,0.22564102564102564,1.444102564102564
5.437870273002773,1.0822710622710623,0.22564102564102564,1.444102564102564
5.441594792995602,1.0822710622710623,0.22564102564102564,1.444102564102564
5.446839602998807,1.0822710622710623,0.22564102564102564,1.444102564102564
5.448479832004523,1.0822710622710623,0.22564102564102564,1.444102564102564
5.455570061996696,1.0822710622710623,0.22564102564102564,1.444102564102564
5.46111912500055,1.0822710622710623,0.22564102564102564,1.444102564102564
5.467196576006245,1.0822710622710623,0.22564102564102564,1.444102564102564
5.4723928430030355,1.0822710622710623,0.22564102564102564,1.444102564102564
5.477196812993498,2.242710622710623,0.6189010989010989,2.573919413919414
5.481157050002366,2.242710622710623,0.6189010989010989,2.573919413919414
5.485041702995659,2.242710622710623,0.6189010989010989,2.573919413919414
5.489743254001951,2.242710622710623,0.6189010989010989,2.573919413919414
5.4899507539957995,2.242710622710623,0.6189010989010989,2.573919413919414
5.495398409999325,2.242710622710623,0.6189010989010989,2.573919413919414
5.496305641994695,2.2088644688644687,0.6745054945054945,2.4989743589743587
5.497921704998589,2.2088644688644687,0.6745054945054945,2.4989743589743587
5.5017186740005855,2.2088644688644687,0.6745054945054945,2.4989743589743587
5.507430187994032,2.2088644688644687,0.6745054945054945,2.4989743589743587
5.5076544280018425,3.3,2.0581684981684982,1.2652014652014651
5.513830395997502,3.3,2.0581684981684982,1.2652014652014651
5.517757373992936,3.3,2.0581684981684982,1.2652014652014651
5.521644734006259,3.3,2.0581684981684982,1.2652014652014651
5.527406541994424,3.3,2.0581684981684982,1.2652014652014651
5.532994408000377,3.3,2.1137728937728935,1.2627838827838826
5.534571943993797,3.3,2.1137728937728935,1.2627838827838826
5.538447048005764,3.3,2.1137728937728935,1.2627838827838826
5.542645868001273,3.3,2.1137728937728935,1.2627838827838826
5.545439761001035,3.3,2.1137728937728935,1.2627838827838826
5.548655259000952,3.3,2.1137728937728935,1.2627838827838826
5.549614792995271,3.3,2.1137728937728935,1.2627838827838826
5.551248805000796,3.3,2.1137728937728935,1.2627838827838826
5.554419952997705,3.3,2.1137728937728935,1.2627838827838826
5.556060667993734,1.3063003663003663,0.8308424908424907,0.5318681318681319
5.561727392996545,1.3063003663003663,0.8308424908424907,0.5318681318681319
5.56743412099604,2.5352380952380953,0.7792673992673992,2.3216849816849816
5.567637942003785,2.5352380952380953,0.7792673992673992,2.3216849816849816
5.57383651699638,2.5352380952380953,0.7792673992673992,2.3216849816849816
5.578073958997265,1.2998534798534798,0.4802930402930403,1.6431501831501831
5.58055420499295,1.2998534798534798,0.4802930402930403,1.6431501831501831
5.58591293200152,1.2998534798534798,0.4802930402930403,1.6431501831501831
5.5890438170026755,1.2998534798534798,0.4802930402930403,1.6431501831501831
5.590858145005768,1.2998534798534798,0.4802930402930403,1.6431501831501831
5.594164772002841,1.2998534798534798,0.4802930402930403,1.6431501831501831
5.59448653999425,1.2998534798534798,0.4802930402930403,1.6431501831501831
5.599565529002575,1.2998534798534798,0.4802930402930403,1.6431501831501831
5.60349371600023,1.2998534798534798,0.4802930402930403,1.6431501831501831
5.606683449994307,0.9033699633699634,0.16842490842490843,1.1427106227106225
5.609063418000005,0.9033699633699634,0.16842490842490843,1.1427106227106225
5.609185534005519,0.9033699633699634,0.16842490842490843,1.1427106227106225
5.615183892994537,0.9033699633699634,0.16842490842490843,1.1427106227106225
5.619124575998285,2.3764835164835163,0.8308424908424907,2.436117216117216
5.622337448003236,2.406300366300366,0.971062271062271,1.8905494505494502
5.625005341003998,2.406300366300366,0.971062271062271,1.8905494505494502
5.630306260994985,2.406300366300366,0.971062271062271,1.8905494505494502
5.631206382997334,0.14263736263736262,0.307032967032967,0.3384615384615384
5.6330385799956275,0.14263736263736262,0.307032967032967,0.3384615384615384
5.636132900006487,0.14263736263736262,0.307032967032967,0.3384615384615384
5.637071796998498,3.3,1.8567032967032966,1.1547985347985346
5.638019905003603,3.3,1.8567032967032966,1.1547985347985346
5.639826896003797,3.3,1.8567032967032966,1.1547985347985346
5.645402793001267,3.3,1.8567032967032966,1.1547985347985346
5.652241257004789,3.3,1.8567032967032966,1.1547985347985346
5.657124242003192,3.3,1.8567032967032966,1.1547985347985346
5.664543477003463,3.3,1.8567032967032966,1.1547985347985346
5.669272813000134,3.3,1.8567032967032966,1.1547985347985346
5.66959434900491,0.9098168498168498,0.5665201465201465,0.5447619047619047
5.6744748359924415,0.9098168498168498,0.5665201465201465,0.5447619047619047
5.681982463996974,0.9098168498168498,0.5665201465201465,0.5447619047619047
5.686745379003696,0.9098168498168498,0.5665201465201465,0.5447619047619047
5.687037466006586,0.9098168498168498,0.5665201465201465,0.5447619047619047
5.692428373004077,0.9098168498168498,0.5665201465201465,0.5447619047619047
5.69514956799685,0.9098168498168498,0.5665201465201465,0.5447619047619047
5.6976745080028195,0.9098168498168498,0.5665201465201465,0.5447619047619047
5.703352944998187,2.4473992673992675,0.8372893772893772,2.285421245421245
5.703568654003902,0.9799267399267398,0.21677655677655677,1.2780952380952382
5.709385227994062,0.9799267399267398,0.21677655677655677,1.2780952380952382
5.709594785992522,0.9799267399267398,0.21677655677655677,1.2780952380952382
5.71557693000068,0.9799267399267398,0.21677655677655677,1.2780952380952382
5.7195322059997125,2.1637362637362636,0.9315750915750916,1.4972893772893772
5.723537201003637,2.1637362637362636,0.9315750915750916,1.4972893772893772
5.7283795940020354,1.6592673992673992,0.3884249084249084,1.7277655677655677
5.732259619006072,3.3,1.8365567765567765,1.0572893772893772
5.736314284993568,3.3,1.8365567765567765,1.0572893772893772
5.739901320004719,3.3,1.8365567765567765,1.0572893772893772
5.747361022993573,3.3,1.8365567765567765,1.0572893772893772
5.751992450997932,0.9775091575091575,0.21274725274725276,1.2756776556776557
5.752258213993628,0.9775091575091575,0.21274725274725276,1.2756776556776557
5.757115411004634,0.9775091575091575,0.21274725274725276,1.2756776556776557
5.763649853004608,0.9775091575091575,0.21274725274725276,1.2756776556776557
5.767877706995932,1.818827838827839,0.46820512820512816,1.7366300366300367
5.770463943001232,1.818827838827839,0.46820512820512816,1.7366300366300367
5.776244830994983,2.465934065934066,0.8566300366300367,2.332161172161172
5.7820664900064,2.0686446886446883,0.9831501831501831,1.1402930402930402
5.782180854002945,2.0686446886446883,0.9831501831501831,1.1402930402930402
5.78691441299452,2.0686446886446883,0.9831501831501831,1.1402930402930402
5.787044857002911,2.0686446886446883,0.9831501831501831,1.1402930402930402
5.792590850003762,2.0686446886446883,0.9831501831501831,1.1402930402930402
5.792982430997654,2.0686446886446883,0.9831501831501831,1.1402930402930402
5.797796158003621,2.0686446886446883,0.9831501831501831,1.1402930402930402
5.803334894997533,2.0686446886446883,0.9831501831501831,1.1402930402930402
5.8036367349996,2.0686446886446883,0.9831501831501831,1.1402930402930402
5.809543930998188,2.0686446886446883,0.9831501831501831,1.1402930402930402
5.814305898005841,2.0686446886446883,0.9831501831501831,1.1402930402930402
5.814549197006272,2.0686446886446883,0.9831501831501831,1.1402930402930402
5.819202792001306,2.0686446886446883,0.9831501831501831,1.1402930402930402
5.819391248995089,2.0686446886446883,0.9831501831501831,1.1402930402930402
5.825210855997284,2.0686446886446883,0.9831501831501831,1.1402930402930402
5.831243427994195,2.0686446886446883,0.9831501831501831,1.1402930402930402
5.835844569999608,2.0686446886446883,0.9831501831501831,1.1402930402930402
5.836054088998935,2.0686446886446883,0.9831501831501831,1.1402930402930402
5.841738631992484,2.0686446886446883,0.9831501831501831,1.1402930402930402
5.842079535999801,2.0686446886446883,0.9831501831501831,1.1402930402930402
5.848067176004406,2.0686446886446883,0.9831501831501831,1.1402930402930402
5.852022630002466,2.0686446886446883,0.9831501831501831,1.1402930402930402
5.855218052005512,0.0,0.1942124542124542,0.4472527472527472
5.857036664005136,2.481245421245421,1.1499633699633698,0.8139194139194139
5.8609107509983005,2.481245421245421,1.1499633699633698,0.8139194139194139
5.864070441995864,2.481245421245421,1.1499633699633698,0.8139194139194139
5.865740287001245,2.481245421245421,1.1499633699633698,0.8139194139194139
5.869576634999248,2.481245421245421,1.1499633699633698,0.8139194139194139
5.874407135997899,2.481245421245421,1.1499633699633698,0.8139194139194139
5.881437634001486,2.481245421245421,1.1499633699633698,0.8139194139194139
5.885999849997461,1.6109157509157508,0.42630036630036633,1.6858608058608056
5.887545189994853,1.6109157509157508,0.42630036630036633,1.6858608058608056
5.894560208005714,1.6109157509157508,0.42630036630036633,1.6858608058608056
5.901337237999542,1.6109157509157508,0.42630036630036633,1.6858608058608056
5.906329339995864,1.6109157509157508,0.42630036630036633,1.6858608058608056
5.9128857659961795,1.6109157509157508,0.42630036630036633,1.6858608058608056
5.916488830000162,1.6109157509157508,0.42630036630036633,1.6858608058608056
5.922167644006549,3.3,0.0,1.3659340659340657
5.923230115004117,2.5843956043956045,0.0,2.0484981684981682
5.923718356003519,2.5843956043956045,0.0,2.0484981684981682
5.929604079996352,2.5843956043956045,0.0,2.0484981684981682
5.933638942995458,2.5843956043956045,0.0,2.0484981684981682
5.936739618002321,2.5843956043956045,0.0,2.0484981684981682
5.938433445000555,2.5843956043956045,0.0,2.0484981684981682
5.945633940995322,2.5843956043956045,0.0,2.0484981684981682
