time,emg1,emg2,emg3
0.030534548001014628,1.759194139194139,0.5358974358974359,1.2523076923076921
0.04740513399883639,0.09589743589743589,0.112014652014652,0.6882051282051282
0.04782422599964775,1.4723076923076923,0.838095238095238,1.9123076923076923
0.053525308991083875,1.4723076923076923,0.838095238095238,1.9123076923076923
0.05935438099550083,1.4723076923076923,0.838095238095238,1.9123076923076923
0.06489430199144408,2.9744322344322343,1.7745054945054943,0.43677655677655675
0.06521368699031882,2.9744322344322343,1.7745054945054943,0.43677655677655675
0.07053726600133814,2.9744322344322343,1.7745054945054943,0.43677655677655675
0.07407151699590031,2.9744322344322343,1.7745054945054943,0.43677655677655675
0.07421317198895849,2.9744322344322343,1.7745054945054943,0.43677655677655675
0.07959584399941377,0.6978754578754578,0.614065934065934,0.4698168498168498
0.08234585999161936,1.7801465201465199,0.8945054945054944,0.9082051282051282
0.08674179400259163,1.7801465201465199,0.8945054945054944,0.9082051282051282
0.08713210899441037,1.7801465201465199,0.8945054945054944,0.9082051282051282
0.09337760398921091,1.7801465201465199,0.8945054945054944,0.9082051282051282
0.09681982800248079,1.7801465201465199,0.8945054945054944,0.9082051282051282
0.09713141799147706,1.7801465201465199,0.8945054945054944,0.9082051282051282
0.10202274699986447,1.7801465201465199,0.8945054945054944,0.9082051282051282
0.10760690599272493,1.7801465201465199,0.8945054945054944,0.9082051282051282
0.10784339599194936,1.7801465201465199,0.8945054945054944,0.9082051282051282
0.11328265399788506,1.7801465201465199,0.8945054945054944,0.9082051282051282
0.11564158600231167,1.7801465201465199,0.8945054945054944,0.9082051282051282
0.1158060019952245,1.7801465201465199,0.8945054945054944,0.9082051282051282
0.12119732299470343,1.7801465201465199,0.8945054945054944,0.9082051282051282
0.12278332299320027,1.7801465201465199,0.8945054945054944,0.9082051282051282
0.1266100259963423,0.33604395604395604,0.12893772893772892,0.8187545787545787
0.13114364800276235,2.897069597069597,1.5222710622710622,0.1095970695970696
0.13205457999720238,0.08703296703296703,0.33282051282051284,0.25545787545787546
0.1336688269948354,0.08703296703296703,0.33282051282051284,0.25545787545787546
0.13757377199362963,0.08703296703296703,0.33282051282051284,0.25545787545787546
0.14427819599222858,0.08703296703296703,0.33282051282051284,0.25545787545787546
0.1519535219995305,0.08703296703296703,0.33282051282051284,0.25545787545787546
0.15952762399683706,0.08703296703296703,0.33282051282051284,0.25545787545787546
0.16539921099320054,0.08703296703296703,0.33282051282051284,0.25545787545787546
0.17274954399908893,0.3295970695970696,0.112014652014652,1.004102564102564
0.17968753298919182,0.5084981684981685,0.3497435897435897,0.30622710622710625
0.1849255209963303,0.6648351648351648,0.6205128205128204,1.2764835164835164
0.18772886598890182,0.0709157509157509,0.1789010989010989,0.5495970695970696
0.19068461999995634,0.0709157509157509,0.1789010989010989,0.5495970695970696
0.19368075099191628,0.0709157509157509,0.1789010989010989,0.5495970695970696
0.1979653500020504,0.0709157509157509,0.1789010989010989,0.5495970695970696
0.19830619399726856,1.4489377289377288,0.767985347985348,1.1878388278388277
0.2039040079980623,1.4489377289377288,0.767985347985348,1.1878388278388277
0.20417788799386472,1.4489377289377288,0.767985347985348,1.1878388278388277
0.21126330900005996,1.4489377289377288,0.767985347985348,1.1878388278388277
0.21652474599250127,1.4489377289377288,0.767985347985348,1.1878388278388277
0.21843604599416722,1.4489377289377288,0.767985347985348,1.1878388278388277
0.2221783799905097,1.4489377289377288,0.767985347985348,1.1878388278388277
0.23220484500052407,1.4489377289377288,0.767985347985348,1.1878388278388277
0.2384579229983501,1.4489377289377288,0.767985347985348,1.1878388278388277
0.2425285429926589,1.7285714285714286,0.9791208791208791,0.32556776556776557
0.24569311398954596,1.7285714285714286,0.9791208791208791,0.32556776556776557
0.24666111999249551,1.7285714285714286,0.9791208791208791,0.32556776556776557
0.2484347260033246,1.7285714285714286,0.9791208791208791,0.32556776556776557
0.2516164519911399,1.7285714285714286,0.9791208791208791,0.32556776556776557
0.2539494249940617,1.7285714285714286,0.9791208791208791,0.32556776556776557
0.2542543250019662,1.7285714285714286,0.9791208791208791,0.32556776556776557
0.2592746369919041,1.7285714285714286,0.9791208791208791,0.32556776556776557
0.2649210009985836,1.7285714285714286,0.9791208791208791,0.32556776556776557
0.2650330269971164,0.17245421245421244,0.14747252747252745,0.792967032967033
0.27097425499232486,0.17245421245421244,0.14747252747252745,0.792967032967033
0.2781369279982755,0.17245421245421244,0.14747252747252745,0.792967032967033
0.2821074709936511,2.9228571428571426,1.598021978021978,0.3457142857142857
0.2852122229960514,2.9228571428571426,1.598021978021978,0.3457142857142857
0.2868637349893106,2.9228571428571426,1.598021978021978,0.3457142857142857
0.2907580729952315,2.9228571428571426,1.598021978021978,0.3457142857142857
0.296710451002582,0.5415384615384615,0.4029304029304029,0.7736263736263735
0.30136372399283573,0.7196336996336996,0.5971428571428571,1.5343589743589743
0.3015568139962852,0.6052014652014651,0.26190476190476186,1.0597069597069597
0.30714701999386307,0.3997069597069597,0.17567765567765567,0.7164102564102564
0.3093515149957966,0.3997069597069597,0.17567765567765567,0.7164102564102564
0.30959356800303794,0.3537728937728937,0.29816849816849816,0.1772893772893773
0.31559593699057586,0.3537728937728937,0.29816849816849816,0.1772893772893773
0.31950760299514513,0.3537728937728937,0.29816849816849816,0.1772893772893773
0.3234068949968787,0.3537728937728937,0.29816849816849816,0.1772893772893773
0.3306479640014004,0.767985347985348,0.2925274725274725,1.1862271062271061
0.3346508230024483,0.6382417582417582,0.4891575091575091,0.25545787545787546
0.33855627599405125,0.6382417582417582,0.4891575091575091,0.25545787545787546
0.34415076099685393,0.6382417582417582,0.4891575091575091,0.25545787545787546
0.3444191460002912,0.6382417582417582,0.4891575091575091,0.25545787545787546
0.3501108359923819,0.6382417582417582,0.4891575091575091,0.25545787545787546
0.35037138700135984,0.4867399267399267,0.39406593406593404,0.1692307692307692
0.355859203991713,0.4867399267399267,0.39406593406593404,0.1692307692307692
0.35676255699945614,0.4867399267399267,0.39406593406593404,0.1692307692307692
0.35892570100259036,0.4867399267399267,0.39406593406593404,0.1692307692307692
0.3603870789957,0.4867399267399267,0.39406593406593404,0.1692307692307692
0.36539063199597877,0.4867399267399267,0.39406593406593404,0.1692307692307692
0.36967336299130693,0.33926739926739924,0.1104029304029304,0.8671062271062271
0.3713766369910445,0.3594139194139194,0.3263736263736263,0.22564102564102564
0.3752998449926963,0.5350915750915751,0.5125274725274725,0.7994139194139194
0.3806551349989604,0.5350915750915751,0.5125274725274725,0.7994139194139194
0.38233074799063616,2.9027106227106225,1.5915750915750915,0.35135531135531134
0.38558588799787685,2.9027106227106225,1.5915750915750915,0.35135531135531134
0.3865402380033629,2.9027106227106225,1.5915750915750915,0.35135531135531134
0.3881482569995569,2.9027106227106225,1.5915750915750915,0.35135531135531134
0.39211163599975407,2.9027106227106225,1.5915750915750915,0.35135531135531134
0.3969816149910912,2.9027106227106225,1.5915750915750915,0.35135531135531134
0.4020963779912563,0.6301831501831501,0.5858608058608058,0.523003663003663
0.40533954500278924,0.6301831501831501,0.5858608058608058,0.523003663003663
0.40704583199112676,2.8704761904761904,1.494871794871795,0.27076923076923076
0.4122553560009692,2.8704761904761904,1.494871794871795,0.27076923076923076
0.414818944002036,0.1523076923076923,0.22967032967032966,0.2796336996336996
0.42070018099911977,0.1523076923076923,0.22967032967032966,0.2796336996336996
0.4208277750003617,0.1523076923076923,0.22967032967032966,0.2796336996336996
0.42866891500307247,0.1523076923076923,0.22967032967032966,0.2796336996336996
0.43251094200240914,0.1523076923076923,0.22967032967032966,0.2796336996336996
0.43656046099204104,0.1523076923076923,0.22967032967032966,0.2796336996336996
0.4407801569905132,0.1523076923076923,0.22967032967032966,0.2796336996336996
0.4431033680011751,0.1523076923076923,0.22967032967032966,0.2796336996336996
0.4497506399929989,0.1523076923076923,0.22967032967032966,0.2796336996336996
0.4539771409909008,3.3,1.7704761904761903,0.361025641025641
0.4564308529952541,3.3,1.7704761904761903,0.361025641025641
0.4675069319928298,3.3,1.7704761904761903,0.361025641025641
0.47701413299364503,0.826007326007326,0.5802197802197803,0.30058608058608055
0.482122467001318,0.14102564102564102,0.2191941391941392,0.1789010989010989
0.4855536609975388,0.14102564102564102,0.2191941391941392,0.1789010989010989
0.4857811749971006,0.14102564102564102,0.2191941391941392,0.1789010989010989
0.49179163700318895,0.14102564102564102,0.2191941391941392,0.1789010989010989
0.4993897569947876,0.14102564102564102,0.2191941391941392,0.1789010989010989
0.5041881799988914,0.7776556776556776,0.26915750915750913,1.0798534798534798
0.5043243849941064,0.4625641025641025,0.0838095238095238,0.792967032967033
0.5116398809914244,0.4625641025641025,0.0838095238095238,0.792967032967033
0.5152554139931453,0.4625641025641025,0.0838095238095238,0.792967032967033
0.5154049440025119,0.4625641025641025,0.0838095238095238,0.792967032967033
0.5211958519939799,1.7495238095238095,1.1322344322344322,0.32556776556776557
0.5213552249915665,1.7495238095238095,1.1322344322344322,0.32556776556776557
0.5278342660021735,1.7495238095238095,1.1322344322344322,0.32556776556776557
0.531526095001027,1.7495238095238095,1.1322344322344322,0.32556776556776557
0.5362669530004496,1.7495238095238095,1.1322344322344322,0.32556776556776557
0.5365243589913007,0.3755311355311355,0.4561172161172161,0.5931135531135531
0.543184748996282,1.456190476190476,0.7816849816849816,0.5181684981684981
0.547912048001308,0.43999999999999995,0.18534798534798536,0.7607326007326007
0.5538113419897854,0.43999999999999995,0.18534798534798536,0.7607326007326007
0.5616786669997964,0.43999999999999995,0.18534798534798536,0.7607326007326007
0.567498907999834,0.27802197802197803,0.10637362637362638,0.6390476190476191
0.5763635780022014,0.27802197802197803,0.10637362637362638,0.6390476190476191
0.581425490003312,1.6334798534798534,0.9025641025641026,0.8816117216117215
0.5847857219923753,1.6334798534798534,0.9025641025641026,0.8816117216117215
0.5857705340022221,0.2562637362637363,0.13377289377289378,0.7712087912087912
0.5871309049980482,0.2562637362637363,0.13377289377289378,0.7712087912087912
0.5993311170022935,0.2562637362637363,0.13377289377289378,0.7712087912087912
0.6089257629937492,1.3594871794871795,0.6511355311355311,1.2095970695970695
0.6157887519948417,0.24659340659340656,0.10153846153846154,0.776043956043956
0.619935352995526,1.5754578754578754,0.8840293040293039,1.9332600732600733
0.6225164100032998,1.5754578754578754,0.8840293040293039,1.9332600732600733
0.6299842500011437,1.5754578754578754,0.8840293040293039,1.9332600732600733
0.634095763991354,1.5754578754578754,0.8840293040293039,1.9332600732600733
0.6366368460003287,1.5754578754578754,0.8840293040293039,1.9332600732600733
0.64263020499493,1.5754578754578754,0.8840293040293039,1.9332600732600733
0.6496116499911295,1.5754578754578754,0.8840293040293039,1.9332600732600733
0.6544578289904166,1.5754578754578754,0.8840293040293039,1.9332600732600733
0.6546210259984946,1.5754578754578754,0.8840293040293039,1.9332600732600733
0.6606696009985171,1.5754578754578754,0.8840293040293039,1.9332600732600733
0.6657810350006912,1.5754578754578754,0.8840293040293039,1.9332600732600733
0.6677798479940975,1.5754578754578754,0.8840293040293039,1.9332600732600733
0.669546643999638,1.5754578754578754,0.8840293040293039,1.9332600732600733
0.6729631670023082,1.5754578754578754,0.8840293040293039,1.9332600732600733
0.6732562039978802,1.726959706959707,0.7647619047619048,1.9195604395604395
0.6806128439930035,1.726959706959707,0.7647619047619048,1.9195604395604395
0.6843885779962875,1.726959706959707,0.7647619047619048,1.9195604395604395
0.6890506209892919,0.253040293040293,0.09106227106227105,0.5294505494505495
0.6893011490028584,0.8791941391941391,0.6438827838827839,0.3602197802197802
0.6971908169944072,0.8791941391941391,0.6438827838827839,0.3602197802197802
0.7012017679953715,0.5842490842490843,0.5955311355311355,1.1838095238095236
0.7052674629958346,0.5842490842490843,0.5955311355311355,1.1838095238095236
0.7091981209960068,0.3553846153846154,0.1095970695970696,0.967032967032967
0.7131432359892642,0.3553846153846154,0.1095970695970696,0.967032967032967
0.7163760279945564,0.3553846153846154,0.1095970695970696,0.967032967032967
0.7180429689906305,0.3553846153846154,0.1095970695970696,0.967032967032967
0.7218912879907293,0.3553846153846154,0.1095970695970696,0.967032967032967
0.7293923550023464,0.3553846153846154,0.1095970695970696,0.967032967032967
0.7356812039943179,0.24336996336996336,0.10315018315018315,0.8195604395604396
0.7399570330017013,0.24336996336996336,0.10315018315018315,0.8195604395604396
0.7434868629934499,0.24336996336996336,0.10315018315018315,0.8195604395604396
0.7489746880019084,0.24336996336996336,0.10315018315018315,0.8195604395604396
0.7505331180000212,3.1356043956043953,1.872014652014652,0.381978021978022
0.7542195830028504,3.1356043956043953,1.872014652014652,0.381978021978022
0.7629305159935029,3.1356043956043953,1.872014652014652,0.381978021978022
0.7702469679934438,3.032454212454212,1.7624175824175823,0.3843956043956044
0.775272129001678,0.08058608058608058,0.1942124542124542,0.5673260073260072
0.778602113990928,0.08058608058608058,0.1942124542124542,0.5673260073260072
0.7789334139961284,0.08058608058608058,0.1942124542124542,0.5673260073260072
0.7838471069990192,0.08058608058608058,0.1942124542124542,0.5673260073260072
0.7884953439934179,0.08058608058608058,0.1942124542124542,0.5673260073260072
0.7894181239971658,0.08058608058608058,0.1942124542124542,0.5673260073260072
0.7902836119901622,0.08058608058608058,0.1942124542124542,0.5673260073260072
0.7922075249953195,0.08058608058608058,0.1942124542124542,0.5673260073260072
0.7958656739938306,0.08058608058608058,0.1942124542124542,0.5673260073260072
0.8000466399971629,0.08058608058608058,0.1942124542124542,0.5673260073260072
0.8032288230024278,0.08058608058608058,0.1942124542124542,0.5673260073260072
0.8048200319899479,0.08058608058608058,0.1942124542124542,0.5673260073260072
0.8104140499926871,0.08058608058608058,0.1942124542124542,0.5673260073260072
0.8106465469900286,0.08058608058608058,0.1942124542124542,0.5673260073260072
0.8165879779990064,0.08058608058608058,0.1942124542124542,0.5673260073260072
0.8224207299936097,1.8454212454212453,0.7768498168498168,1.843003663003663
0.8225236899888841,0.39890109890109887,0.15472527472527473,0.7832967032967032
0.8315657269995427,0.39890109890109887,0.15472527472527473,0.7832967032967032
0.8356939759978559,0.39890109890109887,0.15472527472527473,0.7832967032967032
0.8381010599987349,0.9388278388278387,0.6317948717948718,1.6052747252747253
0.8383497239992721,0.9388278388278387,0.6317948717948718,1.6052747252747253
0.8460671089997049,0.9388278388278387,0.6317948717948718,1.6052747252747253
0.849483001002227,0.2925274725274725,0.11846153846153845,0.8493772893772893
0.8497069320001174,0.2925274725274725,0.11846153846153845,0.8493772893772893
0.8544485739985248,0.2925274725274725,0.11846153846153845,0.8493772893772893
0.8547853670024779,0.2925274725274725,0.11846153846153845,0.8493772893772893
0.861304931997438,0.2925274725274725,0.11846153846153845,0.8493772893772893
0.8648455349903088,0.2925274725274725,0.11846153846153845,0.8493772893772893
0.8650586720032152,0.16842490842490843,0.1789010989010989,1.137069597069597
0.8704548969981261,0.16842490842490843,0.1789010989010989,1.137069597069597
0.8727996209927369,0.26754578754578756,0.22644688644688646,0.31267399267399265
0.8730975049984409,0.26754578754578756,0.22644688644688646,0.31267399267399265
0.8808058949944098,0.26754578754578756,0.22644688644688646,0.31267399267399265
0.8853498969983775,0.26754578754578756,0.22644688644688646,0.31267399267399265
0.8856179799913662,0.26754578754578756,0.22644688644688646,0.31267399267399265
0.8902252440020675,0.26754578754578756,0.22644688644688646,0.31267399267399265
0.891274331996101,0.26754578754578756,0.22644688644688646,0.31267399267399265
0.8928078329918208,0.26754578754578756,0.22644688644688646,0.31267399267399265
0.8983773029904114,0.26754578754578756,0.22644688644688646,0.31267399267399265
0.8985994529939489,1.6238095238095236,0.8832234432234431,0.9484981684981684
0.9034023569984129,1.6238095238095236,0.8832234432234431,0.9484981684981684
0.9035201410006266,1.6238095238095236,0.8832234432234431,0.9484981684981684
0.9094776569982059,1.6238095238095236,0.8832234432234431,0.9484981684981684
0.9159646140033146,0.1789010989010989,0.32073260073260074,0.17245421245421244
0.9198580770025728,1.7495238095238095,0.7615384615384615,1.423956043956044
0.924676972994348,1.7495238095238095,0.7615384615384615,1.423956043956044
0.9340552909998223,1.7495238095238095,0.7615384615384615,1.423956043956044
0.9431302640005015,1.7495238095238095,0.7615384615384615,1.423956043956044
0.9502201860013884,1.7495238095238095,0.7615384615384615,1.423956043956044
0.9542143790022237,1.7495238095238095,0.7615384615384615,1.423956043956044
0.9594515849894378,1.7495238095238095,0.7615384615384615,1.423956043956044
0.9613418459921377,1.7495238095238095,0.7615384615384615,1.423956043956044
0.9635621880006511,1.7495238095238095,0.7615384615384615,1.423956043956044
0.9637002069939626,1.7495238095238095,0.7615384615384615,1.423956043956044
0.9698425999959,1.7495238095238095,0.7615384615384615,1.423956043956044
0.9739132349932333,0.24417582417582417,0.3263736263736263,0.1523076923076923
0.9778937069931999,0.24417582417582417,0.3263736263736263,0.1523076923076923
0.9805329489900032,0.24417582417582417,0.3263736263736263,0.1523076923076923
0.9861498459940776,0.24417582417582417,0.3263736263736263,0.1523076923076923
0.9870108759932918,0.24417582417582417,0.3263736263736263,0.1523076923076923
0.9886492270015879,0.24417582417582417,0.3263736263736263,0.1523076923076923
0.9927660099929199,0.24417582417582417,0.3263736263736263,0.1523076923076923
0.9959093289944576,0.24417582417582417,0.3263736263736263,0.1523076923076923
0.9977199389977613,0.24417582417582417,0.3263736263736263,0.1523076923076923
1.0004773190012202,0.24417582417582417,0.3263736263736263,0.1523076923076923
1.0055583439971088,0.24417582417582417,0.3263736263736263,0.1523076923076923
1.0102595389907947,0.24417582417582417,0.3263736263736263,0.1523076923076923
1.0160463399952278,0.24417582417582417,0.3263736263736263,0.1523076923076923
1.0161501550028333,0.3626373626373626,0.4738461538461538,0.5375091575091575
1.0216911969910143,0.3626373626373626,0.4738461538461538,0.5375091575091575
1.022139843000332,0.3626373626373626,0.4738461538461538,0.5375091575091575
1.0263129129889421,0.3626373626373626,0.4738461538461538,0.5375091575091575
1.028990848993999,0.3626373626373626,0.4738461538461538,0.5375091575091575
1.032551844997215,0.3626373626373626,0.4738461538461538,0.5375091575091575
1.0327320369979134,0.3626373626373626,0.4738461538461538,0.5375091575091575
1.0383340629923623,0.3626373626373626,0.4738461538461538,0.5375091575091575
1.0391927029995713,0.3626373626373626,0.4738461538461538,0.5375091575091575
1.0409385090024443,0.3626373626373626,0.4738461538461538,0.5375091575091575
1.0465682849899167,0.3626373626373626,0.4738461538461538,0.5375091575091575
1.0560828180023236,0.3626373626373626,0.4738461538461538,0.5375091575091575
1.0638196729996707,0.3626373626373626,0.4738461538461538,0.5375091575091575
1.068464349998976,0.3626373626373626,0.4738461538461538,0.5375091575091575
1.068680445998325,0.3626373626373626,0.4738461538461538,0.5375091575091575
1.074354680997203,0.3626373626373626,0.4738461538461538,0.5375091575091575
1.074704261001898,0.3626373626373626,0.4738461538461538,0.5375091575091575
1.0826968379988102,0.3626373626373626,0.4738461538461538,0.5375091575091575
1.0898780199931934,0.3626373626373626,0.4738461538461538,0.5375091575091575
1.0943196369917132,0.09428571428571428,0.2111355311355311,0.4835164835164835
1.0953894699923694,0.09428571428571428,0.2111355311355311,0.4835164835164835
1.095684222993441,0.09428571428571428,0.2111355311355311,0.4835164835164835
1.1016897309891647,0.09428571428571428,0.2111355311355311,0.4835164835164835
1.1069071300007636,0.9638095238095238,0.4013186813186813,1.1459340659340658
1.1097080030012876,0.23531135531135527,0.14827838827838827,0.726080586080586
1.1131860739988042,0.23531135531135527,0.14827838827838827,0.726080586080586
1.113486264992389,0.23531135531135527,0.14827838827838827,0.726080586080586
1.1183319089905126,0.23531135531135527,0.14827838827838827,0.726080586080586
1.1239441849902505,0.23531135531135527,0.14827838827838827,0.726080586080586
1.1243382129905513,0.23531135531135527,0.14827838827838827,0.726080586080586
1.1294181539997226,0.23531135531135527,0.14827838827838827,0.726080586080586
1.1336989459960023,0.23531135531135527,0.14827838827838827,0.726080586080586
1.1345280730020022,0.005641025641025641,0.19179487179487179,0.28608058608058606
1.1362540150003042,0.6503296703296703,0.5544322344322344,1.1942857142857142
1.1398183059936855,0.6503296703296703,0.5544322344322344,1.1942857142857142
1.139963148991228,0.6503296703296703,0.5544322344322344,1.1942857142857142
1.1445307499961928,0.6503296703296703,0.5544322344322344,1.1942857142857142
1.145383815994137,0.6503296703296703,0.5544322344322344,1.1942857142857142
1.1470051539945416,0.6503296703296703,0.5544322344322344,1.1942857142857142
1.1515234839898767,0.6503296703296703,0.5544322344322344,1.1942857142857142
1.1517941079946468,0.6503296703296703,0.5544322344322344,1.1942857142857142
1.158551169995917,1.577875457875458,0.7824908424908424,1.847032967032967
1.1639289379963884,1.577875457875458,0.7824908424908424,1.847032967032967
1.1649326749902684,1.577875457875458,0.7824908424908424,1.847032967032967
1.166018345989869,1.577875457875458,0.7824908424908424,1.847032967032967
1.1663020519918064,1.577875457875458,0.7824908424908424,1.847032967032967
1.1716576829931,1.577875457875458,0.7824908424908424,1.847032967032967
1.1740676189947408,1.577875457875458,0.7824908424908424,1.847032967032967
1.1743016690015793,1.577875457875458,0.7824908424908424,1.847032967032967
1.1803318609890994,1.577875457875458,0.7824908424908424,1.847032967032967
1.1845351660012966,1.577875457875458,0.7824908424908424,1.847032967032967
1.1870430569979362,0.365054945054945,0.1378021978021978,0.6817582417582417
1.1871388610015856,0.365054945054945,0.1378021978021978,0.6817582417582417
1.1928084129904164,0.365054945054945,0.1378021978021978,0.6817582417582417
1.193696080998052,1.7656410256410255,0.8292307692307692,1.9405128205128204
1.1948100269946735,1.7656410256410255,0.8292307692307692,1.9405128205128204
1.195106767991092,1.7656410256410255,0.8292307692307692,1.9405128205128204
1.1998335149983177,1.7656410256410255,0.8292307692307692,1.9405128205128204
1.1999838949996047,1.7656410256410255,0.8292307692307692,1.9405128205128204
1.204536598001141,1.7656410256410255,0.8292307692307692,1.9405128205128204
1.2054649679921567,1.7656410256410255,0.8292307692307692,1.9405128205128204
1.2064341189980041,1.7656410256410255,0.8292307692307692,1.9405128205128204
1.2073282759956783,1.7656410256410255,0.8292307692307692,1.9405128205128204
1.2090719069965417,1.7656410256410255,0.8292307692307692,1.9405128205128204
1.2122569829953136,1.7656410256410255,0.8292307692307692,1.9405128205128204
1.2131735579896485,1.7656410256410255,0.8292307692307692,1.9405128205128204
1.214800761998049,1.7656410256410255,0.8292307692307692,1.9405128205128204
1.2188112639996689,1.7656410256410255,0.8292307692307692,1.9405128205128204
1.222857164000743,1.7656410256410255,0.8292307692307692,1.9405128205128204
1.2253652219951618,1.7656410256410255,0.8292307692307692,1.9405128205128204
1.2255059839953901,0.39890109890109887,0.1249084249084249,1.0097435897435898
1.2302773849951336,0.39890109890109887,0.1249084249084249,1.0097435897435898
1.2303952079964802,0.39890109890109887,0.1249084249084249,1.0097435897435898
1.235676219992456,0.39890109890109887,0.1249084249084249,1.0097435897435898
1.2374140579922823,0.39890109890109887,0.1249084249084249,1.0097435897435898
1.2412566319981124,0.39890109890109887,0.1249084249084249,1.0097435897435898
1.2458693209919147,0.39890109890109887,0.1249084249084249,1.0097435897435898
1.246701142998063,0.46095238095238095,0.1386080586080586,1.0879120879120878
1.247646880990942,0.46095238095238095,0.1386080586080586,1.0879120879120878
1.249302969998098,0.46095238095238095,0.1386080586080586,1.0879120879120878
1.2531048770033522,0.46095238095238095,0.1386080586080586,1.0879120879120878
1.2576675529999193,0.46095238095238095,0.1386080586080586,1.0879120879120878
1.257845265994547,0.46095238095238095,0.1386080586080586,1.0879120879120878
1.2635439069999848,0.46095238095238095,0.1386080586080586,1.0879120879120878
1.263643932994455,0.46095238095238095,0.1386080586080586,1.0879120879120878
1.2682324490015162,0.46095238095238095,0.1386080586080586,1.0879120879120878
1.2691119759983849,0.3723076923076923,0.3916483516483516,0.22644688644688646
1.2707343549991492,0.3723076923076923,0.3916483516483516,0.22644688644688646
1.2744980569987092,0.3723076923076923,0.3916483516483516,0.22644688644688646
1.2798128959984751,0.3723076923076923,0.3916483516483516,0.22644688644688646
1.2836431169998832,3.0888644688644686,1.7559706959706958,0.4891575091575091
1.289183970002341,3.0888644688644686,1.7559706959706958,0.4891575091575091
1.2902971430012258,3.0888644688644686,1.7559706959706958,0.4891575091575091
1.290577186999144,3.0888644688644686,1.7559706959706958,0.4891575091575091
1.2958206069888547,3.0888644688644686,1.7559706959706958,0.4891575091575091
1.2987435079994611,3.0888644688644686,1.7559706959706958,0.4891575091575091
1.3006401839957107,3.0888644688644686,1.7559706959706958,0.4891575091575091
1.3040876309969462,1.3788278388278388,0.4794871794871795,1.4086446886446886
1.3044034359918442,1.3788278388278388,0.4794871794871795,1.4086446886446886
1.3095135079929605,1.3788278388278388,0.4794871794871795,1.4086446886446886
1.3127884790010285,1.3788278388278388,0.4794871794871795,1.4086446886446886
1.3136533139913809,1.3788278388278388,0.4794871794871795,1.4086446886446886
1.3147499280021293,1.3788278388278388,0.4794871794871795,1.4086446886446886
1.315753536997363,1.3788278388278388,0.4794871794871795,1.4086446886446886
1.3166704629984451,1.3788278388278388,0.4794871794871795,1.4086446886446886
1.3183176399907097,3.0775824175824176,1.8752380952380951,0.4319413919413919
1.3223725599964382,3.0775824175824176,1.8752380952380951,0.4319413919413919
1.3255868989945156,0.3537728937728937,0.1386080586080586,0.6301831501831501
1.32654210999317,0.3537728937728937,0.1386080586080586,0.6301831501831501
1.3274289359978866,0.3537728937728937,0.1386080586080586,0.6301831501831501
1.3290334699995583,0.3537728937728937,0.1386080586080586,0.6301831501831501
1.333791785989888,0.3537728937728937,0.1386080586080586,0.6301831501831501
1.3339138430019375,0.3537728937728937,0.1386080586080586,0.6301831501831501
1.3397978889988735,0.3537728937728937,0.1386080586080586,0.6301831501831501
1.345235426997533,0.3537728937728937,0.1386080586080586,0.6301831501831501
1.346962372001144,0.3537728937728937,0.1386080586080586,0.6301831501831501
1.3507864349958254,0.3537728937728937,0.1386080586080586,0.6301831501831501
1.355473149989848,0.4528937728937729,0.3932600732600733,0.2506227106227106
1.3556170950032538,1.9268131868131868,0.8195604395604396,1.7543589743589743
1.360357097000815,1.9268131868131868,0.8195604395604396,1.7543589743589743
1.3605659129971173,1.9268131868131868,0.8195604395604396,1.7543589743589743
1.3654092340002535,1.9268131868131868,0.8195604395604396,1.7543589743589743
1.3710254679899663,1.9268131868131868,0.8195604395604396,1.7543589743589743
1.3718694859999232,1.9268131868131868,0.8195604395604396,1.7543589743589743
1.3734402709960705,1.9268131868131868,0.8195604395604396,1.7543589743589743
1.3772399430017686,1.2692307692307692,0.7824908424908424,1.8567032967032966
1.3818169459991623,1.2692307692307692,0.7824908424908424,1.8567032967032966
1.3826581579924095,1.2176556776556777,0.48835164835164835,1.5536996336996336
1.3842266419960652,1.2176556776556777,0.48835164835164835,1.5536996336996336
1.3880555709911278,1.2176556776556777,0.48835164835164835,1.5536996336996336
1.392657488991972,1.2176556776556777,0.48835164835164835,1.5536996336996336
1.3929290469968691,1.2176556776556777,0.48835164835164835,1.5536996336996336
1.3973053700028686,1.2176556776556777,0.48835164835164835,1.5536996336996336
1.3988920080009848,1.2176556776556777,0.48835164835164835,1.5536996336996336
1.4030930389999412,1.2176556776556777,0.48835164835164835,1.5536996336996336
1.4059291329904227,1.2176556776556777,0.48835164835164835,1.5536996336996336
1.4094872239948018,0.1418315018315018,0.1249084249084249,0.8195604395604396
1.4095927680027671,0.1418315018315018,0.1249084249084249,0.8195604395604396
1.4144923279964132,0.1418315018315018,0.1249084249084249,0.8195604395604396
1.4188095610006712,0.7438095238095238,0.622124542124542,0.4996336996336996
1.4209809849999147,0.7438095238095238,0.622124542124542,0.4996336996336996
1.4218387110013282,0.7438095238095238,0.622124542124542,0.4996336996336996
1.4239727690001018,0.7438095238095238,0.622124542124542,0.4996336996336996
1.4254126219893806,0.7438095238095238,0.622124542124542,0.4996336996336996
1.4296648360032123,0.7438095238095238,0.622124542124542,0.4996336996336996
1.4324946209962945,0.7438095238095238,0.622124542124542,0.4996336996336996
1.4366770909982733,0.7438095238095238,0.622124542124542,0.4996336996336996
1.4395161949942121,0.7438095238095238,0.622124542124542,0.4996336996336996
1.4431796099961502,0.7438095238095238,0.622124542124542,0.4996336996336996
1.4480380899913143,0.7438095238095238,0.622124542124542,0.4996336996336996
1.4481365919928066,0.7438095238095238,0.622124542124542,0.4996336996336996
1.4530319929908728,0.7438095238095238,0.622124542124542,0.4996336996336996
1.4572521219961345,0.7438095238095238,0.622124542124542,0.4996336996336996
1.459422628991888,0.7438095238095238,0.622124542124542,0.4996336996336996
1.4602013699914096,1.120952380952381,0.4528937728937729,1.4779487179487178
1.4623652949958341,1.120952380952381,0.4528937728937729,1.4779487179487178
1.4631511560000945,1.120952380952381,0.4528937728937729,1.4779487179487178
1.4646626559988363,1.120952380952381,0.4528937728937729,1.4779487179487178
1.469605350997881,1.120952380952381,0.4528937728937729,1.4779487179487178
1.4744182829890633,1.120952380952381,0.4528937728937729,1.4779487179487178
1.4746553119912278,1.120952380952381,0.4528937728937729,1.4779487179487178
1.4794672729913145,1.120952380952381,0.4528937728937729,1.4779487179487178
1.4852658780000638,1.2458608058608058,0.5842490842490843,1.2007326007326007
1.4855217799922684,1.2458608058608058,0.5842490842490843,1.2007326007326007
1.4904075200029183,1.2458608058608058,0.5842490842490843,1.2007326007326007
1.4947464930010028,1.2458608058608058,0.5842490842490843,1.2007326007326007
1.4971874819893856,0.386007326007326,0.4545054945054945,0.6825641025641025
1.4973792109958595,0.386007326007326,0.4545054945054945,0.6825641025641025
1.5016827840008773,0.386007326007326,0.4545054945054945,0.6825641025641025
1.503280132994405,1.236996336996337,0.5479853479853479,1.2192673992673992
1.5075309569947422,1.236996336996337,0.5479853479853479,1.2192673992673992
1.5105131110030925,3.3,1.8236630036630037,0.3586080586080586
1.5127420789940516,0.005641025641025641,0.1926007326007326,0.26190476190476186
1.5135758069955045,0.005641025641025641,0.1926007326007326,0.26190476190476186
1.5151189269963652,0.005641025641025641,0.1926007326007326,0.26190476190476186
1.519974139999249,0.005641025641025641,0.1926007326007326,0.26190476190476186
1.524839866993716,0.8187545787545787,0.28769230769230764,1.0975824175824174
1.5298043279908597,0.8187545787545787,0.28769230769230764,1.0975824175824174
1.5345740060001845,0.1112087912087912,0.18534798534798536,0.24336996336996336
1.5347146510030143,0.1112087912087912,0.18534798534798536,0.24336996336996336
1.5395464000030188,0.1112087912087912,0.18534798534798536,0.24336996336996336
1.5441802379937144,0.1112087912087912,0.18534798534798536,0.24336996336996336
1.544343071989715,0.1112087912087912,0.18534798534798536,0.24336996336996336
1.550037633991451,0.10476190476190475,0.1555311355311355,0.6084249084249085
1.5508526240009815,0.05076923076923077,0.21516483516483517,0.3199267399267399
1.5524907729995903,0.05076923076923077,0.21516483516483517,0.3199267399267399
1.5562447769916616,0.05076923076923077,0.21516483516483517,0.3199267399267399
1.5616938339953776,2.036410256410256,1.220879120879121,0.3771428571428571
1.5634052279929165,2.036410256410256,1.220879120879121,0.3771428571428571
1.566492929996457,2.036410256410256,1.220879120879121,0.3771428571428571
1.5688528119935654,2.036410256410256,1.220879120879121,0.3771428571428571
1.5690906539966818,2.036410256410256,1.220879120879121,0.3771428571428571
1.574331996991532,2.036410256410256,1.220879120879121,0.3771428571428571
1.5766729349998059,2.036410256410256,1.220879120879121,0.3771428571428571
1.576976199998171,2.036410256410256,1.220879120879121,0.3771428571428571
1.5821403890004149,2.036410256410256,1.220879120879121,0.3771428571428571
1.5858670289890142,2.036410256410256,1.220879120879121,0.3771428571428571
1.585977037990233,2.036410256410256,1.220879120879121,0.3771428571428571
1.5911443869990762,2.036410256410256,1.220879120879121,0.3771428571428571
1.5942140389961423,2.036410256410256,1.220879120879121,0.3771428571428571
1.59670958899369,2.036410256410256,1.220879120879121,0.3771428571428571
1.6019573779922212,2.036410256410256,1.220879120879121,0.3771428571428571
1.6054194899916183,2.036410256410256,1.220879120879121,0.3771428571428571
1.605520881988923,0.09106227106227105,0.19904761904761903,0.4835164835164835
1.611747827992076,0.09106227106227105,0.19904761904761903,0.4835164835164835
1.6156133140029851,0.09106227106227105,0.19904761904761903,0.4835164835164835
1.6202329809893854,0.09106227106227105,0.19904761904761903,0.4835164835164835
1.6210753039922565,1.6157509157509156,0.855018315018315,0.9823443223443222
1.6226184819970513,1.6157509157509156,0.855018315018315,0.9823443223443222
1.6263118749920977,1.6157509157509156,0.855018315018315,0.9823443223443222
1.631248694990063,1.6157509157509156,0.855018315018315,0.9823443223443222
1.6362967169989133,1.6157509157509156,0.855018315018315,0.9823443223443222
1.6411059249949176,1.6157509157509156,0.855018315018315,0.9823443223443222
1.6466875499900198,1.6157509157509156,0.855018315018315,0.9823443223443222
1.647033310990082,1.6157509157509156,0.855018315018315,0.9823443223443222
1.6518116329971235,1.6157509157509156,0.855018315018315,0.9823443223443222
1.6519828219898045,1.6157509157509156,0.855018315018315,0.9823443223443222
1.6567684629990254,1.6157509157509156,0.855018315018315,0.9823443223443222
1.6568812240002444,1.6157509157509156,0.855018315018315,0.9823443223443222
1.6617043529986404,1.6157509157509156,0.855018315018315,0.9823443223443222
1.6674766429932788,1.6157509157509156,0.855018315018315,0.9823443223443222
1.6676441689924104,1.6157509157509156,0.855018315018315,0.9823443223443222
1.672377016991959,0.43113553113553116,0.3908424908424908,0.26190476190476186
1.672573174990248,0.43113553113553116,0.3908424908424908,0.26190476190476186
1.6781346240022685,0.43113553113553116,0.3908424908424908,0.26190476190476186
1.6791691749967868,0.43113553113553116,0.3908424908424908,0.26190476190476186
1.6799909919936908,0.43113553113553116,0.3908424908424908,0.26190476190476186
1.6815619639965007,0.43113553113553116,0.3908424908424908,0.26190476190476186
1.6853234259906458,0.43113553113553116,0.3908424908424908,0.26190476190476186
1.6906520719930995,0.43113553113553116,0.3908424908424908,0.26190476190476186
1.6924759399989853,0.43113553113553116,0.3908424908424908,0.26190476190476186
1.695648530003382,0.7357509157509158,0.4448351648351648,0.8332600732600732
1.697238111999468,1.012967032967033,0.7647619047619048,0.4391941391941392
1.7010479159944225,1.012967032967033,0.7647619047619048,0.4391941391941392
1.706437367000035,1.012967032967033,0.7647619047619048,0.4391941391941392
1.7082261109899264,1.012967032967033,0.7647619047619048,0.4391941391941392
1.7112894039892126,1.012967032967033,0.7647619047619048,0.4391941391941392
1.713766475993907,1.012967032967033,0.7647619047619048,0.4391941391941392
1.7139701089909067,1.012967032967033,0.7647619047619048,0.4391941391941392
1.7192277549911523,1.012967032967033,0.7647619047619048,0.4391941391941392
1.7217301889904775,1.012967032967033,0.7647619047619048,0.4391941391941392
1.7272947460005525,1.012967032967033,0.7647619047619048,0.4391941391941392
1.7288461129937787,0.3763369963369963,0.09912087912087912,1.004102564102564
1.7333125199947972,0.3763369963369963,0.09912087912087912,1.004102564102564
1.7342102989932755,0.3763369963369963,0.09912087912087912,1.004102564102564
1.7358284590009134,0.3763369963369963,0.09912087912087912,1.004102564102564
1.7403157700027805,0.3763369963369963,0.09912087912087912,1.004102564102564
1.7412034070002846,0.3763369963369963,0.09912087912087912,1.004102564102564
1.7429731269949116,0.3763369963369963,0.09912087912087912,1.004102564102564
1.7468414939939976,0.3763369963369963,0.09912087912087912,1.004102564102564
1.7512599729961948,0.3763369963369963,0.09912087912087912,1.004102564102564
1.7515461949951714,0.3763369963369963,0.09912087912087912,1.004102564102564
1.756934694989468,0.3763369963369963,0.09912087912087912,1.004102564102564
1.7599142050021328,0.3763369963369963,0.09912087912087912,1.004102564102564
1.762901909998618,0.9871794871794871,0.3779487179487179,1.1781684981684981
1.7659252189914696,0.9871794871794871,0.3779487179487179,1.1781684981684981
1.768286263992195,0.9871794871794871,0.3779487179487179,1.1781684981684981
1.7685265649924986,0.6374358974358975,0.4778754578754579,0.20468864468864467
1.7738167060015257,0.6374358974358975,0.4778754578754579,0.20468864468864467
1.7764165959961247,0.6374358974358975,0.4778754578754579,0.20468864468864467
1.7810624479898252,0.6374358974358975,0.4778754578754579,0.20468864468864467
1.7813442390033742,0.6374358974358975,0.4778754578754579,0.20468864468864467
1.7865691780025372,0.6374358974358975,0.4778754578754579,0.20468864468864467
1.789908901002491,0.6374358974358975,0.4778754578754579,0.20468864468864467
1.7907394179928815,0.6374358974358975,0.4778754578754579,0.20468864468864467
1.79237049499352,0.6374358974358975,0.4778754578754579,0.20468864468864467
1.796336382991285,1.676190476190476,0.718021978021978,1.975164835164835
1.8003338429989526,1.676190476190476,0.718021978021978,1.975164835164835
1.8034037670004182,0.9122344322344322,0.33926739926739924,1.5641758241758241
1.8059069399896543,0.3795604395604395,0.12249084249084248,0.9331868131868131
1.8112702469952637,0.3795604395604395,0.12249084249084248,0.9331868131868131
1.8142955479997909,0.3795604395604395,0.12249084249084248,0.9331868131868131
1.8166114329942502,0.3795604395604395,0.12249084249084248,0.9331868131868131
1.8168430590012576,0.3795604395604395,0.12249084249084248,0.9331868131868131
1.8223332759953337,0.3795604395604395,0.12249084249084248,0.9331868131868131
1.823210046000895,0.5165567765567766,0.17809523809523808,0.8816117216117215
1.8248674029891845,0.5165567765567766,0.17809523809523808,0.8816117216117215
1.8286028799921041,0.5165567765567766,0.17809523809523808,0.8816117216117215
1.8331367679929826,0.5165567765567766,0.17809523809523808,0.8816117216117215
1.8333938680007122,0.5165567765567766,0.17809523809523808,0.8816117216117215
1.838620695998543,0.5165567765567766,0.17809523809523808,0.8816117216117215
1.8409247840027092,1.6197802197802196,0.7655677655677655,1.0476190476190474
1.8426165589917218,1.6197802197802196,0.7655677655677655,1.0476190476190474
1.8456409339996753,1.6197802197802196,0.7655677655677655,1.0476190476190474
1.8479215919942362,0.20065934065934066,0.31186813186813184,0.39567765567765567
1.8481386350031244,0.20065934065934066,0.31186813186813184,0.39567765567765567
1.853526350998436,0.20065934065934066,0.31186813186813184,0.39567765567765567
1.8561413830029778,0.0,0.18534798534798536,0.3449084249084249
1.8605673290003324,0.0,0.18534798534798536,0.3449084249084249
1.86090266899555,0.0,0.18534798534798536,0.3449084249084249
1.866259442991577,0.0,0.18534798534798536,0.3449084249084249
1.8679149999952642,0.0,0.18534798534798536,0.3449084249084249
1.8716768290032633,0.5778021978021978,0.4488644688644688,0.25142857142857145
1.8764074359933147,0.5778021978021978,0.4488644688644688,0.25142857142857145
1.8766842629993334,0.6293772893772893,0.527032967032967,1.5593406593406591
1.8819480300007854,0.6293772893772893,0.527032967032967,1.5593406593406591
1.8850393320026342,0.6293772893772893,0.527032967032967,1.5593406593406591
1.887554098997498,0.6293772893772893,0.527032967032967,1.5593406593406591
1.8928784390009241,0.6293772893772893,0.527032967032967,1.5593406593406591
1.8962452150008176,0.6293772893772893,0.527032967032967,1.5593406593406591
1.8965780470025493,0.6293772893772893,0.527032967032967,1.5593406593406591
1.9018251809902722,0.6293772893772893,0.527032967032967,1.5593406593406591
1.904854816995794,0.5358974358974359,0.18695970695970696,0.9041758241758242
1.9078681179962587,0.10637362637362638,0.14424908424908423,0.5632967032967032
1.9108681669895304,0.10637362637362638,0.14424908424908423,0.5632967032967032
1.913871646989719,0.10637362637362638,0.14424908424908423,0.5632967032967032
1.91686984700209,0.10637362637362638,0.14424908424908423,0.5632967032967032
1.9198737870028708,0.10637362637362638,0.14424908424908423,0.5632967032967032
1.9228724819986382,0.10637362637362638,0.14424908424908423,0.5632967032967032
1.925217566997162,0.8953113553113552,0.3231501831501831,1.54
1.9254329629911808,0.14586080586080585,0.14666666666666667,0.6793406593406592
1.9302663589915028,0.14586080586080585,0.14666666666666667,0.6793406593406592
1.9304512230010005,0.14586080586080585,0.14666666666666667,0.6793406593406592
1.935326114995405,0.14586080586080585,0.14666666666666667,0.6793406593406592
1.9354314529919066,0.14586080586080585,0.14666666666666667,0.6793406593406592
1.9402238659968134,0.14586080586080585,0.14666666666666667,0.6793406593406592
1.9403817559941672,0.14586080586080585,0.14666666666666667,0.6793406593406592
1.9456982909905491,0.14586080586080585,0.14666666666666667,0.6793406593406592
1.9480564650002634,0.14586080586080585,0.14666666666666667,0.6793406593406592
1.9483117569907336,0.14586080586080585,0.14666666666666667,0.6793406593406592
1.95350168600271,0.14586080586080585,0.14666666666666667,0.6793406593406592
1.9565585739910603,0.14586080586080585,0.14666666666666667,0.6793406593406592
1.9589428159961244,0.14586080586080585,0.14666666666666667,0.6793406593406592
1.9592094019899378,0.14586080586080585,0.14666666666666667,0.6793406593406592
1.9637993099895539,1.1628571428571428,0.5262271062271061,1.5222710622710622
1.9640654359973269,0.7123809523809523,0.31347985347985347,1.1709157509157508
1.9695136539958185,0.7123809523809523,0.31347985347985347,1.1709157509157508
1.9705515749956248,0.49560439560439556,0.4351648351648352,0.10153846153846154
1.971409477002453,0.49560439560439556,0.4351648351648352,0.10153846153846154
1.9730271159933181,0.49560439560439556,0.4351648351648352,0.10153846153846154
1.977648259999114,0.49560439560439556,0.4351648351648352,0.10153846153846154
1.9779663189983694,0.49560439560439556,0.4351648351648352,0.10153846153846154
1.9832098889892222,0.49560439560439556,0.4351648351648352,0.10153846153846154
1.9864967140019871,0.49560439560439556,0.4351648351648352,0.10153846153846154
1.9873545759910485,0.49560439560439556,0.4351648351648352,0.10153846153846154
1.9890664080012357,0.49560439560439556,0.4351648351648352,0.10153846153846154
1.9928627449990017,0.49560439560439556,0.4351648351648352,0.10153846153846154
1.9981343999970704,0.49560439560439556,0.4351648351648352,0.10153846153846154
2.000575793994358,0.49560439560439556,0.4351648351648352,0.10153846153846154
2.00071909998951,0.49560439560439556,0.4351648351648352,0.10153846153846154
2.0060294089926174,0.49560439560439556,0.4351648351648352,0.10153846153846154
2.0084811839915346,0.49560439560439556,0.4351648351648352,0.10153846153846154
2.0137823819968617,0.49560439560439556,0.4351648351648352,0.10153846153846154
2.017104151993408,0.49560439560439556,0.4351648351648352,0.10153846153846154
2.017989789994317,0.49560439560439556,0.4351648351648352,0.10153846153846154
2.019786139993812,0.49560439560439556,0.4351648351648352,0.10153846153846154
2.0238227160007227,0.49560439560439556,0.4351648351648352,0.10153846153846154
2.0269756959896768,0.2361172161172161,0.09267399267399268,0.9146520146520146
2.0285320230032085,0.2361172161172161,0.09267399267399268,0.9146520146520146
2.0330996440025046,0.2361172161172161,0.09267399267399268,0.9146520146520146
2.0333663670026,0.037875457875457874,0.18857142857142856,0.24901098901098898
2.037939079993521,0.037875457875457874,0.18857142857142856,0.24901098901098898
2.03886143300042,0.037875457875457874,0.18857142857142856,0.24901098901098898
2.0397239649901167,0.037875457875457874,0.18857142857142856,0.24901098901098898
2.041338081995491,0.037875457875457874,0.18857142857142856,0.24901098901098898
2.045217534992844,0.037875457875457874,0.18857142857142856,0.24901098901098898
2.0506812399980845,0.037875457875457874,0.18857142857142856,0.24901098901098898
2.0523285119998036,0.037875457875457874,0.18857142857142856,0.24901098901098898
2.055414752991055,0.037875457875457874,0.18857142857142856,0.24901098901098898
2.0577233039948624,0.037875457875457874,0.18857142857142856,0.24901098901098898
2.0579601139907027,0.037875457875457874,0.18857142857142856,0.24901098901098898
2.0632520299986936,0.037875457875457874,0.18857142857142856,0.24901098901098898
2.0655308610002976,0.037875457875457874,0.18857142857142856,0.24901098901098898
2.0657923739927355,0.037875457875457874,0.18857142857142856,0.24901098901098898
2.070973858993966,0.037875457875457874,0.18857142857142856,0.24901098901098898
2.0750592199910898,0.037875457875457874,0.18857142857142856,0.24901098901098898
2.077826875989558,0.037875457875457874,0.18857142857142856,0.24901098901098898
2.0813914769969415,1.36996336996337,0.6390476190476191,1.257142857142857
2.0816177149972646,0.776043956043956,0.2345054945054945,1.0556776556776555
2.086446248998982,0.776043956043956,0.2345054945054945,1.0556776556776555
2.0865511290030554,2.718974358974359,1.4690842490842488,0.3046153846153846
2.091334878001362,2.718974358974359,1.4690842490842488,0.3046153846153846
2.091528885997832,2.718974358974359,1.4690842490842488,0.3046153846153846
2.0963534619950224,2.718974358974359,1.4690842490842488,0.3046153846153846
2.0965755509969313,2.718974358974359,1.4690842490842488,0.3046153846153846
2.102363724989118,2.718974358974359,1.4690842490842488,0.3046153846153846
2.1025340749911265,2.718974358974359,1.4690842490842488,0.3046153846153846
2.1070892860007007,2.718974358974359,1.4690842490842488,0.3046153846153846
2.1073995170008857,2.718974358974359,1.4690842490842488,0.3046153846153846
2.1126347629906377,2.718974358974359,1.4690842490842488,0.3046153846153846
2.1163824679970276,2.718974358974359,1.4690842490842488,0.3046153846153846
2.1208966330013936,0.3884249084249084,0.4424175824175824,0.9082051282051282
2.1218196749978233,1.6262271062271063,0.8759706959706959,1.0701831501831502
2.1233853500016266,1.6262271062271063,0.8759706959706959,1.0701831501831502
2.127336252000532,1.6262271062271063,0.8759706959706959,1.0701831501831502
2.1311756179929944,1.6262271062271063,0.8759706959706959,1.0701831501831502
2.1356980569980806,0.29978021978021974,0.3876190476190476,0.28849816849816845
2.1360882479930297,0.29978021978021974,0.3876190476190476,0.28849816849816845
2.1413475110020954,0.29978021978021974,0.3876190476190476,0.28849816849816845
2.1443343220016686,0.29978021978021974,0.3876190476190476,0.28849816849816845
2.146677198994439,0.29978021978021974,0.3876190476190476,0.28849816849816845
2.1469651669904124,0.29978021978021974,0.3876190476190476,0.28849816849816845
2.1522456579987193,0.29978021978021974,0.3876190476190476,0.28849816849816845
2.155224611997255,0.29978021978021974,0.3876190476190476,0.28849816849816845
2.1582507339917356,0.29978021978021974,0.3876190476190476,0.28849816849816845
2.1606071650021477,0.29978021978021974,0.3876190476190476,0.28849816849816845
2.160914975000196,0.29978021978021974,0.3876190476190476,0.28849816849816845
2.166159164989949,0.29978021978021974,0.3876190476190476,0.28849816849816845
2.1692395549907815,0.29978021978021974,0.3876190476190476,0.28849816849816845
2.172252998003387,0.29978021978021974,0.3876190476190476,0.28849816849816845
2.1746032719966024,0.29978021978021974,0.3876190476190476,0.28849816849816845
2.174828732997412,0.29978021978021974,0.3876190476190476,0.28849816849816845
2.1802395659906324,0.29978021978021974,0.3876190476190476,0.28849816849816845
2.1832080239983043,0.29978021978021974,0.3876190476190476,0.28849816849816845
2.1862634610006353,0.29978021978021974,0.3876190476190476,0.28849816849816845
2.1886162469891133,1.5770695970695972,0.9791208791208791,0.28930402930402926
2.188777160990867,0.7986080586080586,0.5302564102564102,0.21838827838827837
2.1941972019994864,0.7986080586080586,0.5302564102564102,0.21838827838827837
2.1966864679998253,0.7986080586080586,0.5302564102564102,0.21838827838827837
2.1967794759984827,0.7986080586080586,0.5302564102564102,0.21838827838827837
2.2021959529956803,0.7986080586080586,0.5302564102564102,0.21838827838827837
2.2044757359981304,0.7986080586080586,0.5302564102564102,0.21838827838827837
2.2047772349906154,0.7986080586080586,0.5302564102564102,0.21838827838827837
2.2100864499952877,0.7986080586080586,0.5302564102564102,0.21838827838827837
2.2123885939945467,0.7986080586080586,0.5302564102564102,0.21838827838827837
2.2126450639916584,0.7986080586080586,0.5302564102564102,0.21838827838827837
2.217849776003277,0.7986080586080586,0.5302564102564102,0.21838827838827837
2.2209899079898605,0.7986080586080586,0.5302564102564102,0.21838827838827837
2.2219090879953,1.3949450549450548,0.6656410256410257,1.332087912087912
2.2235291230026633,1.3949450549450548,0.6656410256410257,1.332087912087912
2.2272788739937823,1.3949450549450548,0.6656410256410257,1.332087912087912
2.232748593989527,1.3949450549450548,0.6656410256410257,1.332087912087912
2.234394828992663,0.2756043956043956,0.3191208791208791,0.6567765567765567
2.2382714220002526,0.2756043956043956,0.3191208791208791,0.6567765567765567
2.2440246249898337,0.2756043956043956,0.3191208791208791,0.6567765567765567
2.2442846310004825,0.2756043956043956,0.3191208791208791,0.6567765567765567
2.2527498429990374,0.2756043956043956,0.3191208791208791,0.6567765567765567
2.2603265789948637,0.2756043956043956,0.3191208791208791,0.6567765567765567
2.2671852269995725,1.5915750915750915,1.1475457875457875,0.4424175824175824
2.270804189989576,1.5915750915750915,1.1475457875457875,0.4424175824175824
2.2709273130021757,1.5915750915750915,1.1475457875457875,0.4424175824175824
2.275536485001794,1.5915750915750915,1.1475457875457875,0.4424175824175824
2.276415611995617,1.5915750915750915,1.1475457875457875,0.4424175824175824
2.278009158995701,1.5915750915750915,1.1475457875457875,0.4424175824175824
2.2818645109946374,1.5915750915750915,1.1475457875457875,0.4424175824175824
2.2864571969985263,1.5915750915750915,1.1475457875457875,0.4424175824175824
2.2867215299920645,0.25384615384615383,0.38358974358974357,0.31267399267399265
2.292040233995067,0.25384615384615383,0.38358974358974357,0.31267399267399265
2.2950737259961898,0.25384615384615383,0.38358974358974357,0.31267399267399265
2.297470876001171,0.25384615384615383,0.38358974358974357,0.31267399267399265
2.302873772001476,0.25384615384615383,0.38358974358974357,0.31267399267399265
2.3051760910020676,0.49157509157509155,0.16842490842490843,1.2087912087912087
2.3054033779917518,0.45692307692307693,0.14102564102564102,1.1717216117216116
2.3107172199961497,0.45692307692307693,0.14102564102564102,1.1717216117216116
2.3123953140020603,0.45692307692307693,0.14102564102564102,1.1717216117216116
2.31639276399801,0.45692307692307693,0.14102564102564102,1.1717216117216116
2.3195869589981157,3.3,1.9622710622710622,0.43435897435897436
2.3211606870027026,3.3,1.9622710622710622,0.43435897435897436
2.3250036539975554,3.3,1.9622710622710622,0.43435897435897436
2.329705470998306,1.5464468864468863,1.003296703296703,0.2079120879120879
2.3298109820025275,1.5464468864468863,1.003296703296703,0.2079120879120879
2.3353696819976903,1.5464468864468863,1.003296703296703,0.2079120879120879
2.3362240540009225,1.5464468864468863,1.003296703296703,0.2079120879120879
2.3378753139986657,1.5464468864468863,1.003296703296703,0.2079120879120879
2.342354514999897,1.5464468864468863,1.003296703296703,0.2079120879120879
2.342694531995221,1.5464468864468863,1.003296703296703,0.2079120879120879
2.34750649399939,1.5464468864468863,1.003296703296703,0.2079120879120879
2.347632833989337,1.5464468864468863,1.003296703296703,0.2079120879120879
2.3522684350027703,1.5464468864468863,1.003296703296703,0.2079120879120879
2.3525567420001607,1.5464468864468863,1.003296703296703,0.2079120879120879
2.3574234359984985,1.5464468864468863,1.003296703296703,0.2079120879120879
2.357554057991365,1.5464468864468863,1.003296703296703,0.2079120879120879
2.36236408399418,1.5464468864468863,1.003296703296703,0.2079120879120879
2.36259602199425,1.5464468864468863,1.003296703296703,0.2079120879120879
2.367460672991001,1.5464468864468863,1.003296703296703,0.2079120879120879
2.3717078719928395,1.5464468864468863,1.003296703296703,0.2079120879120879
2.37387083399517,1.5464468864468863,1.003296703296703,0.2079120879120879
2.3747008509963052,1.5464468864468863,1.003296703296703,0.2079120879120879
2.37628248600231,1.5464468864468863,1.003296703296703,0.2079120879120879
2.3804815039911773,1.5464468864468863,1.003296703296703,0.2079120879120879
2.3839635710028233,1.5464468864468863,1.003296703296703,0.2079120879120879
2.384167971991701,1.5464468864468863,1.003296703296703,0.2079120879120879
2.3891063679911895,1.5464468864468863,1.003296703296703,0.2079120879120879
2.3937301129917614,1.5464468864468863,1.003296703296703,0.2079120879120879
2.393979467000463,1.5464468864468863,1.003296703296703,0.2079120879120879
2.3985783029929735,1.5464468864468863,1.003296703296703,0.2079120879120879
2.39942639900255,1.5464468864468863,1.003296703296703,0.2079120879120879
2.4009961699921405,1.5464468864468863,1.003296703296703,0.2079120879120879
2.4055320609913906,0.473040293040293,0.23369963369963367,0.8469597069597068
2.405810374999419,0.473040293040293,0.23369963369963367,0.8469597069597068
2.4112477809976554,0.473040293040293,0.23369963369963367,0.8469597069597068
2.4130615089961793,0.473040293040293,0.23369963369963367,0.8469597069597068
2.416907867998816,0.473040293040293,0.23369963369963367,0.8469597069597068
2.4208271719980985,0.4835164835164835,0.5028571428571429,0.9259340659340659
2.42459847999271,0.4835164835164835,0.5028571428571429,0.9259340659340659
2.4293986879929435,0.4835164835164835,0.5028571428571429,0.9259340659340659
2.434805911994772,0.4835164835164835,0.5028571428571429,0.9259340659340659
2.437106473997119,0.4835164835164835,0.5028571428571429,0.9259340659340659
2.4374008680024417,0.4835164835164835,0.5028571428571429,0.9259340659340659
2.442729607995716,0.4835164835164835,0.5028571428571429,0.9259340659340659
2.4458345210005064,0.5882783882783883,0.22725274725274724,0.9227106227106227
2.4475461269903462,0.5882783882783883,0.22725274725274724,0.9227106227106227
2.4514517089992296,0.5882783882783883,0.22725274725274724,0.9227106227106227
2.4545120139955543,0.5882783882783883,0.22725274725274724,0.9227106227106227
2.457006594995619,0.5882783882783883,0.22725274725274724,0.9227106227106227
2.4572391690016957,0.5882783882783883,0.22725274725274724,0.9227106227106227
2.4626586480007973,0.5882783882783883,0.22725274725274724,0.9227106227106227
2.465127178991679,0.40534798534798533,0.1402197802197802,1.0975824175824174
2.470709301996976,0.40534798534798533,0.1402197802197802,1.0975824175824174
2.471683140989626,0.40534798534798533,0.1402197802197802,1.0975824175824174
2.4726452629984124,0.40534798534798533,0.1402197802197802,1.0975824175824174
2.474222707998706,0.40534798534798533,0.1402197802197802,1.0975824175824174
2.47870018199319,0.40534798534798533,0.1402197802197802,1.0975824175824174
2.4795943240023917,0.40534798534798533,0.1402197802197802,1.0975824175824174
2.4811504459939897,0.40534798534798533,0.1402197802197802,1.0975824175824174
2.4856341849954333,0.40534798534798533,0.1402197802197802,1.0975824175824174
2.486569790999056,0.40534798534798533,0.1402197802197802,1.0975824175824174
2.488129082994419,0.40534798534798533,0.1402197802197802,1.0975824175824174
2.4926395639922703,0.40534798534798533,0.1402197802197802,1.0975824175824174
2.4929712809971534,0.40534798534798533,0.1402197802197802,1.0975824175824174
2.498217239000951,0.40534798534798533,0.1402197802197802,1.0975824175824174
2.501318939990597,0.40534798534798533,0.1402197802197802,1.0975824175824174
2.5036575569974957,0.40534798534798533,0.1402197802197802,1.0975824175824174
2.503830878995359,0.40534798534798533,0.1402197802197802,1.0975824175824174
2.509144652998657,0.40534798534798533,0.1402197802197802,1.0975824175824174
2.5115831299917772,0.40534798534798533,0.1402197802197802,1.0975824175824174
2.5116894529928686,0.19179487179487179,0.3158974358974359,0.28608058608058606
2.5171548329963116,0.19179487179487179,0.3158974358974359,0.28608058608058606
2.5187728210003115,0.19179487179487179,0.3158974358974359,0.28608058608058606
2.5233433329995023,0.19179487179487179,0.3158974358974359,0.28608058608058606
2.5236954080028227,0.19179487179487179,0.3158974358974359,0.28608058608058606
2.528969186998438,0.19179487179487179,0.3158974358974359,0.28608058608058606
2.5314145989977987,0.19179487179487179,0.3158974358974359,0.28608058608058606
2.5315222829958657,0.21435897435897436,0.19985347985347984,0.2369230769230769
2.5369981190015096,1.991282051282051,0.9468864468864467,2.0783150183150183
2.5387722849991405,0.49076923076923074,0.5044688644688645,1.0105494505494506
2.541923330994905,0.49076923076923074,0.5044688644688645,1.0105494505494506
2.5434213139960775,0.49076923076923074,0.5044688644688645,1.0105494505494506
2.548265242992784,0.49076923076923074,0.5044688644688645,1.0105494505494506
2.553175018998445,0.6906227106227106,0.47465201465201456,0.26915750915750913
2.5580309689976275,0.6906227106227106,0.47465201465201456,0.26915750915750913
2.5581251429975964,0.6906227106227106,0.47465201465201456,0.26915750915750913
2.5629707019979833,0.6906227106227106,0.47465201465201456,0.26915750915750913
2.5630749769916292,0.6906227106227106,0.47465201465201456,0.26915750915750913
2.5678937240008963,0.6906227106227106,0.47465201465201456,0.26915750915750913
2.5680654919997323,3.3,1.792234432234432,0.3690842490842491
2.5729366469895467,3.3,1.792234432234432,0.3690842490842491
2.5771569839998847,3.3,1.792234432234432,0.3690842490842491
2.5799621140031377,3.3,1.792234432234432,0.3690842490842491
2.583499992993893,3.3,1.792234432234432,0.3690842490842491
2.5836943710019113,3.3,1.792234432234432,0.3690842490842491
2.5885768110019853,3.3,1.792234432234432,0.3690842490842491
2.588679216991295,3.3,1.792234432234432,0.3690842490842491
2.593575199993211,3.3,1.792234432234432,0.3690842490842491
2.5985006089904346,3.3,1.792234432234432,0.3690842490842491
2.602692938002292,1.5335531135531135,0.7526739926739926,1.1854212454212454
2.6056669440004043,0.850989010989011,0.3158974358974359,1.3095238095238093
2.6080744249920826,0.850989010989011,0.3158974358974359,1.3095238095238093
2.608375084993895,0.850989010989011,0.3158974358974359,1.3095238095238093
2.6130238649930106,0.850989010989011,0.3158974358974359,1.3095238095238093
2.6132593039947096,0.05882783882783882,0.195018315018315,0.25142857142857145
2.6185772949975217,0.05882783882783882,0.195018315018315,0.25142857142857145
2.621065084997099,1.6076923076923075,0.7986080586080586,1.1201465201465202
2.6212459249945823,1.6076923076923075,0.7986080586080586,1.1201465201465202
2.6277879599947482,0.8171428571428572,0.2224175824175824,1.4223443223443224
2.631739763994119,0.4496703296703296,0.08622710622710622,1.0331135531135531
2.6356652849935926,0.4496703296703296,0.08622710622710622,1.0331135531135531
2.6396794119937113,0.4496703296703296,0.08622710622710622,1.0331135531135531
2.6437149470002623,0.4496703296703296,0.08622710622710622,1.0331135531135531
2.6477583489904646,0.3142857142857142,0.13619047619047617,0.8485714285714284
2.65163896199374,0.7744322344322344,0.5068864468864469,0.25465201465201465
2.655712206993485,0.7744322344322344,0.5068864468864469,0.25465201465201465
2.659804091003025,0.7744322344322344,0.5068864468864469,0.25465201465201465
2.6630476629943587,0.7744322344322344,0.5068864468864469,0.25465201465201465
2.664667813995038,0.7744322344322344,0.5068864468864469,0.25465201465201465
2.66882729200006,0.7744322344322344,0.5068864468864469,0.25465201465201465
2.67213317900314,0.41340659340659336,0.3908424908424908,0.166007326007326
2.673083814996062,0.41340659340659336,0.3908424908424908,0.166007326007326
2.6739987199980533,0.41340659340659336,0.3908424908424908,0.166007326007326
2.674902792990906,0.41340659340659336,0.3908424908424908,0.166007326007326
2.676588272996014,0.41340659340659336,0.3908424908424908,0.166007326007326
2.6804730000003474,0.41340659340659336,0.3908424908424908,0.166007326007326
2.684247276993119,1.1934798534798534,0.48432234432234433,1.4860073260073259
2.689775753999129,0.17487179487179486,0.1515018315018315,0.7945787545787546
2.6913596509984927,0.09428571428571428,0.24739926739926738,0.3424908424908425
2.6958019599987892,0.07575091575091575,0.22564102564102564,0.2063003663003663
2.697388960994431,0.07575091575091575,0.22564102564102564,0.2063003663003663
2.7011204839946004,0.07575091575091575,0.22564102564102564,0.2063003663003663
2.7064630020031473,0.07575091575091575,0.22564102564102564,0.2063003663003663
2.709602848000941,0.07575091575091575,0.22564102564102564,0.2063003663003663
2.712103024998214,0.07575091575091575,0.22564102564102564,0.2063003663003663
2.717002648001653,0.07575091575091575,0.22564102564102564,0.2063003663003663
2.721923995995894,0.07575091575091575,0.22564102564102564,0.2063003663003663
2.7281107799935853,0.07575091575091575,0.22564102564102564,0.2063003663003663
2.7320533039892325,0.6696703296703297,0.49399267399267394,0.25787545787545785
2.7359739919920685,0.6696703296703297,0.49399267399267394,0.25787545787545785
2.7414152729907073,0.6696703296703297,0.49399267399267394,0.25787545787545785
2.744107988997712,0.6696703296703297,0.49399267399267394,0.25787545787545785
2.7509271839953726,0.6696703296703297,0.49399267399267394,0.25787545787545785
2.7564501500019105,0.6696703296703297,0.49399267399267394,0.25787545787545785
2.7631606349896174,3.133992673992674,1.8816849816849814,0.5093040293040293
2.7707738609897206,1.295018315018315,0.5197802197802197,1.5553113553113551
2.77807802100142,1.295018315018315,0.5197802197802197,1.5553113553113551
2.782759908994194,1.295018315018315,0.5197802197802197,1.5553113553113551
2.7881483119999757,1.295018315018315,0.5197802197802197,1.5553113553113551
2.7897423440008424,3.3,1.9332600732600733,0.415018315018315
2.7935422500013374,3.3,1.9332600732600733,0.415018315018315
2.7980395990016405,3.3,1.9332600732600733,0.415018315018315
2.798917811989668,3.3,1.9332600732600733,0.415018315018315
2.8012085239897715,3.3,1.9332600732600733,0.415018315018315
2.801483275994542,3.3,1.9332600732600733,0.415018315018315
2.8069593769905623,3.3,1.9332600732600733,0.415018315018315
2.8085839499981375,2.9776556776556777,1.58996336996337,0.46739926739926735
2.811681179999141,2.9776556776556777,1.58996336996337,0.46739926739926735
2.81401848999667,2.9776556776556777,1.58996336996337,0.46739926739926735
2.8142562589928275,2.9776556776556777,1.58996336996337,0.46739926739926735
2.81883683099295,2.9776556776556777,1.58996336996337,0.46739926739926735
2.8197149109910242,2.9776556776556777,1.58996336996337,0.46739926739926735
2.8206623519945424,2.9776556776556777,1.58996336996337,0.46739926739926735
2.8222554469975876,2.9776556776556777,1.58996336996337,0.46739926739926735
2.826142246995005,2.9776556776556777,1.58996336996337,0.46739926739926735
2.830741819998366,2.9776556776556777,1.58996336996337,0.46739926739926735
2.830933424993418,2.9776556776556777,1.58996336996337,0.46739926739926735
2.835713034000946,2.9776556776556777,1.58996336996337,0.46739926739926735
2.8419951559917536,3.1130402930402927,1.668131868131868,0.4786813186813187
2.847868461991311,3.1130402930402927,1.668131868131868,0.4786813186813187
2.8539986120013054,3.1130402930402927,1.668131868131868,0.4786813186813187
2.859457739003119,0.17809523809523808,0.3021978021978022,0.3352380952380952
2.8597805530007463,0.46014652014652013,0.5133333333333333,0.6261538461538461
2.8648296689934796,0.46014652014652013,0.5133333333333333,0.6261538461538461
2.8689815339894267,0.46014652014652013,0.5133333333333333,0.6261538461538461
2.8721674059925135,0.46014652014652013,0.5133333333333333,0.6261538461538461
2.8738730499899248,0.46014652014652013,0.5133333333333333,0.6261538461538461
2.880462321001687,0.46014652014652013,0.5133333333333333,0.6261538461538461
2.8847132910013897,0.46014652014652013,0.5133333333333333,0.6261538461538461
2.887075658989488,0.46014652014652013,0.5133333333333333,0.6261538461538461
2.8873297449899837,0.46014652014652013,0.5133333333333333,0.6261538461538461
2.8936963960004505,0.46014652014652013,0.5133333333333333,0.6261538461538461
2.8979865279980004,1.6157509157509156,0.9114285714285715,2.111355311355311
2.900376049001352,1.6157509157509156,0.9114285714285715,2.111355311355311
2.9005676759989,1.6157509157509156,0.9114285714285715,2.111355311355311
2.906100781998248,1.6157509157509156,0.9114285714285715,2.111355311355311
2.9064698739966843,1.6157509157509156,0.9114285714285715,2.111355311355311
2.914025035002851,1.6157509157509156,0.9114285714285715,2.111355311355311
2.919465725994087,0.36344322344322344,0.34813186813186814,0.3021978021978022
2.921046778996242,0.36344322344322344,0.34813186813186814,0.3021978021978022
2.9283383209985914,0.36344322344322344,0.34813186813186814,0.3021978021978022
2.932421228993917,0.36344322344322344,0.34813186813186814,0.3021978021978022
2.9355746590008494,1.6334798534798534,0.7397802197802198,2.1709890109890106
2.937864980995073,1.6334798534798534,0.7397802197802198,2.1709890109890106
2.9380861459940206,1.6334798534798534,0.7397802197802198,2.1709890109890106
2.949120553996181,1.6334798534798534,0.7397802197802198,2.1709890109890106
2.9574720289965626,1.6334798534798534,0.7397802197802198,2.1709890109890106
2.964995082002133,0.5423443223443223,0.5157509157509157,1.2466666666666666
2.968883959998493,0.4891575091575091,0.12974358974358974,1.0315018315018314
2.9739593739941483,0.4891575091575091,0.12974358974358974,1.0315018315018314
2.979440095994505,0.4891575091575091,0.12974358974358974,1.0315018315018314
2.979757699999027,0.4891575091575091,0.12974358974358974,1.0315018315018314
2.9847644209949067,0.4891575091575091,0.12974358974358974,1.0315018315018314
2.988704457995482,0.4891575091575091,0.12974358974358974,1.0315018315018314
2.9944815049966564,0.4891575091575091,0.12974358974358974,1.0315018315018314
2.999619113994413,0.4891575091575091,0.12974358974358974,1.0315018315018314
3.0031014859996503,1.1854212454212454,0.5399267399267399,1.5488644688644688
3.003298244002508,0.767985347985348,0.2087179487179487,1.577875457875458
3.009511725002085,0.767985347985348,0.2087179487179487,1.577875457875458
3.0151627890008967,0.767985347985348,0.2087179487179487,1.577875457875458
3.0247913769999286,0.767985347985348,0.2087179487179487,1.577875457875458
3.033318813002552,1.2337728937728938,0.4931868131868131,1.6423443223443224
3.039534312993055,1.2337728937728938,0.4931868131868131,1.6423443223443224
3.045747757991194,1.5915750915750915,0.7849084249084248,1.0653479853479852
3.049682547993143,2.1427838827838825,1.1233699633699634,0.5310622710622711
3.053518588989391,2.1427838827838825,1.1233699633699634,0.5310622710622711
3.0598339199932525,2.1427838827838825,1.1233699633699634,0.5310622710622711
3.063228558996343,2.1427838827838825,1.1233699633699634,0.5310622710622711
3.063529392995406,0.2868864468864469,0.09992673992673992,0.5971428571428571
3.069068208002136,0.2868864468864469,0.09992673992673992,0.5971428571428571
3.070832760000485,0.2868864468864469,0.09992673992673992,0.5971428571428571
3.0744361219985876,0.2868864468864469,0.09992673992673992,0.5971428571428571
3.081307978995028,0.2868864468864469,0.09992673992673992,0.5971428571428571
3.085905660991557,1.5545054945054944,0.7421978021978022,1.257142857142857
3.086141781997867,0.5367032967032966,0.4835164835164835,0.2925274725274725
3.0917048010014696,0.5367032967032966,0.4835164835164835,0.2925274725274725
3.094001338991802,0.5367032967032966,0.4835164835164835,0.2925274725274725
3.0941347109910566,0.5367032967032966,0.4835164835164835,0.2925274725274725
3.1030413809930906,0.5367032967032966,0.4835164835164835,0.2925274725274725
3.111178603998269,0.5367032967032966,0.4835164835164835,0.2925274725274725
3.115777736995369,0.5367032967032966,0.4835164835164835,0.2925274725274725
3.116731868998613,0.5367032967032966,0.4835164835164835,0.2925274725274725
3.1176975799899083,0.5367032967032966,0.4835164835164835,0.2925274725274725
3.1193249039934017,0.5367032967032966,0.4835164835164835,0.2925274725274725
3.124162416002946,0.5367032967032966,0.4835164835164835,0.2925274725274725
3.1327506020024884,0.4585347985347985,0.12571428571428572,1.373992673992674
3.1391711109899916,0.4585347985347985,0.12571428571428572,1.373992673992674
3.1442590179940453,0.4585347985347985,0.12571428571428572,1.373992673992674
3.146658739002305,0.4585347985347985,0.12571428571428572,1.373992673992674
3.1468429119995562,0.4585347985347985,0.12571428571428572,1.373992673992674
3.1522951389924856,0.4585347985347985,0.12571428571428572,1.373992673992674
3.1546365909889573,0.4585347985347985,0.12571428571428572,1.373992673992674
3.1548065319948364,0.4585347985347985,0.12571428571428572,1.373992673992674
3.1639759019890334,0.4585347985347985,0.12571428571428572,1.373992673992674
3.1723092000029283,1.079047619047619,0.4142124542124542,2.0307692307692307
3.179786102991784,1.079047619047619,0.4142124542124542,2.0307692307692307
3.1838061529997503,1.5851282051282052,0.8727472527472527,2.4014652014652014
3.1869097460003104,1.5851282051282052,0.8727472527472527,2.4014652014652014
3.1892067629960366,0.3432967032967033,0.41340659340659336,0.3263736263736263
3.189434692991199,0.3432967032967033,0.41340659340659336,0.3263736263736263
3.197190070000943,0.3432967032967033,0.41340659340659336,0.3263736263736263
3.2017796589934733,1.9816117216117215,0.9194871794871795,2.343443223443223
3.2020954329927918,1.9816117216117215,0.9194871794871795,2.343443223443223
3.206790636992082,1.9816117216117215,0.9194871794871795,2.343443223443223
3.2069719069986604,0.1095970695970696,0.1386080586080586,0.6769230769230768
3.2139502469945,0.1095970695970696,0.1386080586080586,0.6769230769230768
3.2177283279888798,0.1095970695970696,0.1386080586080586,0.6769230769230768
3.223385944002075,0.1095970695970696,0.1386080586080586,0.6769230769230768
3.2244204039889155,1.3401465201465201,0.614065934065934,1.602051282051282
3.2246632399910595,1.3401465201465201,0.614065934065934,1.602051282051282
3.2301076570001896,1.3401465201465201,0.614065934065934,1.602051282051282
3.2310599089978496,1.3401465201465201,0.614065934065934,1.602051282051282
3.232664388997364,1.3401465201465201,0.614065934065934,1.602051282051282
3.2364635139965685,1.0113553113553113,0.5254212454212454,1.2498901098901098
3.2411880329891574,1.0113553113553113,0.5254212454212454,1.2498901098901098
3.241384023989667,1.0113553113553113,0.5254212454212454,1.2498901098901098
3.246647280000616,1.0113553113553113,0.5254212454212454,1.2498901098901098
3.248974852001993,1.0113553113553113,0.5254212454212454,1.2498901098901098
3.2491781930002617,1.0113553113553113,0.5254212454212454,1.2498901098901098
3.2538001429929864,1.0113553113553113,0.5254212454212454,1.2498901098901098
3.2541077959904214,1.0113553113553113,0.5254212454212454,1.2498901098901098
3.2589194829924963,1.0113553113553113,0.5254212454212454,1.2498901098901098
3.265021623999928,3.2468131868131866,1.7527472527472527,0.5173626373626373
3.268894499997259,3.2468131868131866,1.7527472527472527,0.5173626373626373
3.2743432439892786,2.2515750915750914,1.4416849816849817,0.3908424908424908
3.2766989410010865,2.2515750915750914,1.4416849816849817,0.3908424908424908
3.283062971997424,2.2515750915750914,1.4416849816849817,0.3908424908424908
3.286920058002579,2.2515750915750914,1.4416849816849817,0.3908424908424908
3.294070781994378,2.2515750915750914,1.4416849816849817,0.3908424908424908
3.298132051000721,2.2515750915750914,1.4416849816849817,0.3908424908424908
3.301214772000094,2.2515750915750914,1.4416849816849817,0.3908424908424908
3.302885687997332,2.2515750915750914,1.4416849816849817,0.3908424908424908
3.307121145000565,2.2515750915750914,1.4416849816849817,0.3908424908424908
3.3095149619912263,2.2515750915750914,1.4416849816849817,0.3908424908424908
3.3150852989929263,2.2515750915750914,1.4416849816849817,0.3908424908424908
3.3159583270025905,2.2515750915750914,1.4416849816849817,0.3908424908424908
3.3182765759993345,2.2515750915750914,1.4416849816849817,0.3908424908424908
3.318505755989463,2.2515750915750914,1.4416849816849817,0.3908424908424908
3.3242312249931274,2.2515750915750914,1.4416849816849817,0.3908424908424908
3.3243665369955124,0.4117948717948718,0.13216117216117215,1.0427838827838827
3.3327762900007656,0.21999999999999997,0.13054945054945052,0.855018315018315
3.3370656899933238,1.6689377289377287,0.921098901098901,2.34021978021978
3.3389434779965086,1.6689377289377287,0.921098901098901,2.34021978021978
3.3414672869985225,1.6689377289377287,0.921098901098901,2.34021978021978
3.3488593689980917,1.6689377289377287,0.921098901098901,2.34021978021978
3.353453075993457,1.6689377289377287,0.921098901098901,2.34021978021978
3.3538034099910874,1.6689377289377287,0.921098901098901,2.34021978021978
3.3619446480006445,1.6689377289377287,0.921098901098901,2.34021978021978
3.3659072290029144,1.6689377289377287,0.921098901098901,2.34021978021978
3.3716917040001135,1.6689377289377287,0.921098901098901,2.34021978021978
3.3830587870033924,1.6689377289377287,0.921098901098901,2.34021978021978
3.391852750995895,0.34813186813186814,0.15311355311355312,1.0387545787545787
3.3988446799921803,0.34813186813186814,0.15311355311355312,1.0387545787545787
3.404140202997951,0.34813186813186814,0.15311355311355312,1.0387545787545787
3.404496768998797,0.34813186813186814,0.15311355311355312,1.0387545787545787
3.4133706009888556,0.34813186813186814,0.15311355311355312,1.0387545787545787
3.418679925001925,1.7736996336996336,1.1273992673992674,0.36827838827838827
3.4205487509898376,1.767252747252747,0.9678388278388278,0.9412454212454211
3.422939593991032,1.767252747252747,0.9678388278388278,0.9412454212454211
3.423332271995605,1.0887179487179486,0.30864468864468864,1.3643223443223442
3.4333895210002083,1.0887179487179486,0.30864468864468864,1.3643223443223442
3.44134906999534,1.0887179487179486,0.30864468864468864,1.3643223443223442
3.450370145001216,1.0887179487179486,0.30864468864468864,1.3643223443223442
3.4562343259894988,1.0887179487179486,0.30864468864468864,1.3643223443223442
3.46463272398978,1.0887179487179486,0.30864468864468864,1.3643223443223442
3.46923724199587,1.1499633699633698,0.4762637362637362,1.4650549450549448
3.4701542889961274,1.6254212454212453,0.9613919413919414,0.3594139194139194
3.471772457996849,1.6254212454212453,0.9613919413919414,0.3594139194139194
3.4767346500011627,1.6254212454212453,0.9613919413919414,0.3594139194139194
3.481057682991377,1.6254212454212453,0.9613919413919414,0.3594139194139194
3.4819229760032613,1.6254212454212453,0.9613919413919414,0.3594139194139194
3.483578380997642,1.6254212454212453,0.9613919413919414,0.3594139194139194
3.4866860569891287,1.6254212454212453,0.9613919413919414,0.3594139194139194
3.488376534995041,1.6254212454212453,0.9613919413919414,0.3594139194139194
3.4927754559903406,1.6254212454212453,0.9613919413919414,0.3594139194139194
3.494739607995143,1.6254212454212453,0.9613919413919414,0.3594139194139194
3.4968249599915,1.6254212454212453,0.9613919413919414,0.3594139194139194
3.4983785779913887,1.6254212454212453,0.9613919413919414,0.3594139194139194
3.5022248109889915,1.6254212454212453,0.9613919413919414,0.3594139194139194
3.507267498993315,1.6254212454212453,0.9613919413919414,0.3594139194139194
3.5144681189995026,1.6254212454212453,0.9613919413919414,0.3594139194139194
3.520664231997216,1.6254212454212453,0.9613919413919414,0.3594139194139194
3.525339970001369,1.8478388278388278,1.0226373626373626,1.174139194139194
3.5328255079948576,1.8478388278388278,1.0226373626373626,1.174139194139194
3.5378482340020128,0.11684981684981684,0.17487179487179486,0.3304029304029304
3.5434468049934367,0.11684981684981684,0.17487179487179486,0.3304029304029304
3.54379218199756,0.11684981684981684,0.17487179487179486,0.3304029304029304
3.5488757860002806,0.11684981684981684,0.17487179487179486,0.3304029304029304
3.552699097999721,0.11684981684981684,0.17487179487179486,0.3304029304029304
3.5573793329967884,0.11684981684981684,0.17487179487179486,0.3304029304029304
3.565185842991923,0.11684981684981684,0.17487179487179486,0.3304029304029304
3.5697618889971636,0.11684981684981684,0.17487179487179486,0.3304029304029304
3.570005877991207,0.11684981684981684,0.17487179487179486,0.3304029304029304
3.5778262179956073,0.11684981684981684,0.17487179487179486,0.3304029304029304
3.5819853029970545,0.11684981684981684,0.17487179487179486,0.3304029304029304
3.584369064992643,0.11684981684981684,0.17487179487179486,0.3304029304029304
3.589893322001444,0.11684981684981684,0.17487179487179486,0.3304029304029304
3.5936634309910005,0.11684981684981684,0.17487179487179486,0.3304029304029304
3.598639103001915,0.11684981684981684,0.17487179487179486,0.3304029304029304
3.6025135590025457,1.6624908424908424,0.8397069597069596,1.1942857142857142
3.6069610299891792,1.6624908424908424,0.8397069597069596,1.1942857142857142
3.609029594997992,0.5173626373626373,0.14586080586080585,1.3868864468864468
3.609445000998676,0.5173626373626373,0.14586080586080585,1.3868864468864468
3.6144090329908067,0.5173626373626373,0.14586080586080585,1.3868864468864468
3.6182074319949606,0.3747252747252747,0.365054945054945,0.842124542124542
3.623471371989581,2.19032967032967,1.129010989010989,0.47706959706959706
3.627677942000446,2.19032967032967,1.129010989010989,0.47706959706959706
3.6310724369977834,2.19032967032967,1.129010989010989,0.47706959706959706
3.6313423690007767,2.19032967032967,1.129010989010989,0.47706959706959706
3.635946476002573,2.19032967032967,1.129010989010989,0.47706959706959706
3.6361810300004436,2.19032967032967,1.129010989010989,0.47706959706959706
3.6423682539898437,3.3,1.8156043956043957,0.49399267399267394
3.6468377669953043,3.3,1.8156043956043957,0.49399267399267394
3.6471210869931383,3.3,1.8156043956043957,0.49399267399267394
3.651641381002264,3.3,1.8156043956043957,0.49399267399267394
3.6521013570018113,3.3,1.8156043956043957,0.49399267399267394
3.6559246969991364,3.3,1.8156043956043957,0.49399267399267394
3.663469143997645,3.3,1.8156043956043957,0.49399267399267394
3.6683441969944397,1.581904761904762,0.7542857142857142,1.4787545787545788
3.675879324990092,1.581904761904762,0.7542857142857142,1.4787545787545788
3.680909820002853,1.581904761904762,0.7542857142857142,1.4787545787545788
3.6841723899997305,1.581904761904762,0.7542857142857142,1.4787545787545788
3.6844445729948347,1.581904761904762,0.7542857142857142,1.4787545787545788
3.6922260699939216,1.581904761904762,0.7542857142857142,1.4787545787545788
3.698834334994899,1.581904761904762,0.7542857142857142,1.4787545787545788
3.703853765997337,1.581904761904762,0.7542857142857142,1.4787545787545788
3.708679410003242,0.32153846153846155,0.13941391941391942,0.689010989010989
3.712865941997734,0.32153846153846155,0.13941391941391942,0.689010989010989
3.715363859999343,0.32153846153846155,0.13941391941391942,0.689010989010989
3.721489905001363,0.32153846153846155,0.13941391941391942,0.689010989010989
3.728811818000395,0.7172161172161172,0.26996336996336995,1.3127472527472526
3.73322272200312,0.7172161172161172,0.26996336996336995,1.3127472527472526
3.733447051999974,0.7172161172161172,0.26996336996336995,1.3127472527472526
3.7389045259915292,0.7172161172161172,0.26996336996336995,1.3127472527472526
3.7418754309910582,0.7172161172161172,0.26996336996336995,1.3127472527472526
3.745304583993857,0.7172161172161172,0.26996336996336995,1.3127472527472526
3.7554748639959143,0.7172161172161172,0.26996336996336995,1.3127472527472526
3.766805134990136,0.7172161172161172,0.26996336996336995,1.3127472527472526
3.775502664997475,0.7172161172161172,0.26996336996336995,1.3127472527472526
3.7808747160015628,1.9155311355311355,0.763956043956044,2.269304029304029
3.781770041998243,1.9155311355311355,0.763956043956044,2.269304029304029
3.784769863996189,1.9155311355311355,0.763956043956044,2.269304029304029
3.786050939001143,1.9155311355311355,0.763956043956044,2.269304029304029
3.7931904629949713,1.9155311355311355,0.763956043956044,2.269304029304029
3.7964137209928595,0.42065934065934063,0.3779487179487179,0.24175824175824176
3.798049495992018,2.706886446886447,1.3304761904761904,0.4851282051282051
3.8048487109917914,1.5303296703296703,0.7945787545787546,1.2732600732600732
3.811371492993203,0.39567765567765567,0.13941391941391942,1.2232967032967033
3.8174000029976014,0.5262271062271061,0.2772161172161172,0.22805860805860806
3.8215755129931495,1.9405128205128204,0.8139194139194139,2.2064468864468862
3.8234516119991895,1.9405128205128204,0.8139194139194139,2.2064468864468862
3.82714488999045,1.9405128205128204,0.8139194139194139,2.2064468864468862
3.8320229840028333,1.9405128205128204,0.8139194139194139,2.2064468864468862
3.8382510819938034,1.9405128205128204,0.8139194139194139,2.2064468864468862
3.8452245389926247,0.6479120879120879,0.5584615384615385,1.552087912087912
3.8501146789931227,1.3884981684981685,0.6616117216117217,1.46021978021978
3.8533461119950516,0.2917216117216117,0.3231501831501831,0.34813186813186814
3.8549991740001133,0.2917216117216117,0.3231501831501831,0.34813186813186814
3.860856558996602,0.2917216117216117,0.3231501831501831,0.34813186813186814
3.867206149996491,0.2917216117216117,0.3231501831501831,0.34813186813186814
3.8710682520031696,0.9694505494505494,0.28124542124542123,1.3659340659340657
3.8777974019903922,0.9694505494505494,0.28124542124542123,1.3659340659340657
3.8810285109939286,0.9694505494505494,0.28124542124542123,1.3659340659340657
3.8819258809962776,0.9694505494505494,0.28124542124542123,1.3659340659340657
3.8835620269965148,0.9694505494505494,0.28124542124542123,1.3659340659340657
3.8876803719904274,0.9694505494505494,0.28124542124542123,1.3659340659340657
3.8925369339995086,0.9694505494505494,0.28124542124542123,1.3659340659340657
3.8982351180020487,0.9694505494505494,0.28124542124542123,1.3659340659340657
3.8983863839966943,0.9694505494505494,0.28124542124542123,1.3659340659340657
3.9033514890033985,0.9694505494505494,0.28124542124542123,1.3659340659340657
3.9104040099919075,0.9694505494505494,0.28124542124542123,1.3659340659340657
3.9156536669906927,0.9694505494505494,0.28124542124542123,1.3659340659340657
3.9160324479889823,0.012893772893772894,0.15956043956043955,0.38278388278388276
3.9257785489899106,0.012893772893772894,0.15956043956043955,0.38278388278388276
3.934304912996595,0.012893772893772894,0.15956043956043955,0.38278388278388276
3.9398837909975555,3.145274725274725,1.8446153846153845,0.502051282051282
3.9400594670005376,1.8905494505494502,0.9573626373626374,1.1032234432234431
3.9500825959985377,1.8905494505494502,0.9573626373626374,1.1032234432234431
3.955450295994524,1.8905494505494502,0.9573626373626374,1.1032234432234431
3.957675780999125,1.8905494505494502,0.9573626373626374,1.1032234432234431
3.957971575000556,1.8905494505494502,0.9573626373626374,1.1032234432234431
3.964397593998001,1.8905494505494502,0.9573626373626374,1.1032234432234431
3.9685152279998874,1.8905494505494502,0.9573626373626374,1.1032234432234431
3.971598889998859,3.0936996336996336,1.8212454212454212,0.506080586080586
3.9757883879938163,3.0936996336996336,1.8212454212454212,0.506080586080586
3.977434988002642,3.0936996336996336,1.8212454212454212,0.506080586080586
3.981108633990516,3.0936996336996336,1.8212454212454212,0.506080586080586
3.9865473879908677,3.0936996336996336,1.8212454212454212,0.506080586080586
3.9874868530023377,3.0936996336996336,1.8212454212454212,0.506080586080586
3.9890538939944236,3.0936996336996336,1.8212454212454212,0.506080586080586
3.996027957997285,3.0936996336996336,1.8212454212454212,0.506080586080586
4.000685770995915,3.0936996336996336,1.8212454212454212,0.506080586080586
4.005341313997633,1.9477655677655676,1.2095970695970695,0.4593406593406593
4.005584372993326,1.9477655677655676,1.2095970695970695,0.4593406593406593
4.012790659995517,1.9477655677655676,1.2095970695970695,0.4593406593406593
4.016761802995461,1.9477655677655676,1.2095970695970695,0.4593406593406593
4.020567465995555,1.9477655677655676,1.2095970695970695,0.4593406593406593
4.02593238800182,1.9477655677655676,1.2095970695970695,0.4593406593406593
4.028058533993317,1.9477655677655676,1.2095970695970695,0.4593406593406593
4.029152310002246,1.9477655677655676,1.2095970695970695,0.4593406593406593
4.029396818994428,1.9477655677655676,1.2095970695970695,0.4593406593406593
4.034795793995727,0.26996336996336995,0.36827838827838827,0.3424908424908425
4.0372506999992765,0.26996336996336995,0.36827838827838827,0.3424908424908425
4.0373729839921,0.26996336996336995,0.36827838827838827,0.3424908424908425
4.045482620989787,1.4432967032967032,0.8646886446886447,0.6076190476190476
4.051148775994079,1.4432967032967032,0.8646886446886447,0.6076190476190476
4.051440821000142,0.4786813186813187,0.39003663003663,0.2594871794871795
4.059078891994432,0.4786813186813187,0.39003663003663,0.2594871794871795
4.065145107000717,0.4786813186813187,0.39003663003663,0.2594871794871795
4.068368888998521,0.4786813186813187,0.39003663003663,0.2594871794871795
4.069973546997062,0.4786813186813187,0.39003663003663,0.2594871794871795
4.076005711001926,0.4786813186813187,0.39003663003663,0.2594871794871795
4.081022622995079,0.4786813186813187,0.39003663003663,0.2594871794871795
4.084083205991192,0.4786813186813187,0.39003663003663,0.2594871794871795
4.0872627459903015,0.4786813186813187,0.39003663003663,0.2594871794871795
4.08883360499749,0.4786813186813187,0.39003663003663,0.2594871794871795
4.097683025000151,0.4786813186813187,0.39003663003663,0.2594871794871795
4.102715711997007,0.4786813186813187,0.39003663003663,0.2594871794871795
4.107722492000903,0.36344322344322344,0.14666666666666667,0.7228571428571429
4.11315205298888,0.36344322344322344,0.14666666666666667,0.7228571428571429
4.1140744570002425,0.011282051282051281,0.20065934065934066,0.49802197802197795
4.115683285999694,0.011282051282051281,0.20065934065934066,0.49802197802197795
4.12013151399151,0.011282051282051281,0.20065934065934066,0.49802197802197795
4.120943741989322,0.011282051282051281,0.20065934065934066,0.49802197802197795
4.122863821001374,0.011282051282051281,0.20065934065934066,0.49802197802197795
4.126808838991565,0.3731135531135531,0.16278388278388278,0.73010989010989
4.130760250991443,0.3731135531135531,0.16278388278388278,0.73010989010989
4.133235086002969,0.3731135531135531,0.16278388278388278,0.73010989010989
4.133418145996984,0.3731135531135531,0.16278388278388278,0.73010989010989
4.138812092991429,0.3731135531135531,0.16278388278388278,0.73010989010989
4.142337664990919,0.3731135531135531,0.16278388278388278,0.73010989010989
4.149250949994894,0.3731135531135531,0.16278388278388278,0.73010989010989
4.154155386990169,0.31347985347985347,0.13216117216117215,1.0105494505494506
4.1621856249985285,1.1636630036630036,0.6293772893772893,1.1934798534798534
4.166694514991832,1.8639560439560439,1.1805860805860806,0.48754578754578753
4.16711476999626,1.8639560439560439,1.1805860805860806,0.48754578754578753
4.171671531003085,0.7816849816849816,0.5173626373626373,0.23047619047619047
4.171929742995417,0.7816849816849816,0.5173626373626373,0.23047619047619047
4.178370991998236,2.028351648351648,0.842124542124542,2.1589010989010986
4.182108180990326,2.8696703296703294,1.7704761904761903,0.5544322344322344
4.187656869995408,2.8696703296703294,1.7704761904761903,0.5544322344322344
4.1885032699938165,2.8696703296703294,1.7704761904761903,0.5544322344322344
4.1915417709969915,2.8696703296703294,1.7704761904761903,0.5544322344322344
4.1932439529919066,2.8696703296703294,1.7704761904761903,0.5544322344322344
4.196834469999885,2.8696703296703294,1.7704761904761903,0.5544322344322344
4.201581264991546,2.8696703296703294,1.7704761904761903,0.5544322344322344
4.201710383000318,2.8696703296703294,1.7704761904761903,0.5544322344322344
4.207350875993143,2.8696703296703294,1.7704761904761903,0.5544322344322344
4.207744769999408,0.26996336996336995,0.13699633699633698,0.942051282051282
4.213098109001294,0.7841025641025641,0.5520146520146519,0.2756043956043956
4.214011349991779,0.7841025641025641,0.5520146520146519,0.2756043956043956
4.215441524997004,0.7841025641025641,0.5520146520146519,0.2756043956043956
4.222642145992722,0.7841025641025641,0.5520146520146519,0.2756043956043956
4.226863194999169,0.7841025641025641,0.5520146520146519,0.2756043956043956
4.230100385000696,0.7841025641025641,0.5520146520146519,0.2756043956043956
4.230429878996802,0.7841025641025641,0.5520146520146519,0.2756043956043956
4.2373410659929505,0.18615384615384614,0.27802197802197803,0.24498168498168496
4.244557283993345,2.025128205128205,0.8904761904761904,1.818021978021978
4.248130150997895,2.025128205128205,0.8904761904761904,1.818021978021978
4.248374824994244,2.025128205128205,0.8904761904761904,1.818021978021978
4.253363886993611,2.025128205128205,0.8904761904761904,1.818021978021978
4.260192571993684,1.1419047619047618,0.7534798534798535,2.1129670329670325
4.263742643001024,1.1419047619047618,0.7534798534798535,2.1129670329670325
4.269410330991377,1.1419047619047618,0.7534798534798535,2.1129670329670325
4.271155654001632,1.1419047619047618,0.7534798534798535,2.1129670329670325
4.276534363001701,1.1419047619047618,0.7534798534798535,2.1129670329670325
4.276771346994792,1.1419047619047618,0.7534798534798535,2.1129670329670325
4.281962660999852,1.1419047619047618,0.7534798534798535,2.1129670329670325
4.284395515001961,1.843003663003663,0.9694505494505494,1.0935531135531134
4.284527882991824,1.843003663003663,0.9694505494505494,1.0935531135531134
4.289384556002915,1.843003663003663,0.9694505494505494,1.0935531135531134
4.295704460993875,0.39809523809523806,0.37150183150183147,0.2594871794871795
4.298930538992863,0.39809523809523806,0.37150183150183147,0.2594871794871795
4.300601708993781,0.39809523809523806,0.37150183150183147,0.2594871794871795
4.304395835992182,0.39809523809523806,0.37150183150183147,0.2594871794871795
4.308833060000325,0.39809523809523806,0.37150183150183147,0.2594871794871795
4.31002668000292,0.8211721611721612,0.5028571428571429,0.22725274725274724
4.31650282299961,0.8211721611721612,0.5028571428571429,0.22725274725274724
4.320332368995878,0.3739194139194139,0.43435897435897436,0.7647619047619048
4.32549339599791,0.3739194139194139,0.43435897435897436,0.7647619047619048
4.330572881997796,0.3739194139194139,0.43435897435897436,0.7647619047619048
4.333703728989349,0.3739194139194139,0.43435897435897436,0.7647619047619048
4.335274051001761,0.3739194139194139,0.43435897435897436,0.7647619047619048
4.340018766000867,0.3739194139194139,0.43435897435897436,0.7647619047619048
4.340223812992917,1.8083516483516484,0.9855677655677655,0.9009523809523808
4.3470406599954,1.8083516483516484,0.9855677655677655,0.9009523809523808
4.350929956999607,3.3,1.8929670329670327,0.518974358974359
4.355810768000083,3.3,1.8929670329670327,0.518974358974359
4.356054093994317,3.3,1.8929670329670327,0.518974358974359
4.36344145599287,3.3,1.8929670329670327,0.518974358974359
4.3681589089974295,3.3,1.8929670329670327,0.518974358974359
4.368379423991428,3.3,1.8929670329670327,0.518974358974359
4.373199831999955,3.3,1.8929670329670327,0.518974358974359
4.383340674001374,3.3,1.8929670329670327,0.518974358974359
4.391506807995029,1.3949450549450548,0.6390476190476191,1.4876190476190476
4.399392374994932,1.3949450549450548,0.6390476190476191,1.4876190476190476
4.4047641459910665,1.8784615384615382,0.7518681318681318,2.1959706959706957
4.405929674991057,1.8784615384615382,0.7518681318681318,2.1959706959706957
4.407008936992497,1.8784615384615382,0.7518681318681318,2.1959706959706957
4.40737629099749,1.8784615384615382,0.7518681318681318,2.1959706959706957
4.413133756999741,2.1395604395604395,1.0959706959706959,0.3997069597069597
4.41893448799965,0.07575091575091575,0.23934065934065935,0.33926739926739924
4.41920739399211,3.3,1.7172893772893774,0.5649084249084249
4.426097414994729,3.3,1.7172893772893774,0.5649084249084249
4.4306808409892255,3.3,1.7172893772893774,0.5649084249084249
4.430806712989579,3.3,1.7172893772893774,0.5649084249084249
4.4385165619896725,3.3,1.7172893772893774,0.5649084249084249
4.446645581003395,3.3,1.7172893772893774,0.5649084249084249
4.4507530799892265,1.0580952380952382,0.36747252747252745,1.332087912087912
4.453302082998562,0.4214652014652014,0.3376556776556776,0.24578754578754577
4.453400649988907,0.4214652014652014,0.3376556776556776,0.24578754578754577
4.4619134870008565,1.4674725274725273,0.6301831501831501,2.1443956043956045
4.46793416699802,1.5754578754578754,0.6938461538461538,1.2353846153846153
4.472257126995828,1.5754578754578754,0.6938461538461538,1.2353846153846153
4.474643093999475,1.5754578754578754,0.6938461538461538,1.2353846153846153
4.485003241003142,1.5754578754578754,0.6938461538461538,1.2353846153846153
4.493609598997864,1.021025641025641,0.4287179487179487,1.3933333333333333
4.502877120001358,1.6230036630036628,0.734139194139194,2.2096703296703293
4.510499965996132,1.6230036630036628,0.734139194139194,2.2096703296703293
4.5158107039897,1.6230036630036628,0.734139194139194,2.2096703296703293
4.516724169996451,1.8784615384615382,0.7421978021978022,2.1846886446886447
4.518322884992813,1.8784615384615382,0.7421978021978022,2.1846886446886447
4.522218843994779,1.8784615384615382,0.7421978021978022,2.1846886446886447
4.52842004399281,1.8784615384615382,0.7421978021978022,2.1846886446886447
4.531109670002479,1.8784615384615382,0.7421978021978022,2.1846886446886447
4.5378878799965605,1.8784615384615382,0.7421978021978022,2.1846886446886447
4.545590117995744,1.8784615384615382,0.7421978021978022,2.1846886446886447
4.551588392001577,1.8784615384615382,0.7421978021978022,2.1846886446886447
4.554868205988896,1.8784615384615382,0.7421978021978022,2.1846886446886447
4.557059910002863,1.8784615384615382,0.7421978021978022,2.1846886446886447
4.5574327029898996,0.3497435897435897,0.45692307692307693,0.8002197802197801
4.5640236499893945,0.3497435897435897,0.45692307692307693,0.8002197802197801
4.568020746999537,1.6383150183150184,0.7752380952380952,1.4997069597069597
4.5719319859927054,1.6383150183150184,0.7752380952380952,1.4997069597069597
4.578575961990282,0.0,0.3078388278388278,0.43758241758241756
4.582634616002906,0.27399267399267396,0.4819047619047619,1.0999999999999999
4.586744360989542,0.27399267399267396,0.4819047619047619,1.0999999999999999
4.590254915994592,0.27399267399267396,0.4819047619047619,1.0999999999999999
4.590379686997039,0.27399267399267396,0.4819047619047619,1.0999999999999999
4.599479233002057,0.27399267399267396,0.4819047619047619,1.0999999999999999
4.6083889639994595,2.1846886446886447,0.8179487179487179,2.5078388278388277
4.614268388992059,2.1846886446886447,0.8179487179487179,2.5078388278388277
4.618984260989237,2.1846886446886447,0.8179487179487179,2.5078388278388277
4.625631261995295,2.1846886446886447,0.8179487179487179,2.5078388278388277
4.630611104992568,2.1846886446886447,0.8179487179487179,2.5078388278388277
4.633897758991225,2.1846886446886447,0.8179487179487179,2.5078388278388277
4.635605438990751,2.1846886446886447,0.8179487179487179,2.5078388278388277
4.638659422998899,2.1846886446886447,0.8179487179487179,2.5078388278388277
4.643146864997107,2.1846886446886447,0.8179487179487179,2.5078388278388277
4.6434309689939255,2.1846886446886447,0.8179487179487179,2.5078388278388277
4.648053226992488,2.1846886446886447,0.8179487179487179,2.5078388278388277
4.648271136989933,0.5504029304029303,0.07575091575091575,1.3022710622710623
4.653714436994051,0.5504029304029303,0.07575091575091575,1.3022710622710623
4.655385102989385,0.5504029304029303,0.07575091575091575,1.3022710622710623
4.661444343000767,0.5504029304029303,0.07575091575091575,1.3022710622710623
4.6648243270028615,1.859120879120879,0.9106227106227106,1.5408058608058608
4.665758000002825,1.859120879120879,0.9106227106227106,1.5408058608058608
4.667460782002308,1.859120879120879,0.9106227106227106,1.5408058608058608
4.6706775649945484,1.859120879120879,0.9106227106227106,1.5408058608058608
4.672321827994892,1.859120879120879,0.9106227106227106,1.5408058608058608
4.67747815499024,1.859120879120879,0.9106227106227106,1.5408058608058608
4.679197384000872,1.859120879120879,0.9106227106227106,1.5408058608058608
4.683061625997652,1.859120879120879,0.9106227106227106,1.5408058608058608
4.686933185002999,1.859120879120879,0.9106227106227106,1.5408058608058608
4.6922006370004965,1.859120879120879,0.9106227106227106,1.5408058608058608
4.6954489889903925,1.859120879120879,0.9106227106227106,1.5408058608058608
4.695648038992658,1.859120879120879,0.9106227106227106,1.5408058608058608
4.700341809002566,1.859120879120879,0.9106227106227106,1.5408058608058608
4.700519306003116,1.859120879120879,0.9106227106227106,1.5408058608058608
4.7051680570002645,1.859120879120879,0.9106227106227106,1.5408058608058608
4.705433423994691,1.859120879120879,0.9106227106227106,1.5408058608058608
4.712768901998061,1.859120879120879,0.9106227106227106,1.5408058608058608
4.71756277300301,0.13377289377289378,0.2208058608058608,0.942051282051282
4.7242068519990426,2.1443956043956045,0.747032967032967,3.00989010989011
4.728226253995672,2.1443956043956045,0.747032967032967,3.00989010989011
4.730635600993992,2.1443956043956045,0.747032967032967,3.00989010989011
4.73079353698995,2.1443956043956045,0.747032967032967,3.00989010989011
4.736186465001083,2.1443956043956045,0.747032967032967,3.00989010989011
4.73793728799501,2.1443956043956045,0.747032967032967,3.00989010989011
4.740875211995444,2.1443956043956045,0.747032967032967,3.00989010989011
4.745529542997247,2.1443956043956045,0.747032967032967,3.00989010989011
4.750209239995456,2.1443956043956045,0.747032967032967,3.00989010989011
4.7504625559959095,0.7631501831501831,0.4319413919413919,0.43758241758241756
4.758688408997841,0.7631501831501831,0.4319413919413919,0.43758241758241756
4.766530424996745,0.7631501831501831,0.4319413919413919,0.43758241758241756
4.77409882399661,0.7631501831501831,0.4319413919413919,0.43758241758241756
4.781395290992805,0.25223443223443226,0.3852014652014652,0.43355311355311354
4.78709509500186,0.25223443223443226,0.3852014652014652,0.43355311355311354
4.787249557994073,0.5826373626373627,0.18454212454212454,1.4537728937728938
4.794924064000952,0.5826373626373627,0.18454212454212454,1.4537728937728938
4.802256898998166,0.5826373626373627,0.18454212454212454,1.4537728937728938
4.808581474993844,0.5826373626373627,0.18454212454212454,1.4537728937728938
4.811979485995835,0.5826373626373627,0.18454212454212454,1.4537728937728938
4.812284806990647,0.5826373626373627,0.18454212454212454,1.4537728937728938
4.817716140998527,0.5826373626373627,0.18454212454212454,1.4537728937728938
4.818569076000131,0.8445421245421244,0.4827106227106227,1.7253479853479854
4.8201611889962805,0.8445421245421244,0.4827106227106227,1.7253479853479854
4.828135285992175,0.8445421245421244,0.4827106227106227,1.7253479853479854
4.832036655992852,1.1967032967032967,0.3336263736263736,1.6745787545787545
4.836501205994864,1.1967032967032967,0.3336263736263736,1.6745787545787545
4.837411032989621,1.1967032967032967,0.3336263736263736,1.6745787545787545
4.839031361989328,1.1967032967032967,0.3336263736263736,1.6745787545787545
4.846329298990895,1.1967032967032967,0.3336263736263736,1.6745787545787545
4.8502558049949585,1.1967032967032967,0.3336263736263736,1.6745787545787545
4.854075982002541,1.1967032967032967,0.3336263736263736,1.6745787545787545
4.8619619559904095,1.1967032967032967,0.3336263736263736,1.6745787545787545
4.866907685995102,1.1967032967032967,0.3336263736263736,1.6745787545787545
4.871476480999263,1.1967032967032967,0.3336263736263736,1.6745787545787545
4.871693523993599,0.4722344322344322,0.3964835164835165,0.38681318681318677
4.879038775994559,0.4722344322344322,0.3964835164835165,0.38681318681318677
4.882899411997641,0.4722344322344322,0.3964835164835165,0.38681318681318677
4.887525792000815,0.4722344322344322,0.3964835164835165,0.38681318681318677
4.887699222992524,0.4722344322344322,0.3964835164835165,0.38681318681318677
4.895189841001411,0.4722344322344322,0.3964835164835165,0.38681318681318677
4.899066810001386,2.347472527472527,0.8139194139194139,2.9349450549450546
4.9036778139998205,2.347472527472527,0.8139194139194139,2.9349450549450546
4.9039413099962985,2.347472527472527,0.8139194139194139,2.9349450549450546
4.911555528000463,2.347472527472527,0.8139194139194139,2.9349450549450546
4.9155662229895825,2.347472527472527,0.8139194139194139,2.9349450549450546
4.918758945990703,2.021904761904762,0.7204395604395604,2.905128205128205
4.920378276001429,2.021904761904762,0.7204395604395604,2.905128205128205
4.926395624992438,2.021904761904762,0.7204395604395604,2.905128205128205
4.930059172998881,0.5947252747252747,0.11362637362637362,0.9154578754578755
4.935550718990271,0.5947252747252747,0.11362637362637362,0.9154578754578755
4.937264897991554,0.5947252747252747,0.11362637362637362,0.9154578754578755
4.944362310998258,0.5947252747252747,0.11362637362637362,0.9154578754578755
4.948143592002452,0.5947252747252747,0.11362637362637362,0.9154578754578755
4.952767259994289,0.5947252747252747,0.11362637362637362,0.9154578754578755
4.9530577359983,0.5947252747252747,0.11362637362637362,0.9154578754578755
4.9597760519973235,0.5947252747252747,0.11362637362637362,0.9154578754578755
4.966455164991203,0.5947252747252747,0.11362637362637362,0.9154578754578755
4.969619256997248,0.5036630036630036,0.09589743589743589,1.02021978021978
4.971295865994762,0.5036630036630036,0.09589743589743589,1.02021978021978
4.976982735999627,0.01934065934065934,0.22725274725274724,0.39003663003663
4.982338795001851,0.01934065934065934,0.22725274725274724,0.39003663003663
4.983993700996507,1.4787545787545788,0.44402930402930396,2.021098901098901
4.987784279990592,1.4787545787545788,0.44402930402930396,2.021098901098901
4.99431648600148,1.4787545787545788,0.44402930402930396,2.021098901098901
4.9974835609900765,1.4787545787545788,0.44402930402930396,2.021098901098901
4.999137901002541,0.6358241758241758,0.518974358974359,1.518241758241758
5.003766695997911,1.9848351648351645,1.0403663003663002,1.203150183150183
5.003940865994082,1.9848351648351645,1.0403663003663002,1.203150183150183
5.010816900990903,1.9848351648351645,1.0403663003663002,1.203150183150183
5.014362347996212,0.9033699633699634,0.4794871794871795,0.27238095238095233
5.014523461999488,0.9033699633699634,0.4794871794871795,0.27238095238095233
5.0201331799908075,0.9033699633699634,0.4794871794871795,0.27238095238095233
5.021194857996306,0.9033699633699634,0.4794871794871795,0.27238095238095233
5.021466445992701,0.9033699633699634,0.4794871794871795,0.27238095238095233
5.026752926001791,0.9033699633699634,0.4794871794871795,0.27238095238095233
5.030219652995584,0.9033699633699634,0.4794871794871795,0.27238095238095233
5.030421739997109,0.41340659340659336,0.4021245421245421,0.3811721611721612
5.035579433999374,0.41340659340659336,0.4021245421245421,0.3811721611721612
5.039039188995957,0.41340659340659336,0.4021245421245421,0.3811721611721612
5.039832076989114,0.41340659340659336,0.4021245421245421,0.3811721611721612
5.042029453994473,0.41340659340659336,0.4021245421245421,0.3811721611721612
5.042836794993491,0.41340659340659336,0.4021245421245421,0.3811721611721612
5.044976473989664,0.41340659340659336,0.4021245421245421,0.3811721611721612
5.046548535989132,0.41340659340659336,0.4021245421245421,0.3811721611721612
5.050121617998229,0.41340659340659336,0.4021245421245421,0.3811721611721612
5.050283185002627,0.41340659340659336,0.4021245421245421,0.3811721611721612
5.05454508899129,0.41340659340659336,0.4021245421245421,0.3811721611721612
5.057485867000651,0.41340659340659336,0.4021245421245421,0.3811721611721612
5.060352852000506,0.41340659340659336,0.4021245421245421,0.3811721611721612
5.064509107993217,0.41340659340659336,0.4021245421245421,0.3811721611721612
5.066668878993369,0.41340659340659336,0.4021245421245421,0.3811721611721612
5.067591568993521,0.41340659340659336,0.4021245421245421,0.3811721611721612
5.069091819997993,0.41340659340659336,0.4021245421245421,0.3811721611721612
5.0733019499894,0.41340659340659336,0.4021245421245421,0.3811721611721612
5.075476452999283,0.21999999999999997,0.3021978021978022,0.3223443223443223
5.0762944299931405,0.21999999999999997,0.3021978021978022,0.3223443223443223
5.078537453999161,0.21999999999999997,0.3021978021978022,0.3223443223443223
5.0792973339994205,0.21999999999999997,0.3021978021978022,0.3223443223443223
5.080810974992346,0.21999999999999997,0.3021978021978022,0.3223443223443223
5.087098753996543,0.21999999999999997,0.3021978021978022,0.3223443223443223
5.091911092997179,0.21999999999999997,0.3021978021978022,0.3223443223443223
5.098706906996085,0.21999999999999997,0.3021978021978022,0.3223443223443223
5.103400281994254,0.2715750915750916,0.3739194139194139,1.1241758241758242
5.103551180000068,0.5874725274725274,0.12249084249084248,0.9646153846153847
5.112645405999501,0.5874725274725274,0.12249084249084248,0.9646153846153847
5.1190997369994875,3.3,1.8091575091575092,0.6229304029304029
5.124427296992508,3.3,1.8091575091575092,0.6229304029304029
5.12530328099092,3.3,1.8091575091575092,0.6229304029304029
5.127256580002722,3.3,1.8091575091575092,0.6229304029304029
5.129864714996074,3.3,1.8091575091575092,0.6229304029304029
5.134512488992186,3.3,1.8091575091575092,0.6229304029304029
5.134694637992652,3.3,1.8091575091575092,0.6229304029304029
5.139403990993742,3.3,1.8091575091575092,0.6229304029304029
5.139535775000695,3.3,1.6528205128205127,0.5504029304029303
5.145934487998602,1.788205128205128,0.4488644688644688,2.125054945054945
5.1503249109955505,1.1394871794871795,0.23208791208791207,1.7930402930402929
5.1506340649939375,1.1394871794871795,0.23208791208791207,1.7930402930402929
5.159092446992872,1.1394871794871795,0.23208791208791207,1.7930402930402929
5.165321064996533,2.697216117216117,1.1668864468864468,0.5093040293040293
5.169274132000282,2.697216117216117,1.1668864468864468,0.5093040293040293
5.17436115599412,3.3,1.801098901098901,0.4754578754578754
5.177430267998716,2.0557509157509157,0.6825641025641025,2.868864468864469
5.179705203991034,2.0557509157509157,0.6825641025641025,2.868864468864469
5.180048708993127,2.0557509157509157,0.6825641025641025,2.868864468864469
5.18808003400045,2.0557509157509157,0.6825641025641025,2.868864468864469
5.196487576002255,2.0557509157509157,0.6825641025641025,2.868864468864469
5.202456040002289,0.020146520146520144,0.1813186813186813,0.49802197802197795
5.206248410002445,0.020146520146520144,0.1813186813186813,0.49802197802197795
5.210793755002669,1.2603663003663002,0.7647619047619048,0.3578021978021978
5.211659160995623,1.2603663003663002,0.7647619047619048,0.3578021978021978
5.212572236996493,1.2603663003663002,0.7647619047619048,0.3578021978021978
5.214184426993597,1.2603663003663002,0.7647619047619048,0.3578021978021978
5.218717185998685,1.2603663003663002,0.7647619047619048,0.3578021978021978
5.219591631990625,1.2603663003663002,0.7647619047619048,0.3578021978021978
5.220517597001162,1.9332600732600733,0.5423443223443223,1.9163369963369963
5.222807511003339,1.9332600732600733,0.5423443223443223,1.9163369963369963
5.223032195994165,1.9332600732600733,0.5423443223443223,1.9163369963369963
5.22760852999636,1.9332600732600733,0.5423443223443223,1.9163369963369963
5.227851730000111,1.9332600732600733,0.5423443223443223,1.9163369963369963
5.233397135001724,1.9332600732600733,0.5423443223443223,1.9163369963369963
5.234341959003359,2.234652014652015,0.6213186813186813,2.9067399267399265
5.2353080729953945,2.234652014652015,0.6213186813186813,2.9067399267399265
5.236374665997573,2.234652014652015,0.6213186813186813,2.9067399267399265
5.237212214997271,2.234652014652015,0.6213186813186813,2.9067399267399265
5.239333739998983,2.234652014652015,0.6213186813186813,2.9067399267399265
5.240440936002415,2.234652014652015,0.6213186813186813,2.9067399267399265
5.240746771989507,2.234652014652015,0.6213186813186813,2.9067399267399265
5.246236556995427,2.234652014652015,0.6213186813186813,2.9067399267399265
5.247104790993035,0.48754578754578753,0.07736263736263736,0.6696703296703297
5.2487375079945195,0.48754578754578753,0.07736263736263736,0.6696703296703297
5.253290332999313,0.48754578754578753,0.07736263736263736,0.6696703296703297
5.253493099997286,0.48754578754578753,0.07736263736263736,0.6696703296703297
5.258959300001152,0.48754578754578753,0.07736263736263736,0.6696703296703297
5.261170760000823,3.3,1.4803663003663003,0.49560439560439556
5.261380305993953,3.3,1.4803663003663003,0.49560439560439556
5.267602348001674,3.3,1.4803663003663003,0.49560439560439556
5.270803287989111,3.3,1.4803663003663003,0.49560439560439556
5.2730913370032795,0.07736263736263736,0.24739926739926738,0.5149450549450549
5.273335414996836,0.07736263736263736,0.24739926739926738,0.5149450549450549
5.278615124989301,0.07736263736263736,0.24739926739926738,0.5149450549450549
5.28179582899611,0.07736263736263736,0.24739926739926738,0.5149450549450549
5.2834798190015135,0.07736263736263736,0.24739926739926738,0.5149450549450549
5.287281789991539,0.07736263736263736,0.24739926739926738,0.5149450549450549
5.291997085994808,0.07736263736263736,0.24739926739926738,0.5149450549450549
5.292220527000609,0.07736263736263736,0.24739926739926738,0.5149450549450549
5.300996769990888,0.07736263736263736,0.24739926739926738,0.5149450549450549
5.306277409996255,0.9887912087912087,0.49238095238095236,1.8438095238095238
5.30780915399373,0.9887912087912087,0.49238095238095236,1.8438095238095238
5.315120414001285,3.3,1.739047619047619,0.5439560439560439
5.320284671994159,3.3,1.739047619047619,0.5439560439560439
5.323621625997475,3.3,1.739047619047619,0.5439560439560439
5.323850504995789,3.3,1.739047619047619,0.5439560439560439
5.332249352999497,0.6761172161172161,0.11362637362637362,1.3772161172161173
5.338607290992513,0.6761172161172161,0.11362637362637362,1.3772161172161173
5.344224900996778,1.6197802197802196,0.5407326007326007,2.7624908424908425
5.35426158500195,0.4166300366300366,0.13216117216117215,1.216849816849817
5.361501441002474,0.42710622710622714,0.3763369963369963,0.3747252747252747
5.365480645996286,0.3972893772893773,0.3618315018315018,1.1064468864468864
5.369332003989257,0.3972893772893773,0.3618315018315018,1.1064468864468864
5.378313295994303,0.3972893772893773,0.3618315018315018,1.1064468864468864
5.3856751269922825,0.3972893772893773,0.3618315018315018,1.1064468864468864
5.393308077997062,0.3972893772893773,0.3618315018315018,1.1064468864468864
5.3982516059913905,0.0,0.13457875457875457,0.5415384615384615
5.4022448920004535,0.0,0.13457875457875457,0.5415384615384615
5.404921697991085,0.0,0.13457875457875457,0.5415384615384615
5.412032858002931,0.0,0.13457875457875457,0.5415384615384615
5.416266414002166,0.4496703296703296,0.3852014652014652,0.3441025641025641
5.417784049990587,0.4496703296703296,0.3852014652014652,0.3441025641025641
5.424005961001967,0.4496703296703296,0.3852014652014652,0.3441025641025641
5.429060177993961,2.013846153846154,0.7986080586080586,1.7890109890109889
5.432622754990007,2.013846153846154,0.7986080586080586,1.7890109890109889
5.437713248989894,2.013846153846154,0.7986080586080586,1.7890109890109889
5.4433928549988195,0.9356043956043956,0.4931868131868131,2.262857142857143
5.450935540997307,0.9356043956043956,0.4931868131868131,2.262857142857143
5.458010638991254,0.9356043956043956,0.4931868131868131,2.262857142857143
5.469303224002942,2.1057142857142854,0.6745054945054945,2.540879120879121
5.484460905994638,2.1057142857142854,0.6745054945054945,2.540879120879121
5.5014025190030225,2.1057142857142854,0.6745054945054945,2.540879120879121
5.516857818001881,2.1057142857142854,0.6745054945054945,2.540879120879121
5.53100577899022,0.7873260073260073,0.05882783882783882,1.3884981684981685
5.538030618990888,3.3,1.6294505494505493,0.5802197802197803
5.545388175989501,3.3,1.6294505494505493,0.5802197802197803
5.558876056995359,0.8356776556776556,0.12329670329670328,1.2313553113553113
5.570106526996824,0.8356776556776556,0.12329670329670328,1.2313553113553113
5.57902550700237,0.8356776556776556,0.12329670329670328,1.2313553113553113
5.584742288992857,0.9597802197802198,0.4126007326007326,1.701978021978022
5.584947864001151,0.9597802197802198,0.4126007326007326,1.701978021978022
5.591009835989098,0.9597802197802198,0.4126007326007326,1.701978021978022
5.596107860998018,0.08703296703296703,0.2868864468864469,0.4762637362637362
5.599453401999199,0.08703296703296703,0.2868864468864469,0.4762637362637362
5.599701276994892,0.08703296703296703,0.2868864468864469,0.4762637362637362
5.605827887993655,0.08703296703296703,0.2868864468864469,0.4762637362637362
5.612907639995683,0.08703296703296703,0.2868864468864469,0.4762637362637362
5.616956055993796,0.07978021978021978,0.1772893772893773,0.3763369963369963
5.620145430002594,0.07978021978021978,0.1772893772893773,0.3763369963369963
5.621944068989251,0.07978021978021978,0.1772893772893773,0.3763369963369963
5.627913728996646,0.07978021978021978,0.1772893772893773,0.3763369963369963
5.6313000499940244,0.07978021978021978,0.1772893772893773,0.3763369963369963
5.631541611001012,0.07978021978021978,0.1772893772893773,0.3763369963369963
5.6390982839948265,0.07978021978021978,0.1772893772893773,0.3763369963369963
5.646252724996884,0.07978021978021978,0.1772893772893773,0.3763369963369963
5.6500865099951625,0.07978021978021978,0.1772893772893773,0.3763369963369963
5.655634823997389,0.07978021978021978,0.1772893772893773,0.3763369963369963
5.656062669993844,0.07978021978021978,0.1772893772893773,0.3763369963369963
5.663701637997292,0.07978021978021978,0.1772893772893773,0.3763369963369963
5.668312976995367,2.3563369963369962,1.307106227106227,0.5423443223443223
5.668585993000306,2.3563369963369962,1.307106227106227,0.5423443223443223
5.674890340989805,2.3563369963369962,1.307106227106227,0.5423443223443223
5.679002933000447,2.3563369963369962,1.307106227106227,0.5423443223443223
5.681348272992182,2.165347985347985,0.90014652014652,1.498901098901099
5.681525976993726,2.165347985347985,0.90014652014652,1.498901098901099
5.686250611994183,2.165347985347985,0.90014652014652,1.498901098901099
5.686388222995447,2.165347985347985,0.90014652014652,1.498901098901099
5.693080571989412,2.165347985347985,0.90014652014652,1.498901098901099
5.6981138109986205,0.11282051282051282,0.2868864468864469,0.39809523809523806
5.70185880799545,0.11282051282051282,0.2868864468864469,0.39809523809523806
5.710928287997376,0.11282051282051282,0.2868864468864469,0.39809523809523806
5.718349749993649,0.11282051282051282,0.2868864468864469,0.39809523809523806
5.724117680001655,0.11282051282051282,0.2868864468864469,0.39809523809523806
5.730133788994863,0.4383882783882784,0.10073260073260072,0.8002197802197801
5.733952651993604,0.4383882783882784,0.10073260073260072,0.8002197802197801
5.740007294996758,0.4383882783882784,0.10073260073260072,0.8002197802197801
5.746958294999786,0.4383882783882784,0.10073260073260072,0.8002197802197801
5.751057525994838,0.4383882783882784,0.10073260073260072,0.8002197802197801
5.754439711003215,0.4383882783882784,0.10073260073260072,0.8002197802197801
5.754726099999971,0.4383882783882784,0.10073260073260072,0.8002197802197801
5.762256857997272,0.4383882783882784,0.10073260073260072,0.8002197802197801
5.766784007995739,1.810769230769231,0.9871794871794871,0.5334798534798535
5.767654684997979,1.810769230769231,0.9871794871794871,0.5334798534798535
5.769334759999765,1.810769230769231,0.9871794871794871,0.5334798534798535
5.772570532993996,1.810769230769231,0.9871794871794871,0.5334798534798535
5.774472302000504,1.810769230769231,0.9871794871794871,0.5334798534798535
5.777024998998968,1.810769230769231,0.9871794871794871,0.5334798534798535
5.781691641997895,1.810769230769231,0.9871794871794871,0.5334798534798535
5.7818434389919275,1.810769230769231,0.9871794871794871,0.5334798534798535
5.787589097002638,1.810769230769231,0.9871794871794871,0.5334798534798535
5.7877887439972255,1.810769230769231,0.9871794871794871,0.5334798534798535
5.795705810000072,1.810769230769231,0.9871794871794871,0.5334798534798535
5.800290549988858,1.810769230769231,0.9871794871794871,0.5334798534798535
5.801116766000632,1.810769230769231,0.9871794871794871,0.5334798534798535
5.8026884970022365,1.810769230769231,0.9871794871794871,0.5334798534798535
5.808953806990758,1.810769230769231,0.9871794871794871,0.5334798534798535
5.812524505992769,1.810769230769231,0.9871794871794871,0.5334798534798535
5.81264210199879,1.810769230769231,0.9871794871794871,0.5334798534798535
5.817445089996909,1.810769230769231,0.9871794871794871,0.5334798534798535
5.817564144992502,1.810769230769231,0.9871794871794871,0.5334798534798535
5.82250353100244,1.810769230769231,0.9871794871794871,0.5334798534798535
5.8296511200023815,0.5818315018315018,0.13135531135531134,0.9082051282051282
5.8344435049948515,0.5818315018315018,0.13135531135531134,0.9082051282051282
5.8408023419906385,0.5818315018315018,0.13135531135531134,0.9082051282051282
5.844969347002916,0.5818315018315018,0.13135531135531134,0.9082051282051282
5.846690614998806,0.5818315018315018,0.13135531135531134,0.9082051282051282
5.849858311994467,0.5818315018315018,0.13135531135531134,0.9082051282051282
5.8524056500027655,0.1958241758241758,0.5181684981684981,0.3972893772893773
5.858541080990108,0.1958241758241758,0.5181684981684981,0.3972893772893773
5.8624698459898354,2.103296703296703,0.9694505494505494,1.4578021978021978
5.866963829990709,1.7994871794871792,0.5294505494505495,2.091208791208791
5.867953947992646,3.3,2.1024908424908424,0.6011721611721611
5.869027341992478,3.3,2.1024908424908424,0.6011721611721611
5.869333586990251,3.3,2.1024908424908424,0.6011721611721611
5.8745494869945105,3.3,2.1024908424908424,0.6011721611721611
