time,emg1,emg2,emg3
0.017311454997980036,1.9082783882783882,0.6172893772893773,1.1894505494505494
0.029816214999300428,2.0194871794871796,0.18937728937728937,1.502124542124542
0.030218510000850074,2.0194871794871796,0.18937728937728937,1.502124542124542
0.03933850600151345,2.0194871794871796,0.18937728937728937,1.502124542124542
0.048623363007209264,2.0194871794871796,0.18937728937728937,1.502124542124542
0.05638597199867945,2.0194871794871796,0.18937728937728937,1.502124542124542
0.06484674599778373,2.0194871794871796,0.18937728937728937,1.502124542124542
0.07462742800998967,2.0194871794871796,0.18937728937728937,1.502124542124542
0.08106671800487675,2.0194871794871796,0.18937728937728937,1.502124542124542
0.08595945400884375,2.0194871794871796,0.18937728937728937,1.502124542124542
0.09252383900457062,2.0194871794871796,0.18937728937728937,1.502124542124542
0.09752573700097855,2.0194871794871796,0.18937728937728937,1.502124542124542
0.10405770200304687,1.4610256410256408,0.3263736263736263,1.3353113553113554
0.11018827201041859,1.4610256410256408,0.3263736263736263,1.3353113553113554
0.11538255600316916,1.4610256410256408,0.3263736263736263,1.3353113553113554
0.11815902299713343,1.9074725274725273,0.33604395604395604,1.4779487179487178
0.1255990650097374,1.9074725274725273,0.33604395604395604,1.4779487179487178
0.13156260900723282,1.9074725274725273,0.33604395604395604,1.4779487179487178
0.1372901830036426,1.9074725274725273,0.33604395604395604,1.4779487179487178
0.14537803300481755,1.9074725274725273,0.33604395604395604,1.4779487179487178
0.15188852700521238,0.7816849816849816,0.46095238095238095,0.0
0.1577499200066086,2.1097435897435894,0.4029304029304029,0.12329670329670328
0.16515124900615774,1.593992673992674,0.22725274725274724,1.4094505494505494
0.17153479901026003,1.593992673992674,0.22725274725274724,1.4094505494505494
0.17721221900137607,1.593992673992674,0.22725274725274724,1.4094505494505494
0.17741058600950055,1.593992673992674,0.22725274725274724,1.4094505494505494
0.18683734300429933,1.593992673992674,0.22725274725274724,1.4094505494505494
0.19525820600392763,1.593992673992674,0.22725274725274724,1.4094505494505494
0.20460154399916064,2.262051282051282,0.527032967032967,1.1024175824175824
0.21198050399834756,0.4416117216117216,0.07413919413919413,1.3836630036630035
0.2190203409991227,0.4416117216117216,0.07413919413919413,1.3836630036630035
0.22494046200881712,1.9171428571428573,0.1241025641025641,1.506153846153846
0.2305029459967045,1.9171428571428573,0.1241025641025641,1.506153846153846
0.23070574599842075,2.2684981684981684,0.4013186813186813,2.64
0.23640808899654076,2.2684981684981684,0.4013186813186813,2.64
0.2421655960060889,2.2684981684981684,0.4013186813186813,2.64
0.24977123300777748,2.2684981684981684,0.4013186813186813,2.64
0.2550729990034597,2.2684981684981684,0.4013186813186813,2.64
0.255316673006746,2.158095238095238,0.26996336996336995,1.2410256410256408
0.2612054830096895,2.158095238095238,0.26996336996336995,1.2410256410256408
0.2698801619990263,1.8083516483516484,0.5592673992673992,0.7268864468864469
0.27491117900353856,0.6374358974358975,0.38681318681318677,0.10315018315018315
0.28155970200896263,0.6374358974358975,0.38681318681318677,0.10315018315018315
0.28711325000040233,0.6374358974358975,0.38681318681318677,0.10315018315018315
0.2934900969994487,0.25142857142857145,0.24095238095238095,0.2111355311355311
0.2983585280016996,0.25142857142857145,0.24095238095238095,0.2111355311355311
0.30361473800439853,0.5294505494505495,0.2063003663003663,1.3095238095238093
0.30461659700085875,0.5294505494505495,0.2063003663003663,1.3095238095238093
0.3055652420007391,0.5294505494505495,0.2063003663003663,1.3095238095238093
0.3065906050032936,0.5294505494505495,0.2063003663003663,1.3095238095238093
0.30753182800253853,0.5294505494505495,0.2063003663003663,1.3095238095238093
0.3085742149996804,0.5294505494505495,0.2063003663003663,1.3095238095238093
0.3103154900018126,0.5294505494505495,0.2063003663003663,1.3095238095238093
0.3157482690003235,0.3594139194139194,0.1668131868131868,1.8889377289377287
0.31598731499980204,2.0686446886446883,0.48754578754578753,0.40937728937728934
0.32634753100865055,2.0686446886446883,0.48754578754578753,0.40937728937728934
0.3344189089984866,2.0686446886446883,0.48754578754578753,0.40937728937728934
0.3418404670082964,1.8897435897435895,0.3739194139194139,3.046153846153846
0.3485596429964062,1.8897435897435895,0.3739194139194139,3.046153846153846
0.35416317800991237,2.01062271062271,0.3997069597069597,2.4199999999999995
0.362797091001994,0.6390476190476191,0.26593406593406593,1.6794139194139193
0.372120398998959,0.6390476190476191,0.26593406593406593,1.6794139194139193
0.38079318800009787,0.6390476190476191,0.26593406593406593,1.6794139194139193
0.3870198790100403,0.8276190476190476,0.2111355311355311,1.8607326007326006
0.3913884979992872,0.8276190476190476,0.2111355311355311,1.8607326007326006
0.3932036570040509,0.8276190476190476,0.2111355311355311,1.8607326007326006
0.3967792550101876,1.804322344322344,0.3924542124542124,1.2901831501831502
0.40651512499607634,1.804322344322344,0.3924542124542124,1.2901831501831502
0.413950845002546,2.1508424908424906,0.5955311355311355,0.07413919413919413
0.4217165739974007,2.1508424908424906,0.5955311355311355,0.07413919413919413
0.4270693380094599,1.1419047619047618,0.18615384615384614,2.0275457875457876
0.4288509120087838,0.08783882783882783,0.17164835164835165,0.3908424908424908
0.43423360100132413,0.08783882783882783,0.17164835164835165,0.3908424908424908
0.4347092960088048,0.08783882783882783,0.17164835164835165,0.3908424908424908
0.43934605999675114,0.08783882783882783,0.17164835164835165,0.3908424908424908
0.439473578997422,0.08783882783882783,0.17164835164835165,0.3908424908424908
0.44556026099598967,0.08783882783882783,0.17164835164835165,0.3908424908424908
0.4516050990059739,0.08783882783882783,0.17164835164835165,0.3908424908424908
0.45517851199838333,0.08783882783882783,0.17164835164835165,0.3908424908424908
0.46363516100973357,0.08783882783882783,0.17164835164835165,0.3908424908424908
0.47235851699952036,0.08783882783882783,0.17164835164835165,0.3908424908424908
0.48040544299874455,0.08783882783882783,0.17164835164835165,0.3908424908424908
0.48762817100214306,0.08783882783882783,0.17164835164835165,0.3908424908424908
0.4939839430007851,0.08783882783882783,0.17164835164835165,0.3908424908424908
0.501993907004362,1.5246886446886447,0.42388278388278383,1.394139194139194
0.5080674680066295,1.5246886446886447,0.42388278388278383,1.394139194139194
0.5130274580005789,0.04351648351648352,0.12249084249084248,0.26996336996336995
0.5207376129983459,0.04351648351648352,0.12249084249084248,0.26996336996336995
0.5253288920066552,0.04351648351648352,0.12249084249084248,0.26996336996336995
0.5255775580008049,0.04351648351648352,0.12249084249084248,0.26996336996336995
0.5335485789983068,0.04351648351648352,0.12249084249084248,0.26996336996336995
0.5420625730039319,0.04351648351648352,0.12249084249084248,0.26996336996336995
0.5491038640029728,0.04351648351648352,0.12249084249084248,0.26996336996336995
0.5546054970036494,0.04351648351648352,0.12249084249084248,0.26996336996336995
0.5549155650078319,3.3,1.1547985347985346,0.40776556776556777
0.5626794790005079,3.3,1.1547985347985346,0.40776556776556777
0.5706395129964221,3.3,1.1547985347985346,0.40776556776556777
0.5779206459992565,3.3,1.1547985347985346,0.40776556776556777
0.5850485569972079,0.9686446886446887,0.13457875457875457,0.8663003663003663
0.5911271570075769,0.9686446886446887,0.13457875457875457,0.8663003663003663
0.596191988006467,2.145201465201465,0.26109890109890105,1.2265201465201465
0.6004155030095717,1.8889377289377287,0.0975091575091575,0.47706959706959706
0.6033485310035758,0.4722344322344322,0.08542124542124542,0.7494505494505495
0.605186886008596,0.4722344322344322,0.08542124542124542,0.7494505494505495
0.6076846079959068,0.4722344322344322,0.08542124542124542,0.7494505494505495
0.6189661490061553,0.4722344322344322,0.08542124542124542,0.7494505494505495
0.6272315539972624,0.3594139194139194,0.1571428571428571,0.6906227106227106
0.634742089008796,0.3594139194139194,0.1571428571428571,0.6906227106227106
0.6405806960101472,0.3594139194139194,0.1571428571428571,0.6906227106227106
0.6486747910093982,0.3594139194139194,0.1571428571428571,0.6906227106227106
0.6563413160038181,0.3594139194139194,0.1571428571428571,0.6906227106227106
0.6633773180074058,3.133992673992674,0.6076190476190476,0.4383882783882784
0.6700158699968597,3.133992673992674,0.6076190476190476,0.4383882783882784
0.6739541050046682,2.1427838827838825,0.3295970695970696,1.9799999999999998
0.6778909340064274,2.1427838827838825,0.3295970695970696,1.9799999999999998
0.684857063999516,0.5004395604395604,0.0975091575091575,1.2547252747252746
0.6890176480083028,0.5004395604395604,0.0975091575091575,1.2547252747252746
0.691901569996844,1.5883516483516482,0.37150183150183147,2.107326007326007
0.6945580800093012,3.3,1.2305494505494505,0.8558241758241758
0.7033513720089104,3.3,1.2305494505494505,0.8558241758241758
0.7094605050078826,0.2224175824175824,0.13296703296703297,0.9541391941391941
0.7150041270069778,0.2224175824175824,0.13296703296703297,0.9541391941391941
0.7154021940077655,0.2224175824175824,0.13296703296703297,0.9541391941391941
0.721062291006092,0.2224175824175824,0.13296703296703297,0.9541391941391941
0.7274041790078627,0.2224175824175824,0.13296703296703297,0.9541391941391941
0.7315851550083607,0.2224175824175824,0.13296703296703297,0.9541391941391941
0.734683832997689,1.008937728937729,0.2989743589743589,1.622197802197802
0.7366622270055814,2.1266666666666665,0.5713553113553113,0.8928937728937728
0.7377715979964705,2.1266666666666665,0.5713553113553113,0.8928937728937728
0.7380105760094011,2.1266666666666665,0.5713553113553113,0.8928937728937728
0.7435237510071602,2.1266666666666665,0.5713553113553113,0.8928937728937728
0.7459264799981611,2.1266666666666665,0.5713553113553113,0.8928937728937728
0.7537971010024194,2.1266666666666665,0.5713553113553113,0.8928937728937728
0.7579170009994414,1.2305494505494505,0.30139194139194136,1.950989010989011
0.7605169699963881,1.8196336996336997,0.29655677655677654,1.4658608058608058
0.7701520999980858,1.8196336996336997,0.29655677655677654,1.4658608058608058
0.7751384110015351,2.0090109890109886,0.448058608058608,2.245128205128205
0.7791869290085742,2.1959706959706957,0.5737728937728938,1.0693772893772893
0.7849463820020901,0.5576556776556777,0.09025641025641025,1.2668131868131869
0.7930132140027126,0.4625641025641025,0.26190476190476186,0.253040293040293
0.8004349200055003,0.4625641025641025,0.26190476190476186,0.253040293040293
0.8049485770025058,0.4625641025641025,0.26190476190476186,0.253040293040293
0.8050756620068569,0.4625641025641025,0.26190476190476186,0.253040293040293
0.8107775009993929,0.4625641025641025,0.26190476190476186,0.253040293040293
0.8109175749996211,0.4625641025641025,0.26190476190476186,0.253040293040293
0.8206860509963008,0.4625641025641025,0.26190476190476186,0.253040293040293
0.8254155720060226,0.4625641025641025,0.26190476190476186,0.253040293040293
0.8256787240097765,0.08058608058608058,0.2079120879120879,0.3312087912087912
0.8320116830000188,0.08058608058608058,0.2079120879120879,0.3312087912087912
0.837079007003922,0.08058608058608058,0.2079120879120879,0.3312087912087912
0.8402864020026755,0.08058608058608058,0.2079120879120879,0.3312087912087912
0.8420529669965617,0.08058608058608058,0.2079120879120879,0.3312087912087912
0.845237094006734,0.08058608058608058,0.2079120879120879,0.3312087912087912
0.84777817199938,0.08058608058608058,0.2079120879120879,0.3312087912087912
0.8566333670023596,0.08058608058608058,0.2079120879120879,0.3312087912087912
0.8613498699996853,0.08058608058608058,0.2079120879120879,0.3312087912087912
0.8615135440049926,0.08058608058608058,0.2079120879120879,0.3312087912087912
0.871775448002154,0.08058608058608058,0.2079120879120879,0.3312087912087912
0.8767426130070817,0.08058608058608058,0.2079120879120879,0.3312087912087912
0.8832073070079787,0.08058608058608058,0.2079120879120879,0.3312087912087912
0.8873411460081115,3.171062271062271,1.2047619047619047,0.1829304029304029
0.8893102779984474,3.171062271062271,1.2047619047619047,0.1829304029304029
0.8910375440027565,2.4473992673992675,0.5834432234432234,2.747985347985348
0.8945857790095033,2.4473992673992675,0.5834432234432234,2.747985347985348
0.9044955849967664,1.9526007326007324,0.47706959706959706,1.9783882783882782
0.9099063739995472,1.9526007326007324,0.47706959706959706,1.9783882783882782
0.9107772830029717,1.9526007326007324,0.47706959706959706,1.9783882783882782
0.9124100299959537,1.9526007326007324,0.47706959706959706,1.9783882783882782
0.9192589610029245,1.9526007326007324,0.47706959706959706,1.9783882783882782
0.9226846780074993,1.9526007326007324,0.47706959706959706,1.9783882783882782
0.9236651210085256,1.9526007326007324,0.47706959706959706,1.9783882783882782
0.9247572000022046,1.9526007326007324,0.47706959706959706,1.9783882783882782
0.9250285419984721,1.9526007326007324,0.47706959706959706,1.9783882783882782
0.9302635030035162,1.9526007326007324,0.47706959706959706,1.9783882783882782
0.9364140710094944,1.9526007326007324,0.47706959706959706,1.9783882783882782
0.9397865210048622,1.9526007326007324,0.47706959706959706,1.9783882783882782
0.9401099140086444,1.9526007326007324,0.47706959706959706,1.9783882783882782
0.9447058009973262,1.9526007326007324,0.47706959706959706,1.9783882783882782
0.9456317639996996,1.9526007326007324,0.47706959706959706,1.9783882783882782
0.9489969230053248,1.9526007326007324,0.47706959706959706,1.9783882783882782
0.9556079800095176,1.9526007326007324,0.47706959706959706,1.9783882783882782
0.959664549009176,1.9526007326007324,0.47706959706959706,1.9783882783882782
0.962812904996099,1.9526007326007324,0.47706959706959706,1.9783882783882782
0.9659058819961501,1.9526007326007324,0.47706959706959706,1.9783882783882782
0.9672704969998449,0.0,0.21355311355311357,0.4657875457875458
0.9746240609965753,0.0,0.21355311355311357,0.4657875457875458
0.9785605229990324,3.00989010989011,1.0726007326007325,0.9114285714285715
0.9830997520039091,3.00989010989011,1.0726007326007325,0.9114285714285715
0.9835500680055702,3.00989010989011,1.0726007326007325,0.9114285714285715
0.988350347004598,3.00989010989011,1.0726007326007325,0.9114285714285715
0.9933273860078771,1.8808791208791207,0.5157509157509157,1.6794139194139193
0.997865682002157,1.8808791208791207,0.5157509157509157,1.6794139194139193
0.9981338600046001,1.8808791208791207,0.5157509157509157,1.6794139194139193
1.0051092119974783,1.8808791208791207,0.5157509157509157,1.6794139194139193
1.009920440003043,3.3,1.0580952380952382,0.4851282051282051
1.0100859430094715,3.3,1.0580952380952382,0.4851282051282051
1.0159155349974753,3.3,1.0580952380952382,0.4851282051282051
1.016096463004942,3.3,1.0580952380952382,0.4851282051282051
1.0219621190044563,3.3,1.0580952380952382,0.4851282051282051
1.0270129359996645,3.3,1.0580952380952382,0.4851282051282051
1.0320409990090411,3.3,1.0580952380952382,0.4851282051282051
1.0364946240006248,3.3,1.0580952380952382,0.4851282051282051
1.0366825509991031,3.3,1.0580952380952382,0.4851282051282051
1.0423253729968565,3.3,1.0580952380952382,0.4851282051282051
1.0425643170019612,3.3,0.9807326007326007,0.3626373626373626
1.0494337150012143,3.3,0.9807326007326007,0.3626373626373626
1.0528223930014065,3.3,0.9807326007326007,0.3626373626373626
1.0531524899997748,3.3,0.9807326007326007,0.3626373626373626
1.0583428120007738,3.3,0.9807326007326007,0.3626373626373626
1.0620039019995602,0.6954578754578754,0.16197802197802197,1.3393406593406594
1.067542147997301,3.3,0.9726739926739927,0.4319413919413919
1.0691303759958828,3.3,0.9726739926739927,0.4319413919413919
1.0730023570067715,3.3,0.9726739926739927,0.4319413919413919
1.0774013560003368,3.3,0.9726739926739927,0.4319413919413919
1.0789435720071197,2.165347985347985,0.3739194139194139,1.468278388278388
1.0832377390033798,2.165347985347985,0.3739194139194139,1.468278388278388
1.0848177320003742,2.165347985347985,0.3739194139194139,1.468278388278388
1.089073447001283,2.165347985347985,0.3739194139194139,1.468278388278388
1.091290641008527,1.0822710622710623,0.2989743589743589,2.1403663003663005
1.0921056149963988,1.0822710622710623,0.2989743589743589,2.1403663003663005
1.0936454530019546,1.0822710622710623,0.2989743589743589,2.1403663003663005
1.097931016003713,1.0822710622710623,0.2989743589743589,2.1403663003663005
1.1001560040022014,1.0822710622710623,0.2989743589743589,2.1403663003663005
1.1004668539972045,1.0822710622710623,0.2989743589743589,2.1403663003663005
1.105459313999745,2.7737728937728936,0.7325274725274724,0.38036630036630037
1.1105465040018316,2.7737728937728936,0.7325274725274724,0.38036630036630037
1.1141409630072303,2.7737728937728936,0.7325274725274724,0.38036630036630037
1.1142685189988697,2.7737728937728936,0.7325274725274724,0.38036630036630037
1.119252962002065,2.7737728937728936,0.7325274725274724,0.38036630036630037
1.1235253880004166,2.7737728937728936,0.7325274725274724,0.38036630036630037
1.1264410029980354,2.7737728937728936,0.7325274725274724,0.38036630036630037
1.1307072350027738,2.7737728937728936,0.7325274725274724,0.38036630036630037
1.1316163160081487,2.7737728937728936,0.7325274725274724,0.38036630036630037
1.1335804120026296,2.7737728937728936,0.7325274725274724,0.38036630036630037
1.1366235030000098,2.7737728937728936,0.7325274725274724,0.38036630036630037
1.137681143998634,2.7737728937728936,0.7325274725274724,0.38036630036630037
1.1379746309976326,2.7737728937728936,0.7325274725274724,0.38036630036630037
1.1432605770096416,2.7737728937728936,0.7325274725274724,0.38036630036630037
1.144863848996465,2.7737728937728936,0.7325274725274724,0.38036630036630037
1.152371497999411,2.7737728937728936,0.7325274725274724,0.38036630036630037
1.1579009800043423,1.3119413919413918,0.47465201465201456,1.220879120879121
1.158217586009414,1.3119413919413918,0.47465201465201456,1.220879120879121
1.16735799399612,1.3119413919413918,0.47465201465201456,1.220879120879121
1.1722852640086785,1.3119413919413918,0.47465201465201456,1.220879120879121
1.1774129679979524,3.3,1.0484249084249082,0.6164835164835165
1.1807468549959594,3.3,1.0484249084249082,0.6164835164835165
1.1817339150002226,0.5246153846153846,0.23208791208791207,1.0516483516483515
1.1826700140081812,0.5246153846153846,0.23208791208791207,1.0516483516483515
1.1837443130061729,0.7309157509157509,0.386007326007326,0.06366300366300366
1.18398483999772,0.7309157509157509,0.386007326007326,0.06366300366300366
1.1899202409986174,0.7309157509157509,0.386007326007326,0.06366300366300366
1.197261970010004,0.7309157509157509,0.386007326007326,0.06366300366300366
1.2025002000009408,0.7309157509157509,0.386007326007326,0.06366300366300366
1.205217000999255,0.7309157509157509,0.386007326007326,0.06366300366300366
1.20921062999696,0.5125274725274725,0.25868131868131866,0.2208058608058608
1.2116847340075765,2.1355311355311355,0.3739194139194139,2.997802197802198
1.2118750869994983,2.5908424908424905,0.6084249084249085,1.0734065934065933
1.2165754239977105,2.5908424908424905,0.6084249084249085,1.0734065934065933
1.216826771007618,1.6012454212454212,0.4432234432234432,1.9936996336996335
1.222306882002158,1.6012454212454212,0.4432234432234432,1.9936996336996335
1.2231691390043125,1.6012454212454212,0.4432234432234432,1.9936996336996335
1.2241251140076201,1.6012454212454212,0.4432234432234432,1.9936996336996335
1.2250472540035844,1.6012454212454212,0.4432234432234432,1.9936996336996335
1.2259911599976476,1.6012454212454212,0.4432234432234432,1.9936996336996335
1.226938722000341,1.6012454212454212,0.4432234432234432,1.9936996336996335
1.228559593000682,1.6012454212454212,0.4432234432234432,1.9936996336996335
1.232469577997108,1.6012454212454212,0.4432234432234432,1.9936996336996335
1.2371168270037742,1.6012454212454212,0.4432234432234432,1.9936996336996335
1.2426645579980686,1.788205128205128,0.29816849816849816,1.701978021978022
1.2444036079978105,1.788205128205128,0.29816849816849816,1.701978021978022
1.2475308740104083,1.788205128205128,0.29816849816849816,1.701978021978022
1.2498240849963622,1.788205128205128,0.29816849816849816,1.701978021978022
1.2500808519980637,1.788205128205128,0.29816849816849816,1.701978021978022
1.2600447489967337,1.788205128205128,0.29816849816849816,1.701978021978022
1.268446871006745,1.3546520146520145,0.28527472527472525,2.1919413919413917
1.273337940001511,0.0,0.06769230769230769,0.3964835164835165
1.277951212003245,0.0,0.06769230769230769,0.3964835164835165
1.2781205710052745,0.0,0.06769230769230769,0.3964835164835165
1.2846408860059455,0.0,0.06769230769230769,0.3964835164835165
1.290185042002122,0.0,0.06769230769230769,0.3964835164835165
1.3001435129990568,0.664029304029304,0.3739194139194139,1.83010989010989
1.306400820001727,1.1556043956043955,0.28446886446886444,2.0807326007326004
1.3114670970098814,1.1556043956043955,0.28446886446886444,2.0807326007326004
1.3176115390087944,1.1556043956043955,0.28446886446886444,2.0807326007326004
1.322776316999807,1.1556043956043955,0.28446886446886444,2.0807326007326004
1.3250907379988348,1.1556043956043955,0.28446886446886444,2.0807326007326004
1.3252863119996618,1.1556043956043955,0.28446886446886444,2.0807326007326004
1.3307084139960352,1.1556043956043955,0.28446886446886444,2.0807326007326004
1.3323281360062538,1.1556043956043955,0.28446886446886444,2.0807326007326004
1.3362189400068019,1.1556043956043955,0.28446886446886444,2.0807326007326004
1.3404334259976167,1.1556043956043955,0.28446886446886444,2.0807326007326004
1.3427553170040483,1.1556043956043955,0.28446886446886444,2.0807326007326004
1.342999733009492,1.1556043956043955,0.28446886446886444,2.0807326007326004
1.3477186079981038,1.1556043956043955,0.28446886446886444,2.0807326007326004
1.347871121004573,1.1556043956043955,0.28446886446886444,2.0807326007326004
1.3527192260080483,1.1556043956043955,0.28446886446886444,2.0807326007326004
1.3529318450018764,1.1556043956043955,0.28446886446886444,2.0807326007326004
1.357509706998826,1.1556043956043955,0.28446886446886444,2.0807326007326004
1.358347640998545,1.1556043956043955,0.28446886446886444,2.0807326007326004
1.3600000130099943,1.1556043956043955,0.28446886446886444,2.0807326007326004
1.363874251008383,1.1556043956043955,0.28446886446886444,2.0807326007326004
1.3709841090021655,1.1556043956043955,0.28446886446886444,2.0807326007326004
1.375972884008661,1.9235897435897436,0.6108424908424909,2.5706959706959704
1.3784365390019957,1.9235897435897436,0.6108424908424909,2.5706959706959704
1.3786213560088072,1.9235897435897436,0.6108424908424909,2.5706959706959704
1.3833369640051387,0.5528205128205127,0.18937728937728937,1.834139194139194
1.3835758950008312,0.5528205128205127,0.18937728937728937,1.834139194139194
1.3890363429964054,0.5528205128205127,0.18937728937728937,1.834139194139194
1.3900895490078256,0.5528205128205127,0.18937728937728937,1.834139194139194
1.3904678789986065,0.5528205128205127,0.18937728937728937,1.834139194139194
1.3957711950060911,0.5528205128205127,0.18937728937728937,1.834139194139194
1.3982641019974835,1.3433699633699634,0.381978021978022,2.1871062271062267
1.4030367380037205,1.3433699633699634,0.381978021978022,2.1871062271062267
1.4032027650100645,1.3433699633699634,0.381978021978022,2.1871062271062267
1.4084524589998182,1.3433699633699634,0.381978021978022,2.1871062271062267
1.4124817959964275,1.8832967032967032,0.5052747252747253,3.3
1.4158480629994301,1.2176556776556777,0.523003663003663,1.6213919413919413
1.4160809850000078,1.2176556776556777,0.523003663003663,1.6213919413919413
1.4208126710000215,1.2176556776556777,0.523003663003663,1.6213919413919413
1.421125494001899,1.2176556776556777,0.523003663003663,1.6213919413919413
1.4257131549966289,1.2176556776556777,0.523003663003663,1.6213919413919413
1.4273109530040529,1.2176556776556777,0.523003663003663,1.6213919413919413
1.432014482008526,1.2176556776556777,0.523003663003663,1.6213919413919413
1.4376850170083344,1.2176556776556777,0.523003663003663,1.6213919413919413
1.4392424690013286,1.2176556776556777,0.523003663003663,1.6213919413919413
1.443033589006518,1.2176556776556777,0.523003663003663,1.6213919413919413
1.4475923779973527,1.2176556776556777,0.523003663003663,1.6213919413919413
1.447926399006974,1.2176556776556777,0.523003663003663,1.6213919413919413
1.4525014880055096,1.2176556776556777,0.523003663003663,1.6213919413919413
1.4534099910088116,1.2176556776556777,0.523003663003663,1.6213919413919413
1.4550574660097482,1.2176556776556777,0.523003663003663,1.6213919413919413
1.4588885819975985,1.2176556776556777,0.523003663003663,1.6213919413919413
1.4643016790068941,1.2176556776556777,0.523003663003663,1.6213919413919413
1.4673507069965126,1.2176556776556777,0.523003663003663,1.6213919413919413
1.469687161006732,1.2176556776556777,0.523003663003663,1.6213919413919413
1.4698511180031346,1.2176556776556777,0.523003663003663,1.6213919413919413
1.4746513279969804,1.2176556776556777,0.523003663003663,1.6213919413919413
1.4747759330057306,3.3,1.054065934065934,0.5221978021978021
1.4794294919993263,3.3,1.054065934065934,0.5221978021978021
1.4803174289991148,3.3,1.054065934065934,0.5221978021978021
1.4819177589961328,3.3,1.054065934065934,0.5221978021978021
1.4859048570069717,3.3,1.054065934065934,0.5221978021978021
1.4897280800068984,3.3,1.054065934065934,0.5221978021978021
1.4945552480057813,3.3,1.054065934065934,0.5221978021978021
1.494670568004949,3.3,1.054065934065934,0.5221978021978021
1.4997876880079275,3.3,1.054065934065934,0.5221978021978021
1.5028804160101572,3.3,1.054065934065934,0.5221978021978021
1.505221936997259,3.3,1.054065934065934,0.5221978021978021
1.5054247740044957,3.3,1.054065934065934,0.5221978021978021
1.5100576190016,3.3,1.054065934065934,0.5221978021978021
1.51024270200287,3.3,1.054065934065934,0.5221978021978021
1.514970620002714,3.3,1.054065934065934,0.5221978021978021
1.5152294590079691,3.3,1.054065934065934,0.5221978021978021
1.519954104005592,3.3,1.054065934065934,0.5221978021978021
1.520214379997924,3.3,1.054065934065934,0.5221978021978021
1.525067566006328,3.3,1.054065934065934,0.5221978021978021
1.5297376360103954,0.14344322344322344,0.13538461538461538,0.3465201465201465
1.5300386760063702,0.14344322344322344,0.13538461538461538,0.3465201465201465
1.535014269000385,0.14344322344322344,0.13538461538461538,0.3465201465201465
1.5396793920081109,0.14344322344322344,0.13538461538461538,0.3465201465201465
1.5398145590006607,0.14344322344322344,0.13538461538461538,0.3465201465201465
1.545397915004287,0.14344322344322344,0.13538461538461538,0.3465201465201465
1.5464400430064416,0.22886446886446887,0.14344322344322344,0.24014652014652016
1.5467040960065788,0.22886446886446887,0.14344322344322344,0.24014652014652016
1.5523421940015396,0.22886446886446887,0.14344322344322344,0.24014652014652016
1.5525777860020753,0.40695970695970696,0.15956043956043955,1.995311355311355
1.5581087860045955,0.40695970695970696,0.15956043956043955,1.995311355311355
1.5584168250061339,0.40695970695970696,0.15956043956043955,1.995311355311355
1.5637349559983704,0.40695970695970696,0.15956043956043955,1.995311355311355
1.5660862130025635,0.40695970695970696,0.15956043956043955,1.995311355311355
1.5662275939976098,0.40695970695970696,0.15956043956043955,1.995311355311355
1.5715857760078507,0.40695970695970696,0.15956043956043955,1.995311355311355
1.5732746380090248,0.40695970695970696,0.15956043956043955,1.995311355311355
1.5767369500099448,0.40695970695970696,0.15956043956043955,1.995311355311355
1.5769504240015522,1.6979487179487176,0.2957509157509157,2.353113553113553
1.581615873001283,1.6979487179487176,0.2957509157509157,2.353113553113553
1.581889938999666,1.6979487179487176,0.2957509157509157,2.353113553113553
1.5874033660074929,1.6979487179487176,0.2957509157509157,2.353113553113553
1.5890036600030726,1.3965567765567766,0.3626373626373626,1.4062271062271061
1.5953683300031116,1.3965567765567766,0.3626373626373626,1.4062271062271061
1.5992881499987561,1.3965567765567766,0.3626373626373626,1.4062271062271061
1.6032343420083635,1.3965567765567766,0.3626373626373626,1.4062271062271061
1.6074951880000299,1.3965567765567766,0.3626373626373626,1.4062271062271061
1.6090971539961174,1.3965567765567766,0.3626373626373626,1.4062271062271061
1.6131697030068608,1.3965567765567766,0.3626373626373626,1.4062271062271061
1.6155762060079724,1.3965567765567766,0.3626373626373626,1.4062271062271061
1.615774379009963,1.3965567765567766,0.3626373626373626,1.4062271062271061
1.6205370560055599,1.3965567765567766,0.3626373626373626,1.4062271062271061
1.6207255930057727,1.3965567765567766,0.3626373626373626,1.4062271062271061
1.6255279000033624,1.3965567765567766,0.3626373626373626,1.4062271062271061
1.6257188849995146,0.34813186813186814,0.2095238095238095,0.1555311355311355
1.630863872996997,0.34813186813186814,0.2095238095238095,0.1555311355311355
1.63422835500387,0.34813186813186814,0.2095238095238095,0.1555311355311355
1.635141298000235,1.7865934065934064,0.5624908424908425,0.6003663003663003
1.636787686002208,1.7865934065934064,0.5624908424908425,0.6003663003663003
1.640573046010104,1.7865934065934064,0.5624908424908425,0.6003663003663003
1.6452496779966168,0.43999999999999995,0.16842490842490843,1.4634432234432233
1.6511373440007446,0.43999999999999995,0.16842490842490843,1.4634432234432233
1.6512808350089472,0.43999999999999995,0.16842490842490843,1.4634432234432233
1.6570635850075632,2.561025641025641,1.0145787545787546,0.332014652014652
1.6572230290039442,2.561025641025641,1.0145787545787546,0.332014652014652
1.6621254619967658,2.561025641025641,1.0145787545787546,0.332014652014652
1.6667041320033604,2.561025641025641,1.0145787545787546,0.332014652014652
1.6675688399991486,2.561025641025641,1.0145787545787546,0.332014652014652
1.66922097200586,2.561025641025641,1.0145787545787546,0.332014652014652
1.6727879399986705,2.561025641025641,1.0145787545787546,0.332014652014652
1.6729688990017166,2.561025641025641,1.0145787545787546,0.332014652014652
1.677557600007276,2.561025641025641,1.0145787545787546,0.332014652014652
1.6784068529959768,2.561025641025641,1.0145787545787546,0.332014652014652
1.6800000320072286,2.561025641025641,1.0145787545787546,0.332014652014652
1.6840416860068217,2.561025641025641,1.0145787545787546,0.332014652014652
1.6871894869982498,0.6374358974358975,0.365054945054945,0.21355311355311357
1.689659734009183,0.6374358974358975,0.365054945054945,0.21355311355311357
1.6898170589993242,0.5512087912087912,0.3586080586080586,2.2241758241758243
1.6944686670030933,0.5512087912087912,0.3586080586080586,2.2241758241758243
1.6947363479994237,0.5512087912087912,0.3586080586080586,2.2241758241758243
1.7007864479965065,0.5512087912087912,0.3586080586080586,2.2241758241758243
1.7053102369973203,0.5512087912087912,0.3586080586080586,2.2241758241758243
1.7069208580069244,0.5512087912087912,0.3586080586080586,2.2241758241758243
1.7107180220045848,0.5512087912087912,0.3586080586080586,2.2241758241758243
1.7160661530069774,0.5512087912087912,0.3586080586080586,2.2241758241758243
1.7177414309990127,0.5512087912087912,0.3586080586080586,2.2241758241758243
1.722304469003575,0.5512087912087912,0.3586080586080586,2.2241758241758243
1.722531514998991,0.5512087912087912,0.3586080586080586,2.2241758241758243
1.7278922030091053,0.5512087912087912,0.3586080586080586,2.2241758241758243
1.729508024000097,0.5512087912087912,0.3586080586080586,2.2241758241758243
1.7343188030063175,0.27882783882783885,0.2683516483516483,1.5037362637362637
1.7397745479975129,2.9309157509157506,1.1789743589743589,0.6293772893772893
1.7422867380082607,1.0693772893772893,0.4859340659340659,1.6657142857142855
1.7424226770090172,1.0693772893772893,0.4859340659340659,1.6657142857142855
1.7472354019992054,1.0693772893772893,0.4859340659340659,1.6657142857142855
1.7528539409977384,1.0693772893772893,0.4859340659340659,1.6657142857142855
1.7530852140043862,1.0693772893772893,0.4859340659340659,1.6657142857142855
1.7578096850047586,1.0693772893772893,0.4859340659340659,1.6657142857142855
1.7579710110003361,1.0693772893772893,0.4859340659340659,1.6657142857142855
1.7629750330088427,0.41098901098901097,0.17406593406593407,1.3707692307692307
1.7675694270001259,0.41098901098901097,0.17406593406593407,1.3707692307692307
1.7678220930101816,0.0,0.12087912087912088,0.4464468864468864
1.773259120003786,0.0,0.12087912087912088,0.4464468864468864
1.7749087389966007,0.0,0.12087912087912088,0.4464468864468864
1.7786657999968156,0.0,0.12087912087912088,0.4464468864468864
1.7832966490095714,0.0,0.12087912087912088,0.4464468864468864
1.7835638070100686,0.0,0.12087912087912088,0.4464468864468864
1.7882583830069052,0.0,0.12087912087912088,0.4464468864468864
1.7940365560061764,0.0,0.12087912087912088,0.4464468864468864
1.7941762789996574,0.0,0.12087912087912088,0.4464468864468864
1.7995158840058139,0.0,0.12087912087912088,0.4464468864468864
1.8018739010003628,0.0,0.12087912087912088,0.4464468864468864
1.8021095110016176,0.0,0.12087912087912088,0.4464468864468864
1.807403630009503,0.0,0.12087912087912088,0.4464468864468864
1.8097074429970235,0.0,0.12087912087912088,0.4464468864468864
1.8099401509971358,0.0,0.12087912087912088,0.4464468864468864
1.814615541996318,0.0,0.12087912087912088,0.4464468864468864
1.814864675005083,0.0,0.12087912087912088,0.4464468864468864
1.8194832940062042,0.0,0.12087912087912088,0.4464468864468864
1.8197513960039942,0.0,0.12087912087912088,0.4464468864468864
1.8257511600095313,0.0,0.12087912087912088,0.4464468864468864
1.8305268460098887,0.0,0.12087912087912088,0.4464468864468864
1.8360588180075865,1.332087912087912,0.5624908424908425,1.0347252747252746
1.836955360005959,1.332087912087912,0.5624908424908425,1.0347252747252746
1.838550779997604,1.332087912087912,0.5624908424908425,1.0347252747252746
1.8424202030000743,1.332087912087912,0.5624908424908425,1.0347252747252746
1.847748586005764,1.332087912087912,0.5624908424908425,1.0347252747252746
1.8503941520029912,1.332087912087912,0.5624908424908425,1.0347252747252746
1.854415103996871,1.332087912087912,0.5624908424908425,1.0347252747252746
1.8582638320076512,1.332087912087912,0.5624908424908425,1.0347252747252746
1.862251901999116,0.45692307692307693,0.26754578754578756,1.3345054945054944
1.8654931979981484,0.45692307692307693,0.26754578754578756,1.3345054945054944
1.867125823002425,0.45692307692307693,0.26754578754578756,1.3345054945054944
1.87110156500421,0.45692307692307693,0.26754578754578756,1.3345054945054944
1.8744687489961507,1.3997802197802196,0.5979487179487178,2.1564835164835165
1.8753049350052606,1.3997802197802196,0.5979487179487178,2.1564835164835165
1.8769865240028594,1.1789743589743589,0.5536263736263736,1.9235897435897436
1.8801190170051996,0.51010989010989,0.3586080586080586,1.2007326007326007
1.8824757440015674,0.51010989010989,0.3586080586080586,1.2007326007326007
1.8827231530012796,0.51010989010989,0.3586080586080586,1.2007326007326007
1.8875956230040174,0.51010989010989,0.3586080586080586,1.2007326007326007
1.8877919410006143,0.51010989010989,0.3586080586080586,1.2007326007326007
1.892496800996014,0.51010989010989,0.3586080586080586,1.2007326007326007
1.8927421780099394,1.7487179487179487,0.6922344322344323,0.3231501831501831
1.8981954060000135,1.7487179487179487,0.6922344322344323,0.3231501831501831
1.899297669006046,1.7487179487179487,0.6922344322344323,0.3231501831501831
1.8996094890026143,1.7487179487179487,0.6922344322344323,0.3231501831501831
1.9043007550062612,1.7487179487179487,0.6922344322344323,0.3231501831501831
1.9044921949971467,1.7487179487179487,0.6922344322344323,0.3231501831501831
1.9098059399984777,1.7487179487179487,0.6922344322344323,0.3231501831501831
1.9122818870091578,1.7487179487179487,0.6922344322344323,0.3231501831501831
1.9178422580007464,1.7487179487179487,0.6922344322344323,0.3231501831501831
1.91884087100334,1.7487179487179487,0.6922344322344323,0.3231501831501831
1.919809069004259,1.7487179487179487,0.6922344322344323,0.3231501831501831
1.9208177990076365,1.7487179487179487,0.6922344322344323,0.3231501831501831
1.9216582210065098,1.7487179487179487,0.6922344322344323,0.3231501831501831
1.9232470340066357,1.7487179487179487,0.6922344322344323,0.3231501831501831
1.927251379005611,1.7487179487179487,0.6922344322344323,0.3231501831501831
1.9305758590053301,1.7487179487179487,0.6922344322344323,0.3231501831501831
1.9314618400094332,1.7487179487179487,0.6922344322344323,0.3231501831501831
1.9331013729970437,1.7487179487179487,0.6922344322344323,0.3231501831501831
1.9369325029983884,1.7487179487179487,0.6922344322344323,0.3231501831501831
1.9416847960092127,1.7487179487179487,0.6922344322344323,0.3231501831501831
1.9418690660095308,1.7487179487179487,0.6922344322344323,0.3231501831501831
1.9474102509993827,1.7487179487179487,0.6922344322344323,0.3231501831501831
1.9483076909964439,1.7487179487179487,0.6922344322344323,0.3231501831501831
1.9498881540057482,1.7487179487179487,0.6922344322344323,0.3231501831501831
1.9537631880084518,1.7487179487179487,0.6922344322344323,0.3231501831501831
1.958390045008855,1.7487179487179487,0.6922344322344323,0.3231501831501831
1.9586922330054222,1.7487179487179487,0.6922344322344323,0.3231501831501831
1.96403738000663,1.7487179487179487,0.6922344322344323,0.3231501831501831
1.9664976260100957,1.7487179487179487,0.6922344322344323,0.3231501831501831
1.9718999750039075,0.11765567765567764,0.15472527472527473,0.3336263736263736
1.9737025070062373,0.11765567765567764,0.15472527472527473,0.3336263736263736
1.9767855590034742,0.11765567765567764,0.15472527472527473,0.3336263736263736
1.9792027990042698,0.11765567765567764,0.15472527472527473,0.3336263736263736
1.9794610060052946,0.11765567765567764,0.15472527472527473,0.3336263736263736
1.9851400560000911,0.11765567765567764,0.15472527472527473,0.3336263736263736
1.9852993250096915,0.11765567765567764,0.15472527472527473,0.3336263736263736
1.9907570979994489,0.11765567765567764,0.15472527472527473,0.3336263736263736
1.991684841006645,0.5463736263736263,0.37875457875457874,1.9598534798534797
1.9933698820095742,0.5463736263736263,0.37875457875457874,1.9598534798534797
1.9971826340042753,0.5463736263736263,0.37875457875457874,1.9598534798534797
2.0010559470101725,0.5463736263736263,0.37875457875457874,1.9598534798534797
2.004945064007188,0.26996336996336995,0.195018315018315,1.3175824175824176
2.0095449950022157,0.26996336996336995,0.195018315018315,1.3175824175824176
2.009822003004956,0.26996336996336995,0.195018315018315,1.3175824175824176
2.01817863600445,0.4585347985347985,0.3223443223443223,1.3788278388278388
2.0227480410103453,0.4585347985347985,0.3223443223443223,1.3788278388278388
2.023017412997433,0.4585347985347985,0.3223443223443223,1.3788278388278388
2.028834677010309,0.4585347985347985,0.3223443223443223,1.3788278388278388
2.0346413899969775,0.4585347985347985,0.3223443223443223,1.3788278388278388
2.03482226000051,2.784249084249084,1.0726007326007325,0.3304029304029304
2.039464711997425,2.784249084249084,1.0726007326007325,0.3304029304029304
2.0396931230061455,2.784249084249084,1.0726007326007325,0.3304029304029304
2.0443226479983423,2.784249084249084,1.0726007326007325,0.3304029304029304
2.0446713240089593,2.784249084249084,1.0726007326007325,0.3304029304029304
2.0492813949967967,2.784249084249084,1.0726007326007325,0.3304029304029304
2.0495437430072343,2.784249084249084,1.0726007326007325,0.3304029304029304
2.0541570610075723,2.784249084249084,1.0726007326007325,0.3304029304029304
2.0544233410037123,2.784249084249084,1.0726007326007325,0.3304029304029304
2.0591137200099183,2.784249084249084,1.0726007326007325,0.3304029304029304
2.059288403004757,2.784249084249084,1.0726007326007325,0.3304029304029304
2.0646282939997036,2.784249084249084,1.0726007326007325,0.3304029304029304
2.066954314010218,2.784249084249084,1.0726007326007325,0.3304029304029304
2.067094847006956,2.784249084249084,1.0726007326007325,0.3304029304029304
2.0717159890045878,2.784249084249084,1.0726007326007325,0.3304029304029304
2.071953143007704,2.784249084249084,1.0726007326007325,0.3304029304029304
2.0769380260026082,2.784249084249084,1.0726007326007325,0.3304029304029304
2.0817452120099915,1.535970695970696,0.5318681318681319,1.0145787545787546
2.081865341999219,1.535970695970696,0.5318681318681319,1.0145787545787546
2.086773966002511,1.535970695970696,0.5318681318681319,1.0145787545787546
2.0921808520070044,1.535970695970696,0.5318681318681319,1.0145787545787546
2.0938382870081114,1.535970695970696,0.5318681318681319,1.0145787545787546
2.0977232980076224,1.535970695970696,0.5318681318681319,1.0145787545787546
2.1016087629977847,1.535970695970696,0.5318681318681319,1.0145787545787546
2.1064141300012125,1.535970695970696,0.5318681318681319,1.0145787545787546
2.1120209979999345,1.535970695970696,0.5318681318681319,1.0145787545787546
2.112990585999796,1.535970695970696,0.5318681318681319,1.0145787545787546
2.1133067769987974,1.535970695970696,0.5318681318681319,1.0145787545787546
2.1189155309984926,1.535970695970696,0.5318681318681319,1.0145787545787546
2.1199130460008746,0.30945054945054945,0.13941391941391942,1.1008058608058606
2.1209005179989617,0.30945054945054945,0.13941391941391942,1.1008058608058606
2.1218525099975523,0.30945054945054945,0.13941391941391942,1.1008058608058606
2.1234372280014213,0.30945054945054945,0.13941391941391942,1.1008058608058606
2.1275345390022267,0.30945054945054945,0.13941391941391942,1.1008058608058606
2.1299508410011185,0.30945054945054945,0.13941391941391942,1.1008058608058606
2.1355062030052068,0.30945054945054945,0.13941391941391942,1.1008058608058606
2.1378933250089176,1.6109157509157508,0.5906959706959707,0.23128205128205126
2.1380445579998195,1.6109157509157508,0.5906959706959707,0.23128205128205126
2.1433615230052965,1.6109157509157508,0.5906959706959707,0.23128205128205126
2.1464449250051985,0.303003663003663,0.19824175824175824,1.4384615384615385
2.148821519003832,0.303003663003663,0.19824175824175824,1.4384615384615385
2.1490756130078807,0.303003663003663,0.19824175824175824,1.4384615384615385
2.1544192529981956,0.303003663003663,0.19824175824175824,1.4384615384615385
2.1567482609971194,0.303003663003663,0.19824175824175824,1.4384615384615385
2.156896204003715,0.303003663003663,0.19824175824175824,1.4384615384615385
2.16220121900551,0.303003663003663,0.19824175824175824,1.4384615384615385
2.1653908640000736,0.303003663003663,0.19824175824175824,1.4384615384615385
2.1677420269988943,0.303003663003663,0.19824175824175824,1.4384615384615385
2.1679207510023843,0.303003663003663,0.19824175824175824,1.4384615384615385
2.173375799000496,0.303003663003663,0.19824175824175824,1.4384615384615385
2.175110730997403,0.33282051282051284,0.2602930402930403,1.8051282051282052
2.1782037140073953,0.33282051282051284,0.2602930402930403,1.8051282051282052
2.1805146530095953,1.1201465201465202,0.42710622710622714,2.04043956043956
2.1807402080012253,1.1201465201465202,0.42710622710622714,2.04043956043956
2.18621101899771,1.1201465201465202,0.42710622710622714,2.04043956043956
2.1878721000102814,0.23369963369963367,0.20307692307692307,0.3489377289377289
2.1916781720065046,0.23369963369963367,0.20307692307692307,0.3489377289377289
2.197022687003482,3.3,1.0621245421245422,0.7365567765567765
2.19881673900818,3.3,1.0621245421245422,0.7365567765567765
2.2019590900017647,3.3,1.0621245421245422,0.7365567765567765
2.203568687007646,3.3,1.0621245421245422,0.7365567765567765
2.20809096400626,3.3,1.0621245421245422,0.7365567765567765
2.2084244300058344,3.3,1.0621245421245422,0.7365567765567765
2.2131737930030795,3.3,1.0621245421245422,0.7365567765567765
2.21890353600611,1.735018315018315,0.5463736263736263,0.8574358974358974
2.21930797600362,1.735018315018315,0.5463736263736263,0.8574358974358974
2.224115689008613,1.735018315018315,0.5463736263736263,0.8574358974358974
2.229488543001935,1.735018315018315,0.5463736263736263,0.8574358974358974
2.2326392020040657,1.8397802197802198,0.5302564102564102,2.286227106227106
2.234409790005884,0.381978021978022,0.25787545787545785,2.0484981684981682
2.238236279998091,0.381978021978022,0.25787545787545785,2.0484981684981682
2.2422855440090643,0.9887912087912087,0.29655677655677654,1.884102564102564
2.246045938998577,0.9887912087912087,0.29655677655677654,1.884102564102564
2.251432332996046,0.029816849816849816,0.10153846153846154,0.35619047619047617
2.253904330005753,0.029816849816849816,0.10153846153846154,0.35619047619047617
2.259277375007514,1.7366300366300367,0.46417582417582415,1.4529670329670328
2.261782971996581,1.7366300366300367,0.46417582417582415,1.4529670329670328
2.267320377010037,1.7366300366300367,0.46417582417582415,1.4529670329670328
2.2689283759973478,0.12732600732600732,0.19179487179487179,0.5149450549450549
2.272061253010179,0.12732600732600732,0.19179487179487179,0.5149450549450549
2.2747340589994565,3.3,0.9807326007326007,0.4174358974358974
2.2794080809981097,1.8905494505494502,0.5705494505494505,0.7236630036630036
2.279704672007938,1.8905494505494502,0.5705494505494505,0.7236630036630036
2.2845735489972867,1.8905494505494502,0.5705494505494505,0.7236630036630036
2.2899864450009773,0.4126007326007326,0.24014652014652016,0.23853479853479853
2.2916453939978965,1.3997802197802196,0.3932600732600733,1.863150183150183
2.2955301019974286,1.3997802197802196,0.3932600732600733,1.863150183150183
2.2993720110098366,1.378021978021978,0.386007326007326,1.999340659340659
2.303958598000463,1.378021978021978,0.386007326007326,1.999340659340659
2.3041804280073848,1.378021978021978,0.386007326007326,1.999340659340659
2.3089145660051145,1.378021978021978,0.386007326007326,1.999340659340659
2.309108526998898,1.8736263736263734,0.5036630036630036,2.1508424908424906
2.3138240719999885,1.8736263736263734,0.5036630036630036,2.1508424908424906
2.314045557010104,1.8736263736263734,0.5036630036630036,2.1508424908424906
2.3187718319968553,1.8736263736263734,0.5036630036630036,2.1508424908424906
2.318931547997636,1.8736263736263734,0.5036630036630036,2.1508424908424906
2.323589075007476,1.8736263736263734,0.5036630036630036,2.1508424908424906
2.3238512920070207,1.8736263736263734,0.5036630036630036,2.1508424908424906
2.33081263701024,1.8736263736263734,0.5036630036630036,2.1508424908424906
2.3346679170063,1.8736263736263734,0.5036630036630036,2.1508424908424906
2.3389638410008047,1.8736263736263734,0.5036630036630036,2.1508424908424906
2.34114223200595,1.8736263736263734,0.5036630036630036,2.1508424908424906
2.3414717170089716,0.8936996336996336,0.38278388278388276,1.0774358974358973
2.3464930320042185,0.8936996336996336,0.38278388278388276,1.0774358974358973
2.3514139220060315,0.8936996336996336,0.38278388278388276,1.0774358974358973
2.355284703997313,0.8936996336996336,0.38278388278388276,1.0774358974358973
2.3600585960084572,0.8936996336996336,0.38278388278388276,1.0774358974358973
2.3655006019980647,0.8936996336996336,0.38278388278388276,1.0774358974358973
2.3680179079965455,0.8936996336996336,0.38278388278388276,1.0774358974358973
2.3735929160029627,1.8494505494505493,0.46014652014652013,2.3627838827838827
2.374489199995878,1.8494505494505493,0.46014652014652013,2.3627838827838827
2.375427888997365,1.8494505494505493,0.46014652014652013,2.3627838827838827
2.377080771999317,1.8494505494505493,0.46014652014652013,2.3627838827838827
2.3802144410001347,1.8494505494505493,0.46014652014652013,2.3627838827838827
2.3826412229973357,1.8494505494505493,0.46014652014652013,2.3627838827838827
2.3827503799984697,1.8494505494505493,0.46014652014652013,2.3627838827838827
2.387439489000826,1.8494505494505493,0.46014652014652013,2.3627838827838827
2.3876729830080876,1.8494505494505493,0.46014652014652013,2.3627838827838827
2.3923264930053847,1.8494505494505493,0.46014652014652013,2.3627838827838827
2.3925868430087576,1.8494505494505493,0.46014652014652013,2.3627838827838827
2.3972818659967743,1.8494505494505493,0.46014652014652013,2.3627838827838827
2.3974693729978753,0.6777289377289377,0.1668131868131868,1.8994139194139192
2.402627157003735,0.6777289377289377,0.1668131868131868,1.8994139194139192
2.406217278999975,0.6777289377289377,0.1668131868131868,1.8994139194139192
2.4119471500016516,0.6777289377289377,0.1668131868131868,1.8994139194139192
2.4121934730064822,0.34813186813186814,0.21516483516483517,2.00014652014652
2.4178004459972726,0.34813186813186814,0.21516483516483517,2.00014652014652
2.418674111002474,1.0178021978021978,0.24739926739926738,2.1846886446886447
2.4211246560007567,1.0178021978021978,0.24739926739926738,2.1846886446886447
2.42614095400495,1.0178021978021978,0.24739926739926738,2.1846886446886447
2.4298683859960875,1.0178021978021978,0.24739926739926738,2.1846886446886447
2.4351851910032565,1.0178021978021978,0.24739926739926738,2.1846886446886447
2.437617970004794,1.0178021978021978,0.24739926739926738,2.1846886446886447
2.4378307480074,0.8243956043956043,0.2071062271062271,2.091208791208791
2.442466834007064,0.8243956043956043,0.2071062271062271,2.091208791208791
2.442751369002508,0.8243956043956043,0.2071062271062271,2.091208791208791
2.447394836010062,0.8243956043956043,0.2071062271062271,2.091208791208791
2.4476181920035742,0.8243956043956043,0.2071062271062271,2.091208791208791
2.4523250830097822,0.8243956043956043,0.2071062271062271,2.091208791208791
2.4524775220052106,0.8243956043956043,0.2071062271062271,2.091208791208791
2.457174234004924,0.8243956043956043,0.2071062271062271,2.091208791208791
2.4574752379994607,0.8243956043956043,0.2071062271062271,2.091208791208791
2.4622172329982277,0.8243956043956043,0.2071062271062271,2.091208791208791
2.4624236050003674,0.8243956043956043,0.2071062271062271,2.091208791208791
2.4672174220031593,0.8243956043956043,0.2071062271062271,2.091208791208791
2.472785723002744,0.8243956043956043,0.2071062271062271,2.091208791208791
2.4730318180081667,0.5439560439560439,0.25142857142857145,2.198388278388278
2.477639275006368,0.5439560439560439,0.25142857142857145,2.198388278388278
2.477894074996584,0.4391941391941392,0.19018315018315018,1.2506959706959706
2.4834754030016484,0.4391941391941392,0.19018315018315018,1.2506959706959706
2.4850626749976072,2.332967032967033,0.7172161172161172,0.11684981684981684
2.4889838170056464,0.30139194139194136,0.14989010989010987,0.1652014652014652
2.4928402430086862,1.2273260073260073,0.35135531135531134,1.2676190476190476
2.497700509004062,1.2273260073260073,0.35135531135531134,1.2676190476190476
2.5023670270020375,1.1838095238095236,0.43677655677655675,1.8156043956043957
2.5025395530101378,0.23853479853479853,0.12571428571428572,1.4005860805860806
2.507176757004345,0.23853479853479853,0.12571428571428572,1.4005860805860806
2.5074668410088634,0.23853479853479853,0.12571428571428572,1.4005860805860806
2.5127565919974586,0.23853479853479853,0.12571428571428572,1.4005860805860806
2.5157759800058557,0.23853479853479853,0.12571428571428572,1.4005860805860806
2.5181078360037645,0.23853479853479853,0.12571428571428572,1.4005860805860806
2.518311060004635,0.23853479853479853,0.12571428571428572,1.4005860805860806
2.5237728110078024,0.23853479853479853,0.12571428571428572,1.4005860805860806
2.5261218969972106,0.23853479853479853,0.12571428571428572,1.4005860805860806
2.526337285002228,0.23853479853479853,0.12571428571428572,1.4005860805860806
2.531756808006321,0.23853479853479853,0.12571428571428572,1.4005860805860806
2.533376291001332,3.3,1.112893772893773,0.4214652014652014
2.5369922730023973,3.3,1.112893772893773,0.4214652014652014
2.5371259590028785,3.3,1.112893772893773,0.4214652014652014
2.5419835259963293,3.3,1.112893772893773,0.4214652014652014
2.5421226710022893,3.3,1.112893772893773,0.4214652014652014
2.5470450930006336,3.3,1.112893772893773,0.4214652014652014
2.5512526640086435,0.1087912087912088,0.1829304029304029,0.27802197802197803
2.552817114003119,0.1087912087912088,0.1829304029304029,0.27802197802197803
2.557673593008076,0.1087912087912088,0.1829304029304029,0.27802197802197803
2.5626220580015797,0.1087912087912088,0.1829304029304029,0.27802197802197803
2.5627320549974684,0.1087912087912088,0.1829304029304029,0.27802197802197803
2.5677866490004817,0.1087912087912088,0.1829304029304029,0.27802197802197803
2.571854866007925,0.1087912087912088,0.1829304029304029,0.27802197802197803
2.5736466119997203,0.1087912087912088,0.1829304029304029,0.27802197802197803
2.5776592420006637,0.1087912087912088,0.1829304029304029,0.27802197802197803
2.5798777290037833,1.4650549450549448,0.5149450549450549,1.5698168498168497
2.580689007998444,1.4650549450549448,0.5149450549450549,1.5698168498168497
2.5822083210077835,1.4650549450549448,0.5149450549450549,1.5698168498168497
2.5865746269992087,1.4650549450549448,0.5149450549450549,1.5698168498168497
2.588109229996917,1.4650549450549448,0.5149450549450549,1.5698168498168497
2.592331995998393,1.4650549450549448,0.5149450549450549,1.5698168498168497
2.5945532150071813,1.4650549450549448,0.5149450549450549,1.5698168498168497
2.5953494900022633,1.4650549450549448,0.5149450549450549,1.5698168498168497
2.5968867570045404,1.4650549450549448,0.5149450549450549,1.5698168498168497
2.6011395690002246,0.40776556776556777,0.18615384615384614,0.9944322344322343
2.6033184950065333,0.3158974358974359,0.15069597069597068,0.9855677655677655
2.6041408870078158,0.3158974358974359,0.15069597069597068,0.9855677655677655
2.605628297009389,0.3158974358974359,0.15069597069597068,0.9855677655677655
2.610516254004324,0.3158974358974359,0.15069597069597068,0.9855677655677655
2.6107036500034155,0.3158974358974359,0.15069597069597068,0.9855677655677655
2.6155965400103014,0.3158974358974359,0.15069597069597068,0.9855677655677655
2.6206032729969593,1.3143589743589743,0.502051282051282,1.1668864468864468
2.624791260997881,0.6720879120879121,0.3344322344322344,1.2547252747252746
2.627122325997334,0.6720879120879121,0.3344322344322344,1.2547252747252746
2.627300620006281,0.6720879120879121,0.3344322344322344,1.2547252747252746
2.632813326010364,0.6720879120879121,0.3344322344322344,1.2547252747252746
2.6344342780066654,0.6720879120879121,0.3344322344322344,1.2547252747252746
2.638197645006585,0.6720879120879121,0.3344322344322344,1.2547252747252746
2.6435140109970234,0.6720879120879121,0.3344322344322344,1.2547252747252746
2.6465800870064413,0.6720879120879121,0.3344322344322344,1.2547252747252746
2.6482351000013296,1.3079120879120878,0.4561172161172161,0.8719413919413919
2.6551750140060904,1.3079120879120878,0.4561172161172161,0.8719413919413919
2.658336931010126,1.5295238095238095,0.5487912087912087,0.8195604395604396
2.6606937990000006,1.5295238095238095,0.5487912087912087,0.8195604395604396
2.6608523550094105,1.5295238095238095,0.5487912087912087,0.8195604395604396
2.6654713050083956,1.5295238095238095,0.5487912087912087,0.8195604395604396
2.6663458249968244,1.5295238095238095,0.5487912087912087,0.8195604395604396
2.667266924006981,1.5295238095238095,0.5487912087912087,0.8195604395604396
2.6688739719975274,1.5295238095238095,0.5487912087912087,0.8195604395604396
2.672758953005541,1.5295238095238095,0.5487912087912087,0.8195604395604396
2.677044358002604,3.0389010989010985,1.1676923076923076,0.3416849816849817
2.6798807629966177,3.0389010989010985,1.1676923076923076,0.3416849816849817
2.6830655689991545,3.0389010989010985,1.1676923076923076,0.3416849816849817
2.683939659007592,3.0389010989010985,1.1676923076923076,0.3416849816849817
2.685551603004569,3.0389010989010985,1.1676923076923076,0.3416849816849817
2.689443980008946,3.0389010989010985,1.1676923076923076,0.3416849816849817
2.6933422580041224,0.9098168498168498,0.4214652014652014,1.8357509157509158
2.6976568780082744,0.9098168498168498,0.4214652014652014,1.8357509157509158
2.7000584510096814,0.9098168498168498,0.4214652014652014,1.8357509157509158
2.7061207549995743,0.9098168498168498,0.4214652014652014,1.8357509157509158
2.7106586130103096,0.9098168498168498,0.4214652014652014,1.8357509157509158
2.711578203001409,0.9098168498168498,0.4214652014652014,1.8357509157509158
2.7132007600012003,0.9098168498168498,0.4214652014652014,1.8357509157509158
2.717113987004268,0.9098168498168498,0.4214652014652014,1.8357509157509158
2.7210029470006702,0.9098168498168498,0.4214652014652014,1.8357509157509158
2.7255677430075593,0.43999999999999995,0.2328937728937729,1.1636630036630036
2.7264233809983125,0.43999999999999995,0.2328937728937729,1.1636630036630036
2.728056439998909,0.43999999999999995,0.2328937728937729,1.1636630036630036
2.731950596004026,0.43999999999999995,0.2328937728937729,1.1636630036630036
2.736555009003496,0.43999999999999995,0.2328937728937729,1.1636630036630036
2.7367718540044734,0.43999999999999995,0.2328937728937729,1.1636630036630036
2.7420377070084214,0.43999999999999995,0.2328937728937729,1.1636630036630036
2.7456112210056745,3.3,1.2015384615384614,0.8719413919413919
2.7542102950101253,3.3,1.2015384615384614,0.8719413919413919
2.7589705959981075,3.3,1.2015384615384614,0.8719413919413919
2.7636065630067606,3.3,1.2015384615384614,0.8719413919413919
2.7644691390014486,2.7939194139194137,0.9484981684981684,0.7832967032967032
2.7661413910100237,2.7939194139194137,0.9484981684981684,0.7832967032967032
2.769968950000475,2.7939194139194137,0.9484981684981684,0.7832967032967032
2.777769050007919,1.5174358974358972,0.5753846153846153,1.796263736263736
2.782384293997893,1.5174358974358972,0.5753846153846153,1.796263736263736
2.7825656210043235,1.5174358974358972,0.5753846153846153,1.796263736263736
2.7872085429989966,0.8372893772893772,0.3545787545787546,0.18695970695970696
2.787506505002966,0.8372893772893772,0.3545787545787546,0.18695970695970696
2.7921070250013145,0.8372893772893772,0.3545787545787546,0.18695970695970696
2.792334309007856,0.8372893772893772,0.3545787545787546,0.18695970695970696
2.797845123001025,0.8372893772893772,0.3545787545787546,0.18695970695970696
2.799738850007998,0.8372893772893772,0.3545787545787546,0.18695970695970696
2.8014677760074846,0.8372893772893772,0.3545787545787546,0.18695970695970696
2.805660397003521,1.8558974358974358,0.6672527472527472,0.8590476190476191
2.807244958996307,0.18937728937728937,0.18857142857142856,0.23369963369963367
2.812623332007206,1.7172893772893774,0.6422710622710622,1.2539194139194139
2.816273550997721,1.7172893772893774,0.6422710622710622,1.2539194139194139
2.820899020996876,1.004102564102564,0.46498168498168496,1.3369230769230769
2.828468273000908,1.004102564102564,0.46498168498168496,1.3369230769230769
2.837558004001039,1.004102564102564,0.46498168498168496,1.3369230769230769
2.8448306390055222,0.3304029304029304,0.26996336996336995,1.464249084249084
2.8518171860050643,0.3304029304029304,0.26996336996336995,1.464249084249084
2.8558964760013623,0.3304029304029304,0.26996336996336995,1.464249084249084
2.859974027000135,1.0105494505494506,0.43597069597069593,1.378021978021978
2.863226939996821,1.0105494505494506,0.43597069597069593,1.378021978021978
2.8653706019977108,1.0105494505494506,0.43597069597069593,1.378021978021978
2.866590482008178,1.0105494505494506,0.43597069597069593,1.378021978021978
2.8668186040013097,1.0105494505494506,0.43597069597069593,1.378021978021978
2.8713654660095926,1.0105494505494506,0.43597069597069593,1.378021978021978
2.872215526003856,1.0105494505494506,0.43597069597069593,1.378021978021978
2.8733019970095484,1.0105494505494506,0.43597069597069593,1.378021978021978
2.8741952499985928,1.0105494505494506,0.43597069597069593,1.378021978021978
2.875181119001354,1.0105494505494506,0.43597069597069593,1.378021978021978
2.8761744770017685,1.0105494505494506,0.43597069597069593,1.378021978021978
2.877098401004332,1.0105494505494506,0.43597069597069593,1.378021978021978
2.8786705609963974,1.0105494505494506,0.43597069597069593,1.378021978021978
2.888534384997911,1.0105494505494506,0.43597069597069593,1.378021978021978
2.8985573240061058,1.0105494505494506,0.43597069597069593,1.378021978021978
2.904787198000122,0.18373626373626373,0.2377289377289377,1.4070329670329669
2.909530981996795,0.18373626373626373,0.2377289377289377,1.4070329670329669
2.9169846150034573,0.18373626373626373,0.2377289377289377,1.4070329670329669
2.9226390340045327,0.18373626373626373,0.2377289377289377,1.4070329670329669
2.930701431003399,0.7752380952380952,0.361025641025641,0.17084249084249084
2.936849560996052,0.7752380952380952,0.361025641025641,0.17084249084249084
2.9399427530006506,0.7752380952380952,0.361025641025641,0.17084249084249084
2.942718635997153,0.7752380952380952,0.361025641025641,0.17084249084249084
2.9469207750080386,3.3,1.1934798534798534,0.5705494505494505
2.94920684400131,3.3,1.1934798534798534,0.5705494505494505
2.949480013005086,3.3,1.1934798534798534,0.5705494505494505
2.9549438820104115,3.3,1.1934798534798534,0.5705494505494505
2.957705292996252,3.3,1.1934798534798534,0.5705494505494505
2.9648051410040352,3.3,1.1934798534798534,0.5705494505494505
2.9700483589986106,3.3,1.1934798534798534,0.5705494505494505
2.971812988005695,3.3,1.1934798534798534,0.5705494505494505
2.9744891169975745,3.3,1.1934798534798534,0.5705494505494505
2.979601081009605,3.3,1.1934798534798534,0.5705494505494505
2.983908344001975,3.3,1.1934798534798534,0.5705494505494505
2.9847938180027995,3.3,1.1934798534798534,0.5705494505494505
2.986481496001943,3.3,1.1934798534798534,0.5705494505494505
2.990303347003646,3.3,1.1934798534798534,0.5705494505494505
2.9941270260023884,3.3,1.1934798534798534,0.5705494505494505
2.9988288750028005,3.3,1.1934798534798534,0.5705494505494505
3.005004437000025,0.4698168498168498,0.19824175824175824,1.4457142857142857
3.009200921005686,0.09267399267399268,0.17084249084249084,0.3908424908424908
3.0115206629998283,0.09267399267399268,0.17084249084249084,0.3908424908424908
3.011857728008181,0.09267399267399268,0.17084249084249084,0.3908424908424908
3.0181596070033265,0.09267399267399268,0.17084249084249084,0.3908424908424908
3.0212830450036563,0.09267399267399268,0.17084249084249084,0.3908424908424908
3.0236879480071366,0.09267399267399268,0.17084249084249084,0.3908424908424908
3.0239111069968203,0.09267399267399268,0.17084249084249084,0.3908424908424908
3.029904527007602,0.09267399267399268,0.17084249084249084,0.3908424908424908
3.037354795000283,1.1886446886446886,0.4158241758241758,1.1024175824175824
3.0431930320046376,0.49238095238095236,0.29413919413919415,1.1580219780219778
3.0512860040034866,2.224981684981685,0.8227838827838827,0.13941391941391942
3.0551845059962943,2.224981684981685,0.8227838827838827,0.13941391941391942
3.0605227909982204,2.224981684981685,0.8227838827838827,0.13941391941391942
3.0622459309961414,2.224981684981685,0.8227838827838827,0.13941391941391942
3.0655220370099414,2.224981684981685,0.8227838827838827,0.13941391941391942
3.066461790003814,2.224981684981685,0.8227838827838827,0.13941391941391942
3.0674104189965874,2.224981684981685,0.8227838827838827,0.13941391941391942
3.068350294997799,1.4038095238095236,0.45692307692307693,1.1048351648351646
3.070018633006839,1.4038095238095236,0.45692307692307693,1.1048351648351646
3.0732570310065057,1.4038095238095236,0.45692307692307693,1.1048351648351646
3.074279556007241,1.4038095238095236,0.45692307692307693,1.1048351648351646
3.0751511480048066,1.4038095238095236,0.45692307692307693,1.1048351648351646
3.0767148440063465,1.4038095238095236,0.45692307692307693,1.1048351648351646
3.082440187004977,0.7881318681318681,0.3658608058608058,1.4013919413919413
3.0827074380067643,0.7881318681318681,0.3658608058608058,1.4013919413919413
3.0890026240085717,0.7881318681318681,0.3658608058608058,1.4013919413919413
3.0945792959973915,0.7881318681318681,0.3658608058608058,1.4013919413919413
3.094693728009588,0.7881318681318681,0.3658608058608058,1.4013919413919413
3.1022259010060225,0.7881318681318681,0.3658608058608058,1.4013919413919413
3.106460306997178,0.4448351648351648,0.2224175824175824,1.2660073260073261
3.1087683649966493,0.0,0.08864468864468865,0.4037362637362637
3.1089585840090876,1.6931135531135528,0.5584615384615385,1.88007326007326
3.11431668199657,1.6931135531135528,0.5584615384615385,1.88007326007326
3.1183092610008316,3.3,1.1725274725274726,0.21032967032967032
3.1211703849985497,3.3,1.1725274725274726,0.21032967032967032
3.1235681130056037,3.3,1.1725274725274726,0.21032967032967032
3.1291548800072633,0.8235897435897436,0.2562637362637363,0.05882783882783882
3.1306262069992954,0.8235897435897436,0.2562637362637363,0.05882783882783882
3.137703443004284,0.8235897435897436,0.2562637362637363,0.05882783882783882
3.1430572789977305,0.8235897435897436,0.2562637362637363,0.05882783882783882
3.1473151770042023,0.8235897435897436,0.2562637362637363,0.05882783882783882
3.148609805997694,0.8235897435897436,0.2562637362637363,0.05882783882783882
3.148885981005151,0.8235897435897436,0.2562637362637363,0.05882783882783882
3.1550168320100056,0.8235897435897436,0.2562637362637363,0.05882783882783882
3.158341532005579,1.2579487179487179,0.5624908424908425,1.1145054945054944
3.159274956997251,1.2579487179487179,0.5624908424908425,1.1145054945054944
3.1609098620101577,1.2579487179487179,0.5624908424908425,1.1145054945054944
3.1671115240023937,2.468351648351648,0.9283516483516483,0.855018315018315
3.1696594320092117,0.09186813186813186,0.1555311355311355,0.5407326007326007
3.1697631490096683,0.09186813186813186,0.1555311355311355,0.5407326007326007
3.175365261005936,0.09186813186813186,0.1555311355311355,0.5407326007326007
3.1762644160044147,0.09186813186813186,0.1555311355311355,0.5407326007326007
3.177227567997761,0.09186813186813186,0.1555311355311355,0.5407326007326007
3.1784140920062782,0.09186813186813186,0.1555311355311355,0.5407326007326007
3.1786762900010217,0.09186813186813186,0.1555311355311355,0.5407326007326007
3.185654626999167,0.09186813186813186,0.1555311355311355,0.5407326007326007
3.189738291010144,3.3,1.174139194139194,0.7147985347985348
3.192793656999129,3.3,1.174139194139194,0.7147985347985348
3.194563551005558,3.3,1.174139194139194,0.7147985347985348
3.199974902003305,3.3,1.174139194139194,0.7147985347985348
3.2004519360052655,3.3,1.174139194139194,0.7147985347985348
3.206332850997569,3.3,1.174139194139194,0.7147985347985348
3.210422111005755,3.3,1.174139194139194,0.7147985347985348
3.214456179004628,3.3,1.174139194139194,0.7147985347985348
3.2173659510008292,3.3,1.174139194139194,0.7147985347985348
3.2197283690038603,3.3,1.174139194139194,0.7147985347985348
3.2198778210004093,0.3706959706959707,0.17164835164835165,1.3949450549450548
3.2254788700083736,0.29736263736263735,0.1515018315018315,1.2861538461538462
3.2257510670024203,0.29736263736263735,0.1515018315018315,1.2861538461538462
3.2328040470019914,0.29736263736263735,0.1515018315018315,1.2861538461538462
3.2368272360035917,0.29736263736263735,0.1515018315018315,1.2861538461538462
3.2400289200013503,0.29736263736263735,0.1515018315018315,1.2861538461538462
3.24095470100292,0.29736263736263735,0.1515018315018315,1.2861538461538462
3.2426339719968382,0.29736263736263735,0.1515018315018315,1.2861538461538462
3.2477969419996953,0.29736263736263735,0.1515018315018315,1.2861538461538462
3.2524620940093882,0.29736263736263735,0.1515018315018315,1.2861538461538462
3.257979621004779,2.830989010989011,0.9114285714285715,0.3191208791208791
3.258179823998944,2.830989010989011,0.9114285714285715,0.3191208791208791
3.2645726070040837,2.830989010989011,0.9114285714285715,0.3191208791208791
3.2693411280051805,2.830989010989011,0.9114285714285715,0.3191208791208791
3.2742942290060455,2.830989010989011,0.9114285714285715,0.3191208791208791
3.2794440090074204,2.830989010989011,0.9114285714285715,0.3191208791208791
3.2855903379968368,2.830989010989011,0.9114285714285715,0.3191208791208791
3.2911721209966345,2.830989010989011,0.9114285714285715,0.3191208791208791
3.302609147009207,0.6454945054945055,0.3158974358974359,2.262857142857143
3.3101877239969326,0.8203663003663003,0.3763369963369963,0.14424908424908423
3.31869262100372,0.2377289377289377,0.17003663003663003,0.3457142857142857
3.3256205250072526,0.2377289377289377,0.17003663003663003,0.3457142857142857
3.3305256650055526,0.2377289377289377,0.17003663003663003,0.3457142857142857
3.33593143800681,0.2377289377289377,0.17003663003663003,0.3457142857142857
3.336143256005016,3.3,0.9863736263736262,0.73010989010989
3.34119742900657,3.3,0.9863736263736262,0.73010989010989
3.345125713996822,3.3,0.9863736263736262,0.73010989010989
3.3523133209964726,3.3,0.9863736263736262,0.73010989010989
3.3562173660029657,3.3,0.9863736263736262,0.73010989010989
3.360914414006402,3.3,0.9863736263736262,0.73010989010989
3.36108329599665,0.7131868131868132,0.12168498168498168,1.9405128205128204
3.36699696200958,0.7131868131868132,0.12168498168498168,1.9405128205128204
3.3753828589979094,0.7131868131868132,0.12168498168498168,1.9405128205128204
3.3828423140075756,1.2015384615384614,0.3843956043956044,3.133992673992674
3.388772083009826,0.726080586080586,0.31750915750915754,1.8953846153846152
3.3924533480021637,0.726080586080586,0.31750915750915754,1.8953846153846152
3.399912039996707,0.726080586080586,0.31750915750915754,1.8953846153846152
3.4059352530020988,0.726080586080586,0.31750915750915754,1.8953846153846152
3.4093624200031627,0.3706959706959707,0.18615384615384614,0.29010989010989013
3.4096386690071085,0.3706959706959707,0.18615384615384614,0.29010989010989013
3.4170660600066185,0.3706959706959707,0.18615384615384614,0.29010989010989013
3.4204987679986516,1.548058608058608,0.49076923076923074,2.8019780219780217
3.421360709005967,1.548058608058608,0.49076923076923074,2.8019780219780217
3.4230740890052402,1.548058608058608,0.49076923076923074,2.8019780219780217
3.4264927769982023,0.9122344322344322,0.3473260073260073,0.02095238095238095
3.42685513899778,0.04271062271062271,0.10315018315018315,0.4794871794871795
3.437690606006072,0.04271062271062271,0.10315018315018315,0.4794871794871795
3.4457015430089086,0.04271062271062271,0.10315018315018315,0.4794871794871795
3.451728476007702,0.04271062271062271,0.10315018315018315,0.4794871794871795
3.458285763001186,3.3,1.025054945054945,0.8969230769230768
3.46422436600551,1.5536996336996336,0.3658608058608058,2.2717216117216115
3.469478484010324,1.5536996336996336,0.3658608058608058,2.2717216117216115
3.4703862099995604,1.5536996336996336,0.3658608058608058,2.2717216117216115
3.472000189998653,1.5536996336996336,0.3658608058608058,2.2717216117216115
3.47606683599588,1.5536996336996336,0.3658608058608058,2.2717216117216115
3.4817842269985704,1.5536996336996336,0.3658608058608058,2.2717216117216115
3.489989310008241,2.0646153846153843,0.6116483516483516,0.26593406593406593
3.495450210000854,0.2482051282051282,0.19985347985347984,0.2917216117216117
3.4998336380085675,2.0396336996336997,0.6293772893772893,0.7051282051282051
3.499997760009137,2.0396336996336997,0.6293772893772893,0.7051282051282051
3.5047511410084553,2.0396336996336997,0.6293772893772893,0.7051282051282051
3.5049067470099544,0.697069597069597,0.4158241758241758,0.04593406593406593
3.510382677995949,0.07172161172161172,0.14989010989010987,0.36666666666666664
3.511981731004198,0.07172161172161172,0.14989010989010987,0.36666666666666664
3.5168931590014836,0.07172161172161172,0.14989010989010987,0.36666666666666664
3.521868292009458,0.07172161172161172,0.14989010989010987,0.36666666666666664
3.5265432900050655,1.9928937728937726,0.7091575091575092,0.27076923076923076
3.526691216000472,0.12571428571428572,0.16358974358974357,0.3852014652014652
3.53447103399958,0.12571428571428572,0.16358974358974357,0.3852014652014652
3.5385372470045695,0.12571428571428572,0.16358974358974357,0.3852014652014652
3.5410260720091173,1.4529670329670328,0.5004395604395604,1.80029304029304
3.5411538100015605,1.4529670329670328,0.5004395604395604,1.80029304029304
3.546982799001853,1.4529670329670328,0.5004395604395604,1.80029304029304
3.547132646999671,1.4529670329670328,0.5004395604395604,1.80029304029304
3.5538699669996276,1.4529670329670328,0.5004395604395604,1.80029304029304
3.5581343899975764,1.4529670329670328,0.5004395604395604,1.80029304029304
3.559742522003944,1.4529670329670328,0.5004395604395604,1.80029304029304
3.5657540340034757,1.4529670329670328,0.5004395604395604,1.80029304029304
3.5693361459998414,1.4529670329670328,0.5004395604395604,1.80029304029304
3.575689561999752,1.4529670329670328,0.5004395604395604,1.80029304029304
3.5820946190069662,3.258095238095238,1.1934798534798534,0.4005128205128205
3.58681766600057,3.258095238095238,1.1934798534798534,0.4005128205128205
3.5937630609987536,2.1186080586080585,0.6551648351648351,1.7326007326007327
3.6010139440040803,0.801025641025641,0.3698901098901099,1.9211721611721613
3.6062334460002603,1.4868131868131869,0.5439560439560439,1.6028571428571428
3.6090336769993883,1.4868131868131869,0.5439560439560439,1.6028571428571428
3.6146097120072227,1.4868131868131869,0.5439560439560439,1.6028571428571428
3.6220934379962273,3.3,1.0903296703296703,0.6156776556776556
3.6269509850098984,3.3,1.0903296703296703,0.6156776556776556
3.6360531789978268,3.3,1.0903296703296703,0.6156776556776556
3.6437927380029578,3.3,1.0903296703296703,0.6156776556776556
3.6500392640009522,0.6422710622710622,0.43677655677655675,0.7389743589743589
3.6533135270001367,2.036410256410256,0.5874725274725274,1.6697435897435895
3.6550868100021034,3.3,1.2345787545787545,0.630989010989011
3.657590318005532,3.3,1.2345787545787545,0.630989010989011
3.657747894001659,1.0532600732600732,0.502051282051282,1.423956043956044
3.6623662159981905,1.0532600732600732,0.502051282051282,1.423956043956044
3.6625454090099083,1.0532600732600732,0.502051282051282,1.423956043956044
3.66856017500686,1.0532600732600732,0.502051282051282,1.423956043956044
3.6731814770027995,1.0532600732600732,0.502051282051282,1.423956043956044
3.673381443004473,1.0532600732600732,0.502051282051282,1.423956043956044
3.6783397260005586,1.0532600732600732,0.502051282051282,1.423956043956044
3.685923023003852,1.0532600732600732,0.502051282051282,1.423956043956044
3.6928912910079816,0.5028571428571429,0.2957509157509157,0.1676190476190476
3.700547597996774,0.5028571428571429,0.2957509157509157,0.1676190476190476
3.7066972800093936,0.5028571428571429,0.2957509157509157,0.1676190476190476
3.713283588003833,1.3659340659340657,0.5133333333333333,1.2837362637362637
3.718663777006441,1.3659340659340657,0.5133333333333333,1.2837362637362637
3.7188548630074365,1.3659340659340657,0.5133333333333333,1.2837362637362637
3.72314374501002,1.3659340659340657,0.5133333333333333,1.2837362637362637
3.7247702879976714,0.83003663003663,0.332014652014652,0.08945054945054945
3.729360851997626,0.83003663003663,0.332014652014652,0.08945054945054945
3.729701471005683,0.83003663003663,0.332014652014652,0.08945054945054945
3.736750648007728,0.83003663003663,0.332014652014652,0.08945054945054945
3.742328644002555,0.83003663003663,0.332014652014652,0.08945054945054945
3.7425454430049285,0.83003663003663,0.332014652014652,0.08945054945054945
3.750967132000369,0.83003663003663,0.332014652014652,0.08945054945054945
3.7593086620036047,0.83003663003663,0.332014652014652,0.08945054945054945
3.7671084750036243,0.83003663003663,0.332014652014652,0.08945054945054945
3.7728944350092206,0.7091575091575092,0.3892307692307692,0.11846153846153845
3.7840876929985825,1.926007326007326,0.70996336996337,0.39890109890109887
3.7916253760049585,0.8985347985347985,0.3545787545787546,1.593992673992674
3.798643724003341,0.8985347985347985,0.3545787545787546,1.593992673992674
3.8027608940028585,0.8985347985347985,0.3545787545787546,1.593992673992674
3.8052078839973547,0.8985347985347985,0.3545787545787546,1.593992673992674
3.8107424350018846,0.8985347985347985,0.3545787545787546,1.593992673992674
3.8133220210002037,0.8985347985347985,0.3545787545787546,1.593992673992674
3.820475587999681,0.8985347985347985,0.3545787545787546,1.593992673992674
3.8252132420020644,0.8985347985347985,0.3545787545787546,1.593992673992674
3.825369348996901,0.8985347985347985,0.3545787545787546,1.593992673992674
3.833600607002154,0.8985347985347985,0.3545787545787546,1.593992673992674
3.840376426000148,0.8985347985347985,0.3545787545787546,1.593992673992674
3.8469173070043325,0.8985347985347985,0.3545787545787546,1.593992673992674
3.8528787179966457,0.8985347985347985,0.3545787545787546,1.593992673992674
3.856482240007608,2.0863736263736263,0.7236630036630036,2.1790476190476187
3.856621774000814,2.0863736263736263,0.7236630036630036,2.1790476190476187
3.861633451000671,0.9186813186813186,0.37150183150183147,1.4416849816849817
3.86929933000647,0.5004395604395604,0.2602930402930403,1.1580219780219778
3.8738549740082817,0.5004395604395604,0.2602930402930403,1.1580219780219778
3.874044142998173,0.5004395604395604,0.2602930402930403,1.1580219780219778
3.88025597500382,0.5004395604395604,0.2602930402930403,1.1580219780219778
3.8858789630030515,0.5004395604395604,0.2602930402930403,1.1580219780219778
3.8912977099971613,2.083956043956044,0.8582417582417583,0.5616849816849817
3.8937503000051947,0.3304029304029304,0.24336996336996336,1.5464468864468863
3.903867460001493,0.3304029304029304,0.24336996336996336,1.5464468864468863
3.9106593940086896,0.3304029304029304,0.24336996336996336,1.5464468864468863
3.916962319999584,1.9364835164835164,0.6148717948717949,2.5642490842490844
3.920490193006117,1.9364835164835164,0.6148717948717949,2.5642490842490844
3.9206962900061626,1.9364835164835164,0.6148717948717949,2.5642490842490844
3.9255358060036087,1.9364835164835164,0.6148717948717949,2.5642490842490844
3.9256788740021875,1.9364835164835164,0.6148717948717949,2.5642490842490844
3.9321109270094894,1.9364835164835164,0.6148717948717949,2.5642490842490844
3.936443409009371,1.9364835164835164,0.6148717948717949,2.5642490842490844
3.9381303530099103,1.9364835164835164,0.6148717948717949,2.5642490842490844
3.9413466969999718,1.9364835164835164,0.6148717948717949,2.5642490842490844
3.9422660790005466,3.274212454212454,1.1354578754578755,0.40776556776556777
3.9439555639983155,3.274212454212454,1.1354578754578755,0.40776556776556777
3.949763590004295,0.4827106227106227,0.28446886446886444,0.18373626373626373
3.9545135270018363,0.4827106227106227,0.28446886446886444,0.18373626373626373
3.9602031050017104,0.4827106227106227,0.28446886446886444,0.18373626373626373
3.960464336007135,0.4827106227106227,0.28446886446886444,0.18373626373626373
3.9683532760100206,0.4827106227106227,0.28446886446886444,0.18373626373626373
3.972651111005689,1.6447619047619046,0.527032967032967,2.331355311355311
3.9742785490088863,1.6447619047619046,0.527032967032967,2.331355311355311
3.9783188730070833,1.6447619047619046,0.527032967032967,2.331355311355311
3.9809831379971,1.4295970695970697,0.473040293040293,1.5117948717948717
3.9881261959963012,1.4295970695970697,0.473040293040293,1.5117948717948717
3.99285163100285,1.4295970695970697,0.473040293040293,1.5117948717948717
3.9932647829991765,1.4295970695970697,0.473040293040293,1.5117948717948717
3.9993650910037104,1.4295970695970697,0.473040293040293,1.5117948717948717
4.003409070006455,1.4295970695970697,0.473040293040293,1.5117948717948717
4.006497442998807,1.4295970695970697,0.473040293040293,1.5117948717948717
4.008854500003508,1.4295970695970697,0.473040293040293,1.5117948717948717
4.009031836001668,1.4295970695970697,0.473040293040293,1.5117948717948717
4.0175518699979875,1.4295970695970697,0.473040293040293,1.5117948717948717
4.0243205330043565,1.4295970695970697,0.473040293040293,1.5117948717948717
4.0315410290058935,1.4295970695970697,0.473040293040293,1.5117948717948717
4.037594342007651,1.4295970695970697,0.473040293040293,1.5117948717948717
4.041061431998969,1.664102564102564,0.4254945054945055,1.684249084249084
4.0413908240007,1.664102564102564,0.4254945054945055,1.684249084249084
4.0494989169965265,1.664102564102564,0.4254945054945055,1.684249084249084
4.055292871009442,1.664102564102564,0.4254945054945055,1.684249084249084
4.059940065009869,1.801098901098901,0.5342857142857143,0.5826373626373627
4.060208390001208,0.5987545787545787,0.253040293040293,1.4191208791208791
4.067857454007026,0.5987545787545787,0.253040293040293,1.4191208791208791
4.074506910998025,2.013846153846154,0.6301831501831501,2.1927472527472527
4.077974764004466,2.013846153846154,0.6301831501831501,2.1927472527472527
4.078136577008991,2.013846153846154,0.6301831501831501,2.1927472527472527
4.085446825003601,2.013846153846154,0.6301831501831501,2.1927472527472527
4.091188960010186,0.6124542124542125,0.2989743589743589,1.4408791208791207
4.098997324006632,0.6124542124542125,0.2989743589743589,1.4408791208791207
4.104509311000584,0.6124542124542125,0.2989743589743589,1.4408791208791207
4.104895587995998,0.6124542124542125,0.2989743589743589,1.4408791208791207
4.109351834005793,0.6124542124542125,0.2989743589743589,1.4408791208791207
4.10963111500314,0.6124542124542125,0.2989743589743589,1.4408791208791207
4.116846937002265,0.6124542124542125,0.2989743589743589,1.4408791208791207
4.121758346998831,0.6124542124542125,0.2989743589743589,1.4408791208791207
4.126025792007567,3.235531135531135,1.1749450549450549,0.4166300366300366
4.127819322005962,3.235531135531135,1.1749450549450549,0.4166300366300366
4.131125101004727,3.235531135531135,1.1749450549450549,0.4166300366300366
4.131426348001696,3.235531135531135,1.1749450549450549,0.4166300366300366
4.136601931008045,3.235531135531135,1.1749450549450549,0.4166300366300366
4.139834082001471,3.235531135531135,1.1749450549450549,0.4166300366300366
4.140131446009036,0.3223443223443223,0.2216117216117216,1.3788278388278388
4.145706477007479,0.3223443223443223,0.2216117216117216,1.3788278388278388
4.146007073009969,0.3223443223443223,0.2216117216117216,1.3788278388278388
4.15196644399839,0.3223443223443223,0.2216117216117216,1.3788278388278388
4.1568280270003015,0.3223443223443223,0.2216117216117216,1.3788278388278388
4.161927210006979,0.3223443223443223,0.2216117216117216,1.3788278388278388
4.166563947001123,0.3223443223443223,0.2216117216117216,1.3788278388278388
4.1720609400072135,0.3223443223443223,0.2216117216117216,1.3788278388278388
4.172945921003702,1.975164835164835,0.5149450549450549,2.7383150183150184
4.173876155007747,1.975164835164835,0.5149450549450549,2.7383150183150184
4.175575045999722,1.975164835164835,0.5149450549450549,2.7383150183150184
4.179418751999037,1.975164835164835,0.5149450549450549,2.7383150183150184
4.185990894999122,1.975164835164835,0.5149450549450549,2.7383150183150184
4.189929964006296,1.975164835164835,0.5149450549450549,2.7383150183150184
4.194569086001138,0.12249084249084248,0.15069597069597068,0.7228571428571429
4.194778674005647,2.797142857142857,0.9613919413919414,1.0548717948717947
4.20135670399759,2.797142857142857,0.9613919413919414,1.0548717948717947
4.2058650410035625,0.805054945054945,0.448058608058608,2.0895970695970694
4.206076913003926,0.805054945054945,0.448058608058608,2.0895970695970694
4.211431549003464,0.805054945054945,0.448058608058608,2.0895970695970694
4.218784352997318,1.5222710622710622,0.5367032967032966,2.606153846153846
4.222268356999848,1.5222710622710622,0.5367032967032966,2.606153846153846
4.222512695996556,3.3,1.1443223443223443,0.27399267399267396
4.229522599009215,3.3,1.1443223443223443,0.27399267399267396
4.235008761010249,3.3,1.1443223443223443,0.27399267399267396
4.235372705996269,3.3,1.1443223443223443,0.27399267399267396
4.240978454996366,3.3,1.1443223443223443,0.27399267399267396
4.241201597003965,0.18695970695970696,0.1378021978021978,1.3103296703296703
4.247619800007669,0.18695970695970696,0.1378021978021978,1.3103296703296703
4.252281234003021,1.5134065934065932,0.4254945054945055,1.4843956043956044
4.257875943003455,1.5134065934065932,0.4254945054945055,1.4843956043956044
4.258752825000556,1.5134065934065932,0.4254945054945055,1.4843956043956044
4.261279896003543,1.5134065934065932,0.4254945054945055,1.4843956043956044
4.268435025005601,1.5134065934065932,0.4254945054945055,1.4843956043956044
4.272426764000556,1.5134065934065932,0.4254945054945055,1.4843956043956044
4.276691938997828,1.5134065934065932,0.4254945054945055,1.4843956043956044
4.277927860995987,1.1378754578754577,0.5238095238095237,2.157289377289377
4.278167798009235,1.1378754578754577,0.5238095238095237,2.157289377289377
4.285392881996813,1.1378754578754577,0.5238095238095237,2.157289377289377
4.289346649005893,0.5439560439560439,0.3424908424908425,0.1805128205128205
4.2940328840049915,2.1089377289377285,0.6156776556776556,2.565860805860806
4.304649105004501,2.1089377289377285,0.6156776556776556,2.565860805860806
4.311371618998237,0.6035897435897435,0.2909157509157509,1.4287912087912087
4.319654475999414,0.6035897435897435,0.2909157509157509,1.4287912087912087
4.325025016005384,0.6035897435897435,0.2909157509157509,1.4287912087912087
4.325354201006121,0.6035897435897435,0.2909157509157509,1.4287912087912087
4.332947051007068,0.6035897435897435,0.2909157509157509,1.4287912087912087
4.337409796004067,0.6035897435897435,0.2909157509157509,1.4287912087912087
4.337744960997952,0.6035897435897435,0.2909157509157509,1.4287912087912087
4.342445775997476,0.6035897435897435,0.2909157509157509,1.4287912087912087
4.342672587008565,0.6035897435897435,0.2909157509157509,1.4287912087912087
4.351024249001057,0.6035897435897435,0.2909157509157509,1.4287912087912087
4.357383128008223,0.6035897435897435,0.2909157509157509,1.4287912087912087
4.360531466008979,0.6035897435897435,0.2909157509157509,1.4287912087912087
4.363313891997677,0.6035897435897435,0.2909157509157509,1.4287912087912087
4.371841594998841,0.6035897435897435,0.2909157509157509,1.4287912087912087
4.37643744199886,0.6035897435897435,0.2909157509157509,1.4287912087912087
4.376626338009373,0.6035897435897435,0.2909157509157509,1.4287912087912087
4.383101059007458,0.6035897435897435,0.2909157509157509,1.4287912087912087
4.387372233002679,0.3352380952380952,0.20388278388278389,1.257142857142857
4.388342937003472,0.3352380952380952,0.20388278388278389,1.257142857142857
4.389725020999322,0.3352380952380952,0.20388278388278389,1.257142857142857
4.398203873002785,0.3352380952380952,0.20388278388278389,1.257142857142857
4.4033066340052756,3.3,1.087106227106227,0.4827106227106227
4.406686212998466,0.311062271062271,0.15956043956043955,1.4763369963369963
4.406867149999016,0.43355311355311354,0.30139194139194136,0.14344322344322344
4.41409906699846,0.43355311355311354,0.30139194139194136,0.14344322344322344
4.418666605008184,0.43355311355311354,0.30139194139194136,0.14344322344322344
4.418890139000723,0.43355311355311354,0.30139194139194136,0.14344322344322344
4.424642122001387,0.43355311355311354,0.30139194139194136,0.14344322344322344
4.424740515009034,0.43355311355311354,0.30139194139194136,0.14344322344322344
4.432027204005863,0.43355311355311354,0.30139194139194136,0.14344322344322344
4.4354925750085386,0.43355311355311354,0.30139194139194136,0.14344322344322344
4.435786638001446,0.43355311355311354,0.30139194139194136,0.14344322344322344
4.441241141001228,0.43355311355311354,0.30139194139194136,0.14344322344322344
4.443755093001528,0.43355311355311354,0.30139194139194136,0.14344322344322344
4.451646633009659,0.5076923076923077,0.30058608058608055,0.10556776556776555
4.456472823003423,0.5076923076923077,0.30058608058608055,0.10556776556776555
4.4620887110068,0.5076923076923077,0.30058608058608055,0.10556776556776555
4.463087012001779,0.5076923076923077,0.30058608058608055,0.10556776556776555
4.463443194996216,0.5076923076923077,0.30058608058608055,0.10556776556776555
4.470828379999148,0.5076923076923077,0.30058608058608055,0.10556776556776555
4.4754878870007815,1.9767765567765565,0.6245421245421244,1.220879120879121
4.475779489002889,3.3,1.1467399267399265,0.6680586080586081
4.484527813008754,3.3,1.1467399267399265,0.6680586080586081
4.48850296800083,0.3167032967032967,0.1805128205128205,1.212014652014652
4.4923865029995795,0.3167032967032967,0.1805128205128205,1.212014652014652
4.497701936008525,0.3167032967032967,0.1805128205128205,1.212014652014652
4.501219338999363,0.3167032967032967,0.1805128205128205,1.212014652014652
4.501328220998403,0.3167032967032967,0.1805128205128205,1.212014652014652
4.507147960001021,0.3167032967032967,0.1805128205128205,1.212014652014652
4.513640281002154,0.3167032967032967,0.1805128205128205,1.212014652014652
4.5180953630042495,1.6915018315018313,0.5665201465201465,0.1555311355311355
4.51831255700381,1.6915018315018313,0.5665201465201465,0.1555311355311355
4.523990515008336,1.6915018315018313,0.5665201465201465,0.1555311355311355
4.524172867008019,1.6915018315018313,0.5665201465201465,0.1555311355311355
4.530977007001638,1.6915018315018313,0.5665201465201465,0.1555311355311355
4.536928650006303,1.975164835164835,0.6326007326007326,1.8752380952380951
4.543994902996928,1.975164835164835,0.6326007326007326,1.8752380952380951
4.551824465001118,1.975164835164835,0.6326007326007326,1.8752380952380951
4.555732253007591,1.813992673992674,0.5439560439560439,2.2475457875457874
4.5589418150048004,1.813992673992674,0.5439560439560439,2.2475457875457874
4.559899788000621,1.2055677655677655,0.39567765567765567,1.6737728937728935
4.561559509005747,1.2055677655677655,0.39567765567765567,1.6737728937728935
4.566821255997638,1.2055677655677655,0.39567765567765567,1.6737728937728935
4.567117468002834,0.08864468864468865,0.1523076923076923,0.34813186813186814
4.572577397004352,0.08864468864468865,0.1523076923076923,0.34813186813186814
4.573539133998565,1.0113553113553113,0.2868864468864469,2.0517216117216117
4.575047475009342,1.0113553113553113,0.2868864468864469,2.0517216117216117
4.579356497008121,1.0113553113553113,0.2868864468864469,2.0517216117216117
4.582135627002572,1.0113553113553113,0.2868864468864469,2.0517216117216117
4.587257452003541,1.0113553113553113,0.2868864468864469,2.0517216117216117
4.590618383008405,1.0113553113553113,0.2868864468864469,2.0517216117216117
4.5908674969978165,1.0113553113553113,0.2868864468864469,2.0517216117216117
4.596287790001952,1.0113553113553113,0.2868864468864469,2.0517216117216117
4.598991038001259,3.3,1.2079853479853477,0.5834432234432234
4.60321443900466,3.3,1.2079853479853477,0.5834432234432234
4.604226228009793,3.3,1.2079853479853477,0.5834432234432234
4.605210141002317,3.3,1.2079853479853477,0.5834432234432234
4.606260369007941,3.3,1.2079853479853477,0.5834432234432234
4.607290284999181,0.0975091575091575,0.14908424908424908,0.27238095238095233
4.608217146000243,0.0975091575091575,0.14908424908424908,0.27238095238095233
4.6101881740032695,0.0975091575091575,0.14908424908424908,0.27238095238095233
4.61215523800638,1.2434432234432233,0.4504761904761904,2.3926007326007324
4.614294047001749,3.3,1.1878388278388277,0.4013186813186813
4.616011374004302,3.3,1.1878388278388277,0.4013186813186813
4.619303530009347,1.4852014652014651,0.473040293040293,1.4827838827838828
4.6201740380056435,1.4852014652014651,0.473040293040293,1.4827838827838828
4.621769596997183,1.4852014652014651,0.473040293040293,1.4827838827838828
4.625583173008636,3.3,1.278901098901099,0.386007326007326
4.633126082000672,3.3,1.278901098901099,0.386007326007326
4.640141565003432,3.3,1.278901098901099,0.386007326007326
4.646208735997789,1.4529670329670328,0.49802197802197795,1.6552380952380952
4.651536892997683,1.4529670329670328,0.49802197802197795,1.6552380952380952
4.651775803009514,1.4529670329670328,0.49802197802197795,1.6552380952380952
4.656381402004627,3.20007326007326,1.1273992673992674,0.42952380952380953
4.6580143610044615,3.20007326007326,1.1273992673992674,0.42952380952380953
4.661245385999791,3.20007326007326,1.1273992673992674,0.42952380952380953
4.6630026460043155,3.20007326007326,1.1273992673992674,0.42952380952380953
4.669187919003889,3.20007326007326,1.1273992673992674,0.42952380952380953
4.6748507150041405,0.7953846153846154,0.30622710622710625,2.1871062271062267
4.684816784996656,0.9073992673992675,0.3747252747252747,2.017875457875458
4.693253998004366,0.9073992673992675,0.3747252747252747,2.017875457875458
4.702341679003439,0.9073992673992675,0.3747252747252747,2.017875457875458
4.709401824002271,0.9073992673992675,0.3747252747252747,2.017875457875458
4.717275666000205,0.9073992673992675,0.3747252747252747,2.017875457875458
4.7215132450073725,0.8082783882783882,0.2909157509157509,1.4803663003663003
4.724885953008197,0.3618315018315018,0.2482051282051282,0.9613919413919414
4.725158483997802,0.3618315018315018,0.2482051282051282,0.9613919413919414
4.731199226996978,0.3618315018315018,0.2482051282051282,0.9613919413919414
4.737060476996703,0.3618315018315018,0.2482051282051282,0.9613919413919414
4.740957974005141,1.7817582417582416,0.518974358974359,1.5117948717948717
4.746541182001238,1.7817582417582416,0.518974358974359,1.5117948717948717
4.7476583490060875,0.29333333333333333,0.19663003663003664,0.30542124542124544
4.747892198996851,0.29333333333333333,0.19663003663003664,0.30542124542124544
4.752692652007681,0.29333333333333333,0.19663003663003664,0.30542124542124544
4.758196854003472,1.9461538461538461,0.6575824175824176,0.6382417582417582
4.75904527399689,1.569010989010989,0.5769963369963369,1.4674725274725273
4.760715705997427,1.569010989010989,0.5769963369963369,1.4674725274725273
4.7643261150078615,1.569010989010989,0.5769963369963369,1.4674725274725273
4.764513034999254,1.569010989010989,0.5769963369963369,1.4674725274725273
4.773828414006857,1.569010989010989,0.5769963369963369,1.4674725274725273
4.783607974008191,1.569010989010989,0.5769963369963369,1.4674725274725273
4.791897204006091,0.5600732600732601,0.2063003663003663,1.523076923076923
4.799859083999763,0.5600732600732601,0.2063003663003663,1.523076923076923
4.807851445002598,1.656043956043956,0.5036630036630036,1.5416117216117216
4.813205500002368,0.2216117216117216,0.25868131868131866,0.3811721611721612
4.815469139997731,2.7278388278388275,0.9138461538461539,0.2868864468864469
4.815863854004419,2.7278388278388275,0.9138461538461539,0.2868864468864469
4.820192245999351,2.7278388278388275,0.9138461538461539,0.2868864468864469
4.821167643007357,2.7278388278388275,0.9138461538461539,0.2868864468864469
4.822272602003068,2.7278388278388275,0.9138461538461539,0.2868864468864469
4.822535906001576,2.7278388278388275,0.9138461538461539,0.2868864468864469
4.827167687006295,2.7278388278388275,0.9138461538461539,0.2868864468864469
4.827426447998732,2.7278388278388275,0.9138461538461539,0.2868864468864469
4.83554082000046,2.7278388278388275,0.9138461538461539,0.2868864468864469
4.839676342002349,2.7278388278388275,0.9138461538461539,0.2868864468864469
4.84280634400784,2.7278388278388275,0.9138461538461539,0.2868864468864469
4.844473000004655,2.7278388278388275,0.9138461538461539,0.2868864468864469
4.849957843005541,2.7278388278388275,0.9138461538461539,0.2868864468864469
4.850825065004756,2.7278388278388275,0.9138461538461539,0.2868864468864469
4.852771275996929,0.5689377289377289,0.3384615384615384,1.444102564102564
4.854369166001561,0.5689377289377289,0.3384615384615384,1.444102564102564
4.858131747998414,2.02996336996337,0.7002930402930403,0.5657142857142857
4.864984006009763,2.02996336996337,0.7002930402930403,0.5657142857142857
4.868347581010312,0.19985347985347984,0.2175824175824176,0.31509157509157504
4.869207648007432,1.5545054945054944,0.5246153846153846,1.4376556776556777
4.870882176008308,1.5545054945054944,0.5246153846153846,1.4376556776556777
4.874929730009171,1.5545054945054944,0.5246153846153846,1.4376556776556777
4.880044094010373,1.5545054945054944,0.5246153846153846,1.4376556776556777
4.881411490001483,1.5545054945054944,0.5246153846153846,1.4376556776556777
4.886976016001427,1.5545054945054944,0.5246153846153846,1.4376556776556777
4.887815705005778,1.5545054945054944,0.5246153846153846,1.4376556776556777
4.889464591004071,1.5545054945054944,0.5246153846153846,1.4376556776556777
4.893453538999893,1.5545054945054944,0.5246153846153846,1.4376556776556777
4.899103194999043,1.5545054945054944,0.5246153846153846,1.4376556776556777
4.899216293008067,1.5545054945054944,0.5246153846153846,1.4376556776556777
4.903890575005789,1.5545054945054944,0.5246153846153846,1.4376556776556777
4.904033070997684,1.5545054945054944,0.5246153846153846,1.4376556776556777
4.910938298009569,1.5545054945054944,0.5246153846153846,1.4376556776556777
4.9225567749963375,2.17018315018315,0.6503296703296703,1.8655677655677654
4.936260952003067,2.17018315018315,0.6503296703296703,1.8655677655677654
4.95148534400505,2.17018315018315,0.6503296703296703,1.8655677655677654
4.965354240004672,3.2468131868131866,1.0887179487179486,0.6535531135531135
4.980201662008767,3.2468131868131866,1.0887179487179486,0.6535531135531135
4.980565493009635,3.2468131868131866,1.0887179487179486,0.6535531135531135
4.987673594005173,3.2468131868131866,1.0887179487179486,0.6535531135531135
4.99265650101006,3.2468131868131866,1.0887179487179486,0.6535531135531135
4.996643361999304,3.2468131868131866,1.0887179487179486,0.6535531135531135
5.0043770680058515,3.2468131868131866,1.0887179487179486,0.6535531135531135
5.012124394008424,3.2468131868131866,1.0887179487179486,0.6535531135531135
5.01749428200128,0.95010989010989,0.3199267399267399,2.141172161172161
5.018452831005561,1.3103296703296703,0.1926007326007326,1.423956043956044
5.019480037008179,1.3103296703296703,0.1926007326007326,1.423956043956044
5.019790218007984,1.3103296703296703,0.1926007326007326,1.423956043956044
5.02501235800446,1.3103296703296703,0.1926007326007326,1.423956043956044
5.028326407002169,1.3103296703296703,0.1926007326007326,1.423956043956044
5.028668013008428,1.3103296703296703,0.1926007326007326,1.423956043956044
5.033420717998524,1.3103296703296703,0.1926007326007326,1.423956043956044
5.03362584100978,1.3103296703296703,0.1926007326007326,1.423956043956044
5.038212418003241,1.3103296703296703,0.1926007326007326,1.423956043956044
5.038424993006629,1.3103296703296703,0.1926007326007326,1.423956043956044
5.043419182009529,1.3103296703296703,0.1926007326007326,1.423956043956044
5.0488072099979036,1.3103296703296703,0.1926007326007326,1.423956043956044
5.051519091008231,1.3103296703296703,0.1926007326007326,1.423956043956044
5.056036898997263,1.3103296703296703,0.1926007326007326,1.423956043956044
5.056202414009022,1.3103296703296703,0.1926007326007326,1.423956043956044
5.061551860999316,1.3103296703296703,0.1926007326007326,1.423956043956044
5.065393600001698,2.1548717948717946,0.6825641025641025,0.5697435897435897
5.069621204005671,2.1548717948717946,0.6825641025641025,0.5697435897435897
5.071382071997505,2.1548717948717946,0.6825641025641025,0.5697435897435897
5.075400529007311,2.1548717948717946,0.6825641025641025,0.5697435897435897
5.078217276997748,2.1548717948717946,0.6825641025641025,0.5697435897435897
5.083877216005931,0.5544322344322344,0.2071062271062271,1.257142857142857
5.0896330710093025,0.5713553113553113,0.28285714285714286,0.05721611721611722
5.089870253999834,0.5713553113553113,0.28285714285714286,0.05721611721611722
5.0994159240071895,0.5713553113553113,0.28285714285714286,0.05721611721611722
5.106586724010413,1.6955311355311353,0.5560439560439561,0.14827838827838827
5.112005572998896,1.6955311355311353,0.5560439560439561,0.14827838827838827
5.112328144998173,1.6955311355311353,0.5560439560439561,0.14827838827838827
5.120480729005067,1.6955311355311353,0.5560439560439561,0.14827838827838827
5.126875625006505,0.3771428571428571,0.2175824175824176,0.9928205128205128
5.131046950002201,3.3,1.1459340659340658,0.19743589743589743
5.132526968009188,3.3,1.1459340659340658,0.19743589743589743
5.136755615007132,3.3,1.1459340659340658,0.19743589743589743
5.139001062998432,3.3,1.1459340659340658,0.19743589743589743
5.139809075000812,3.3,1.1459340659340658,0.19743589743589743
5.141953765996732,3.3,1.1459340659340658,0.19743589743589743
5.142771432001609,3.3,1.1459340659340658,0.19743589743589743
5.144332677999046,3.3,1.1459340659340658,0.19743589743589743
5.148719436998363,3.3,1.1459340659340658,0.19743589743589743
5.150311863006209,3.3,1.1459340659340658,0.19743589743589743
5.15452774699952,3.3,1.1459340659340658,0.19743589743589743
5.156704199005617,3.3,1.1459340659340658,0.19743589743589743
5.157510635006474,3.3,1.1459340659340658,0.19743589743589743
5.159674092006753,3.3,1.1459340659340658,0.19743589743589743
5.160456190002151,3.3,1.1459340659340658,0.19743589743589743
5.162634834996425,3.3,1.1459340659340658,0.19743589743589743
5.162890489009442,3.3,1.1459340659340658,0.19743589743589743
5.169327441006317,3.3,1.1459340659340658,0.19743589743589743
5.173348167998483,3.3,1.1459340659340658,0.19743589743589743
5.177483179009869,3.3,1.1459340659340658,0.19743589743589743
5.179859030002262,3.3,1.1459340659340658,0.19743589743589743
5.180082995997509,3.3,1.1459340659340658,0.19743589743589743
5.184743268007878,3.3,1.1459340659340658,0.19743589743589743
5.185012267000275,3.3,1.1459340659340658,0.19743589743589743
5.189659370997106,3.3,1.1459340659340658,0.19743589743589743
5.189911252004094,1.6673260073260072,0.5963369963369963,2.6069597069597066
5.194593328007613,1.6673260073260072,0.5963369963369963,2.6069597069597066
5.19482486700872,1.6673260073260072,0.5963369963369963,2.6069597069597066
5.199490503000561,1.6673260073260072,0.5963369963369963,2.6069597069597066
5.199691027999506,0.5721611721611721,0.25465201465201465,1.3538461538461537
5.205103619999136,0.5721611721611721,0.25465201465201465,1.3538461538461537
5.206751899007941,0.5721611721611721,0.25465201465201465,1.3538461538461537
5.210612962997402,0.5721611721611721,0.25465201465201465,1.3538461538461537
5.21486494000419,0.5721611721611721,0.25465201465201465,1.3538461538461537
5.2180960700061405,0.5721611721611721,0.25465201465201465,1.3538461538461537
5.218447681007092,0.5721611721611721,0.25465201465201465,1.3538461538461537
5.223781410008087,0.5721611721611721,0.25465201465201465,1.3538461538461537
5.225579923004261,0.5721611721611721,0.25465201465201465,1.3538461538461537
5.228767399006756,0.5721611721611721,0.25465201465201465,1.3538461538461537
5.231276799997431,0.5721611721611721,0.25465201465201465,1.3538461538461537
5.2369272020005155,0.5721611721611721,0.25465201465201465,1.3538461538461537
5.237791645005927,0.5721611721611721,0.25465201465201465,1.3538461538461537
5.239382793006371,0.5721611721611721,0.25465201465201465,1.3538461538461537
5.243581133996486,0.5721611721611721,0.25465201465201465,1.3538461538461537
5.246785028997692,0.5721611721611721,0.25465201465201465,1.3538461538461537
5.248414658010006,0.5721611721611721,0.25465201465201465,1.3538461538461537
5.252270887009217,0.5721611721611721,0.25465201465201465,1.3538461538461537
5.256287123003858,0.5721611721611721,0.25465201465201465,1.3538461538461537
5.260236136004096,1.3498168498168497,0.518974358974359,1.8518681318681318
5.263616159005323,1.3498168498168497,0.518974358974359,1.8518681318681318
5.264473778006504,1.3498168498168497,0.518974358974359,1.8518681318681318
5.266164419997949,1.3498168498168497,0.518974358974359,1.8518681318681318
5.270730520001962,1.3498168498168497,0.518974358974359,1.8518681318681318
5.271038617996965,2.0476923076923077,0.5737728937728938,2.6802930402930403
5.280019294004887,2.0476923076923077,0.5737728937728938,2.6802930402930403
5.284608811009093,0.3529670329670329,0.15311355311355312,1.5536996336996336
5.284916197997518,0.5584615384615385,0.2594871794871795,0.13457875457875457
5.291733744001249,0.5584615384615385,0.2594871794871795,0.13457875457875457
5.297294189003878,0.5584615384615385,0.2594871794871795,0.13457875457875457
5.297489926000708,0.5584615384615385,0.2594871794871795,0.13457875457875457
5.3067517199961,0.5584615384615385,0.2594871794871795,0.13457875457875457
5.313680254010251,0.5584615384615385,0.2594871794871795,0.13457875457875457
5.319871817002422,0.5584615384615385,0.2594871794871795,0.13457875457875457
5.325730671000201,0.5995604395604395,0.16197802197802197,1.6173626373626373
5.333916083007352,0.5995604395604395,0.16197802197802197,1.6173626373626373
5.341739094001241,0.5995604395604395,0.16197802197802197,1.6173626373626373
5.34881095700257,0.5995604395604395,0.16197802197802197,1.6173626373626373
5.3546851400024025,0.6551648351648351,0.2683516483516483,0.03626373626373627
5.358502185001271,3.3,1.1346520146520145,0.6374358974358975
5.364457225005026,3.3,1.1346520146520145,0.6374358974358975
5.368351344004623,0.4383882783882784,0.25868131868131866,1.0621245421245422
5.37241445100517,0.4383882783882784,0.25868131868131866,1.0621245421245422
5.375909844005946,0.4383882783882784,0.25868131868131866,1.0621245421245422
5.376144659996498,0.4383882783882784,0.25868131868131866,1.0621245421245422
5.381097078003222,0.4383882783882784,0.25868131868131866,1.0621245421245422
5.3861893660068745,0.4174358974358974,0.1789010989010989,1.531135531135531
5.389575068009435,0.4174358974358974,0.1789010989010989,1.531135531135531
5.390455173997907,0.4174358974358974,0.1789010989010989,1.531135531135531
5.392155164008727,0.4174358974358974,0.1789010989010989,1.531135531135531
5.3964853520010365,0.4174358974358974,0.1789010989010989,1.531135531135531
5.396754642002634,0.4174358974358974,0.1789010989010989,1.531135531135531
5.403502383007435,0.4174358974358974,0.1789010989010989,1.531135531135531
5.407883752006455,0.4174358974358974,0.1789010989010989,1.531135531135531
5.408789736000472,0.4174358974358974,0.1789010989010989,1.531135531135531
5.410434441000689,0.4174358974358974,0.1789010989010989,1.531135531135531
5.417545069009066,0.4174358974358974,0.1789010989010989,1.531135531135531
5.421950456002378,0.938021978021978,0.5157509157509157,1.4569963369963368
5.422840786006418,0.938021978021978,0.5157509157509157,1.4569963369963368
5.424505349001265,0.938021978021978,0.5157509157509157,1.4569963369963368
5.4300500429962995,0.938021978021978,0.5157509157509157,1.4569963369963368
5.430366405998939,0.938021978021978,0.5157509157509157,1.4569963369963368
5.435654713000986,0.3594139194139194,0.2328937728937729,1.6512087912087912
5.438030892008101,0.3594139194139194,0.2328937728937729,1.6512087912087912
5.438197641007719,0.3594139194139194,0.2328937728937729,1.6512087912087912
5.443636718002381,0.3594139194139194,0.2328937728937729,1.6512087912087912
5.4454837500088615,2.5005860805860802,0.8179487179487179,0.28124542124542123
5.448556867006118,2.5005860805860802,0.8179487179487179,0.28124542124542123
5.450322653006879,2.5005860805860802,0.8179487179487179,0.28124542124542123
5.453490922998753,2.5005860805860802,0.8179487179487179,0.28124542124542123
5.4544423400075175,2.5005860805860802,0.8179487179487179,0.28124542124542123
5.456048224004917,2.5005860805860802,0.8179487179487179,0.28124542124542123
5.4606653100054245,2.5005860805860802,0.8179487179487179,0.28124542124542123
5.460948613006622,2.5005860805860802,0.8179487179487179,0.28124542124542123
5.465916624001693,2.5005860805860802,0.8179487179487179,0.28124542124542123
5.469812830007868,2.5005860805860802,0.8179487179487179,0.28124542124542123
5.473733170001651,2.5005860805860802,0.8179487179487179,0.28124542124542123
5.477900990008493,2.5005860805860802,0.8179487179487179,0.28124542124542123
5.479992642998695,2.5005860805860802,0.8179487179487179,0.28124542124542123
5.4819681540102465,2.5005860805860802,0.8179487179487179,0.28124542124542123
5.483290814008797,2.5005860805860802,0.8179487179487179,0.28124542124542123
5.489221648997045,1.008937728937729,0.3545787545787546,0.007252747252747252
5.493903855007375,0.9476923076923076,0.2949450549450549,2.149230769230769
5.494152514002053,0.9476923076923076,0.2949450549450549,2.149230769230769
5.50112554700172,0.9476923076923076,0.2949450549450549,2.149230769230769
5.506511348008644,0.9476923076923076,0.2949450549450549,2.149230769230769
5.508059179002885,0.9476923076923076,0.2949450549450549,2.149230769230769
5.513153149004211,0.9476923076923076,0.2949450549450549,2.149230769230769
5.51902648700343,0.9476923076923076,0.2949450549450549,2.149230769230769
5.522431728997617,1.7374358974358974,0.606007326007326,1.3248351648351648
5.522694612009218,1.7374358974358974,0.606007326007326,1.3248351648351648
5.527589953999268,1.7374358974358974,0.606007326007326,1.3248351648351648
5.535540194003261,1.7374358974358974,0.606007326007326,1.3248351648351648
5.539429362004739,1.7374358974358974,0.606007326007326,1.3248351648351648
5.5440911120094825,1.7374358974358974,0.606007326007326,1.3248351648351648
5.552612518004025,0.3263736263736263,0.2562637362637363,1.0105494505494506
5.559137926000403,0.7075457875457875,0.361025641025641,1.9687179487179485
5.5650708570028655,0.7075457875457875,0.361025641025641,1.9687179487179485
5.570678955002222,0.15956043956043955,0.22644688644688646,0.26915750915750913
5.5783638510038145,0.15956043956043955,0.22644688644688646,0.26915750915750913
5.585696651003673,0.15956043956043955,0.22644688644688646,0.26915750915750913
5.5905728220095625,0.15956043956043955,0.22644688644688646,0.26915750915750913
5.595323645000462,0.15956043956043955,0.22644688644688646,0.26915750915750913
5.606051030001254,0.15956043956043955,0.22644688644688646,0.26915750915750913
5.6164762240077835,0.7236630036630036,0.32073260073260074,1.4054212454212454
5.621536022008513,0.7236630036630036,0.32073260073260074,1.4054212454212454
5.626605423007277,0.7236630036630036,0.32073260073260074,1.4054212454212454
5.630809820999275,0.7236630036630036,0.32073260073260074,1.4054212454212454
5.631315063001239,0.7236630036630036,0.32073260073260074,1.4054212454212454
5.6361897290044,0.7236630036630036,0.32073260073260074,1.4054212454212454
5.640869905997533,1.4175091575091574,0.4722344322344322,2.032380952380952
5.641053968996857,1.4175091575091574,0.4722344322344322,2.032380952380952
5.6470560309971916,1.4175091575091574,0.4722344322344322,2.032380952380952
5.655968949009548,1.4175091575091574,0.4722344322344322,2.032380952380952
5.666640814000857,3.3,1.0371428571428571,0.3755311355311355
5.671443899002043,3.3,1.0371428571428571,0.3755311355311355
5.677442733009229,2.0267399267399266,0.585054945054945,1.8728205128205127
5.687055499001872,2.0267399267399266,0.585054945054945,1.8728205128205127
5.69183427200187,2.0267399267399266,0.585054945054945,1.8728205128205127
5.700693727005273,2.0863736263736263,0.5383150183150183,1.9920879120879118
5.704569103996619,2.0863736263736263,0.5383150183150183,1.9920879120879118
5.709191315996577,2.0863736263736263,0.5383150183150183,1.9920879120879118
5.70942787900276,2.0863736263736263,0.5383150183150183,1.9920879120879118
5.7175199080083985,2.0863736263736263,0.5383150183150183,1.9920879120879118
5.722714634001022,1.099194139194139,0.5076923076923077,1.3288644688644689
5.725821205007378,1.099194139194139,0.5076923076923077,1.3288644688644689
5.727880222999374,1.099194139194139,0.5076923076923077,1.3288644688644689
5.729712732005282,1.099194139194139,0.5076923076923077,1.3288644688644689
5.732393534010043,1.099194139194139,0.5076923076923077,1.3288644688644689
5.735864955000579,1.099194139194139,0.5076923076923077,1.3288644688644689
5.741590924997581,1.099194139194139,0.5076923076923077,1.3288644688644689
5.741828283003997,1.099194139194139,0.5076923076923077,1.3288644688644689
5.7496847590082325,3.3,1.1273992673992674,0.32395604395604394
5.75532214800478,3.3,1.1273992673992674,0.32395604395604394
5.755568039006903,3.3,1.1273992673992674,0.32395604395604394
5.765210165001918,3.3,1.1273992673992674,0.32395604395604394
5.770645805998356,3.3,1.1273992673992674,0.32395604395604394
5.772383317002095,2.016263736263736,0.6172893772893773,2.1363369963369965
5.775857157001155,2.016263736263736,0.6172893772893773,2.1363369963369965
5.785900864997529,2.016263736263736,0.6172893772893773,2.1363369963369965
5.793176653998671,0.5358974358974359,0.195018315018315,1.4384615384615385
5.799204467999516,0.5358974358974359,0.195018315018315,1.4384615384615385
5.803627893998055,1.606080586080586,0.5632967032967032,1.46021978021978
5.803850930009503,0.8985347985347985,0.4762637362637362,0.7188278388278388
5.808700562003651,0.8985347985347985,0.4762637362637362,0.7188278388278388
5.817918134998763,1.6036630036630035,0.42710622710622714,1.4231501831501832
5.825493677009945,1.6036630036630035,0.42710622710622714,1.4231501831501832
5.831031693000114,1.6036630036630035,0.42710622710622714,1.4231501831501832
5.831226237001829,1.6036630036630035,0.42710622710622714,1.4231501831501832
5.837020068996935,1.6036630036630035,0.42710622710622714,1.4231501831501832
5.837138800998218,1.4868131868131869,0.39567765567765567,1.851062271062271
5.841931091010338,1.4868131868131869,0.39567765567765567,1.851062271062271
5.8420519920036895,1.4868131868131869,0.39567765567765567,1.851062271062271
5.851904495997587,1.4868131868131869,0.39567765567765567,1.851062271062271
5.858238497006823,1.4868131868131869,0.39567765567765567,1.851062271062271
5.862986246997025,1.0758241758241758,0.28769230769230764,1.6342857142857143
5.870515914997668,1.0758241758241758,0.28769230769230764,1.6342857142857143
5.875331579009071,1.0758241758241758,0.28769230769230764,1.6342857142857143
5.885145203996217,1.0758241758241758,0.28769230769230764,1.6342857142857143
5.890853824006626,0.5915018315018314,0.11604395604395604,1.228131868131868
5.891047791010351,0.5915018315018314,0.11604395604395604,1.228131868131868
5.898793316009687,0.5915018315018314,0.11604395604395604,1.228131868131868
5.904171312999097,3.3,1.2337728937728938,0.8977289377289376
5.904335886007175,3.3,1.647985347985348,0.6454945054945055
5.911232384998584,3.3,1.647985347985348,0.6454945054945055
5.91719402000308,3.3,1.647985347985348,0.6454945054945055
5.9205930510070175,3.3,1.647985347985348,0.6454945054945055
5.920856217999244,3.3,1.647985347985348,0.6454945054945055
5.926370166998822,0.30864468864468864,0.09509157509157509,1.079047619047619
5.928792026010342,0.3158974358974359,0.29413919413919415,0.05882783882783882
5.93711746900226,0.3158974358974359,0.29413919413919415,0.05882783882783882
5.944667212010245,1.2853479853479852,0.1789010989010989,1.5504761904761903
5.95163796300767,0.31267399267399265,0.26996336996336995,0.1652014652014652
5.9557473930035485,0.31267399267399265,0.26996336996336995,0.1652014652014652
5.958198364009149,0.31267399267399265,0.26996336996336995,0.1652014652014652
5.965817279997282,0.31267399267399265,0.26996336996336995,0.1652014652014652
5.969550855006673,0.31267399267399265,0.26996336996336995,0.1652014652014652
5.97547484000097,0.31267399267399265,0.26996336996336995,0.1652014652014652
5.985796351000317,0.31267399267399265,0.26996336996336995,0.1652014652014652
5.994604988009087,0.6543589743589743,0.06043956043956044,1.3087179487179486
6.00183372599713,0.6543589743589743,0.06043956043956044,1.3087179487179486
6.006658908008831,0.5568498168498168,0.11846153846153845,1.2257142857142858
6.013482898997609,0.5568498168498168,0.11846153846153845,1.2257142857142858
6.019442577002337,0.5568498168498168,0.11846153846153845,1.2257142857142858
6.02689246700902,0.7244688644688644,0.14505494505494507,1.212014652014652
6.036859129002551,0.5866666666666667,0.27882783882783885,0.07978021978021978
6.044172117006383,0.5866666666666667,0.27882783882783885,0.07978021978021978
6.050182181003038,3.3,0.684981684981685,0.3038095238095238
6.055957375996513,0.9098168498168498,0.12329670329670328,1.9767765567765565
6.062372492000577,0.9098168498168498,0.12329670329670328,1.9767765567765565
6.068784975010203,0.9098168498168498,0.12329670329670328,1.9767765567765565
6.0737533350038575,0.9098168498168498,0.12329670329670328,1.9767765567765565
6.077809634996811,0.8139194139194139,0.13296703296703297,1.779340659340659
6.0821934990090085,0.8139194139194139,0.13296703296703297,1.779340659340659
6.082328575997963,0.8139194139194139,0.13296703296703297,1.779340659340659
6.087900623999303,0.8139194139194139,0.13296703296703297,1.779340659340659
6.088742066000123,0.8139194139194139,0.13296703296703297,1.779340659340659
6.0898059220053256,0.8139194139194139,0.13296703296703297,1.779340659340659
6.090875538997352,0.8139194139194139,0.13296703296703297,1.779340659340659
6.091086059997906,0.8139194139194139,0.13296703296703297,1.779340659340659
6.0973255389981205,0.8139194139194139,0.13296703296703297,1.779340659340659
6.101882228002069,3.3,0.5697435897435897,0.6898168498168498
6.1020785520086065,0.49882783882783877,0.26109890109890105,1.1306227106227105
6.107560579999699,0.49882783882783877,0.26109890109890105,1.1306227106227105
6.109898234004504,0.49882783882783877,0.26109890109890105,1.1306227106227105
6.110070891998475,0.49882783882783877,0.26109890109890105,1.1306227106227105
6.116702815997996,0.49882783882783877,0.26109890109890105,1.1306227106227105
6.120564826996997,0.49882783882783877,0.26109890109890105,1.1306227106227105
6.125071952003054,0.49882783882783877,0.26109890109890105,1.1306227106227105
6.125408981999499,0.3747252747252747,0.1676190476190476,0.2079120879120879
6.131479432006017,0.3747252747252747,0.1676190476190476,0.2079120879120879
6.134663885997725,0.3747252747252747,0.1676190476190476,0.2079120879120879
6.136306084008538,0.3747252747252747,0.1676190476190476,0.2079120879120879
6.140886105000391,0.3747252747252747,0.1676190476190476,0.2079120879120879
6.141048329009209,0.3747252747252747,0.1676190476190476,0.2079120879120879
6.1464674059971,0.3747252747252747,0.1676190476190476,0.2079120879120879
6.148037749997457,0.3747252747252747,0.1676190476190476,0.2079120879120879
6.151869421999436,0.3747252747252747,0.1676190476190476,0.2079120879120879
6.157268588009174,0.3747252747252747,0.1676190476190476,0.2079120879120879
6.159653620998142,0.3747252747252747,0.1676190476190476,0.2079120879120879
6.159899058009614,0.3747252747252747,0.1676190476190476,0.2079120879120879
6.16483004600741,0.3747252747252747,0.1676190476190476,0.2079120879120879
6.168786763999378,0.3747252747252747,0.1676190476190476,0.2079120879120879
6.172573604009813,0.3747252747252747,0.1676190476190476,0.2079120879120879
6.177167732006637,0.3747252747252747,0.1676190476190476,0.2079120879120879
6.177361484005814,0.3747252747252747,0.1676190476190476,0.2079120879120879
6.182998090007459,0.3747252747252747,0.1676190476190476,0.2079120879120879
6.183252349001123,0.3747252747252747,0.1676190476190476,0.2079120879120879
6.189115365006728,0.3747252747252747,0.1676190476190476,0.2079120879120879
6.189215535996482,0.3747252747252747,0.1676190476190476,0.2079120879120879
6.195793887003674,0.3747252747252747,0.1676190476190476,0.2079120879120879
6.201088754009106,2.215311355311355,0.1418315018315018,1.0983882783882783
6.201954864998697,2.215311355311355,0.1418315018315018,1.0983882783882783
6.20363104500575,2.215311355311355,0.1418315018315018,1.0983882783882783
6.207427868997911,2.215311355311355,0.1418315018315018,1.0983882783882783
6.21314388999599,2.215311355311355,0.1418315018315018,1.0983882783882783
6.2133936710015405,3.3,0.2594871794871795,0.5858608058608058
6.219539180005086,3.3,0.2594871794871795,0.5858608058608058
6.223020214005373,3.3,0.2594871794871795,0.5858608058608058
6.223253179006861,3.3,0.2594871794871795,0.5858608058608058
6.228524707010365,0.7019047619047618,0.020146520146520144,0.3142857142857142
6.23267877100443,2.963150183150183,0.05318681318681319,1.506153846153846
6.233578644998488,1.1934798534798534,0.31186813186813184,1.80996336996337
6.2352462130074855,1.1934798534798534,0.31186813186813184,1.80996336996337
6.239191237997147,1.1934798534798534,0.31186813186813184,1.80996336996337
6.244144181007869,1.1934798534798534,0.31186813186813184,1.80996336996337
6.2490055780072,1.1934798534798534,0.31186813186813184,1.80996336996337
6.25470060200314,1.1934798534798534,0.31186813186813184,1.80996336996337
6.2557126699975925,1.1934798534798534,0.31186813186813184,1.80996336996337
6.256008169002598,1.1934798534798534,0.31186813186813184,1.80996336996337
6.260845669006812,1.1934798534798534,0.31186813186813184,1.80996336996337
6.2609764719964005,1.1934798534798534,0.31186813186813184,1.80996336996337
6.265935586998239,1.1934798534798534,0.31186813186813184,1.80996336996337
6.270213463998516,1.1934798534798534,0.31186813186813184,1.80996336996337
