time,emg1,emg2,emg3
0.023877486994024366,2.3652014652014652,0.0,0.4021245421245421
0.04004078698926605,1.7189010989010989,0.0,0.25706959706959703
0.040289882992510684,3.3,0.0,0.4085714285714286
0.04987544899631757,3.3,0.0,0.4085714285714286
0.05823433899786323,2.597289377289377,0.0,1.4134798534798534
0.06671746299252845,2.597289377289377,0.0,1.4134798534798534
0.07127302298613358,2.597289377289377,0.0,1.4134798534798534
0.07151396598783322,2.597289377289377,0.0,1.4134798534798534
0.0777058879903052,2.597289377289377,0.0,1.4134798534798534
0.08201397699303925,2.597289377289377,0.0,1.4134798534798534
0.08313651499338448,2.597289377289377,0.0,1.4134798534798534
0.08337542999652214,2.597289377289377,0.0,1.4134798534798534
0.0899793799908366,2.597289377289377,0.0,1.4134798534798534
0.09408707899274305,3.032454212454212,0.0,0.195018315018315
0.09732698999869172,3.032454212454212,0.0,0.195018315018315
0.09820786499767564,3.032454212454212,0.0,0.195018315018315
0.09990860099787824,3.032454212454212,0.0,0.195018315018315
0.10376817599171773,1.8075457875457877,0.0,0.26673992673992675
0.10764166199078318,1.8075457875457877,0.0,0.26673992673992675
0.11205960799998138,1.8075457875457877,0.0,0.26673992673992675
0.11303861199121457,1.8075457875457877,0.0,0.26673992673992675
0.11463595599343535,1.8075457875457877,0.0,0.26673992673992675
0.11907640598656144,1.8075457875457877,0.0,0.26673992673992675
0.11996976498630829,1.8075457875457877,0.0,0.26673992673992675
0.12154288998863194,1.8075457875457877,0.0,0.26673992673992675
0.12625220099289436,1.8075457875457877,0.0,0.26673992673992675
0.13162823498714715,1.8075457875457877,0.0,0.26673992673992675
0.13476289999380242,1.8075457875457877,0.0,0.26673992673992675
0.1365572309878189,1.8075457875457877,0.0,0.26673992673992675
0.14105854798981454,1.9445421245421244,0.0,0.3384615384615384
0.14180850799311884,1.1193406593406594,0.0,0.16197802197802197
0.14359090398647822,1.1193406593406594,0.0,0.16197802197802197
0.14675084898772184,1.1193406593406594,0.0,0.16197802197802197
0.14704698798595928,0.734139194139194,0.0,0.05641025641025641
0.1523145989922341,0.734139194139194,0.0,0.05641025641025641
0.15528780799650121,1.706007326007326,0.0,0.19743589743589743
0.15767578399390914,2.993772893772894,0.0,0.35619047619047617
0.15787333199114073,2.993772893772894,0.0,0.35619047619047617
0.16314156098815147,2.993772893772894,0.0,0.35619047619047617
0.16613770299591124,1.2740659340659342,0.0,0.2651282051282051
0.16842433299461845,1.2740659340659342,0.0,0.2651282051282051
0.1686885889939731,1.2740659340659342,0.0,0.2651282051282051
0.17406595598731656,1.2740659340659342,0.0,0.2651282051282051
0.17633012399892323,1.2740659340659342,0.0,0.2651282051282051
0.1765789609926287,1.2740659340659342,0.0,0.2651282051282051
0.1818637959950138,1.2740659340659342,0.0,0.2651282051282051
0.18484732499928214,1.2740659340659342,0.0,0.2651282051282051
0.18814901499717962,1.2740659340659342,0.0,0.2651282051282051
0.189006842992967,2.597289377289377,0.0,0.5923076923076923
0.19075764498848002,2.597289377289377,0.0,0.5923076923076923
0.1955092609860003,2.6166300366300366,0.0,0.14263736263736262
0.20006516999274027,2.6166300366300366,0.0,0.14263736263736262
0.200353529988206,2.6166300366300366,0.0,0.14263736263736262
0.2080195599992294,2.6166300366300366,0.0,0.14263736263736262
0.21670045399514493,2.6166300366300366,0.0,0.14263736263736262
0.22312457699445076,2.6166300366300366,0.0,0.14263736263736262
0.227299457998015,1.2966300366300365,0.0,0.2683516483516483
0.22821318099158816,1.2966300366300365,0.0,0.2683516483516483
0.23106488499615807,1.2966300366300365,0.0,0.2683516483516483
0.23474630199780222,1.2966300366300365,0.0,0.2683516483516483
0.23866670799907297,0.5987545787545787,0.0,0.4964102564102564
0.24260651398799382,0.5987545787545787,0.0,0.4964102564102564
0.24641728898859583,3.3,0.0,0.7832967032967032
0.2519386169878999,1.3127472527472526,0.0,0.19985347985347984
0.25222411499999,1.3127472527472526,0.0,0.19985347985347984
0.25683214199671056,1.3127472527472526,0.0,0.19985347985347984
0.2571667319862172,2.4586813186813186,0.0,0.5641025641025641
0.26212481599941384,2.4586813186813186,0.0,0.5641025641025641
0.2680402169935405,3.3,0.0,0.751062271062271
0.2726985369954491,3.3,0.0,0.751062271062271
0.2729342669917969,3.3,0.0,0.751062271062271
0.278143845993327,3.3,0.0,0.751062271062271
0.28163732698885724,3.3,0.0,0.751062271062271
0.2818950649962062,1.3304761904761904,0.0,0.27076923076923076
0.2882013029884547,1.3304761904761904,0.0,0.27076923076923076
0.292113736999454,1.3304761904761904,0.0,0.27076923076923076
0.2972534269938478,1.9268131868131868,0.0,0.6205128205128204
0.3013005979883019,1.9268131868131868,0.0,0.6205128205128204
0.30377289399621077,1.0999999999999999,0.0,0.2369230769230769
0.3038932749914238,1.0999999999999999,0.0,0.2369230769230769
0.30943904898595065,1.0999999999999999,0.0,0.2369230769230769
0.310329402986099,1.0999999999999999,0.0,0.2369230769230769
0.31207381599233486,1.0999999999999999,0.0,0.2369230769230769
0.3177776659867959,2.589230769230769,0.0,1.7841758241758239
0.32385085299029015,2.589230769230769,0.0,1.7841758241758239
0.327892012996017,2.589230769230769,0.0,1.7841758241758239
0.33264596699154936,2.589230769230769,0.0,1.7841758241758239
0.3416145549999783,2.589230769230769,0.0,1.7841758241758239
0.347660838990123,2.589230769230769,0.0,1.7841758241758239
0.35686907499621157,2.589230769230769,0.0,1.7841758241758239
0.3635594079969451,0.32476190476190475,0.0,0.46820512820512816
0.3696073009923566,0.32476190476190475,0.0,0.46820512820512816
0.3728839099931065,3.235531135531135,0.0,0.2175824175824176
0.373844495989033,0.7147985347985348,0.0,0.5205860805860806
0.37563440699886996,0.7147985347985348,0.0,0.5205860805860806
0.37802051099424716,0.7147985347985348,0.0,0.5205860805860806
0.3781328219920397,0.7147985347985348,0.0,0.5205860805860806
0.3868892209866317,0.7147985347985348,0.0,0.5205860805860806
0.39170210898737423,0.7147985347985348,0.0,0.5205860805860806
0.3964037199912127,0.7147985347985348,0.0,0.5205860805860806
0.40608329098904505,0.7147985347985348,0.0,0.5205860805860806
0.41086485898995306,0.7147985347985348,0.0,0.5205860805860806
0.41102619298908394,0.7147985347985348,0.0,0.5205860805860806
0.4196871149906656,0.7147985347985348,0.0,0.5205860805860806
0.426999524992425,0.23934065934065935,0.0,0.5133333333333333
0.4324633259966504,0.23934065934065935,0.0,0.5133333333333333
0.43274759998894297,0.23934065934065935,0.0,0.5133333333333333
0.4383556749962736,0.23934065934065935,0.0,0.5133333333333333
0.4385750619985629,0.23934065934065935,0.0,0.5133333333333333
0.4441116739908466,0.23934065934065935,0.0,0.5133333333333333
0.4443464029900497,0.23934065934065935,0.0,0.5133333333333333
0.45145912398584187,0.23934065934065935,0.0,0.5133333333333333
0.45552422798937187,3.3,0.0,0.5125274725274725
0.45953089199610986,3.3,0.0,0.5125274725274725
0.4640341739868745,3.3,0.0,0.5125274725274725
0.4717154919926543,2.5521611721611723,0.0,0.5367032967032966
0.47789869298867416,2.5521611721611723,0.0,0.5367032967032966
0.48580602199945133,2.5521611721611723,0.0,0.5367032967032966
0.48980969899275806,2.5521611721611723,0.0,0.5367032967032966
0.4938116029952653,2.5521611721611723,0.0,0.5367032967032966
0.4978517259878572,2.5521611721611723,0.0,0.5367032967032966
0.503230269998312,2.5521611721611723,0.0,0.5367032967032966
0.5033944569877349,2.5521611721611723,0.0,0.5367032967032966
0.5090486419940135,2.5521611721611723,0.0,0.5367032967032966
0.5098928309889743,2.5521611721611723,0.0,0.5367032967032966
0.5115344179939711,2.5521611721611723,0.0,0.5367032967032966
0.520495264994679,2.5956776556776555,0.0,1.7043956043956046
0.5251298699877225,2.5956776556776555,0.0,1.7043956043956046
0.5253496619989164,2.5956776556776555,0.0,1.7043956043956046
0.5336416589998407,2.5956776556776555,0.0,1.7043956043956046
0.5399214629869675,2.5956776556776555,0.0,1.7043956043956046
0.5439079379866598,2.5956776556776555,0.0,1.7043956043956046
0.5503229109890526,2.5956776556776555,0.0,1.7043956043956046
0.5556723379995674,1.8913553113553112,0.0,0.5608791208791208
0.5565422239887994,1.8913553113553112,0.0,0.5608791208791208
0.5582018369896105,1.8913553113553112,0.0,0.5608791208791208
0.5613026239880128,1.8913553113553112,0.0,0.5608791208791208
0.56562094099354,1.8913553113553112,0.0,0.5608791208791208
0.5660400179913267,1.8913553113553112,0.0,0.5608791208791208
0.5723834889940917,1.8913553113553112,0.0,0.5608791208791208
0.5757320519915083,3.3,0.0,1.1604395604395605
0.5766642809903715,3.3,0.0,1.1604395604395605
0.5782723219890613,3.3,0.0,1.1604395604395605
0.5862979139928939,3.3,0.0,1.1604395604395605
0.5914292319939705,3.3,0.0,0.7059340659340658
0.5948260799923446,3.3,0.0,0.4279120879120879
0.5957418449979741,3.3,0.0,0.4279120879120879
0.5974723319959594,2.453846153846154,0.0,0.3997069597069597
0.6032677259936463,2.453846153846154,0.0,0.3997069597069597
0.6072765930002788,2.453846153846154,0.0,0.3997069597069597
0.6103466419881443,3.021172161172161,0.0,0.6124542124542125
0.6145103229937376,3.021172161172161,0.0,0.6124542124542125
0.6170966239878908,3.021172161172161,0.0,0.6124542124542125
0.6227285989880329,3.021172161172161,0.0,0.6124542124542125
0.6228420689876657,3.021172161172161,0.0,0.6124542124542125
0.6285289579973323,3.021172161172161,0.0,0.6124542124542125
0.6287687589938287,3.021172161172161,0.0,0.6124542124542125
0.637953886995092,3.021172161172161,0.0,0.6124542124542125
0.6437590409914264,3.021172161172161,0.0,0.6124542124542125
0.6438482699886663,3.021172161172161,0.0,0.6124542124542125
0.6503682039910927,3.021172161172161,0.0,0.6124542124542125
0.6544393029907951,3.021172161172161,0.0,0.6124542124542125
0.6575028589868452,3.021172161172161,0.0,0.6124542124542125
0.6600704079901334,3.021172161172161,0.0,0.6124542124542125
0.6670539719925728,3.021172161172161,0.0,0.6124542124542125
0.6702687429933576,1.1628571428571428,0.0,0.195018315018315
0.6711589240003377,1.1628571428571428,0.0,0.195018315018315
0.6727714519947767,1.1628571428571428,0.0,0.195018315018315
0.6772488759888802,1.1628571428571428,0.0,0.195018315018315
0.6774891089880839,1.1628571428571428,0.0,0.195018315018315
0.6876633959909668,1.1628571428571428,0.0,0.195018315018315
0.6928912359871902,1.1628571428571428,0.0,0.195018315018315
0.6960288569971453,0.6777289377289377,0.0,0.5036630036630036
0.699182373995427,0.6777289377289377,0.0,0.5036630036630036
0.6995385929913027,0.6777289377289377,0.0,0.5036630036630036
0.707230919986614,0.6777289377289377,0.0,0.5036630036630036
0.7119718229951104,0.6777289377289377,0.0,0.5036630036630036
0.7212102399935247,0.6777289377289377,0.0,0.5036630036630036
0.7267204919917276,0.6777289377289377,0.0,0.5036630036630036
0.7283572019950952,1.108058608058608,0.0,0.01531135531135531
0.7359011439984897,2.5908424908424905,0.0,0.14666666666666667
0.7406885909877019,2.5956776556776555,0.0,1.652014652014652
0.7487131799862254,2.452234432234432,0.0,0.4351648351648352
0.7552611959981732,2.452234432234432,0.0,0.4351648351648352
0.7585643269994762,2.452234432234432,0.0,0.4351648351648352
0.7595567159878556,2.452234432234432,0.0,0.4351648351648352
0.7604782609996619,1.573846153846154,0.0,0.28527472527472525
0.7624633179948432,1.573846153846154,0.0,0.28527472527472525
0.7644460409937892,3.3,0.0,0.9823443223443222
0.7670953519991599,3.3,0.0,0.9823443223443222
0.7705513319961028,3.3,0.0,0.9823443223443222
0.7708927599887829,3.3,0.0,0.9823443223443222
0.7757914299872937,3.3,0.0,0.9823443223443222
0.7838330159866018,3.3,0.0,0.9823443223443222
0.7887589349993505,3.3,0.0,0.9823443223443222
0.7941716659988742,2.86,0.0,0.5415384615384615
0.7962656379968394,2.86,0.0,0.5415384615384615
0.7966937219898682,2.86,0.0,0.5415384615384615
0.8028758859873051,2.86,0.0,0.5415384615384615
0.8071048899873858,2.86,0.0,0.5415384615384615
0.8087024399865186,2.86,0.0,0.5415384615384615
0.8132290609937627,2.86,0.0,0.5415384615384615
0.8145491889881669,1.9364835164835164,0.0,0.6495238095238095
0.8214087609958369,1.9364835164835164,0.0,0.6495238095238095
0.8253180039901054,1.9364835164835164,0.0,0.6495238095238095
0.8326556279935176,1.9364835164835164,0.0,0.6495238095238095
0.8387839399947552,1.9364835164835164,0.0,0.6495238095238095
0.8429059029876953,1.9364835164835164,0.0,0.6495238095238095
0.8453127519896952,1.9364835164835164,0.0,0.6495238095238095
0.8575401039997814,1.9364835164835164,0.0,0.6495238095238095
0.8689146629913012,1.9364835164835164,0.0,0.6495238095238095
0.8755423479888123,1.9364835164835164,0.0,0.6495238095238095
0.8838756689947331,1.9364835164835164,0.0,0.6495238095238095
0.8890794159960933,2.5989010989010985,0.0,1.635091575091575
0.8920659339928534,2.589230769230769,0.0,0.17567765567765567
0.8946607830002904,2.5908424908424905,0.0,1.826886446886447
0.9034674759896006,2.5908424908424905,0.0,1.826886446886447
0.9096451269870158,2.698827838827839,0.0,0.32556776556776557
0.9163420899858465,2.698827838827839,0.0,0.32556776556776557
0.9222525389923248,2.698827838827839,0.0,0.32556776556776557
0.9307532139937393,2.5908424908424905,0.0,1.7027838827838828
0.935948340993491,2.5908424908424905,0.0,1.7027838827838828
0.9384512019896647,2.5908424908424905,0.0,1.7027838827838828
0.9477871639974182,1.4432967032967032,0.0,0.3594139194139194
0.9533268899976974,1.4432967032967032,0.0,0.3594139194139194
0.9535859869938577,1.4432967032967032,0.0,0.3594139194139194
0.9591596129903337,1.4432967032967032,0.0,0.3594139194139194
0.9599821269948734,1.4432967032967032,0.0,0.3594139194139194
0.963593098000274,1.4432967032967032,0.0,0.3594139194139194
0.9697100299963495,1.4432967032967032,0.0,0.3594139194139194
0.9737163389945636,1.4432967032967032,0.0,0.3594139194139194
0.9768608349986607,1.4432967032967032,0.0,0.3594139194139194
0.980419029991026,3.151721611721612,0.0,0.3884249084249084
0.9898313769954257,3.151721611721612,0.0,0.3884249084249084
0.9998713259992655,3.151721611721612,0.0,0.3884249084249084
1.0072779229958542,3.151721611721612,0.0,0.3884249084249084
1.011867026987602,3.3,0.0,0.527032967032967
1.012094186997274,2.597289377289377,0.0,0.43999999999999995
1.0206133679894265,2.597289377289377,0.0,0.43999999999999995
1.0253834889881546,2.597289377289377,0.0,0.43999999999999995
1.0255109299905598,2.597289377289377,0.0,0.43999999999999995
1.0324088559864322,2.597289377289377,0.0,0.43999999999999995
1.035910796999815,2.597289377289377,0.0,0.43999999999999995
1.0361584549973486,2.3458608058608057,0.0,0.3852014652014652
1.0421991479961434,2.3458608058608057,0.0,0.3852014652014652
1.0526272449933458,2.3458608058608057,0.0,0.3852014652014652
1.0603268239938188,2.3458608058608057,0.0,0.3852014652014652
1.0671311789919855,2.3458608058608057,0.0,0.3852014652014652
1.0710141099989414,2.3458608058608057,0.0,0.3852014652014652
1.0747786699939752,2.993772893772894,0.0,0.21516483516483517
1.0796225109952502,2.993772893772894,0.0,0.21516483516483517
1.0852398669958347,2.993772893772894,0.0,0.21516483516483517
1.0855134109879145,2.993772893772894,0.0,0.21516483516483517
1.091321796993725,2.993772893772894,0.0,0.21516483516483517
1.0914117129868828,3.3,0.0,0.23369963369963367
1.0972465929953614,3.3,0.0,0.23369963369963367
1.0973858769866638,3.3,0.0,0.23369963369963367
1.103150493989233,0.8743589743589744,0.0,0.33926739926739924
1.1032922379963566,1.3643223443223442,0.0,0.26915750915750913
1.1086473169998499,1.3643223443223442,0.0,0.26915750915750913
1.110253605991602,0.9984615384615383,0.0,0.06205128205128205
1.114585294999415,0.9984615384615383,0.0,0.06205128205128205
1.1160749629925704,0.9984615384615383,0.0,0.06205128205128205
1.1197450129984645,1.9106959706959707,0.0,0.38036630036630037
1.1199226889875717,1.9106959706959707,0.0,0.38036630036630037
1.124782057988341,1.9106959706959707,0.0,0.38036630036630037
1.1249032419873402,3.3,0.0,0.9573626373626374
1.1298180710000452,3.3,0.0,0.9573626373626374
1.129917600992485,0.9468864468864467,0.0,0.08945054945054945
1.1348940359894186,0.9468864468864467,0.0,0.08945054945054945
1.139262021999457,0.9468864468864467,0.0,0.08945054945054945
1.1417386049870402,0.9468864468864467,0.0,0.08945054945054945
1.1501574929861818,0.9468864468864467,0.0,0.08945054945054945
1.1540555809915531,1.1161172161172161,0.0,0.09509157509157509
1.158602710987907,1.1161172161172161,0.0,0.09509157509157509
1.159553686986328,2.2136996336996333,0.0,0.3344322344322344
1.1604151829960756,2.2136996336996333,0.0,0.3344322344322344
1.1621282159903785,2.2136996336996333,0.0,0.3344322344322344
1.1664410539960954,2.2136996336996333,0.0,0.3344322344322344
1.1673473629925866,2.2136996336996333,0.0,0.3344322344322344
1.1688920869928552,2.2136996336996333,0.0,0.3344322344322344
1.1735219979891554,2.2136996336996333,0.0,0.3344322344322344
1.1737683689862024,0.03142857142857143,0.0,0.47706959706959706
1.1809299089945853,0.03142857142857143,0.0,0.47706959706959706
1.1854241580003873,0.03142857142857143,0.0,0.47706959706959706
1.1863567889959086,0.03142857142857143,0.0,0.47706959706959706
1.1879393139970489,0.03142857142857143,0.0,0.47706959706959706
1.1920152839884395,0.03142857142857143,0.0,0.47706959706959706
1.19446419099404,0.03142857142857143,0.0,0.47706959706959706
1.1945678949996363,0.03142857142857143,0.0,0.47706959706959706
1.1999930219899397,2.067032967032967,0.0,0.5584615384615385
1.2016942479967838,2.067032967032967,0.0,0.5584615384615385
1.20561424898915,2.067032967032967,0.0,0.5584615384615385
1.2095085319888312,2.067032967032967,0.0,0.5584615384615385
1.2140563579887385,2.067032967032967,0.0,0.5584615384615385
1.2142909829999553,2.067032967032967,0.0,0.5584615384615385
1.2199996559938882,2.067032967032967,0.0,0.5584615384615385
1.2201888569979928,2.067032967032967,0.0,0.5584615384615385
1.225765771989245,2.067032967032967,0.0,0.5584615384615385
1.226612287995522,2.067032967032967,0.0,0.5584615384615385
1.228272645996185,2.067032967032967,0.0,0.5584615384615385
1.2320712679938879,2.067032967032967,0.0,0.5584615384615385
1.2374519379955018,2.067032967032967,0.0,0.5584615384615385
1.2398216619913,1.8252747252747252,0.0,0.40937728937728934
1.239983557999949,1.656043956043956,0.0,0.32073260073260074
1.2453249999962281,1.656043956043956,0.0,0.32073260073260074
1.2477490429882891,1.656043956043956,0.0,0.32073260073260074
1.247905438998714,1.656043956043956,0.0,0.32073260073260074
1.253404139992199,1.656043956043956,0.0,0.32073260073260074
1.254509763995884,2.5924542124542125,0.0,1.7052014652014653
1.2553883499931544,2.5924542124542125,0.0,1.7052014652014653
1.2563769099942874,2.5924542124542125,0.0,1.7052014652014653
1.2579444169969065,2.5924542124542125,0.0,1.7052014652014653
1.262674691999564,2.5924542124542125,0.0,1.7052014652014653
1.262777529991581,2.5924542124542125,0.0,1.7052014652014653
1.2681807039916748,2.5924542124542125,0.0,1.7052014652014653
1.2704581979924114,2.5924542124542125,0.0,1.7052014652014653
1.2707273859996349,2.5924542124542125,0.0,1.7052014652014653
1.2760419059923152,2.5924542124542125,0.0,1.7052014652014653
1.2783553149929503,2.5924542124542125,0.0,1.7052014652014653
1.278639962998568,2.5924542124542125,0.0,1.7052014652014653
1.2841165919962805,2.5924542124542125,0.0,1.7052014652014653
1.2856753389933147,2.5924542124542125,0.0,1.7052014652014653
1.2895011479995446,0.9936263736263735,0.0,0.11443223443223444
1.294170707988087,3.1968498168498165,0.0,0.25142857142857145
1.2943945759907365,3.1968498168498165,0.0,0.25142857142857145
1.299092874993221,3.1968498168498165,0.0,0.25142857142857145
1.3048159169993596,1.0935531135531134,0.0,0.3424908424908425
1.3056613529915921,1.0935531135531134,0.0,0.3424908424908425
1.3073252379981568,1.0935531135531134,0.0,0.3424908424908425
1.310428928991314,1.0935531135531134,0.0,0.3424908424908425
1.312864350999007,1.0935531135531134,0.0,0.3424908424908425
1.313041652989341,1.0935531135531134,0.0,0.3424908424908425
1.3185313669964671,1.0935531135531134,0.0,0.3424908424908425
1.3201894039957551,1.854285714285714,0.0,0.49157509157509155
1.3241763789992547,1.854285714285714,0.0,0.49157509157509155
1.3272047439968446,1.854285714285714,0.0,0.49157509157509155
1.329613130990765,1.854285714285714,0.0,0.49157509157509155
1.3297403659962583,1.854285714285714,0.0,0.49157509157509155
1.3350042469974142,1.854285714285714,0.0,0.49157509157509155
1.337497145999805,1.854285714285714,0.0,0.49157509157509155
1.3429671079938998,1.854285714285714,0.0,0.49157509157509155
1.3453729069879046,1.854285714285714,0.0,0.49157509157509155
1.3511463119939435,1.854285714285714,0.0,0.49157509157509155
1.3513412920001429,1.7317948717948717,0.0,0.3690842490842491
1.3566131429979578,1.7317948717948717,0.0,0.3690842490842491
1.359669227997074,1.7317948717948717,0.0,0.3690842490842491
1.361991201993078,1.9235897435897436,0.0,0.4835164835164835
1.362194590998115,2.3555311355311352,0.0,0.2087179487179487
1.3674571109877434,2.3555311355311352,0.0,0.2087179487179487
1.370487617998151,2.3555311355311352,0.0,0.2087179487179487
1.372833035988151,2.3555311355311352,0.0,0.2087179487179487
1.3730323399940971,2.3555311355311352,0.0,0.2087179487179487
1.37831550098781,2.3555311355311352,0.0,0.2087179487179487
1.3806991299934452,2.3555311355311352,0.0,0.2087179487179487
1.3809557069907896,2.3555311355311352,0.0,0.2087179487179487
1.3864628529991023,2.3555311355311352,0.0,0.2087179487179487
1.388275427991175,1.1467399267399265,0.0,0.13699633699633698
1.390842706998228,1.1467399267399265,0.0,0.13699633699633698
1.3963350809935946,3.1823443223443224,0.0,1.0854945054945053
1.3981057349883486,3.1823443223443224,0.0,1.0854945054945053
1.401346222992288,3.1823443223443224,0.0,1.0854945054945053
1.4030350019893376,3.1823443223443224,0.0,1.0854945054945053
1.4067253539978992,3.1823443223443224,0.0,1.0854945054945053
1.4068554429977667,3.1823443223443224,0.0,1.0854945054945053
1.4124843619938474,3.1823443223443224,0.0,1.0854945054945053
1.4127214609907242,3.1823443223443224,0.0,1.0854945054945053
1.417995402996894,3.1823443223443224,0.0,1.0854945054945053
1.420347398990998,3.1823443223443224,0.0,1.0854945054945053
1.4206368169980124,3.1823443223443224,0.0,1.0854945054945053
1.4258822809933918,3.1823443223443224,0.0,1.0854945054945053
1.428951154986862,3.1823443223443224,0.0,1.0854945054945053
1.431305601989152,3.1823443223443224,0.0,1.0854945054945053
1.4315873319865204,3.1823443223443224,0.0,1.0854945054945053
1.4368752789887367,3.1823443223443224,0.0,1.0854945054945053
1.4395130909979343,3.1823443223443224,0.0,1.0854945054945053
1.4440426559885964,3.1823443223443224,0.0,1.0854945054945053
1.4450457369966898,3.1823443223443224,0.0,1.0854945054945053
1.4458750880003208,3.1823443223443224,0.0,1.0854945054945053
1.4474831529951189,0.9194871794871795,0.0,0.09347985347985348
1.4522454259858932,3.0614652014652015,0.0,0.5826373626373627
1.4575046209938591,3.0614652014652015,0.0,0.5826373626373627
1.4607883209973807,3.0614652014652015,0.0,0.5826373626373627
1.4616755259921774,3.0614652014652015,0.0,0.5826373626373627
1.4634408649872057,3.0614652014652015,0.0,0.5826373626373627
1.4666433409875026,3.0614652014652015,0.0,0.5826373626373627
1.4682371519884327,3.0614652014652015,0.0,0.5826373626373627
1.4719712109945249,3.0614652014652015,0.0,0.5826373626373627
1.4776950709929224,3.0614652014652015,0.0,0.5826373626373627
1.4779580189933768,3.0614652014652015,0.0,0.5826373626373627
1.4835109439882217,1.1789743589743589,0.0,0.5350915750915751
1.4850508749950677,1.1789743589743589,0.0,0.5350915750915751
1.4888823669898557,1.1789743589743589,0.0,0.5350915750915751
1.4941975559922867,1.1789743589743589,0.0,0.5350915750915751
1.4965594389941543,1.1789743589743589,0.0,0.5350915750915751
1.4967719259875594,1.1789743589743589,0.0,0.5350915750915751
1.5020618019916583,1.1789743589743589,0.0,0.5350915750915751
1.5044847299868707,2.07992673992674,0.0,0.2925274725274725
1.5045806169946445,2.2394871794871793,0.0,0.49238095238095236
1.509877049989882,2.2394871794871793,0.0,0.49238095238095236
1.5132848619978176,2.2394871794871793,0.0,0.49238095238095236
1.513492669997504,2.2394871794871793,0.0,0.49238095238095236
1.518845013997634,2.2394871794871793,0.0,0.49238095238095236
1.5213421799999196,2.2394871794871793,0.0,0.49238095238095236
1.52679121599067,2.2394871794871793,0.0,0.49238095238095236
1.5293852639879333,2.2394871794871793,0.0,0.49238095238095236
1.5340118339954643,3.3,0.0,0.614065934065934
1.5342428729927633,3.3,0.0,0.614065934065934
1.5396657979872543,3.3,0.0,0.614065934065934
1.5413642239873298,3.3,0.0,0.614065934065934
1.5444949099910446,3.3,0.0,0.614065934065934
1.5463108459953219,3.3,0.0,0.614065934065934
1.549350871995557,3.3,0.0,0.614065934065934
1.5524430419900455,3.3,0.0,0.6156776556776556
1.5541192009986844,3.3,0.0,0.6156776556776556
1.5580849159887293,3.3,0.0,0.6156776556776556
1.5620007359975716,1.4658608058608058,0.0,0.3441025641025641
1.5658648719982011,1.4658608058608058,0.0,0.3441025641025641
1.5714803640003083,1.4658608058608058,0.0,0.3441025641025641
1.5723863699968206,3.3,0.0,0.4512820512820513
1.5734336259920383,3.3,0.0,0.4512820512820513
1.574326221991214,0.1813186813186813,0.0,0.4593406593406593
1.5752190999919549,0.1813186813186813,0.0,0.4593406593406593
1.5768217139993794,0.1813186813186813,0.0,0.4593406593406593
1.5814777059858898,0.1813186813186813,0.0,0.4593406593406593
1.5815742779959692,0.1813186813186813,0.0,0.4593406593406593
1.5870713539916323,0.1813186813186813,0.0,0.4593406593406593
1.5886183669936145,2.1846886446886447,0.0,0.4424175824175824
1.5924191949889064,2.1846886446886447,0.0,0.4424175824175824
1.5974162679922301,2.1846886446886447,0.0,0.4424175824175824
1.6017007239861414,2.3974358974358974,0.0,0.3698901098901099
1.6038984569895547,2.5908424908424905,0.0,1.7011721611721609
1.605313528998522,2.5908424908424905,0.0,1.7011721611721609
1.6102147539932048,2.5908424908424905,0.0,1.7011721611721609
1.6103174529998796,2.5908424908424905,0.0,1.7011721611721609
1.615310810986557,2.5908424908424905,0.0,1.7011721611721609
1.6207626819959842,2.5908424908424905,0.0,1.7011721611721609
1.6229905109939864,1.0903296703296703,0.0,0.25465201465201465
1.6237631650001276,3.3,0.0,0.7832967032967032
1.6259475509868935,3.3,0.0,0.7832967032967032
1.6267589869967196,3.3,0.0,0.7832967032967032
1.6289384079864249,3.3,0.0,0.7832967032967032
1.629709267988801,3.3,0.0,0.7832967032967032
1.6318523499940056,3.3,0.0,0.7832967032967032
1.6333469509991119,3.3,0.0,0.7832967032967032
1.6375091259978944,3.3,0.0,0.7832967032967032
1.6397704579867423,2.545714285714286,0.0,0.3142857142857142
1.6405493069905788,2.545714285714286,0.0,0.3142857142857142
1.642727708996972,2.545714285714286,0.0,0.3142857142857142
1.6435889649874298,2.545714285714286,0.0,0.3142857142857142
1.6457121679995907,2.545714285714286,0.0,0.3142857142857142
1.6465048889949685,2.545714285714286,0.0,0.3142857142857142
1.6486283189879032,3.0356776556776555,0.0,0.5479853479853479
1.6494883249979466,3.0356776556776555,0.0,0.5479853479853479
1.6516199449979467,3.0356776556776555,0.0,0.5479853479853479
1.6524977499939268,3.0356776556776555,0.0,0.5479853479853479
1.6540276299929246,3.0356776556776555,0.0,0.5479853479853479
1.6587440459989011,2.141172161172161,0.0,0.42065934065934063
1.659002418993623,2.141172161172161,0.0,0.42065934065934063
1.663523939991137,2.141172161172161,0.0,0.42065934065934063
1.6637460559868487,2.141172161172161,0.0,0.42065934065934063
1.6691127529920777,2.141172161172161,0.0,0.42065934065934063
1.6707111449941294,2.141172161172161,0.0,0.42065934065934063
1.6752864809968742,2.141172161172161,0.0,0.42065934065934063
1.6754748449893668,2.141172161172161,0.0,0.42065934065934063
1.6808842709870078,2.141172161172161,0.0,0.42065934065934063
1.6832025349867763,2.141172161172161,0.0,0.42065934065934063
1.6834383749956032,2.141172161172161,0.0,0.42065934065934063
1.6888102459924994,2.141172161172161,0.0,0.42065934065934063
1.6911705539969262,2.6037362637362635,0.0,0.28285714285714286
1.6912645309930667,2.6037362637362635,0.0,0.28285714285714286
1.6965849099942716,2.6037362637362635,0.0,0.28285714285714286
1.6989420369936852,2.6037362637362635,0.0,0.28285714285714286
1.699160589996609,2.6037362637362635,0.0,0.28285714285714286
1.704449881988694,2.6037362637362635,0.0,0.28285714285714286
1.7067460999969626,1.248278388278388,0.0,0.16197802197802197
1.7070073149952805,1.248278388278388,0.0,0.16197802197802197
1.7124846259976039,1.248278388278388,0.0,0.16197802197802197
1.7141972849931335,3.2806593406593407,0.0,0.19018315018315018
1.7173334589897422,3.2806593406593407,0.0,0.19018315018315018
1.7199586069909856,3.2806593406593407,0.0,0.19018315018315018
1.724620082997717,3.2806593406593407,0.0,0.19018315018315018
1.724873575993115,3.2806593406593407,0.0,0.19018315018315018
1.7303566289920127,1.3965567765567766,0.0,0.15472527472527473
1.7320318209967809,1.3965567765567766,0.0,0.15472527472527473
1.7351529969892,1.3965567765567766,0.0,0.15472527472527473
1.7367702209885465,1.3965567765567766,0.0,0.15472527472527473
1.7411983919882914,1.3965567765567766,0.0,0.15472527472527473
1.742020698991837,2.3764835164835163,0.0,0.3884249084249084
1.7436329709889833,2.3764835164835163,0.0,0.3884249084249084
1.7481065229949309,2.3764835164835163,0.0,0.3884249084249084
1.749008947997936,2.3764835164835163,0.0,0.3884249084249084
1.7506708679866279,2.3764835164835163,0.0,0.3884249084249084
1.7546142829960445,2.3764835164835163,0.0,0.3884249084249084
1.7584964479901828,2.3764835164835163,0.0,0.3884249084249084
1.7631693859875668,2.3764835164835163,0.0,0.3884249084249084
1.7632652209867956,2.3764835164835163,0.0,0.3884249084249084
1.7688213999936124,2.3764835164835163,0.0,0.3884249084249084
1.770369497986394,2.597289377289377,0.0,0.6164835164835165
1.7740740029985318,2.597289377289377,0.0,0.6164835164835165
1.7741819769871654,2.597289377289377,0.0,0.6164835164835165
1.7794571359991096,2.2169230769230768,0.0,0.38036630036630037
1.7824727059924044,2.2169230769230768,0.0,0.38036630036630037
1.784649871988222,2.2169230769230768,0.0,0.38036630036630037
1.7855127789953258,2.2169230769230768,0.0,0.38036630036630037
1.786994659996708,2.2169230769230768,0.0,0.38036630036630037
1.7918506429996341,2.2169230769230768,0.0,0.38036630036630037
1.7919752519956091,2.2169230769230768,0.0,0.38036630036630037
1.7970105719869025,2.2169230769230768,0.0,0.38036630036630037
1.8005139019951457,0.04915750915750916,0.0,0.4835164835164835
1.8007339519972447,2.2104761904761903,0.0,0.2651282051282051
1.8057028699986404,2.2104761904761903,0.0,0.2651282051282051
1.8098758819978684,1.0661538461538462,0.0,0.05399267399267399
1.812673440988874,2.5956776556776555,0.0,0.40776556776556777
1.8161723219964188,2.7375091575091575,0.0,0.8679120879120878
1.8164615649875486,2.7375091575091575,0.0,0.8679120879120878
1.821260236989474,2.7375091575091575,0.0,0.8679120879120878
1.821495229989523,2.7375091575091575,0.0,0.8679120879120878
1.826365832996089,2.7375091575091575,0.0,0.8679120879120878
1.8264634719962487,2.7375091575091575,0.0,0.8679120879120878
1.8312838199926773,2.7375091575091575,0.0,0.8679120879120878
1.8314942249999149,2.7375091575091575,0.0,0.8679120879120878
1.8364294419880025,2.7375091575091575,0.0,0.8679120879120878
1.841354522999609,2.7375091575091575,0.0,0.8679120879120878
1.841492051986279,2.7375091575091575,0.0,0.8679120879120878
1.8464587849884992,2.7375091575091575,0.0,0.8679120879120878
1.8513589179929113,2.7375091575091575,0.0,0.8679120879120878
1.8514880209986586,2.7375091575091575,0.0,0.8679120879120878
1.8563479309959803,2.7375091575091575,0.0,0.8679120879120878
1.8611623519973364,1.4094505494505494,0.0,0.4899633699633699
1.8613286769978004,1.4094505494505494,0.0,0.4899633699633699
1.8662213049974525,1.4094505494505494,0.0,0.4899633699633699
1.871094516987796,1.4094505494505494,0.0,0.4899633699633699
1.8760085849935422,1.4094505494505494,0.0,0.4899633699633699
1.8761051599867642,1.4094505494505494,0.0,0.4899633699633699
1.881227661986486,1.4094505494505494,0.0,0.4899633699633699
1.8852005869994173,1.4094505494505494,0.0,0.4899633699633699
1.8890950539935147,1.4094505494505494,0.0,0.4899633699633699
1.8929738759907195,1.4094505494505494,0.0,0.4899633699633699
1.8976590189995477,1.4094505494505494,0.0,0.4899633699633699
1.8978744219930377,1.4094505494505494,0.0,0.4899633699633699
1.9034588590002386,1.4094505494505494,0.0,0.4899633699633699
1.9042560859961668,1.4094505494505494,0.0,0.4899633699633699
1.905807550996542,1.4094505494505494,0.0,0.4899633699633699
1.9100718369882088,1.4094505494505494,0.0,0.4899633699633699
1.9122846229874995,1.4094505494505494,0.0,0.4899633699633699
1.913088320987299,1.4094505494505494,0.0,0.4899633699633699
1.9146256719977828,1.4094505494505494,0.0,0.4899633699633699
1.9188239939976484,1.4094505494505494,0.0,0.4899633699633699
1.9217047229903983,1.8478388278388278,0.0,0.2917216117216117
1.9252199889888288,1.8478388278388278,0.0,0.2917216117216117
1.9254117199889151,1.8478388278388278,0.0,0.2917216117216117
1.9303147369937506,1.8478388278388278,0.0,0.2917216117216117
1.9304367509903386,1.8478388278388278,0.0,0.2917216117216117
1.9354954949958483,1.8478388278388278,0.0,0.2917216117216117
1.939026986990939,1.8478388278388278,0.0,0.2917216117216117
1.9392836019978859,1.8478388278388278,0.0,0.2917216117216117
1.9445788429875392,1.8478388278388278,0.0,0.2917216117216117
1.947040309998556,1.8478388278388278,0.0,0.2917216117216117
1.9471861789934337,1.8478388278388278,0.0,0.2917216117216117
1.952570317997015,1.8478388278388278,0.0,0.2917216117216117
1.9548674239922548,1.8478388278388278,0.0,0.2917216117216117
1.9550789979984984,1.7994871794871792,0.0,0.4045421245421245
1.9603443759988295,1.7994871794871792,0.0,0.4045421245421245
1.9633870169927832,2.0928205128205124,0.0,0.47142857142857136
1.9657276359939715,2.0928205128205124,0.0,0.47142857142857136
1.9659172219980974,2.0928205128205124,0.0,0.47142857142857136
1.9705222989869071,2.0928205128205124,0.0,0.47142857142857136
1.970816956993076,2.0928205128205124,0.0,0.47142857142857136
1.9761839669954497,2.0928205128205124,0.0,0.47142857142857136
1.9777730929927202,0.14908424908424908,0.0,0.5383150183150183
1.9816403159929905,0.14908424908424908,0.0,0.5383150183150183
1.9862530839891406,0.14908424908424908,0.0,0.5383150183150183
1.9863350309897214,0.14908424908424908,0.0,0.5383150183150183
1.9919539589900523,2.9180219780219776,0.0,0.5842490842490843
1.992841485000099,2.9180219780219776,0.0,0.5842490842490843
1.9944445339933736,2.9180219780219776,0.0,0.5842490842490843
1.9982048319943715,2.9180219780219776,0.0,0.5842490842490843
2.0029587329918286,1.2853479853479852,0.0,0.332014652014652
2.00829207598872,1.2853479853479852,0.0,0.332014652014652
2.011330702996929,1.2853479853479852,0.0,0.332014652014652
2.013638391988934,1.2853479853479852,0.0,0.332014652014652
2.013906811000197,1.2853479853479852,0.0,0.332014652014652
2.019178192000254,1.2853479853479852,0.0,0.332014652014652
2.0222192779910984,1.2853479853479852,0.0,0.332014652014652
2.024603418991319,1.2853479853479852,0.0,0.332014652014652
2.024830007998389,1.2853479853479852,0.0,0.332014652014652
2.030174644998624,1.2853479853479852,0.0,0.332014652014652
2.0310875609866343,1.2853479853479852,0.0,0.332014652014652
2.0327096509863622,1.2853479853479852,0.0,0.332014652014652
2.0372871389990905,1.2853479853479852,0.0,0.332014652014652
2.037580183998216,1.2853479853479852,0.0,0.332014652014652
2.042911242999253,1.2853479853479852,0.0,0.332014652014652
2.0451985369873,1.2853479853479852,0.0,0.332014652014652
2.045411688988679,1.2853479853479852,0.0,0.332014652014652
2.050803955993615,1.2853479853479852,0.0,0.332014652014652
2.053104632999748,1.8752380952380951,0.0,0.49399267399267394
2.0533104089990957,1.8752380952380951,0.0,0.49399267399267394
2.0586413629935123,1.8752380952380951,0.0,0.49399267399267394
2.061426064989064,1.8752380952380951,0.0,0.49399267399267394
2.0649471139913658,1.8752380952380951,0.0,0.49399267399267394
2.065180794990738,1.8752380952380951,0.0,0.49399267399267394
2.070143521996215,1.8752380952380951,0.0,0.49399267399267394
2.074153061999823,3.3,0.0,0.6197069597069597
2.0771619949955493,3.3,0.0,0.6197069597069597
2.080247904988937,3.3,0.0,0.6197069597069597
2.0825943099916913,3.3,0.0,0.6197069597069597
2.0828073589946143,3.3,0.0,0.6197069597069597
2.0880850199901033,3.235531135531135,0.0,0.7293040293040293
2.0903739889909048,1.1644688644688646,0.0,0.14424908424908423
2.090631274986663,1.1644688644688646,0.0,0.14424908424908423
2.0958469029865228,1.1644688644688646,0.0,0.14424908424908423
2.098855710995849,1.1644688644688646,0.0,0.14424908424908423
2.101243163997424,1.1644688644688646,0.0,0.14424908424908423
2.10143936399254,1.3304761904761904,0.0,0.28205128205128205
2.1067625409923494,1.3304761904761904,0.0,0.28205128205128205
2.1097676399949705,1.3304761904761904,0.0,0.28205128205128205
2.112056276993826,1.3304761904761904,0.0,0.28205128205128205
2.1122919709887356,1.3304761904761904,0.0,0.28205128205128205
2.117092413987848,1.3304761904761904,0.0,0.28205128205128205
2.117226138987462,1.3304761904761904,0.0,0.28205128205128205
2.122080648987321,1.3304761904761904,0.0,0.28205128205128205
2.122205360996304,1.3304761904761904,0.0,0.28205128205128205
2.126447692993679,1.3304761904761904,0.0,0.28205128205128205
2.1293192909943173,0.8679120879120878,0.0,0.083003663003663
2.1328733259870205,0.8679120879120878,0.0,0.083003663003663
2.133029947988689,0.8679120879120878,0.0,0.083003663003663
2.1379229909944115,0.8679120879120878,0.0,0.083003663003663
2.1429287499922793,0.8679120879120878,0.0,0.083003663003663
2.147189802999492,0.8679120879120878,0.0,0.083003663003663
2.148662499996135,1.4819780219780219,0.0,0.23208791208791207
2.1529014789994108,3.3,0.0,0.30542124542124544
2.1557799159927526,3.3,0.0,0.30542124542124544
2.1586549799976638,3.3,0.0,0.30542124542124544
2.162262308993377,3.3,0.0,0.30542124542124544
2.162400859990157,3.3,0.0,0.30542124542124544
2.1674148039892316,3.3,0.0,0.30542124542124544
2.172366709986818,3.3,0.0,0.30542124542124544
2.1769843899965053,3.3,0.0,0.30542124542124544
2.17782779999834,2.02996336996337,0.0,0.3795604395604395
2.179495443997439,2.02996336996337,0.0,0.3795604395604395
2.18284537299769,2.02996336996337,0.0,0.3795604395604395
2.183679925990873,2.9309157509157506,0.0,0.6648351648351648
2.185299334989395,2.104102564102564,0.0,0.4851282051282051
2.189084939993336,2.104102564102564,0.0,0.4851282051282051
2.1946200099919224,2.594065934065934,0.0,0.73010989010989
2.196227064996492,2.594065934065934,0.0,0.73010989010989
2.200069248996442,2.4087179487179484,0.0,0.3626373626373626
2.2054477329947986,3.266153846153846,0.0,0.5415384615384615
2.207730874986737,1.8704029304029302,0.0,0.49399267399267394
2.207974936987739,1.8704029304029302,0.0,0.49399267399267394
2.2131736609881045,1.8704029304029302,0.0,0.49399267399267394
2.2165496229863493,1.8704029304029302,0.0,0.49399267399267394
2.2174074919894338,1.8704029304029302,0.0,0.49399267399267394
2.219023739991826,0.9694505494505494,0.0,0.33926739926739924
2.22278596299293,0.9694505494505494,0.0,0.33926739926739924
2.227696924994234,0.9694505494505494,0.0,0.33926739926739924
2.2327541939885123,0.9694505494505494,0.0,0.33926739926739924
2.237028323987033,0.9694505494505494,0.0,0.33926739926739924
2.2386778039945057,0.9694505494505494,0.0,0.33926739926739924
2.2436868329969,1.7237362637362637,0.0,0.3167032967032967
2.2476193199981935,1.3401465201465201,0.0,0.25223443223443226
2.2515492219972657,1.3401465201465201,0.0,0.25223443223443226
2.256196390997502,2.8857875457875455,0.0,0.8332600732600732
2.256400591999409,2.8857875457875455,0.0,0.8332600732600732
2.2610614269942744,2.8857875457875455,0.0,0.8332600732600732
2.2613215839955956,2.8857875457875455,0.0,0.8332600732600732
2.2666120339999907,2.8857875457875455,0.0,0.8332600732600732
2.2698746579990257,3.3,0.0,0.7792673992673992
2.2707669619994704,3.3,0.0,0.7792673992673992
2.272446802991908,3.3,0.0,0.7792673992673992
2.2763170109974453,3.3,0.0,0.7792673992673992
2.280181525988155,0.27318681318681315,0.0,0.5383150183150183
2.284211387988762,0.27318681318681315,0.0,0.5383150183150183
2.288150869993842,2.5908424908424905,0.0,1.7616117216117215
2.292021195986308,2.706886446886447,0.0,0.6116483516483516
2.296105464993161,2.706886446886447,0.0,0.6116483516483516
2.2993313039914938,2.0235164835164836,0.0,0.4287179487179487
2.300964487993042,0.9178754578754579,0.0,0.3763369963369963
2.3040596840000944,0.9178754578754579,0.0,0.3763369963369963
2.3064634809998097,0.9178754578754579,0.0,0.3763369963369963
2.3066313929884927,0.9178754578754579,0.0,0.3763369963369963
2.3121056739910273,0.9178754578754579,0.0,0.3763369963369963
2.312975885986816,0.9178754578754579,0.0,0.3763369963369963
2.3145934019994456,0.9178754578754579,0.0,0.3763369963369963
2.3193739419948542,0.9178754578754579,0.0,0.3763369963369963
2.3249526389990933,0.9178754578754579,0.0,0.3763369963369963
2.3258309479861055,0.9178754578754579,0.0,0.3763369963369963
2.3273801499890396,0.9178754578754579,0.0,0.3763369963369963
2.331555695986026,0.9178754578754579,0.0,0.3763369963369963
2.334427161986241,0.9178754578754579,0.0,0.3763369963369963
2.3373889349895762,0.9178754578754579,0.0,0.3763369963369963
2.3396447059931234,0.9178754578754579,0.0,0.3763369963369963
2.3404486459912732,0.9178754578754579,0.0,0.3763369963369963
2.3426461259950884,0.9178754578754579,0.0,0.3763369963369963
2.343401588994311,0.9178754578754579,0.0,0.3763369963369963
2.3450194019969786,0.9178754578754579,0.0,0.3763369963369963
2.3492446259915596,0.9146520146520146,0.0,0.0693040293040293
2.3513951819913927,3.3,0.0,0.6495238095238095
2.352298003999749,1.9058608058608055,0.0,0.48835164835164835
2.3538113109971164,1.9058608058608055,0.0,0.48835164835164835
2.3580486859864322,1.9058608058608055,0.0,0.48835164835164835
2.359572090994334,1.9058608058608055,0.0,0.48835164835164835
2.3644011029973626,1.9058608058608055,0.0,0.48835164835164835
2.3644897359918104,1.9058608058608055,0.0,0.48835164835164835
2.3694664139911765,1.9058608058608055,0.0,0.48835164835164835
2.374446720990818,1.9058608058608055,0.0,0.48835164835164835
2.3794290859950706,1.9058608058608055,0.0,0.48835164835164835
2.3837749519880163,1.9058608058608055,0.0,0.48835164835164835
2.385895719999098,1.9058608058608055,0.0,0.48835164835164835
2.3873323679872556,1.4610256410256408,0.0,0.2361172161172161
2.391536567985895,1.4610256410256408,0.0,0.2361172161172161
2.394383738996112,2.594065934065934,0.0,1.9364835164835164
2.397879006995936,2.594065934065934,0.0,1.9364835164835164
2.3981844909867505,2.594065934065934,0.0,1.9364835164835164
2.4030781269975705,2.594065934065934,0.0,1.9364835164835164
2.4080158739961917,2.594065934065934,0.0,1.9364835164835164
2.4123369719891343,2.594065934065934,0.0,1.9364835164835164
2.41465360399161,2.594065934065934,0.0,1.9364835164835164
2.4149312359950272,2.594065934065934,0.0,1.9364835164835164
2.4197934289986733,2.594065934065934,0.0,1.9364835164835164
2.4198993339959998,0.8356776556776556,0.0,0.35216117216117215
2.4247947439871496,0.8356776556776556,0.0,0.35216117216117215
2.429690416000085,3.3,0.0,0.7712087912087912
2.429800316996989,3.3,0.0,0.7712087912087912
2.4346750989934662,3.3,0.0,0.7712087912087912
2.4347601199988276,3.3,0.0,0.7712087912087912
2.439567822992103,3.3,0.0,0.7712087912087912
2.4396910409996053,3.3,0.0,0.7712087912087912
2.4446115759928944,3.3,0.0,0.7712087912087912
2.449533196995617,3.3,0.0,0.7712087912087912
2.455028415992274,3.3,0.0,0.7712087912087912
2.456720553993364,3.3,0.0,0.7712087912087912
2.4604644409992034,3.3,0.0,0.7712087912087912
2.4653947349870577,3.3,0.0,0.7712087912087912
2.4704144969873596,1.456190476190476,0.0,0.2482051282051282
2.4746172339946497,1.7414652014652015,0.0,0.2345054945054945
2.4775108349858783,1.991282051282051,0.0,0.5818315018315018
2.4806404299888527,1.991282051282051,0.0,0.5818315018315018
2.483057907986222,1.991282051282051,0.0,0.5818315018315018
2.488494436998735,1.991282051282051,0.0,0.5818315018315018
2.49092997299158,1.991282051282051,0.0,0.5818315018315018
2.491055485996185,1.991282051282051,0.0,0.5818315018315018
2.4964657129894476,1.991282051282051,0.0,0.5818315018315018
2.4982361039874377,1.991282051282051,0.0,0.5818315018315018
2.501284828991629,1.991282051282051,0.0,0.5818315018315018
2.503762069987715,3.3,0.0,0.7728205128205128
2.5039058969996404,3.3,0.0,0.7728205128205128
2.509321136996732,3.3,0.0,0.7728205128205128
2.5109191139927134,1.0306959706959706,0.0,0.03948717948717949
2.5153988169913646,1.0306959706959706,0.0,0.03948717948717949
2.516324888987583,2.5908424908424905,0.0,1.7156776556776556
2.517233689999557,2.5908424908424905,0.0,1.7156776556776556
2.518831916997442,2.5908424908424905,0.0,1.7156776556776556
2.5233328719914425,2.5908424908424905,0.0,1.7156776556776556
2.52419624599861,2.5908424908424905,0.0,1.7156776556776556
2.525780063995626,2.5908424908424905,0.0,1.7156776556776556
2.529598282999359,2.5908424908424905,0.0,1.7156776556776556
2.534145120996982,2.5908424908424905,0.0,1.7156776556776556
2.5343620099883992,2.5908424908424905,0.0,1.7156776556776556
2.5399206999863964,2.5908424908424905,0.0,1.7156776556776556
2.5416151989920763,2.5908424908424905,0.0,1.7156776556776556
2.544725452986313,2.5908424908424905,0.0,1.7156776556776556
2.5477900650002994,2.5908424908424905,0.0,1.7156776556776556
2.5501282259938307,0.7776556776556776,0.0,0.033846153846153845
2.550222510995809,0.7776556776556776,0.0,0.033846153846153845
2.555630820992519,0.7776556776556776,0.0,0.033846153846153845
2.557187977989088,0.7776556776556776,0.0,0.033846153846153845
2.5609660879999865,0.7776556776556776,0.0,0.033846153846153845
2.5654619049892062,0.7776556776556776,0.0,0.033846153846153845
2.5657301639876096,0.7776556776556776,0.0,0.033846153846153845
2.571072672988521,0.7776556776556776,0.0,0.033846153846153845
2.5725617079879157,0.7776556776556776,0.0,0.033846153846153845
2.5768155879923142,0.7776556776556776,0.0,0.033846153846153845
2.578326853996259,0.7776556776556776,0.0,0.033846153846153845
2.5838390959979733,0.7776556776556776,0.0,0.033846153846153845
2.584741523998673,3.3,0.0,0.7607326007326007
2.5856608739995863,3.3,0.0,0.7607326007326007
2.5873034639953403,3.3,0.0,0.7607326007326007
2.5911511099984637,3.3,0.0,0.7607326007326007
2.59585793298902,3.3,0.0,0.7607326007326007
2.596035918992129,3.3,0.0,0.7607326007326007
2.6014245139958803,3.3,0.0,0.7607326007326007
2.6032748319994425,2.5876190476190475,0.0,1.767252747252747
2.6063520219904603,2.5876190476190475,0.0,1.767252747252747
2.608682540987502,1.008131868131868,0.0,0.06205128205128205
2.6089098869997542,1.008131868131868,0.0,0.06205128205128205
2.6145467599999392,1.008131868131868,0.0,0.06205128205128205
2.614791221989435,1.008131868131868,0.0,0.06205128205128205
2.62050444399938,1.008131868131868,0.0,0.06205128205128205
2.6206338399933884,2.054139194139194,0.0,0.28769230769230764
2.6259979879978346,2.054139194139194,0.0,0.28769230769230764
2.628340549999848,2.054139194139194,0.0,0.28769230769230764
2.628470486990409,3.3,0.0,0.6680586080586081
2.633860529997037,3.3,0.0,0.6680586080586081
2.636182138987351,2.594065934065934,0.0,1.6052747252747253
2.6363952449901262,2.2556043956043954,0.0,0.4021245421245421
2.6417045279958984,2.2556043956043954,0.0,0.4021245421245421
2.6441671489883447,1.4545787545787545,0.0,0.28124542124542123
2.6442905299918493,1.4545787545787545,0.0,0.28124542124542123
2.649688632998732,1.4545787545787545,0.0,0.28124542124542123
2.651276106989826,1.0016849816849815,0.0,0.06769230769230769
2.6550537899893243,1.0016849816849815,0.0,0.06769230769230769
2.6595610129879788,1.0016849816849815,0.0,0.06769230769230769
2.660403984991717,1.5754578754578754,0.0,0.2804395604395604
2.6620247829996515,1.5754578754578754,0.0,0.2804395604395604
2.666533374998835,3.3,0.0,1.157216117216117
2.6674107579892734,3.3,0.0,1.157216117216117
2.669064490997698,3.3,0.0,1.157216117216117
2.672903538987157,3.3,0.0,1.157216117216117
2.678200169990305,3.3,0.0,1.157216117216117
2.681254600000102,3.3,0.0,1.157216117216117
2.684247116994811,2.5908424908424905,0.0,1.701978021978022
2.6866160739882616,2.5908424908424905,0.0,1.701978021978022
2.686938280996401,2.5908424908424905,0.0,1.701978021978022
2.692232219997095,2.5908424908424905,0.0,1.701978021978022
2.6951915939862374,2.5908424908424905,0.0,1.701978021978022
2.6982818549877265,2.5908424908424905,0.0,1.701978021978022
2.700596326991217,2.5908424908424905,0.0,1.701978021978022
2.7014143969863653,2.5908424908424905,0.0,1.701978021978022
2.7030505199945765,2.5908424908424905,0.0,1.701978021978022
2.70763886498753,2.5908424908424905,0.0,1.701978021978022
2.707910848999745,2.5908424908424905,0.0,1.701978021978022
2.7140492420003284,2.5908424908424905,0.0,1.701978021978022
2.7184718609933043,1.3272527472527473,0.0,0.506080586080586
2.7200569699925836,1.3272527472527473,0.0,0.506080586080586
2.723787724986323,1.3272527472527473,0.0,0.506080586080586
2.7291449649928836,1.3272527472527473,0.0,0.506080586080586
2.7321412729943404,1.3272527472527473,0.0,0.506080586080586
2.7337805119896075,1.3272527472527473,0.0,0.506080586080586
2.737605813992559,1.3272527472527473,0.0,0.506080586080586
2.7429914949898375,1.3272527472527473,0.0,0.506080586080586
2.744618699987768,1.3272527472527473,0.0,0.506080586080586
2.7491358679981204,1.3272527472527473,0.0,0.506080586080586
2.7494207699928666,1.3272527472527473,0.0,0.506080586080586
2.754784402990481,3.3,0.0,0.2635164835164835
2.7571663899871055,3.3,0.0,0.2635164835164835
2.757292496986338,3.3,0.0,0.2635164835164835
2.7666546999971615,3.3,0.0,0.2635164835164835
2.7704629999934696,2.5876190476190475,0.0,1.7277655677655677
2.774935821988038,3.3,0.0,1.1894505494505494
2.7758360099978745,3.3,0.0,1.1894505494505494
2.777487104991451,3.3,0.0,1.1894505494505494
2.7819129579875153,3.3,0.0,1.1894505494505494
2.782835300997249,3.3,0.0,1.1894505494505494
2.7844555269984994,3.3,0.0,1.1894505494505494
2.789016148992232,3.3,0.0,1.1894505494505494
2.7899211819894845,3.3,0.0,1.1894505494505494
2.7915120639954694,3.3,0.0,1.1894505494505494
2.7959619859902887,3.3,0.0,1.1894505494505494
2.796832727995934,3.3,0.0,1.1894505494505494
2.7984527639928274,3.3,0.0,1.1894505494505494
2.802988238996477,3.3,0.0,1.1894505494505494
2.803839322994463,3.3,0.0,1.1894505494505494
2.8054735739860917,3.3,0.0,1.1894505494505494
2.8100136929861037,3.3,0.0,1.1894505494505494
2.8109123159956653,3.3,0.0,1.1894505494505494
2.8118791629967745,3.3,0.0,1.1894505494505494
2.8135873279970838,3.3,0.0,1.1894505494505494
2.8183178629988106,3.3,0.0,1.1894505494505494
2.8296249939885456,3.3,0.0,1.1894505494505494
2.838654993000091,3.3,0.0,1.1894505494505494
2.846463136986131,3.2468131868131866,0.0,0.36827838827838827
2.8537312789994758,3.2468131868131866,0.0,0.36827838827838827
2.8596077389956918,3.2468131868131866,0.0,0.36827838827838827
2.8670403639989672,1.2724542124542124,0.0,0.25223443223443226
2.8710553129931213,1.2724542124542124,0.0,0.25223443223443226
2.8748549219890265,1.2724542124542124,0.0,0.25223443223443226
2.8837693779933034,1.2724542124542124,0.0,0.25223443223443226
2.8883490259904647,1.2724542124542124,0.0,0.25223443223443226
2.888468846998876,3.3,0.0,0.6334065934065934
2.893782867991831,3.3,0.0,0.6334065934065934
2.897474659999716,3.3,0.0,0.6334065934065934
2.9030605429870775,3.3,0.0,0.6334065934065934
2.9039029329869663,3.3,0.0,0.6334065934065934
2.9055736159934895,3.3,0.0,0.6334065934065934
2.9100512619916117,3.3,0.0,0.6334065934065934
2.9102608599932864,2.589230769230769,0.0,0.751062271062271
2.9161058839963516,2.589230769230769,0.0,0.751062271062271
2.921800695999991,2.589230769230769,0.0,0.751062271062271
2.922777177998796,2.589230769230769,0.0,0.751062271062271
2.923920550994808,2.589230769230769,0.0,0.751062271062271
2.9241651310003363,2.589230769230769,0.0,0.751062271062271
2.9288356699980795,2.589230769230769,0.0,0.751062271062271
2.929029561986681,2.589230769230769,0.0,0.751062271062271
2.9354824729962274,2.589230769230769,0.0,0.751062271062271
2.9392353289877065,2.589230769230769,0.0,0.751062271062271
2.944768570989254,2.589230769230769,0.0,0.751062271062271
2.945833126999787,2.589230769230769,0.0,0.751062271062271
2.9469538739940617,1.2418315018315018,0.0,0.10395604395604395
2.9471867749962257,1.2418315018315018,0.0,0.10395604395604395
2.954244389999076,1.2418315018315018,0.0,0.10395604395604395
2.9580861429858487,1.2418315018315018,0.0,0.10395604395604395
2.9631352159922244,1.2418315018315018,0.0,0.10395604395604395
2.9680174629902467,1.2418315018315018,0.0,0.10395604395604395
2.9724520909949206,1.8623443223443221,0.0,0.35619047619047617
2.973384686993086,1.8623443223443221,0.0,0.35619047619047617
2.974941171996761,1.8623443223443221,0.0,0.35619047619047617
2.980637452987139,1.8623443223443221,0.0,0.35619047619047617
2.980812341993442,1.8623443223443221,0.0,0.35619047619047617
2.986177703991416,1.8623443223443221,0.0,0.35619047619047617
2.987790095998207,1.8623443223443221,0.0,0.35619047619047617
2.9916812849987764,1.8623443223443221,0.0,0.35619047619047617
2.99558722198708,1.8623443223443221,0.0,0.35619047619047617
3.003316561997053,1.8623443223443221,0.0,0.35619047619047617
3.00739272798819,1.8623443223443221,0.0,0.35619047619047617
3.0110948139918037,1.8623443223443221,0.0,0.35619047619047617
3.0176968409941765,1.8623443223443221,0.0,0.35619047619047617
3.021429778993479,1.8623443223443221,0.0,0.35619047619047617
3.0259520829858957,1.8623443223443221,0.0,0.35619047619047617
3.0268229829962365,1.8623443223443221,0.0,0.35619047619047617
3.028835047996836,1.8623443223443221,0.0,0.35619047619047617
3.029948091992992,1.8623443223443221,0.0,0.35619047619047617
3.0316775369865354,1.8623443223443221,0.0,0.35619047619047617
3.0338018879992887,1.8623443223443221,0.0,0.35619047619047617
3.0347324599861167,1.8623443223443221,0.0,0.35619047619047617
3.036378616990987,1.8623443223443221,0.0,0.35619047619047617
3.0405179879890056,1.8623443223443221,0.0,0.35619047619047617
3.0428248909884132,1.8623443223443221,0.0,0.35619047619047617
3.0430291279917583,1.8623443223443221,0.0,0.35619047619047617
3.053833633995964,1.967106227106227,0.0,0.39003663003663
3.059254729989334,1.967106227106227,0.0,0.39003663003663
3.0601016169966897,1.967106227106227,0.0,0.39003663003663
3.0619730569887906,1.967106227106227,0.0,0.39003663003663
3.065010005986551,1.967106227106227,0.0,0.39003663003663
3.067535827998654,1.967106227106227,0.0,0.39003663003663
3.0728513219946763,1.967106227106227,0.0,0.39003663003663
3.0751920099864947,1.967106227106227,0.0,0.39003663003663
3.075412492995383,1.967106227106227,0.0,0.39003663003663
3.0818656439951155,1.967106227106227,0.0,0.39003663003663
3.085541744992952,1.967106227106227,0.0,0.39003663003663
3.09098606898624,1.967106227106227,0.0,0.39003663003663
3.0927159459970426,1.967106227106227,0.0,0.39003663003663
3.0991242629970657,1.967106227106227,0.0,0.39003663003663
3.1023920469888253,1.967106227106227,0.0,0.39003663003663
3.103323838993674,1.1676923076923076,0.0,0.25465201465201465
3.105176206998294,1.1676923076923076,0.0,0.25465201465201465
3.106856621991028,1.1676923076923076,0.0,0.25465201465201465
3.111813888986944,1.1676923076923076,0.0,0.25465201465201465
3.117898336990038,1.1676923076923076,0.0,0.25465201465201465
3.121793287995388,1.1676923076923076,0.0,0.25465201465201465
3.1262547809892567,1.1676923076923076,0.0,0.25465201465201465
3.1265817919920664,1.1676923076923076,0.0,0.25465201465201465
3.133052183999098,1.1676923076923076,0.0,0.25465201465201465
3.137075045990059,1.1676923076923076,0.0,0.25465201465201465
3.140822023997316,1.1676923076923076,0.0,0.25465201465201465
3.1464821199915605,1.1676923076923076,0.0,0.25465201465201465
3.1467252259899396,1.1676923076923076,0.0,0.25465201465201465
3.1515907019929728,1.1676923076923076,0.0,0.25465201465201465
3.156832486987696,1.1676923076923076,0.0,0.25465201465201465
3.1598171449877555,1.83010989010989,0.0,0.4198534798534798
3.163602328990237,1.83010989010989,0.0,0.4198534798534798
3.1685320159886032,1.83010989010989,0.0,0.4198534798534798
3.173359779990278,1.83010989010989,0.0,0.4198534798534798
3.1779249149985844,1.83010989010989,0.0,0.4198534798534798
3.179222619990469,1.83010989010989,0.0,0.4198534798534798
3.185130224999739,1.83010989010989,0.0,0.4198534798534798
3.1904522289987653,1.83010989010989,0.0,0.4198534798534798
3.193431106992648,1.83010989010989,0.0,0.4198534798534798
3.1962828439864097,1.83010989010989,0.0,0.4198534798534798
3.200759941988508,2.133113553113553,0.0,0.4021245421245421
3.2010387599875685,0.8453479853479853,0.0,0.49802197802197795
3.2065426459885202,0.8453479853479853,0.0,0.49802197802197795
3.207436839991715,3.00989010989011,0.0,0.6728937728937728
3.209066814990365,3.00989010989011,0.0,0.6728937728937728
3.2136030979891075,3.00989010989011,0.0,0.6728937728937728
3.213918305991683,1.0854945054945053,0.0,0.6422710622710622
3.2187715329928324,1.0854945054945053,0.0,0.6422710622710622
3.224168020999059,1.0854945054945053,0.0,0.6422710622710622
3.2266522029967746,1.0854945054945053,0.0,0.6422710622710622
3.2366182129917433,1.0854945054945053,0.0,0.6422710622710622
3.2430011539981933,1.0854945054945053,0.0,0.6422710622710622
3.2502147699997295,2.6230769230769226,0.0,1.5730402930402931
3.2555522359907627,0.7776556776556776,0.0,0.16358974358974357
3.2566923939884873,0.7776556776556776,0.0,0.16358974358974357
3.2569138599938015,0.7776556776556776,0.0,0.16358974358974357
3.2629044399945997,0.7776556776556776,0.0,0.16358974358974357
3.268549794986029,0.7776556776556776,0.0,0.16358974358974357
3.2739686779968906,3.3,0.0,0.17245421245421244
3.276277619996108,1.5045421245421244,0.0,0.3078388278388278
3.2764471799891908,1.5045421245421244,0.0,0.3078388278388278
3.285914726991905,1.5045421245421244,0.0,0.3078388278388278
3.2907896179967793,3.1356043956043953,0.0,0.5890842490842491
3.2985383339982945,3.1356043956043953,0.0,0.5890842490842491
3.303432206987054,3.1356043956043953,0.0,0.5890842490842491
3.307296923987451,2.594065934065934,0.0,1.2877655677655677
3.3148732720001135,2.594065934065934,0.0,1.2877655677655677
3.319597571986378,2.594065934065934,0.0,1.2877655677655677
3.3197089639870683,2.594065934065934,0.0,1.2877655677655677
3.325187273992924,2.594065934065934,0.0,1.2877655677655677
3.3261241639993386,2.594065934065934,0.0,1.2877655677655677
3.3278609639964998,2.594065934065934,0.0,1.2877655677655677
3.332632780991844,2.594065934065934,0.0,1.2877655677655677
3.336890514998231,3.3,0.0,0.18857142857142856
3.338628665995202,1.7189010989010989,0.0,0.4279120879120879
3.342712017998565,1.108058608058608,0.0,0.3690842490842491
3.345336482991115,0.9936263736263735,0.0,0.21838827838827837
3.353927329997532,0.9936263736263735,0.0,0.21838827838827837
3.358320223996998,0.9936263736263735,0.0,0.21838827838827837
3.358652433991665,0.9936263736263735,0.0,0.21838827838827837
3.365650295992964,0.9936263736263735,0.0,0.21838827838827837
3.3707765849976568,2.1476190476190475,0.0,0.5673260073260072
3.375488471996505,2.1476190476190475,0.0,0.5673260073260072
3.3844939859991428,1.5174358974358972,0.0,0.5439560439560439
3.3919152159942314,1.5174358974358972,0.0,0.5439560439560439
3.3995983819913818,1.5174358974358972,0.0,0.5439560439560439
3.4070674059912562,1.5174358974358972,0.0,0.5439560439560439
3.4144442489923676,1.5174358974358972,0.0,0.5439560439560439
3.4179907149955397,2.5956776556776555,0.0,1.7680586080586078
3.4235598989907885,2.5956776556776555,0.0,1.7680586080586078
3.4260157619864913,2.5956776556776555,0.0,1.7680586080586078
3.436987681998289,2.5956776556776555,0.0,1.7680586080586078
3.442647912990651,2.437728937728938,0.0,0.38036630036630037
3.4447379719931632,2.437728937728938,0.0,0.38036630036630037
3.4463410009921063,1.373992673992674,0.0,0.16117216117216115
3.4506732979934895,1.373992673992674,0.0,0.16117216117216115
3.450998749991413,3.154945054945055,0.0,0.6680586080586081
3.4564059499971336,3.154945054945055,0.0,0.6680586080586081
3.4582571359933354,0.0846153846153846,0.0,0.5536263736263736
3.460933688998921,0.0846153846153846,0.0,0.5536263736263736
3.4667965679982444,0.0846153846153846,0.0,0.5536263736263736
3.4726147559995297,0.0846153846153846,0.0,0.5536263736263736
3.472794140994665,0.0846153846153846,0.0,0.5536263736263736
3.479163512995001,0.0846153846153846,0.0,0.5536263736263736
3.4833944759884616,1.211208791208791,0.0,0.3384615384615384
3.485027441987768,1.211208791208791,0.0,0.3384615384615384
3.488724523995188,1.211208791208791,0.0,0.3384615384615384
3.488841642989428,1.211208791208791,0.0,0.3384615384615384
3.494162895993213,3.1194871794871792,0.0,0.23934065934065935
3.496969582993188,3.1194871794871792,0.0,0.23934065934065935
3.5020152469951427,3.1194871794871792,0.0,0.23934065934065935
3.5043350439955248,3.1194871794871792,0.0,0.23934065934065935
3.5046144049993018,3.1194871794871792,0.0,0.23934065934065935
3.509340517994133,3.1194871794871792,0.0,0.23934065934065935
3.509484423993854,1.1725274725274726,0.0,0.2224175824175824
3.517489420992206,1.1725274725274726,0.0,0.2224175824175824
3.522069263999583,1.1725274725274726,0.0,0.2224175824175824
3.522357360998285,1.1725274725274726,0.0,0.2224175824175824
3.52978691298631,1.1725274725274726,0.0,0.2224175824175824
3.5340825769962976,1.1725274725274726,0.0,0.2224175824175824
3.5350444659998175,2.5924542124542125,0.0,1.9945054945054943
3.5366574569925433,2.5924542124542125,0.0,1.9945054945054943
3.5412077969958773,2.5924542124542125,0.0,1.9945054945054943
3.5422065379971173,0.9758974358974358,0.0,0.22564102564102564
3.543381812996813,0.9758974358974358,0.0,0.22564102564102564
3.5519821329944534,0.9758974358974358,0.0,0.22564102564102564
3.5579936169961,2.594065934065934,0.0,0.7043223443223443
3.5669141759863123,2.2169230769230768,0.0,0.35619047619047617
3.5716473039938137,2.2169230769230768,0.0,0.35619047619047617
3.5717586939863395,2.8068131868131867,0.0,0.2095238095238095
3.5776107819983736,2.8068131868131867,0.0,0.2095238095238095
3.5881805639946833,2.8068131868131867,0.0,0.2095238095238095
3.597314049999113,2.8068131868131867,0.0,0.2095238095238095
3.602564650995191,3.3,0.0,1.668131868131868
3.6048381779983174,3.3,0.0,1.668131868131868
3.6050034599902574,3.3,0.0,1.668131868131868
3.610228580990224,3.3,0.0,1.668131868131868
3.6148903359862743,3.3,0.0,1.668131868131868
3.615063544988516,3.3,0.0,1.668131868131868
3.6199582949921023,3.3,0.0,1.668131868131868
3.6256252089951886,3.3,0.0,1.668131868131868
3.62646707399108,3.3,0.0,1.668131868131868
3.6287900889874436,3.3,0.0,1.668131868131868
3.6290747159946477,3.3,0.0,1.668131868131868
3.634589279987267,3.146886446886447,0.0,0.2328937728937729
3.635468733991729,3.146886446886447,0.0,0.2328937728937729
3.637144394990173,3.146886446886447,0.0,0.2328937728937729
3.6402497999952175,3.146886446886447,0.0,0.2328937728937729
3.6425685419962974,1.581904761904762,0.0,0.1265201465201465
3.642960282988497,1.581904761904762,0.0,0.1265201465201465
3.6496838049934013,1.581904761904762,0.0,0.1265201465201465
3.6550357329979306,1.581904761904762,0.0,0.1265201465201465
3.655309784997371,2.461904761904762,0.0,0.4528937728937729
3.6629602889879607,2.461904761904762,0.0,0.4528937728937729
3.670190877994173,2.461904761904762,0.0,0.4528937728937729
3.674122014999739,2.461904761904762,0.0,0.4528937728937729
3.6808857249998255,2.461904761904762,0.0,0.4528937728937729
3.6862924649904016,2.461904761904762,0.0,0.4528937728937729
3.686500238996814,2.461904761904762,0.0,0.4528937728937729
3.6919135819916846,2.461904761904762,0.0,0.4528937728937729
3.694677358987974,2.594065934065934,0.0,1.8164102564102564
3.7001339999987977,2.594065934065934,0.0,1.8164102564102564
3.700303798992536,2.594065934065934,0.0,1.8164102564102564
3.706198203988606,2.594065934065934,0.0,1.8164102564102564
3.7112267749907915,2.594065934065934,0.0,1.8164102564102564
3.717453483986901,2.594065934065934,0.0,1.8164102564102564
3.7228700909909094,2.594065934065934,0.0,1.8164102564102564
3.724548223995953,2.594065934065934,0.0,1.8164102564102564
3.728782528996817,2.594065934065934,0.0,1.8164102564102564
3.7318396949995076,0.8163369963369963,0.0,0.025787545787545788
3.7345827469980577,0.8163369963369963,0.0,0.025787545787545788
3.7387580539943883,0.8163369963369963,0.0,0.025787545787545788
3.7402872129896423,1.1596336996336996,0.0,0.5334798534798535
3.7469384459982393,1.706007326007326,0.0,0.3223443223443223
3.7536078649864066,1.706007326007326,0.0,0.3223443223443223
3.7590578729868867,3.3,0.0,0.4351648351648352
3.7592555159935728,3.3,0.0,0.4351648351648352
3.768836838993593,3.3,0.0,0.4351648351648352
3.778910408000229,3.3,0.0,0.4351648351648352
3.7853351829980966,3.3,0.0,0.4351648351648352
3.789477303987951,3.3,0.0,0.4351648351648352
3.792826917997445,3.3,0.0,0.5673260073260072
3.793130961988936,3.3,0.0,0.5673260073260072
3.8011796519858763,3.3,0.0,0.5673260073260072
3.8060351239982992,2.1911355311355307,0.0,0.3336263736263736
3.815805084988824,2.1911355311355307,0.0,0.3336263736263736
3.8213840769894887,2.1911355311355307,0.0,0.3336263736263736
3.8222496469970793,2.1008791208791204,0.0,0.3167032967032967
3.8237746609956957,2.1008791208791204,0.0,0.3167032967032967
3.829136064989143,2.1008791208791204,0.0,0.3167032967032967
3.8323651929968037,2.1008791208791204,0.0,0.3167032967032967
3.8327517889993032,2.1008791208791204,0.0,0.3167032967032967
3.838138397986768,2.1008791208791204,0.0,0.3167032967032967
3.8391810929897474,2.1008791208791204,0.0,0.3167032967032967
3.840188172995113,2.1008791208791204,0.0,0.3167032967032967
3.841023035987746,2.1008791208791204,0.0,0.3167032967032967
3.8426497869950254,2.1008791208791204,0.0,0.3167032967032967
3.8490759749984136,2.6682051282051282,0.0,0.5866666666666667
3.8524835769931087,2.6682051282051282,0.0,0.5866666666666667
3.8526578929886455,3.1646153846153844,0.0,0.21274725274725276
3.857883533986751,3.1646153846153844,0.0,0.21274725274725276
3.8618336469953647,1.950989010989011,0.0,0.45692307692307693
3.8668563259998336,1.950989010989011,0.0,0.45692307692307693
3.871142677991884,1.950989010989011,0.0,0.45692307692307693
3.8714590889867395,1.950989010989011,0.0,0.45692307692307693
3.8763368039944908,1.950989010989011,0.0,0.45692307692307693
3.8853042799892137,1.950989010989011,0.0,0.45692307692307693
3.8908575469977222,0.8195604395604396,0.0,0.02095238095238095
3.8925995499885175,0.8195604395604396,0.0,0.02095238095238095
3.898100069985958,0.8195604395604396,0.0,0.02095238095238095
3.898242539988132,2.339413919413919,0.0,1.0605128205128205
3.903276831988478,2.339413919413919,0.0,1.0605128205128205
3.907051687987405,2.339413919413919,0.0,1.0605128205128205
3.913423524994869,2.339413919413919,0.0,1.0605128205128205
3.917635646997951,2.339413919413919,0.0,1.0605128205128205
3.9200245989923133,1.6898901098901096,0.0,0.42630036630036633
3.920139001987991,1.8897435897435895,0.0,0.3199267399267399
3.925460097991163,1.8897435897435895,0.0,0.3199267399267399
3.9284467849938665,1.8897435897435895,0.0,0.3199267399267399
3.9315940019878326,3.1694505494505494,0.0,0.622124542124542
3.9338877249974757,3.3,0.0,0.1692307692307692
3.9340194249962224,3.3,0.0,0.1692307692307692
3.9394664529972943,3.3,0.0,0.1692307692307692
3.9417212559928885,3.3,0.0,0.1692307692307692
3.941986852994887,3.3,0.0,0.1692307692307692
3.9505996999942,3.3,0.0,0.1692307692307692
3.9554191369970795,3.3,0.0,0.1692307692307692
3.96095614299702,3.3,0.0,0.1692307692307692
3.9645724829897517,3.3,0.0,0.1692307692307692
3.9686680319864536,3.3,0.0,0.1692307692307692
3.971750286000315,2.324908424908425,0.0,0.48754578754578753
3.974011410988169,3.3,0.0,0.23853479853479853
3.9742746829870157,3.3,0.0,0.23853479853479853
3.98019534299965,2.1089377289377285,0.0,0.5778021978021978
3.9890360919962404,2.1089377289377285,0.0,0.5778021978021978
3.9963024069875246,1.8123809523809524,0.0,0.4279120879120879
4.000631237999187,1.8123809523809524,0.0,0.4279120879120879
4.002240057991003,1.8123809523809524,0.0,0.4279120879120879
4.0069044699921506,1.8123809523809524,0.0,0.4279120879120879
4.0070725419936934,0.9726739926739927,0.0,0.11443223443223444
4.01549454999622,0.9726739926739927,0.0,0.11443223443223444
4.019612705000327,0.9726739926739927,0.0,0.11443223443223444
4.022048382990761,0.9726739926739927,0.0,0.11443223443223444
4.022196738995262,0.9726739926739927,0.0,0.11443223443223444
4.027729580993764,0.9726739926739927,0.0,0.11443223443223444
4.0296718739991775,1.7720879120879118,0.0,0.4786813186813187
4.029976027988596,1.7720879120879118,0.0,0.4786813186813187
4.036352538998472,1.7720879120879118,0.0,0.4786813186813187
4.040321033986402,1.7720879120879118,0.0,0.4786813186813187
4.045365782993031,1.7720879120879118,0.0,0.4786813186813187
4.051524748996599,1.7720879120879118,0.0,0.4786813186813187
4.055493399995612,1.7720879120879118,0.0,0.4786813186813187
4.0600157789886,1.7720879120879118,0.0,0.4786813186813187
4.060352720989613,1.7720879120879118,0.0,0.4786813186813187
4.067425659988658,1.7720879120879118,0.0,0.4786813186813187
4.071478073994513,1.7720879120879118,0.0,0.4786813186813187
4.074728677995154,2.3539194139194137,0.0,0.21355311355311357
4.075628052989487,2.3539194139194137,0.0,0.21355311355311357
4.07970384399232,2.3539194139194137,0.0,0.21355311355311357
4.08101656899089,2.3539194139194137,0.0,0.21355311355311357
4.081151618986041,2.3539194139194137,0.0,0.21355311355311357
4.086561505988357,2.3539194139194137,0.0,0.21355311355311357
4.088156536992756,2.3539194139194137,0.0,0.21355311355311357
4.091989676991943,3.1178754578754577,0.0,0.6680586080586081
4.100594976989669,3.1178754578754577,0.0,0.6680586080586081
4.106306088986457,3.1178754578754577,0.0,0.6680586080586081
4.1132620819989825,3.274212454212454,0.0,0.7478388278388278
4.119228247989668,3.3,0.0,0.22805860805860806
4.12299922699458,1.9026373626373623,0.0,0.4029304029304029
4.128568499989342,2.281391941391941,0.0,0.2506227106227106
4.131571843987331,3.3,0.0,0.5657142857142857
4.131893250989378,3.3,0.0,0.5657142857142857
4.140623949992005,3.3,0.0,0.5657142857142857
4.147750694988645,3.3,0.0,0.5657142857142857
4.152529995990335,3.3,0.0,0.5657142857142857
4.15766854499816,3.3,0.0,0.7849084249084248
4.162476435987628,3.3,0.0,0.7849084249084248
4.169917799998075,3.3,0.0,0.7849084249084248
4.174493115991936,2.1975824175824172,0.0,0.41340659340659336
4.175365240997053,1.54,0.0,0.473040293040293
4.17693139599578,2.2169230769230768,0.0,0.7454212454212454
4.184147773994482,2.2169230769230768,0.0,0.7454212454212454
4.188024546994711,2.2169230769230768,0.0,0.7454212454212454
4.192858363996493,2.5908424908424905,0.0,0.73010989010989
4.200611511987518,2.5908424908424905,0.0,0.73010989010989
4.205192821988021,2.083150183150183,0.0,0.3795604395604395
4.205390577990329,2.083150183150183,0.0,0.3795604395604395
4.211026229997515,2.083150183150183,0.0,0.3795604395604395
4.212588187991059,2.083150183150183,0.0,0.3795604395604395
4.217264908991638,2.083150183150183,0.0,0.3795604395604395
4.222690884998883,2.083150183150183,0.0,0.3795604395604395
4.22361723499489,1.5802930402930402,0.0,0.32073260073260074
4.224513820998254,1.5802930402930402,0.0,0.32073260073260074
4.226179984994815,1.5802930402930402,0.0,0.32073260073260074
4.231623191997642,1.5802930402930402,0.0,0.32073260073260074
4.232810226996662,1.5802930402930402,0.0,0.32073260073260074
4.233033148993854,1.5802930402930402,0.0,0.32073260073260074
4.237836166998022,0.0975091575091575,0.0,0.5624908424908425
4.237950961993192,0.0975091575091575,0.0,0.5624908424908425
4.24316443198768,0.0975091575091575,0.0,0.5624908424908425
4.248448913000175,2.349084249084249,0.0,0.46417582417582415
4.249418338993564,2.41032967032967,0.0,0.5600732600732601
4.249746279994724,2.41032967032967,0.0,0.5600732600732601
4.255240254991804,2.41032967032967,0.0,0.5600732600732601
4.256139941993752,2.41032967032967,0.0,0.5600732600732601
4.2577418589935405,2.41032967032967,0.0,0.5600732600732601
4.2625900079874555,2.41032967032967,0.0,0.5600732600732601
4.269304470988573,3.3,0.0,0.8582417582417583
4.273080005994416,3.3,0.0,0.6454945054945055
4.280103397992207,3.3,0.0,0.6454945054945055
4.285241046993178,1.4739194139194138,0.0,0.3441025641025641
4.287805451996974,2.9776556776556777,0.0,0.6471062271062271
4.298149917987757,0.8727472527472527,0.0,0.04915750915750916
4.304005965997931,0.8727472527472527,0.0,0.04915750915750916
4.308628654995118,0.8727472527472527,0.0,0.04915750915750916
4.308828787994571,0.8727472527472527,0.0,0.04915750915750916
4.317860508992453,0.8727472527472527,0.0,0.04915750915750916
4.323662143986439,0.8727472527472527,0.0,0.04915750915750916
4.333495430997573,1.664102564102564,0.0,0.3295970695970696
4.339200463989982,1.664102564102564,0.0,0.3295970695970696
4.339304515990079,1.664102564102564,0.0,0.3295970695970696
4.347229699997115,1.664102564102564,0.0,0.3295970695970696
4.354014754993841,1.1596336996336996,0.0,0.1249084249084249
4.359629356986261,3.3,0.0,0.5769963369963369
4.367685326986248,3.3,0.0,0.5769963369963369
4.375499381989357,3.3,0.0,0.5769963369963369
4.383340517990291,2.9486446886446886,0.0,0.8840293040293039
4.389398580999114,2.9486446886446886,0.0,0.8840293040293039
4.3963738799939165,2.9486446886446886,0.0,0.8840293040293039
4.400264605996199,2.9486446886446886,0.0,0.8840293040293039
4.403534088996821,1.5383882783882783,0.0,0.3618315018315018
4.405604127998231,1.5383882783882783,0.0,0.3618315018315018
4.406524169986369,1.5383882783882783,0.0,0.3618315018315018
4.408846622987767,1.5383882783882783,0.0,0.3618315018315018
4.409109746993636,3.3,0.0,0.7244688644688644
4.415449533000356,3.3,0.0,0.7244688644688644
4.418927032995271,3.3,0.0,0.7244688644688644
4.419093190997955,3.3,0.0,0.7244688644688644
4.424480839996249,3.3,0.0,0.7244688644688644
4.426849086987204,1.228937728937729,0.0,0.30139194139194136
4.427148953996948,1.228937728937729,0.0,0.30139194139194136
4.435756210994441,1.228937728937729,0.0,0.30139194139194136
4.4429931989870965,2.826153846153846,0.0,0.22725274725274724
4.449419418990146,2.826153846153846,0.0,0.22725274725274724
4.455106051987968,2.826153846153846,0.0,0.22725274725274724
4.465784485990298,2.826153846153846,0.0,0.22725274725274724
4.47290608799085,2.826153846153846,0.0,0.22725274725274724
4.480453329990269,2.826153846153846,0.0,0.22725274725274724
4.484422683992307,2.826153846153846,0.0,0.22725274725274724
4.487540630987496,2.826153846153846,0.0,0.22725274725274724
4.490548842994031,0.6841758241758242,0.0,0.01531135531135531
4.492902392987162,0.6841758241758242,0.0,0.01531135531135531
4.493223789992044,0.6841758241758242,0.0,0.01531135531135531
4.501527841988718,0.6841758241758242,0.0,0.01531135531135531
4.505371907987865,0.6841758241758242,0.0,0.01531135531135531
4.509807641996304,0.6841758241758242,0.0,0.01531135531135531
4.511085189995356,0.6841758241758242,0.0,0.01531135531135531
4.519187332989532,0.6841758241758242,0.0,0.01531135531135531
4.524638552989927,0.6841758241758242,0.0,0.01531135531135531
4.52780534599151,3.3,0.0,0.7349450549450549
4.530201786998077,3.3,0.0,0.7349450549450549
4.538878181992914,3.3,0.0,0.7349450549450549
4.543485221991432,2.22981684981685,0.0,0.40695970695970696
4.544412430986995,2.22981684981685,0.0,0.40695970695970696
4.546024017996388,2.22981684981685,0.0,0.40695970695970696
4.55050843898789,2.22981684981685,0.0,0.40695970695970696
4.550634312996408,2.22981684981685,0.0,0.40695970695970696
4.556255929986946,2.22981684981685,0.0,0.40695970695970696
4.55650237199734,2.22981684981685,0.0,0.40695970695970696
4.564023436993011,2.22981684981685,0.0,0.40695970695970696
4.569531823988655,1.1467399267399265,0.0,0.29978021978021974
4.569638334985939,1.1467399267399265,0.0,0.29978021978021974
4.575020107993623,1.1467399267399265,0.0,0.29978021978021974
4.576711683999747,1.1467399267399265,0.0,0.29978021978021974
4.582932280987734,1.1467399267399265,0.0,0.29978021978021974
4.587170548998984,1.1467399267399265,0.0,0.29978021978021974
4.588134956997237,1.1467399267399265,0.0,0.29978021978021974
4.589766914999927,1.1467399267399265,0.0,0.29978021978021974
4.593516547000036,1.1467399267399265,0.0,0.29978021978021974
4.593616057987674,1.1467399267399265,0.0,0.29978021978021974
4.600710567989154,1.1467399267399265,0.0,0.29978021978021974
4.605240141987451,1.1467399267399265,0.0,0.29978021978021974
4.606086606989265,1.1467399267399265,0.0,0.29978021978021974
4.607708059993456,1.1467399267399265,0.0,0.29978021978021974
4.6122312219958985,1.1467399267399265,0.0,0.29978021978021974
4.612538448986015,1.1467399267399265,0.0,0.29978021978021974
4.6193209839984775,1.1467399267399265,0.0,0.29978021978021974
4.623213449987816,1.1467399267399265,0.0,0.29978021978021974
4.6280965309997555,2.7584615384615385,0.0,0.772014652014652
4.635743347986136,2.7584615384615385,0.0,0.772014652014652
4.641256915987469,3.3,0.0,0.1539194139194139
4.642077824988519,3.3,0.0,0.1539194139194139
4.644580996988225,3.3,0.0,0.1539194139194139
4.655360169999767,3.3,0.0,0.1539194139194139
4.660939137000241,3.3,0.0,0.1539194139194139
4.663830645993585,2.848717948717949,0.0,0.3465201465201465
4.667425652995007,2.848717948717949,0.0,0.3465201465201465
4.672848451999016,3.3,0.0,0.6350183150183151
4.675207827996928,3.3,0.0,0.6350183150183151
4.675355873987428,3.3,0.0,0.6350183150183151
4.684362085987232,3.3,0.0,0.6350183150183151
4.688971457988373,3.3,0.0,0.6350183150183151
4.690628103999188,3.3,0.0,0.6350183150183151
4.694017535992316,3.3,0.0,0.6350183150183151
4.694515772993327,3.3,0.0,0.6350183150183151
4.701860135988682,3.3,0.0,0.6350183150183151
4.706904102989938,2.6375824175824176,0.0,0.7156043956043956
4.710001043989905,0.9452747252747251,0.0,0.13619047619047617
4.714055483986158,0.9452747252747251,0.0,0.13619047619047617
4.71678792599414,0.9452747252747251,0.0,0.13619047619047617
4.7198390449921135,0.9452747252747251,0.0,0.13619047619047617
4.722103449996212,0.9452747252747251,0.0,0.13619047619047617
4.72244446798868,0.9452747252747251,0.0,0.13619047619047617
4.728752114999224,0.9452747252747251,0.0,0.13619047619047617
4.733855246988242,0.6793406593406592,0.0,0.018534798534798533
4.735469960985938,0.6793406593406592,0.0,0.018534798534798533
4.739367638991098,0.6793406593406592,0.0,0.018534798534798533
4.742471604986349,0.6793406593406592,0.0,0.018534798534798533
4.746012673000223,0.6793406593406592,0.0,0.018534798534798533
4.75281300599454,0.6793406593406592,0.0,0.018534798534798533
4.7566337719908915,3.3,0.0,0.16117216117216115
4.762574735999806,3.3,0.0,0.16117216117216115
4.77342716298881,3.3,0.0,0.16117216117216115
4.782262074993923,3.3,0.0,0.16117216117216115
4.786450311992667,3.3,0.0,0.16117216117216115
4.788761048999731,3.3,0.0,0.16117216117216115
4.789045880999765,3.3,0.0,0.7164102564102564
4.7958075369970175,3.3,0.0,0.7164102564102564
4.800717651989544,3.3,0.0,0.7164102564102564
4.8054220599879045,3.3,0.0,0.7164102564102564
4.805583564986591,3.3,0.0,0.7164102564102564
4.812080306990538,3.3,0.0,0.7164102564102564
4.818632834998425,3.3,0.0,0.7164102564102564
4.824470135994488,3.3,0.0,0.7164102564102564
4.833501698987675,3.3,0.0,0.7164102564102564
4.838484014995629,3.3,0.0,0.7164102564102564
4.846153898994089,3.3,0.0,0.7164102564102564
4.8528292489936575,3.3,0.0,0.7164102564102564
4.85709998299717,3.1904029304029304,0.0,0.26915750915750913
4.858126480990904,3.1904029304029304,0.0,0.26915750915750913
4.8590711829892825,3.1904029304029304,0.0,0.26915750915750913
4.860041737993015,3.1904029304029304,0.0,0.26915750915750913
4.86350452399347,3.1904029304029304,0.0,0.26915750915750913
4.878560117998859,2.352307692307692,0.0,0.46095238095238095
4.8932539529923815,2.5908424908424905,0.0,0.6189010989010989
4.897594736990868,2.729450549450549,0.0,0.5737728937728938
4.897857523988932,2.729450549450549,0.0,0.5737728937728938
4.909323369996855,2.729450549450549,0.0,0.5737728937728938
4.921230994994403,2.729450549450549,0.0,0.5737728937728938
4.938621362991398,2.729450549450549,0.0,0.5737728937728938
4.943463810996036,2.729450549450549,0.0,0.5737728937728938
4.953569604986114,2.729450549450549,0.0,0.5737728937728938
4.962956189992838,2.729450549450549,0.0,0.5737728937728938
4.96951110799273,2.484468864468864,0.0,0.37150183150183147
4.975839156992151,3.3,0.0,0.26915750915750913
4.980006917990977,3.3,0.0,0.26915750915750913
4.981177718000254,1.2740659340659342,0.0,0.30542124542124544
4.981418268987909,1.2740659340659342,0.0,0.30542124542124544
4.988185784997768,1.2740659340659342,0.0,0.30542124542124544
4.994932855988736,1.2740659340659342,0.0,0.30542124542124544
5.0001798209996196,1.2740659340659342,0.0,0.30542124542124544
5.0018565270002,1.2740659340659342,0.0,0.30542124542124544
5.006501816998934,1.2740659340659342,0.0,0.30542124542124544
5.016678094994859,0.8695238095238095,0.0,0.04915750915750916
5.024887569990824,0.8695238095238095,0.0,0.04915750915750916
5.029818973998772,3.3,0.0,0.8735531135531135
5.035193087998778,3.3,0.0,0.8735531135531135
5.038832394988276,3.3,0.0,0.8735531135531135
5.048287673998857,3.3,0.0,0.8735531135531135
5.055897917991388,3.3,0.0,0.8735531135531135
5.059843032999197,3.3,0.0,0.2191941391941392
5.063317185995402,3.3,0.0,0.2191941391941392
5.0635226529993815,3.3,0.0,0.2191941391941392
5.072683919992414,3.3,0.0,0.2191941391941392
5.079964528995333,3.3,0.0,0.2191941391941392
5.085278665996157,3.3,0.0,0.2191941391941392
5.087503434988321,3.3,0.0,0.2191941391941392
5.087797465996118,3.3,0.0,0.2191941391941392
5.096109746998991,3.3,0.0,0.2191941391941392
5.100745126997936,3.0936996336996336,0.0,0.23853479853479853
5.100868486988475,3.0936996336996336,0.0,0.23853479853479853
5.106668668988277,3.0936996336996336,0.0,0.23853479853479853
5.10682757399627,1.4126739926739926,0.0,0.32717948717948714
5.114605064998614,1.4126739926739926,0.0,0.32717948717948714
5.11860161399818,1.4126739926739926,0.0,0.32717948717948714
5.122022622992517,1.4126739926739926,0.0,0.32717948717948714
5.122330907994183,1.4126739926739926,0.0,0.32717948717948714
5.127961331992992,1.4126739926739926,0.0,0.32717948717948714
5.12820699599979,1.4126739926739926,0.0,0.32717948717948714
5.1333414199907565,1.4126739926739926,0.0,0.32717948717948714
5.137267285987036,1.4126739926739926,0.0,0.32717948717948714
5.141387812996982,0.8227838827838827,0.0,0.3553846153846154
5.143896525987657,3.3,0.0,0.7413919413919414
5.1498112459958065,3.3,0.0,0.7413919413919414
5.149931879990618,3.3,0.0,0.7413919413919414
5.155426483994233,3.3,0.0,0.7413919413919414
5.1569775819953065,3.3,0.0,0.7413919413919414
5.161830987999565,3.3,0.0,0.7413919413919414
5.1676399979915,2.594065934065934,0.0,1.6906959706959706
5.167828964986256,2.594065934065934,0.0,1.6906959706959706
5.172731499988004,2.594065934065934,0.0,1.6906959706959706
5.177669543991215,2.594065934065934,0.0,1.6906959706959706
5.1778189779870445,1.1693040293040293,0.0,0.3602197802197802
5.184041653992608,1.1693040293040293,0.0,0.3602197802197802
5.188193309993949,1.1693040293040293,0.0,0.3602197802197802
5.191329584995401,2.589230769230769,0.0,0.6664468864468864
5.19290755399561,2.589230769230769,0.0,0.6664468864468864
5.200182301996392,2.589230769230769,0.0,0.6664468864468864
5.207880864996696,2.589230769230769,0.0,0.6664468864468864
5.215018994989805,2.589230769230769,0.0,0.6664468864468864
5.221022434998304,2.589230769230769,0.0,0.6664468864468864
5.225848750997102,2.8148717948717947,0.0,0.3473260073260073
5.233653644987498,2.8148717948717947,0.0,0.3473260073260073
5.239256752989604,2.8148717948717947,0.0,0.3473260073260073
5.249549329993897,2.8148717948717947,0.0,0.3473260073260073
5.2583478599990485,2.8148717948717947,0.0,0.3473260073260073
5.2654367739887675,2.8148717948717947,0.0,0.3473260073260073
5.271544420000282,1.0435897435897434,0.0,0.26593406593406593
5.277120529994136,3.3,0.0,0.1692307692307692
5.287830435991054,1.8204395604395605,0.0,0.46820512820512816
5.292920248990413,1.8204395604395605,0.0,0.46820512820512816
5.296764799990342,1.8204395604395605,0.0,0.46820512820512816
5.300679867999861,1.8204395604395605,0.0,0.46820512820512816
5.306801130995154,1.8204395604395605,0.0,0.46820512820512816
5.310124924988486,2.7455677655677655,0.0,0.585054945054945
5.311024984999676,2.7455677655677655,0.0,0.585054945054945
5.312701355986064,2.7455677655677655,0.0,0.585054945054945
5.317439979990013,2.7455677655677655,0.0,0.585054945054945
5.323063232994173,2.096043956043956,0.0,0.5205860805860806
5.323916415989515,2.096043956043956,0.0,0.5205860805860806
5.325524627987761,2.096043956043956,0.0,0.5205860805860806
5.329441781999776,2.096043956043956,0.0,0.5205860805860806
5.333384815996396,2.096043956043956,0.0,0.5205860805860806
5.3384437229979085,2.096043956043956,0.0,0.5205860805860806
5.341654009986087,2.096043956043956,0.0,0.5205860805860806
5.343295669998042,2.5956776556776555,0.0,1.8969963369963367
5.348812901997007,2.5956776556776555,0.0,1.8969963369963367
5.349156484997366,2.5956776556776555,0.0,1.8969963369963367
5.356058528996073,2.5956776556776555,0.0,1.8969963369963367
5.36243292799918,2.5070329670329667,0.0,0.3545787545787546
5.367917539988412,2.5070329670329667,0.0,0.3545787545787546
5.368084816989722,2.5070329670329667,0.0,0.3545787545787546
5.377782739989925,2.5924542124542125,0.0,0.759120879120879
5.3842943999916315,2.5070329670329667,0.0,0.2224175824175824
5.3882057429873385,2.5070329670329667,0.0,0.2224175824175824
5.395178925988148,2.5070329670329667,0.0,0.2224175824175824
5.399949162994744,0.3102564102564102,0.0,0.5721611721611721
5.405927474988857,0.3102564102564102,0.0,0.5721611721611721
5.411787307995837,0.3102564102564102,0.0,0.5721611721611721
5.416615106994868,0.3102564102564102,0.0,0.5721611721611721
5.421098014994641,0.3102564102564102,0.0,0.5721611721611721
5.421321394998813,0.3102564102564102,0.0,0.5721611721611721
5.431455307989381,0.3102564102564102,0.0,0.5721611721611721
5.437038254996878,0.3102564102564102,0.0,0.5721611721611721
5.43727081399993,0.3102564102564102,0.0,0.5721611721611721
5.442871454986744,1.581904761904762,0.0,0.43032967032967034
5.444409720992553,1.581904761904762,0.0,0.43032967032967034
5.4492276749952,1.581904761904762,0.0,0.43032967032967034
5.45378238298872,1.581904761904762,0.0,0.43032967032967034
5.454057227994781,1.581904761904762,0.0,0.43032967032967034
5.459731149996514,1.581904761904762,0.0,0.43032967032967034
5.460051531990757,1.8945787545787542,0.0,0.311062271062271
5.46820344599837,1.8945787545787542,0.0,0.311062271062271
5.473736101994291,1.8945787545787542,0.0,0.311062271062271
5.475297370998305,1.8945787545787542,0.0,0.311062271062271
5.4813279419904575,1.8945787545787542,0.0,0.311062271062271
5.485067220986821,1.8945787545787542,0.0,0.311062271062271
5.489501656993525,1.8945787545787542,0.0,0.311062271062271
5.490388163991156,1.8945787545787542,0.0,0.311062271062271
5.492112611987977,1.8945787545787542,0.0,0.311062271062271
5.499994350990164,1.8945787545787542,0.0,0.311062271062271
5.504818349989364,1.8945787545787542,0.0,0.311062271062271
5.509340103992145,1.8945787545787542,0.0,0.311062271062271
5.509646796999732,1.8945787545787542,0.0,0.311062271062271
5.5175707939924905,1.8945787545787542,0.0,0.311062271062271
5.5223293869930785,1.8945787545787542,0.0,0.311062271062271
5.52244509398588,1.3723809523809525,0.0,0.2772161172161172
5.530555843986804,1.3723809523809525,0.0,0.2772161172161172
5.534331000992097,1.3723809523809525,0.0,0.2772161172161172
5.538833538987092,1.3723809523809525,0.0,0.2772161172161172
5.540065662993584,1.3723809523809525,0.0,0.2772161172161172
5.540228209996712,1.3723809523809525,0.0,0.2772161172161172
5.549152517996845,1.3723809523809525,0.0,0.2772161172161172
5.55347848898964,1.3723809523809525,0.0,0.2772161172161172
5.556381520000286,1.3723809523809525,0.0,0.2772161172161172
5.55884293098643,1.6915018315018313,0.0,0.5286446886446886
5.559017775987741,1.7849816849816849,0.0,0.39890109890109887
5.566145988996141,1.7849816849816849,0.0,0.39890109890109887
5.570002529988415,1.7849816849816849,0.0,0.39890109890109887
5.575738833998912,1.7849816849816849,0.0,0.39890109890109887
5.57594283799699,1.7849816849816849,0.0,0.39890109890109887
5.58357816998614,1.7849816849816849,0.0,0.39890109890109887
5.588443733999156,1.3917216117216116,0.0,0.2627106227106227
5.596363563992782,1.3917216117216116,0.0,0.2627106227106227
5.599940989995957,1.3917216117216116,0.0,0.2627106227106227
5.600033502996666,1.3917216117216116,0.0,0.2627106227106227
5.605482712999219,1.3917216117216116,0.0,0.2627106227106227
5.607148183989921,1.3917216117216116,0.0,0.2627106227106227
5.611879041985958,1.3917216117216116,0.0,0.2627106227106227
5.619686240999727,1.2885714285714285,0.0,0.6712820512820512
5.625301452993881,1.2885714285714285,0.0,0.6712820512820512
5.625623961997917,1.2885714285714285,0.0,0.6712820512820512
5.6330148829874815,1.2885714285714285,0.0,0.6712820512820512
5.636893466988113,1.2885714285714285,0.0,0.6712820512820512
5.64135094199446,3.0695238095238095,0.0,0.3852014652014652
5.642974020986003,3.0695238095238095,0.0,0.3852014652014652
5.65013981499942,2.461904761904762,0.0,0.4899633699633699
5.654617297986988,2.461904761904762,0.0,0.4899633699633699
5.655523730994901,2.5908424908424905,0.0,1.6713553113553112
5.657896049990086,2.5908424908424905,0.0,1.6713553113553112
5.666401745998883,2.5908424908424905,0.0,1.6713553113553112
5.672265113986214,2.5908424908424905,0.0,1.6713553113553112
5.684321480992367,3.3,0.0,0.18534798534798536
5.693330149995745,1.2305494505494505,0.0,0.17164835164835165
5.700361537994468,1.2305494505494505,0.0,0.17164835164835165
5.7049239439948,1.2305494505494505,0.0,0.17164835164835165
5.705216713991831,1.2305494505494505,0.0,0.17164835164835165
5.711039523986983,1.2305494505494505,0.0,0.17164835164835165
5.711210522000329,1.2305494505494505,0.0,0.17164835164835165
5.718545154988533,2.5908424908424905,0.0,1.7406593406593407
5.7231699639960425,2.71010989010989,0.0,0.9082051282051282
5.723482390996651,2.71010989010989,0.0,0.9082051282051282
5.730311077990336,2.71010989010989,0.0,0.9082051282051282
5.733769730999484,2.71010989010989,0.0,0.9082051282051282
5.73409351198643,2.71010989010989,0.0,0.9082051282051282
5.739548779994948,2.71010989010989,0.0,0.9082051282051282
5.741857010987587,2.71010989010989,0.0,0.9082051282051282
5.742089090999798,2.71010989010989,0.0,0.9082051282051282
5.75030184899515,2.71010989010989,0.0,0.9082051282051282
5.755304188991431,2.71010989010989,0.0,0.9082051282051282
5.763637519994518,2.594065934065934,0.0,1.7535531135531135
5.767641201993683,2.594065934065934,0.0,1.7535531135531135
5.771439634991111,1.2434432234432233,0.0,0.1523076923076923
5.776157609987422,2.5876190476190475,0.0,1.9171428571428573
5.776331491986639,2.5876190476190475,0.0,1.9171428571428573
5.784771442995407,2.5876190476190475,0.0,1.9171428571428573
5.790892331991927,2.5876190476190475,0.0,1.9171428571428573
5.7969765219895635,2.5876190476190475,0.0,1.9171428571428573
5.800508311993326,2.5876190476190475,0.0,1.9171428571428573
5.805859422995127,2.5876190476190475,0.0,1.9171428571428573
5.807620370993391,2.5876190476190475,0.0,1.9171428571428573
5.812104354990879,2.5876190476190475,0.0,1.9171428571428573
5.812397873000009,2.5876190476190475,0.0,1.9171428571428573
5.818314053991344,2.5876190476190475,0.0,1.9171428571428573
5.822843742993427,1.4062271062271061,0.0,0.49560439560439556
5.823703136993572,1.4062271062271061,0.0,0.49560439560439556
5.825448069997947,1.4062271062271061,0.0,0.49560439560439556
5.8308977209962904,1.4062271062271061,0.0,0.49560439560439556
5.831210175994784,1.4062271062271061,0.0,0.49560439560439556
5.839151192994905,1.4062271062271061,0.0,0.49560439560439556
5.847622864996083,1.4062271062271061,0.0,0.49560439560439556
5.853426230998593,1.4062271062271061,0.0,0.49560439560439556
5.857002174991067,0.8389010989010988,0.0,0.5109157509157509
5.857101695990423,0.8389010989010988,0.0,0.5109157509157509
5.865995602987823,0.8389010989010988,0.0,0.5109157509157509
5.870579887996428,0.8389010989010988,0.0,0.5109157509157509
5.871405685000354,3.3,0.0,0.28608058608058606
5.872997087994008,3.3,0.0,0.28608058608058606
5.8795508639886975,3.3,0.0,0.28608058608058606
5.88456219699583,3.3,0.0,0.28608058608058606
5.887365320988465,3.3,0.0,0.28608058608058606
5.889739421996637,3.3,0.0,0.28608058608058606
5.8899269609974,3.3,0.0,0.28608058608058606
5.899148902986781,3.3,0.0,0.28608058608058606
5.906140112987487,1.1467399267399265,0.0,0.6237362637362637
5.91159582399996,1.8365567765567765,0.0,0.37875457875457874
5.913168171988218,1.8365567765567765,0.0,0.37875457875457874
5.916877571988152,1.8365567765567765,0.0,0.37875457875457874
5.922567096989951,1.9155311355311355,0.0,0.4222710622710622
5.922781957997358,1.9155311355311355,0.0,0.4222710622710622
5.929977677995339,1.9155311355311355,0.0,0.4222710622710622
5.933569636996253,0.85018315018315,0.0,0.04029304029304029
5.93898512198939,0.85018315018315,0.0,0.04029304029304029
5.940556325993384,0.85018315018315,0.0,0.04029304029304029
5.946164951994433,0.85018315018315,0.0,0.04029304029304029
5.946422763998271,3.3,0.0,0.6664468864468864
5.955471426990698,3.3,0.0,0.6664468864468864
5.963895020991913,3.3,0.0,0.6664468864468864
5.968578678992344,3.3,0.0,0.6664468864468864
5.973867979992065,3.3,0.0,0.6664468864468864
5.976378166989889,3.3,0.0,0.6664468864468864
5.976537429000018,3.3,0.0,0.6664468864468864
5.98451382399071,3.3,0.0,0.6664468864468864
5.9913362769875675,3.3,0.0,0.9468864468864467
5.9994327209860785,3.3,0.0,0.9468864468864467
6.003268752989243,1.8558974358974358,0.0,0.41018315018315016
6.007814275988494,3.145274725274725,0.0,0.6245421245421244
6.00864276199718,3.145274725274725,0.0,0.6245421245421244
6.010474675989826,3.145274725274725,0.0,0.6245421245421244
6.014332759994431,3.3,0.0,0.23853479853479853
6.017473801999586,1.4626373626373625,0.0,0.43597069597069593
6.019843393994961,1.4626373626373625,0.0,0.43597069597069593
6.020032941989484,1.4626373626373625,0.0,0.43597069597069593
6.025327546987683,1.4626373626373625,0.0,0.43597069597069593
6.029235968991998,3.3,0.0,0.5979487179487178
6.034557486986159,3.3,0.0,0.5979487179487178
6.035835317990859,3.3,0.0,0.5979487179487178
6.041081344999839,3.3,0.0,0.5979487179487178
6.045600321987877,2.2362637362637363,0.0,0.29978021978021974
6.045750245990348,2.2362637362637363,0.0,0.29978021978021974
6.053235164989019,2.2362637362637363,0.0,0.29978021978021974
6.057823760987958,2.2362637362637363,0.0,0.29978021978021974
6.058121095993556,2.2362637362637363,0.0,0.29978021978021974
6.068021245999262,2.2362637362637363,0.0,0.29978021978021974
6.075836990989046,2.2362637362637363,0.0,0.29978021978021974
6.084985102992505,2.5134798534798533,0.0,0.16842490842490843
6.089679994998733,2.5134798534798533,0.0,0.16842490842490843
6.089852244986105,2.5134798534798533,0.0,0.16842490842490843
6.098189966985956,2.5134798534798533,0.0,0.16842490842490843
6.103592177998507,1.9413186813186813,0.0,0.45369963369963373
6.106231328987633,1.9413186813186813,0.0,0.45369963369963373
6.113157774991123,1.9413186813186813,0.0,0.45369963369963373
6.11652090298594,3.3,0.0,0.15069597069597068
6.117366803999175,3.3,0.0,0.15069597069597068
6.118309060999309,3.3,0.0,0.15069597069597068
6.119879910998861,3.3,0.0,0.15069597069597068
6.124348420999013,3.3,0.0,0.15069597069597068
6.125217340988456,3.3,0.0,0.15069597069597068
6.127296212987858,1.203150183150183,0.0,0.30058608058608055
6.128683003989863,1.203150183150183,0.0,0.30058608058608055
6.13478964199021,1.203150183150183,0.0,0.30058608058608055
6.138732384992181,1.203150183150183,0.0,0.30058608058608055
6.143416136997985,1.203150183150183,0.0,0.30058608058608055
6.151495090991375,1.4368498168498167,0.0,0.3304029304029304
6.1586154339893255,1.4368498168498167,0.0,0.3304029304029304
6.16476868398604,1.4368498168498167,0.0,0.3304029304029304
6.168520161998458,1.4368498168498167,0.0,0.3304029304029304
6.173799418989802,1.4368498168498167,0.0,0.3304029304029304
6.176377585987211,1.4368498168498167,0.0,0.3304029304029304
6.18474392099597,1.4368498168498167,0.0,0.3304029304029304
6.191490406999947,1.4368498168498167,0.0,0.3304029304029304
6.198244237995823,1.4368498168498167,0.0,0.3304029304029304
6.203932245000033,1.4368498168498167,0.0,0.3304029304029304
6.212124421988847,1.4368498168498167,0.0,0.3304029304029304
6.218956711993087,3.219413919413919,0.0,0.17487179487179486
6.2235045329871355,2.7778021978021976,0.0,0.31347985347985347
6.223616207993473,2.7778021978021976,0.0,0.31347985347985347
6.231346111992025,2.7778021978021976,0.0,0.31347985347985347
6.2349479389959015,0.9613919413919414,0.0,0.14102564102564102
6.240322907993686,0.9613919413919414,0.0,0.14102564102564102
6.242821958992863,1.0661538461538462,0.0,0.5028571428571429
6.24302897999587,1.0661538461538462,0.0,0.5028571428571429
6.251311101994361,1.0661538461538462,0.0,0.5028571428571429
6.255965453994577,1.0661538461538462,0.0,0.5028571428571429
6.25616424898908,1.0661538461538462,0.0,0.5028571428571429
6.26147875499737,1.0661538461538462,0.0,0.5028571428571429
6.263822128996253,1.0661538461538462,0.0,0.5028571428571429
6.26405810698634,2.3555311355311352,0.0,0.7502564102564102
6.269423491990892,1.8736263736263734,0.0,0.4794871794871795
6.271721729994169,1.8736263736263734,0.0,0.4794871794871795
6.271960074998788,1.8736263736263734,0.0,0.4794871794871795
6.277290782993077,1.8736263736263734,0.0,0.4794871794871795
6.279762969992589,1.8736263736263734,0.0,0.4794871794871795
6.279921641995315,1.8736263736263734,0.0,0.4794871794871795
6.285417556995526,1.8736263736263734,0.0,0.4794871794871795
6.287096870990354,1.4610256410256408,0.0,0.29655677655677654
6.290983277998748,1.4610256410256408,0.0,0.29655677655677654
6.2949508399906335,1.4610256410256408,0.0,0.29655677655677654
6.2981092399859335,1.4610256410256408,0.0,0.29655677655677654
6.300587842997629,1.4610256410256408,0.0,0.29655677655677654
6.305963662991417,1.4610256410256408,0.0,0.29655677655677654
6.308340825999039,1.4610256410256408,0.0,0.29655677655677654
6.3084992399963085,1.4610256410256408,0.0,0.29655677655677654
6.313945657995646,1.4610256410256408,0.0,0.29655677655677654
6.3157151809864445,3.3,0.0,1.468278388278388
6.3196447789960075,3.3,0.0,1.468278388278388
6.324310000985861,3.3,0.0,1.468278388278388
6.324422849997063,2.7584615384615385,0.0,0.7575091575091575
6.331192982994253,2.7584615384615385,0.0,0.7575091575091575
6.335021771999891,3.3,0.0,0.13216117216117215
6.340327043988509,3.3,0.0,0.13216117216117215
6.342823352999403,3.3,0.0,0.13216117216117215
6.3430417089984985,3.3,0.0,0.13216117216117215
6.347718649994931,3.3,0.0,0.13216117216117215
6.347995403993991,3.3,0.0,0.13216117216117215
6.352734627987957,3.3,0.0,0.13216117216117215
6.352931118992274,3.3,0.0,0.13216117216117215
6.357480894992477,0.40534798534798533,0.0,0.5971428571428571
6.358313443997758,1.8816849816849814,0.0,0.2111355311355311
6.35989025598974,1.8816849816849814,0.0,0.2111355311355311
6.363726144991233,1.8816849816849814,0.0,0.2111355311355311
6.367707461991813,1.8816849816849814,0.0,0.2111355311355311
6.371663608995732,1.8816849816849814,0.0,0.2111355311355311
6.375618048987235,1.8816849816849814,0.0,0.2111355311355311
6.37960164299875,1.8816849816849814,0.0,0.2111355311355311
6.384104198994464,1.8816849816849814,0.0,0.2111355311355311
6.3843947789864615,2.9518681318681317,0.0,0.8252014652014652
6.389747436987818,2.9518681318681317,0.0,0.8252014652014652
6.392127524988609,2.9518681318681317,0.0,0.8252014652014652
6.392324236992863,2.9518681318681317,0.0,0.8252014652014652
6.397798617996159,2.9518681318681317,0.0,0.8252014652014652
6.3986680429952685,0.61003663003663,0.0,0.30622710622710625
6.40031098399777,0.61003663003663,0.0,0.30622710622710625
6.404264184995554,0.61003663003663,0.0,0.30622710622710625
6.408065616997192,0.61003663003663,0.0,0.30622710622710625
6.413555919993087,0.61003663003663,0.0,0.30622710622710625
6.4150981699931435,0.61003663003663,0.0,0.30622710622710625
6.418866969994269,0.61003663003663,0.0,0.30622710622710625
6.424379160991521,0.61003663003663,0.0,0.30622710622710625
6.425362176989438,0.61003663003663,0.0,0.30622710622710625
6.426200821995735,0.61003663003663,0.0,0.30622710622710625
6.427741532999789,0.61003663003663,0.0,0.30622710622710625
6.4322343789972365,0.61003663003663,0.0,0.30622710622710625
6.4324863129877485,0.61003663003663,0.0,0.30622710622710625
6.437986149991048,0.61003663003663,0.0,0.30622710622710625
6.4397044139914215,0.61003663003663,0.0,0.30622710622710625
6.442069546988932,0.61003663003663,0.0,0.30622710622710625
6.4422908689884935,0.61003663003663,0.0,0.30622710622710625
6.447823929993319,0.61003663003663,0.0,0.30622710622710625
6.448664261988597,0.61003663003663,0.0,0.30622710622710625
6.450306697995984,0.61003663003663,0.0,0.30622710622710625
6.45419820099778,0.61003663003663,0.0,0.30622710622710625
6.458126995989005,0.61003663003663,0.0,0.30622710622710625
6.461948990996461,0.61003663003663,0.0,0.30622710622710625
6.466769148988533,0.61003663003663,0.0,0.30622710622710625
6.471453524995013,0.61003663003663,0.0,0.30622710622710625
6.471634034998715,3.3,0.0,0.3755311355311355
6.476977229991462,3.3,0.0,0.3755311355311355
6.479554976991494,3.3,0.0,0.3755311355311355
6.4840727579867234,3.3,0.0,0.3755311355311355
6.484982040987234,3.3,0.0,0.3755311355311355
6.486601058990345,3.3,0.0,0.3755311355311355
6.4914948839868885,3.3,0.0,0.3755311355311355
6.496377870993456,3.3,0.0,0.3755311355311355
6.501174007993541,3.3,0.0,0.3755311355311355
6.501263060999918,3.3,0.0,0.3755311355311355
6.506703370992909,3.3,0.0,0.3755311355311355
6.508433961993433,3.3,0.0,0.3755311355311355
6.511686155994539,3.3,0.0,0.3755311355311355
6.5133963839907665,3.3,0.0,0.3755311355311355
6.5165305489936145,3.3,0.0,0.3755311355311355
6.518954289989779,3.3,0.0,0.3755311355311355
6.524625878999359,3.3,0.0,0.3755311355311355
6.525527791993227,3.3,0.0,0.3755311355311355
6.527161370991962,1.062930402930403,0.0,0.2175824175824176
6.531051614991156,2.8873992673992674,0.0,0.7317216117216117
6.535581397998612,3.3,0.0,0.6438827838827839
6.5365723589929985,1.9638827838827837,0.0,0.1813186813186813
6.5374089919932885,1.9638827838827837,0.0,0.1813186813186813
6.539031154999975,1.9638827838827837,0.0,0.1813186813186813
6.542907654991723,1.9638827838827837,0.0,0.1813186813186813
6.5475397239933955,1.9638827838827837,0.0,0.1813186813186813
6.547782484994968,2.266886446886447,0.0,0.33604395604395604
6.5532798639906105,2.266886446886447,0.0,0.33604395604395604
6.554101855988847,2.266886446886447,0.0,0.33604395604395604
6.555739010989782,2.266886446886447,0.0,0.33604395604395604
6.559473709989106,2.266886446886447,0.0,0.33604395604395604
6.56401943200035,2.266886446886447,0.0,0.33604395604395604
6.564313225986552,2.266886446886447,0.0,0.33604395604395604
6.569851198990364,2.266886446886447,0.0,0.33604395604395604
6.570887905996642,2.266886446886447,0.0,0.33604395604395604
6.57172112299304,2.266886446886447,0.0,0.33604395604395604
6.573456357989926,2.266886446886447,0.0,0.33604395604395604
6.576594696991378,2.266886446886447,0.0,0.33604395604395604
6.57896520999202,2.266886446886447,0.0,0.33604395604395604
6.579194887992344,2.266886446886447,0.0,0.33604395604395604
6.583908787986729,1.1983150183150182,0.0,0.40615384615384614
6.584086672999547,1.1983150183150182,0.0,0.40615384615384614
6.589959204997285,1.1983150183150182,0.0,0.40615384615384614
6.595529981990694,1.1983150183150182,0.0,0.40615384615384614
6.596366961995955,1.1983150183150182,0.0,0.40615384615384614
6.5973405789991375,1.1983150183150182,0.0,0.40615384615384614
6.5983127639919985,1.1983150183150182,0.0,0.40615384615384614
6.59993207998923,1.1983150183150182,0.0,0.40615384615384614
6.604601972998353,1.1983150183150182,0.0,0.40615384615384614
6.604699386996799,1.1983150183150182,0.0,0.40615384615384614
6.610101212994778,1.1983150183150182,0.0,0.40615384615384614
6.61165920298663,1.1983150183150182,0.0,0.40615384615384614
6.616187888997956,1.1983150183150182,0.0,0.40615384615384614
6.61649766798655,1.1983150183150182,0.0,0.40615384615384614
6.621900757992989,1.1983150183150182,0.0,0.40615384615384614
6.624176774988882,1.6044688644688643,0.0,0.09670329670329669
6.6244109839899465,1.8365567765567765,0.0,0.722051282051282
6.629763048986206,1.8365567765567765,0.0,0.722051282051282
6.632062714998028,1.8365567765567765,0.0,0.722051282051282
6.632314328991924,1.8365567765567765,0.0,0.722051282051282
6.637555709996377,1.8365567765567765,0.0,0.722051282051282
6.641278416995192,1.8365567765567765,0.0,0.722051282051282
6.64590219699312,1.8365567765567765,0.0,0.722051282051282
6.646210597988102,1.3707692307692307,0.0,0.13216117216117215
6.651505289992201,1.3707692307692307,0.0,0.13216117216117215
6.653815447993111,3.3,0.0,1.4215384615384616
6.654042855996522,3.3,0.0,1.4215384615384616
6.659274896999705,3.3,0.0,1.4215384615384616
6.66230164199078,2.3297435897435896,0.0,0.9936263736263735
6.665374221993261,2.3297435897435896,0.0,0.9936263736263735
6.667785591998836,2.3297435897435896,0.0,0.9936263736263735
6.66804795099597,2.3297435897435896,0.0,0.9936263736263735
6.6736271339905215,2.6762637362637363,0.0,0.7284981684981684
6.674536423990503,2.6762637362637363,0.0,0.7284981684981684
6.676094495996949,2.6762637362637363,0.0,0.7284981684981684
6.680223770992598,2.6762637362637363,0.0,0.7284981684981684
6.683402365990332,2.6762637362637363,0.0,0.7284981684981684
6.685050204992876,2.5956776556776555,0.0,2.402271062271062
6.689156723994529,2.5956776556776555,0.0,2.402271062271062
6.692465405998519,2.5956776556776555,0.0,2.402271062271062
6.694061968999449,2.5956776556776555,0.0,2.402271062271062
6.6980304819880985,2.5956776556776555,0.0,2.402271062271062
6.7027706039953046,2.5956776556776555,0.0,2.402271062271062
6.7029148989968235,2.5956776556776555,0.0,2.402271062271062
6.708222456989461,2.5956776556776555,0.0,2.402271062271062
6.711389339994639,2.5956776556776555,0.0,2.402271062271062
6.713101496992749,2.5956776556776555,0.0,2.402271062271062
6.717076115994132,2.5956776556776555,0.0,2.402271062271062
6.720253268998931,2.735897435897436,0.0,0.27238095238095233
6.721849752997514,0.5536263736263736,0.0,0.332014652014652
6.725807494993205,0.5536263736263736,0.0,0.332014652014652
6.7288532279926585,0.5536263736263736,0.0,0.332014652014652
6.731953181995777,0.5536263736263736,0.0,0.332014652014652
6.733486056997208,0.5536263736263736,0.0,0.332014652014652
6.737978026998462,0.5536263736263736,0.0,0.332014652014652
6.7382321399927605,0.5536263736263736,0.0,0.332014652014652
6.743915564991767,0.5536263736263736,0.0,0.332014652014652
6.744056504991022,0.5536263736263736,0.0,0.332014652014652
6.749347815988585,0.5536263736263736,0.0,0.332014652014652
6.751759734994266,1.1032234432234431,0.0,0.03626373626373627
6.751929411999299,1.1032234432234431,0.0,0.03626373626373627
6.757397295994451,1.1032234432234431,0.0,0.03626373626373627
6.759223513989127,2.6569230769230767,0.0,0.7752380952380952
6.7616355270001804,2.6569230769230767,0.0,0.7752380952380952
6.761831409996375,2.6569230769230767,0.0,0.7752380952380952
6.767125400991063,2.6569230769230767,0.0,0.7752380952380952
6.7696816099924035,2.6569230769230767,0.0,0.7752380952380952
6.774266915992484,2.6569230769230767,0.0,0.7752380952380952
6.774583238991909,2.6569230769230767,0.0,0.7752380952380952
6.780027069995413,2.6569230769230767,0.0,0.7752380952380952
6.781641657988075,2.6569230769230767,0.0,0.7752380952380952
6.786121626995737,2.6569230769230767,0.0,0.7752380952380952
6.786996482987888,3.3,0.0,1.315970695970696
6.788665055995807,3.3,0.0,1.315970695970696
6.792556976986816,3.3,0.0,1.315970695970696
6.797130741993897,3.3,0.0,1.315970695970696
6.797987114987336,3.3,0.0,1.315970695970696
6.799627517990302,3.3,0.0,1.315970695970696
6.804160489991773,3.3,0.0,1.315970695970696
6.804994838996208,3.3,0.0,1.315970695970696
6.80676382999809,3.3,0.0,1.315970695970696
6.810020153992809,3.3,0.0,1.315970695970696
6.811603511989233,3.3,0.0,1.315970695970696
6.816255635989364,3.3,0.0,1.315970695970696
6.816499961991212,3.3,0.0,1.315970695970696
6.821824018988991,3.3,0.0,1.315970695970696
6.824981012992794,3.3,0.0,1.315970695970696
6.8266119369945955,3.3,0.0,1.315970695970696
6.8314821159874555,3.3,0.0,1.315970695970696
6.83681790799892,3.3,0.0,1.315970695970696
6.840156228994601,3.3,0.0,1.315970695970696
6.840981144996476,3.3,0.0,1.315970695970696
6.842651873987052,3.3,0.0,1.315970695970696
6.846539718986605,3.3,0.0,1.315970695970696
6.851948140989407,3.3,0.0,1.315970695970696
6.854326825996395,3.3,0.0,1.315970695970696
6.854503082999145,3.3,0.0,1.315970695970696
6.859925767988898,3.3,0.0,1.315970695970696
6.862357145990245,3.3,0.0,1.315970695970696
6.86250359499536,3.3,0.0,1.315970695970696
6.868041908994201,3.3,0.0,1.315970695970696
6.868963418994099,3.3,0.0,1.315970695970696
6.8699833449936705,3.3,0.0,1.315970695970696
6.870982815991738,3.3,0.0,1.315970695970696
6.871890879992861,3.3,0.0,1.315970695970696
6.873670149987447,3.3,0.0,1.315970695970696
6.876736710997648,1.6915018315018313,0.0,0.8292307692307692
6.8791373029962415,1.6915018315018313,0.0,0.8292307692307692
6.879379660997074,1.6915018315018313,0.0,0.8292307692307692
6.883989733993076,1.6915018315018313,0.0,0.8292307692307692
6.884837186997174,1.6915018315018313,0.0,0.8292307692307692
6.886586833992624,1.6915018315018313,0.0,0.8292307692307692
6.890410007996252,1.6915018315018313,0.0,0.8292307692307692
6.895090272999369,1.6915018315018313,0.0,0.8292307692307692
6.895319451999967,1.6915018315018313,0.0,0.8292307692307692
6.900690889990074,1.6915018315018313,0.0,0.8292307692307692
6.903950959997019,1.6915018315018313,0.0,0.8292307692307692
6.905514597994625,1.6915018315018313,0.0,0.8292307692307692
6.909609600988915,1.6915018315018313,0.0,0.8292307692307692
6.91345161999925,1.6915018315018313,0.0,0.8292307692307692
6.91806187799375,1.6915018315018313,0.0,0.8292307692307692
6.91834262899647,1.6915018315018313,0.0,0.8292307692307692
6.923822525990545,1.6915018315018313,0.0,0.8292307692307692
6.926114164991304,1.6915018315018313,0.0,0.8292307692307692
6.926349864996155,1.6915018315018313,0.0,0.8292307692307692
6.931653501989786,1.6915018315018313,0.0,0.8292307692307692
6.9347456929972395,1.6915018315018313,0.0,0.8292307692307692
6.937378596994677,1.6915018315018313,0.0,0.8292307692307692
6.942109094990883,1.6915018315018313,0.0,0.8292307692307692
6.942353860998992,1.6915018315018313,0.0,0.8292307692307692
6.948015263988054,1.6915018315018313,0.0,0.8292307692307692
6.948196208992158,1.6915018315018313,0.0,0.8292307692307692
6.953519460992538,1.6915018315018313,0.0,0.8292307692307692
6.956660004987498,1.6915018315018313,0.0,0.8292307692307692
6.9583107519865735,1.6915018315018313,0.0,0.8292307692307692
6.9623411479988135,1.6915018315018313,0.0,0.8292307692307692
6.9662405909912195,3.3,0.0,1.0653479853479852
6.970814183994662,3.3,0.0,1.0653479853479852
6.971678367990535,3.3,0.0,1.0653479853479852
6.973314123999444,3.3,0.0,1.0653479853479852
6.977111348998733,3.3,0.0,1.0653479853479852
6.982537524992949,3.3,0.0,1.0653479853479852
6.984983480986557,3.3,0.0,1.0653479853479852
6.985087490000296,3.3,0.0,1.0653479853479852
6.990512203992694,3.3,0.0,1.0653479853479852
6.992222550994484,3.3,0.0,1.0653479853479852
6.99533229599183,3.3,0.0,1.0653479853479852
6.997660932989675,3.3,0.0,1.0653479853479852
6.997926038995502,3.3,0.0,1.0653479853479852
7.00337736599613,3.3,0.0,1.0653479853479852
7.00585558298917,3.3,0.0,1.0653479853479852
7.011433084990131,3.3,0.0,1.0653479853479852
7.013041947997408,3.3,0.0,1.0653479853479852
7.0176443599921186,3.3,0.0,1.0653479853479852
7.017898617996252,1.220879120879121,0.0,0.2369230769230769
7.023470974992961,1.220879120879121,0.0,0.2369230769230769
7.0237443359947065,1.220879120879121,0.0,0.2369230769230769
7.029106242989656,1.220879120879121,0.0,0.2369230769230769
7.030715552988113,1.6318681318681318,0.0,0.6189010989010989
7.034553863995825,1.6318681318681318,0.0,0.6189010989010989
7.0391946229938185,1.6318681318681318,0.0,0.6189010989010989
7.039466976988479,1.6318681318681318,0.0,0.6189010989010989
7.045029327986413,1.6318681318681318,0.0,0.6189010989010989
7.045969881990459,1.6318681318681318,0.0,0.6189010989010989
7.046868733988958,1.6318681318681318,0.0,0.6189010989010989
7.0484804379957495,1.6318681318681318,0.0,0.6189010989010989
7.053114571986953,1.6318681318681318,0.0,0.6189010989010989
7.0532619519945,1.6318681318681318,0.0,0.6189010989010989
7.058934398999554,1.6318681318681318,0.0,0.6189010989010989
7.059188719998929,1.6318681318681318,0.0,0.6189010989010989
7.0646787749865325,1.6318681318681318,0.0,0.6189010989010989
7.065674997997121,1.6318681318681318,0.0,0.6189010989010989
7.066614796989597,1.6318681318681318,0.0,0.6189010989010989
7.068209539997042,1.6318681318681318,0.0,0.6189010989010989
7.071976122999331,1.6318681318681318,0.0,0.6189010989010989
7.077359507995425,1.6318681318681318,0.0,0.6189010989010989
7.07968159399752,2.9953846153846153,0.0,0.6342124542124542
7.079934184992453,2.9953846153846153,0.0,0.6342124542124542
7.0851924699964,1.6689377289377287,0.0,0.07575091575091575
7.087489351994009,1.6689377289377287,0.0,0.07575091575091575
7.088332316998276,1.6689377289377287,0.0,0.07575091575091575
7.089989401996718,1.6689377289377287,0.0,0.07575091575091575
7.09300453600008,1.6689377289377287,0.0,0.07575091575091575
7.095330832991749,2.597289377289377,0.0,2.8205128205128203
7.095589960998041,2.597289377289377,0.0,2.8205128205128203
7.101069030992221,2.597289377289377,0.0,2.8205128205128203
7.102817145991139,2.597289377289377,0.0,2.8205128205128203
7.10658403999696,2.597289377289377,0.0,2.8205128205128203
7.111790819995804,3.3,0.0,0.9307692307692307
7.115571659000125,3.3,0.0,0.9307692307692307
7.1209445069980575,3.3,0.0,0.9307692307692307
7.123385281985975,3.3,0.0,0.9307692307692307
7.123587420996046,3.3,0.0,0.9307692307692307
7.128931459999876,3.3,0.0,0.9307692307692307
7.131342429987853,3.3,0.0,0.9307692307692307
7.131504593999125,3.3,0.0,0.9307692307692307
7.136983186996076,3.3,0.0,0.9307692307692307
7.137875099986559,3.3,0.0,0.9307692307692307
7.1394905829947675,3.3,0.0,0.9307692307692307
7.1439536010002485,1.9461538461538461,0.0,0.04996336996336996
7.144772897998337,1.9461538461538461,0.0,0.04996336996336996
7.146534802988754,1.9461538461538461,0.0,0.04996336996336996
7.14966113299306,1.9461538461538461,0.0,0.04996336996336996
7.151281953993021,3.3,0.0,1.0613186813186812
7.15530638799828,3.3,0.0,1.0613186813186812
7.15905536399805,2.731062271062271,0.0,0.6688644688644688
7.159151395986555,1.614139194139194,0.0,0.3924542124542124
7.164481701998739,1.614139194139194,0.0,0.3924542124542124
7.167014959995868,1.614139194139194,0.0,0.3924542124542124
7.172326611995231,1.614139194139194,0.0,0.3924542124542124
7.175411868985975,3.3,0.0,0.3142857142857142
7.17709390699747,3.3,0.0,0.3142857142857142
7.180900989988004,3.3,0.0,0.3142857142857142
7.186270907986909,3.3,0.0,0.3142857142857142
7.187805797992041,3.3,0.0,0.3142857142857142
7.192456296994351,3.3,0.0,0.3142857142857142
7.19258370398893,3.3,0.0,0.3142857142857142
7.197824174989364,3.3,0.0,0.3142857142857142
7.200906806989224,3.3,0.0,0.3142857142857142
7.203499142997316,3.3,0.0,0.3142857142857142
7.208150848993682,3.3,0.0,0.3142857142857142
7.20839679799974,3.3,0.0,0.3142857142857142
7.21379250199243,3.3,0.0,0.3142857142857142
7.216118607990211,3.3,0.0,0.3142857142857142
7.216294428988476,3.3,0.0,0.3142857142857142
7.221695167987491,3.3,0.0,0.3142857142857142
7.224018328997772,3.3,0.0,0.3142857142857142
7.224207266990561,3.3,0.0,0.3142857142857142
7.229505221999716,3.3,0.0,0.3142857142857142
7.232542020996334,3.3,0.0,0.3142857142857142
7.234954323997954,2.5956776556776555,0.0,2.357142857142857
7.235092796996469,2.5956776556776555,0.0,2.357142857142857
7.239725092993467,2.8696703296703294,0.0,0.07494505494505493
7.240001394995488,2.8696703296703294,0.0,0.07494505494505493
7.245264202996623,2.8696703296703294,0.0,0.07494505494505493
7.248324282991234,2.8696703296703294,0.0,0.07494505494505493
7.250102147998405,2.8696703296703294,0.0,0.07494505494505493
7.253107306998572,2.8696703296703294,0.0,0.07494505494505493
7.255451541990624,2.8696703296703294,0.0,0.07494505494505493
7.255694844992831,2.8696703296703294,0.0,0.07494505494505493
7.261237025988521,2.8696703296703294,0.0,0.07494505494505493
7.261486783987493,2.8696703296703294,0.0,0.07494505494505493
7.266793022994534,2.8696703296703294,0.0,0.07494505494505493
7.269082710990915,2.8696703296703294,0.0,0.07494505494505493
7.26928589399904,2.8696703296703294,0.0,0.07494505494505493
7.274644418997923,2.8696703296703294,0.0,0.07494505494505493
7.277029454999138,2.013846153846154,0.0,0.21677655677655677
7.277183645986952,1.9526007326007324,0.0,0.3658608058608058
7.282658893993357,1.9526007326007324,0.0,0.3658608058608058
7.284251120989211,1.9526007326007324,0.0,0.3658608058608058
7.288033144999645,2.324908424908425,0.0,1.2901831501831502
7.288134552989504,2.324908424908425,0.0,1.2901831501831502
7.293665785997291,2.597289377289377,0.0,1.0016849816849815
7.294701814986183,2.597289377289377,0.0,1.0016849816849815
7.295578299992485,2.597289377289377,0.0,1.0016849816849815
7.297181396992528,2.4780219780219777,0.0,0.4496703296703296
7.301656542986166,2.4780219780219777,0.0,0.4496703296703296
7.302524752987665,1.9026373626373623,0.0,0.17487179487179486
7.304220913996687,1.9026373626373623,0.0,0.17487179487179486
7.308070556988241,1.9026373626373623,0.0,0.17487179487179486
7.312068829996861,1.9026373626373623,0.0,0.17487179487179486
7.315144176987815,1.9026373626373623,0.0,0.17487179487179486
7.318287205998786,1.9026373626373623,0.0,0.17487179487179486
7.319847934995778,1.9026373626373623,0.0,0.17487179487179486
7.323797858989565,1.9026373626373623,0.0,0.17487179487179486
7.327592554996954,1.9026373626373623,0.0,0.17487179487179486
7.332939509986318,1.9026373626373623,0.0,0.17487179487179486
7.335324192987173,1.9026373626373623,0.0,0.17487179487179486
7.335477244996582,1.9026373626373623,0.0,0.17487179487179486
7.340835358991171,1.9026373626373623,0.0,0.17487179487179486
7.343847377997008,1.9026373626373623,0.0,0.17487179487179486
7.346223025990184,1.9026373626373623,0.0,0.17487179487179486
7.346389501995873,1.9026373626373623,0.0,0.17487179487179486
7.351735436997842,1.9026373626373623,0.0,0.17487179487179486
7.354176117994939,1.9026373626373623,0.0,0.17487179487179486
7.354286386995227,1.9026373626373623,0.0,0.17487179487179486
7.359681759990053,1.9026373626373623,0.0,0.17487179487179486
7.361294262998854,1.5577289377289376,0.0,0.25545787545787546
7.365135938991443,1.5577289377289376,0.0,0.25545787545787546
7.370515092989081,1.5577289377289376,0.0,0.25545787545787546
7.372790483990684,3.3,0.0,0.29333333333333333
7.373037047989783,3.3,0.0,0.29333333333333333
7.378406013987842,0.06527472527472526,0.0,0.8703296703296703
7.380881974997465,0.06527472527472526,0.0,0.8703296703296703
7.386197642990737,0.06527472527472526,0.0,0.8703296703296703
7.38859779399354,0.06527472527472526,0.0,0.8703296703296703
7.388820328997099,2.594065934065934,0.0,0.8485714285714284
7.394375444986508,2.594065934065934,0.0,0.8485714285714284
7.396054497992736,2.594065934065934,0.0,0.8485714285714284
7.3999312479863875,2.3039560439560436,0.0,0.16036630036630037
7.404421445986372,2.3039560439560436,0.0,0.16036630036630037
7.4046985559980385,2.3039560439560436,0.0,0.16036630036630037
7.410136803999194,2.3039560439560436,0.0,0.16036630036630037
7.411035464989254,2.3039560439560436,0.0,0.16036630036630037
7.4126718979969155,2.3039560439560436,0.0,0.16036630036630037
7.417381835999549,0.3586080586080586,0.0,0.8372893772893772
7.422746165990247,2.162124542124542,0.0,0.24336996336996336
7.425850346990046,2.162124542124542,0.0,0.24336996336996336
7.428103571990505,2.162124542124542,0.0,0.24336996336996336
7.4283144529908895,2.162124542124542,0.0,0.24336996336996336
7.433485290996032,2.162124542124542,0.0,0.24336996336996336
7.4372869469953,2.162124542124542,0.0,0.24336996336996336
7.441126486999565,2.162124542124542,0.0,0.24336996336996336
7.4464078419987345,2.162124542124542,0.0,0.24336996336996336
7.44992730699596,2.5843956043956045,0.0,1.8486446886446886
7.450118831999134,2.5843956043956045,0.0,1.8486446886446886
7.455470024986425,2.5843956043956045,0.0,1.8486446886446886
7.458669725994696,2.5843956043956045,0.0,1.8486446886446886
7.4604421369876945,2.5843956043956045,0.0,1.8486446886446886
7.463591463994817,0.9082051282051282,0.0,0.6761172161172161
