time,emg1,emg2,emg3
0.02180793600564357,2.71010989010989,2.07992673992674,0.25545787545787546
0.03776058000221383,2.71010989010989,2.07992673992674,0.25545787545787546
0.05126953500439413,2.71010989010989,2.07992673992674,0.25545787545787546
0.0580851580016315,2.8873992673992674,1.9526007326007324,0.2562637362637363
0.06260571601160336,2.8873992673992674,1.9526007326007324,0.2562637362637363
0.0635959330102196,2.8873992673992674,1.9526007326007324,0.2562637362637363
0.06464675600000191,2.8873992673992674,1.9526007326007324,0.2562637362637363
0.06498958700103685,2.8873992673992674,1.9526007326007324,0.2562637362637363
0.07085420400835574,2.8873992673992674,1.9526007326007324,0.2562637362637363
0.08184767900092993,3.3,1.6705494505494505,0.7881318681318681
0.09445440900162794,3.3,1.6705494505494505,0.7881318681318681
0.10149016600917093,3.3,1.6705494505494505,0.7881318681318681
0.10581846900458913,3.3,1.6705494505494505,0.7881318681318681
0.10751179000362754,3.3,1.6705494505494505,0.7881318681318681
0.11065950601187069,3.3,1.6705494505494505,0.7881318681318681
0.11229346600885037,3.3,1.6705494505494505,0.7881318681318681
0.11605815100483596,3.3,1.6705494505494505,0.7881318681318681
0.12205435801297426,3.3,1.6705494505494505,0.7881318681318681
0.12946952501079068,3.3,1.6705494505494505,0.7881318681318681
0.1369171410042327,3.3,1.6705494505494505,0.7881318681318681
0.14267090700741392,3.3,1.6705494505494505,0.7881318681318681
0.1503264350030804,3.3,1.6705494505494505,0.7881318681318681
0.15443594400130678,3.3,1.6705494505494505,0.7881318681318681
0.15813686200999655,3.3,1.6705494505494505,0.7881318681318681
0.15830197000468615,3.3,1.6705494505494505,0.7881318681318681
0.16296667999995407,3.3,1.6705494505494505,0.7881318681318681
0.16321354699903168,3.3,1.5964102564102562,0.17809523809523808
0.1677200160047505,3.3,1.5964102564102562,0.17809523809523808
0.16871802401146851,2.644029304029304,3.3,1.36996336996337
0.16959684200992342,2.644029304029304,3.3,1.36996336996337
0.17133277001266833,2.644029304029304,3.3,1.36996336996337
0.17500510200625286,2.644029304029304,3.3,1.36996336996337
0.17952542200509924,2.644029304029304,3.3,1.36996336996337
0.18039078400761355,2.644029304029304,3.3,1.36996336996337
0.1822971510118805,2.644029304029304,3.3,1.36996336996337
0.18390955100767314,2.644029304029304,3.3,1.36996336996337
0.18801827600691468,2.644029304029304,3.3,1.36996336996337
0.19118332100333646,2.644029304029304,3.3,1.36996336996337
0.1921058480074862,1.93003663003663,0.963003663003663,0.2216117216117216
0.19360073799907696,1.93003663003663,0.963003663003663,0.2216117216117216
0.19938187500520144,1.93003663003663,0.963003663003663,0.2216117216117216
0.1995398720027879,1.93003663003663,0.963003663003663,0.2216117216117216
0.20892731500498485,1.93003663003663,0.963003663003663,0.2216117216117216
0.21514021600887645,1.93003663003663,0.963003663003663,0.2216117216117216
0.2202593680121936,1.6084981684981683,0.44402930402930396,0.19179487179487179
0.22406120201048907,2.545714285714286,2.0057875457875456,0.21677655677655677
0.22732547800114844,2.545714285714286,2.0057875457875456,0.21677655677655677
0.22762732600676827,2.545714285714286,2.0057875457875456,0.21677655677655677
0.23252160601259675,2.545714285714286,2.0057875457875456,0.21677655677655677
0.24125631200149655,2.545714285714286,2.0057875457875456,0.21677655677655677
0.24855993200617377,2.545714285714286,2.0057875457875456,0.21677655677655677
0.25403556899982505,2.6617582417582417,3.3,1.3659340659340657
0.2542700390040409,2.6617582417582417,3.3,1.3659340659340657
0.25957146000291687,2.6617582417582417,3.3,1.3659340659340657
0.2612960880069295,2.6617582417582417,3.3,1.3659340659340657
0.2645410320110386,2.6617582417582417,3.3,1.3659340659340657
0.2654898670007242,2.6617582417582417,3.3,1.3659340659340657
0.26714525000716094,2.6617582417582417,3.3,1.3659340659340657
0.27139889101090375,2.6617582417582417,3.3,1.3659340659340657
0.27250979500240646,2.6617582417582417,3.3,1.3659340659340657
0.2728161090053618,2.6617582417582417,3.3,1.3659340659340657
0.2778975430119317,2.6617582417582417,3.3,1.3659340659340657
0.2811945720022777,2.6617582417582417,3.3,1.3659340659340657
0.28285953000886366,2.6617582417582417,3.3,1.3659340659340657
0.28732453800330404,2.6617582417582417,3.3,1.3659340659340657
0.28782792801212054,2.6617582417582417,3.3,1.3659340659340657
0.2916531280061463,2.6617582417582417,3.3,1.3659340659340657
0.29570693999994546,3.203296703296703,1.8978021978021975,0.24095238095238095
0.29901996300031897,3.203296703296703,1.8978021978021975,0.24095238095238095
0.2993210109998472,3.203296703296703,1.8978021978021975,0.24095238095238095
0.30666592600755394,3.203296703296703,1.8978021978021975,0.24095238095238095
0.31082632100151386,3.203296703296703,1.8978021978021975,0.24095238095238095
0.31331057401257567,1.456190476190476,0.15633699633699633,0.2377289377289377
0.313480006007012,3.3,2.731062271062271,0.4214652014652014
0.31878649099962786,3.3,2.731062271062271,0.4214652014652014
0.32325421400310006,3.3,2.731062271062271,0.4214652014652014
0.32877171601285227,3.3,2.731062271062271,0.4214652014652014
0.3303891990071861,3.3,2.731062271062271,0.4214652014652014
0.33437279000645503,3.3,2.731062271062271,0.4214652014652014
0.33953467800165527,3.3,2.731062271062271,0.4214652014652014
0.3416017320123501,3.3,2.731062271062271,0.4214652014652014
0.3425329230085481,3.3,1.3578754578754577,0.09347985347985348
0.34424102600314654,3.3,1.3578754578754577,0.09347985347985348
0.3474589969991939,3.3,1.3578754578754577,0.09347985347985348
0.3490790550131351,3.3,3.021172161172161,0.6527472527472526
0.35474568100471515,2.028351648351648,0.3441025641025641,0.4545054945054945
0.3549058180069551,3.3,2.1645421245421246,0.30864468864468864
0.36007166700437665,3.3,2.1645421245421246,0.30864468864468864
0.36256316100480035,2.577948717948718,1.9292307692307693,0.26593406593406593
0.36267201900773216,2.577948717948718,1.9292307692307693,0.26593406593406593
0.3678581150015816,2.577948717948718,1.9292307692307693,0.26593406593406593
0.37143071700120345,2.577948717948718,1.9292307692307693,0.26593406593406593
0.3770137930114288,1.6367032967032966,0.3779487179487179,0.14102564102564102
0.3779935010097688,2.6698168498168497,2.545714285714286,1.888131868131868
0.37897083700227086,2.6698168498168497,2.545714285714286,1.888131868131868
0.3806415430008201,2.6698168498168497,2.545714285714286,1.888131868131868
0.3839355620002607,2.6698168498168497,2.545714285714286,1.888131868131868
0.38440077799896244,2.6698168498168497,2.545714285714286,1.888131868131868
0.38998343600542285,2.6698168498168497,2.545714285714286,1.888131868131868
0.3901628180028638,2.6698168498168497,2.545714285714286,1.888131868131868
0.39526381000177935,2.6698168498168497,2.545714285714286,1.888131868131868
0.39855164600885473,2.6617582417582417,2.4135531135531134,0.4585347985347985
0.39950193800905254,2.6617582417582417,2.4135531135531134,0.4585347985347985
0.40053504300885834,2.6617582417582417,2.4135531135531134,0.4585347985347985
0.40194729100039694,2.6617582417582417,2.4135531135531134,0.4585347985347985
0.40981369200744666,2.6617582417582417,2.4135531135531134,0.4585347985347985
0.41481006900721695,2.7906959706959706,0.3529670329670329,0.0975091575091575
0.42058881001139525,2.7906959706959706,0.3529670329670329,0.0975091575091575
0.4207146350090625,3.3,1.8687912087912086,0.25868131868131866
0.426247923009214,3.3,1.8687912087912086,0.25868131868131866
0.4272442410001531,3.3,1.8687912087912086,0.25868131868131866
0.42756236500281375,3.3,1.8687912087912086,0.25868131868131866
0.43341183601296507,3.3,1.8687912087912086,0.25868131868131866
0.4410337930021342,3.3,1.8687912087912086,0.25868131868131866
0.44608177700138185,3.3,1.8687912087912086,0.25868131868131866
0.4504380300058983,3.3,1.8687912087912086,0.25868131868131866
0.45281741600774694,3.3,1.8687912087912086,0.25868131868131866
0.452933970009326,3.3,1.8687912087912086,0.25868131868131866
0.4615613130008569,3.3,1.8687912087912086,0.25868131868131866
0.46909054400748573,3.3,1.8687912087912086,0.25868131868131866
0.47466798601089977,3.3,1.8687912087912086,0.25868131868131866
0.4749045060016215,3.3,1.8687912087912086,0.25868131868131866
0.4798676390055334,3.3,1.8687912087912086,0.25868131868131866
0.4846176420105621,3.3,1.8687912087912086,0.25868131868131866
0.48479246100760065,3.3,0.9388278388278387,0.033846153846153845
0.4920074730034685,3.3,0.9388278388278387,0.033846153846153845
0.4973240560066188,3.3,0.9388278388278387,0.033846153846153845
0.49821837100898847,3.3,0.9388278388278387,0.033846153846153845
0.4998511300073005,3.3,0.9388278388278387,0.033846153846153845
0.5061109689995646,3.3,0.9388278388278387,0.033846153846153845
0.5098799760016846,3.3,0.9388278388278387,0.033846153846153845
0.5153947050130228,3.3,0.9388278388278387,0.033846153846153845
0.5157499410124728,3.3,0.9388278388278387,0.033846153846153845
0.5246735570108285,3.3,0.9388278388278387,0.033846153846153845
0.5298702170111937,3.3,0.9388278388278387,0.033846153846153845
0.5323241260048235,3.3,0.7994139194139194,0.9339926739926739
0.5400625980109908,3.3,0.7994139194139194,0.9339926739926739
0.544100534010795,3.3,0.7994139194139194,0.9339926739926739
0.5473531330062542,3.3,0.7994139194139194,0.9339926739926739
0.5482147880102275,3.3,0.7994139194139194,0.9339926739926739
0.5497938460030127,2.7939194139194137,0.361025641025641,0.618095238095238
0.5557034420053242,2.7939194139194137,0.361025641025641,0.618095238095238
0.5597604330105241,3.3,0.5641025641025641,0.22805860805860806
0.5636647420033114,3.3,0.5641025641025641,0.22805860805860806
0.5675666050083237,3.3,0.5641025641025641,0.22805860805860806
0.5726811160129728,3.3,0.5641025641025641,0.22805860805860806
0.5758796610025456,3.3,0.5641025641025641,0.22805860805860806
0.5769950860121753,3.3,0.5641025641025641,0.22805860805860806
0.577313961010077,3.3,0.5641025641025641,0.22805860805860806
0.5821324580028886,3.3,0.5641025641025641,0.22805860805860806
0.5822451130079571,3.3,0.5641025641025641,0.22805860805860806
0.5909387080027955,3.3,0.5641025641025641,0.22805860805860806
0.5980747930007055,3.1968498168498165,0.415018315018315,0.08703296703296703
0.6024417180015007,3.1968498168498165,0.415018315018315,0.08703296703296703
0.6046315310086356,3.1968498168498165,0.415018315018315,0.08703296703296703
0.6050483740109485,3.175897435897436,0.4891575091575091,0.06285714285714286
0.6112837469991064,3.175897435897436,0.4891575091575091,0.06285714285714286
0.61477026900684,2.0525274725274723,0.3537728937728937,0.28527472527472525
0.6150692340015667,2.66014652014652,0.6712820512820512,0.24175824175824176
0.6226774070091778,2.66014652014652,0.6712820512820512,0.24175824175824176
0.6268248109990964,2.66014652014652,0.6712820512820512,0.24175824175824176
0.6292881580011453,2.66014652014652,0.6712820512820512,0.24175824175824176
0.6355523860111134,2.66014652014652,0.6712820512820512,0.24175824175824176
0.640142073010793,2.6706227106227107,0.6027838827838827,0.190989010989011
0.6451774779998232,2.6706227106227107,0.6027838827838827,0.190989010989011
0.6491513390064938,2.6706227106227107,0.6027838827838827,0.190989010989011
0.6555896990030305,2.6706227106227107,0.6027838827838827,0.190989010989011
0.6616005230025621,3.3,0.4786813186813187,0.21355311355311357
0.6673310520127416,3.3,0.4786813186813187,0.21355311355311357
0.6765046740038088,3.3,0.4786813186813187,0.21355311355311357
0.68297482401249,3.3,0.4786813186813187,0.21355311355311357
0.6899108330107993,0.1692307692307692,2.233040293040293,0.18695970695970696
0.6957039890112355,0.1692307692307692,2.233040293040293,0.18695970695970696
0.7050860529998317,0.1692307692307692,2.233040293040293,0.18695970695970696
0.7126031600055285,0.1692307692307692,2.233040293040293,0.18695970695970696
0.7201420880010119,3.1194871794871792,0.41098901098901097,0.7454212454212454
0.7280751880025491,3.3,0.49076923076923074,0.2498168498168498
0.7339420650096145,3.3,0.49076923076923074,0.2498168498168498
0.7430775579996407,3.3,0.49076923076923074,0.2498168498168498
0.7511516240047058,0.4585347985347985,2.3305494505494506,0.18534798534798536
0.7607181200000923,0.4585347985347985,2.3305494505494506,0.18534798534798536
0.7676725450000959,2.659340659340659,2.739120879120879,0.4819047619047619
0.773911329000839,2.714945054945055,0.5826373626373627,0.6728937728937728
0.7793537840043427,2.714945054945055,0.5826373626373627,0.6728937728937728
0.7797446790063987,2.714945054945055,0.5826373626373627,0.6728937728937728
0.7896197260124609,2.714945054945055,0.5826373626373627,0.6728937728937728
0.7970813150022877,2.714945054945055,0.5826373626373627,0.6728937728937728
0.8025322290050099,2.6536996336996337,0.6616117216117217,0.0273992673992674
0.802909644000465,2.6536996336996337,0.6616117216117217,0.0273992673992674
0.8107418800063897,2.6536996336996337,0.6616117216117217,0.0273992673992674
0.8163600420084549,1.8365567765567765,0.17084249084249084,0.23047619047619047
0.8164706870011287,2.6617582417582417,2.613406593406593,0.4738461538461538
0.824045298009878,2.6617582417582417,2.613406593406593,0.4738461538461538
0.8282944410020718,2.6617582417582417,2.613406593406593,0.4738461538461538
0.8292410460126121,2.6617582417582417,2.613406593406593,0.4738461538461538
0.8302366650023032,2.6617582417582417,2.613406593406593,0.4738461538461538
0.8311345050024102,2.6617582417582417,2.613406593406593,0.4738461538461538
0.8329313100111904,2.6617582417582417,2.613406593406593,0.4738461538461538
0.8371951920125866,2.6617582417582417,2.613406593406593,0.4738461538461538
0.8374748890055344,2.6617582417582417,2.613406593406593,0.4738461538461538
0.8430222050083103,2.6617582417582417,2.613406593406593,0.4738461538461538
0.843889804003993,2.6617582417582417,2.613406593406593,0.4738461538461538
0.8455841910035815,2.6617582417582417,2.613406593406593,0.4738461538461538
0.8487019650056027,2.6617582417582417,2.613406593406593,0.4738461538461538
0.8511504880007124,2.6617582417582417,2.613406593406593,0.4738461538461538
0.8513509700133,2.6617582417582417,2.613406593406593,0.4738461538461538
0.8594034920097329,2.6617582417582417,2.613406593406593,0.4738461538461538
0.8649999170011142,2.6617582417582417,2.613406593406593,0.4738461538461538
0.8652778860123362,2.6617582417582417,2.613406593406593,0.4738461538461538
0.8732907150115352,2.6617582417582417,2.613406593406593,0.4738461538461538
0.8771516370034078,2.6617582417582417,2.613406593406593,0.4738461538461538
0.8809931660071015,2.6617582417582417,2.613406593406593,0.4738461538461538
0.8896255350118736,3.3,1.0242490842490841,0.011282051282051281
0.8939379380026367,1.7938461538461536,0.12732600732600732,0.23531135531135527
0.8955892790108919,1.7938461538461536,0.12732600732600732,0.23531135531135527
0.8994305820087902,1.7938461538461536,0.12732600732600732,0.23531135531135527
0.9074666870001238,1.7938461538461536,0.12732600732600732,0.23531135531135527
0.911919187012245,2.6456410256410257,1.361098901098901,0.1926007326007326
0.9128555730130756,2.6456410256410257,1.361098901098901,0.1926007326007326
0.9146532730082981,2.6456410256410257,1.361098901098901,0.1926007326007326
0.9185984970099526,2.6456410256410257,1.361098901098901,0.1926007326007326
0.9237465520127444,2.6456410256410257,1.361098901098901,0.1926007326007326
0.9253835250128759,2.6456410256410257,1.361098901098901,0.1926007326007326
0.9295930460066302,2.6456410256410257,1.361098901098901,0.1926007326007326
0.9319815820053918,2.6085714285714285,0.469010989010989,0.6189010989010989
0.9321864980011014,2.6085714285714285,0.469010989010989,0.6189010989010989
0.9418824330059579,2.6085714285714285,0.469010989010989,0.6189010989010989
0.9483857080049347,2.6085714285714285,0.469010989010989,0.6189010989010989
0.9546061110013397,3.3,2.9776556776556777,0.6575824175824176
0.9578893190046074,3.3,2.9776556776556777,0.6575824175824176
0.958132771003875,3.3,2.9776556776556777,0.6575824175824176
0.96287896001013,3.3,2.9776556776556777,0.6575824175824176
0.963014816006762,3.3,2.9776556776556777,0.6575824175824176
0.9701405970117776,3.3,2.9776556776556777,0.6575824175824176
0.9749451340030646,3.3,2.9776556776556777,0.6575824175824176
0.9819148200040217,2.655311355311355,0.7236630036630036,0.10315018315018315
0.9860950470028911,2.655311355311355,0.7236630036630036,0.10315018315018315
0.9894765250064665,2.655311355311355,0.7236630036630036,0.10315018315018315
0.9897567580046598,2.655311355311355,0.7236630036630036,0.10315018315018315
0.9951365790038835,2.655311355311355,0.7236630036630036,0.10315018315018315
0.9967486810055561,2.655311355311355,0.7236630036630036,0.10315018315018315
1.0006141630001366,2.655311355311355,0.7236630036630036,0.10315018315018315
1.0094272900023498,2.655311355311355,0.7236630036630036,0.10315018315018315
1.0155953940120526,2.655311355311355,0.7236630036630036,0.10315018315018315
1.0192713720025495,2.655311355311355,0.7236630036630036,0.10315018315018315
1.0282113310095156,2.655311355311355,0.7236630036630036,0.10315018315018315
1.0335886700049741,2.655311355311355,0.7236630036630036,0.10315018315018315
1.0404068530042423,2.6649816849816848,1.0919413919413918,0.3352380952380952
1.0445015630102716,2.6649816849816848,1.0919413919413918,0.3352380952380952
1.0477696020097937,3.3,0.6237362637362637,0.0
1.0486819370125886,3.3,0.6237362637362637,0.0
1.0495869510050397,2.3813186813186813,0.5906959706959707,0.5906959706959707
1.051406915008556,2.3813186813186813,0.5906959706959707,0.5906959706959707
1.0563260380004067,2.3813186813186813,0.5906959706959707,0.5906959706959707
1.0602175850071944,2.3813186813186813,0.5906959706959707,0.5906959706959707
1.0640078639989952,1.5408058608058608,2.266886446886447,0.03868131868131868
1.0692632810096256,1.5408058608058608,2.266886446886447,0.03868131868131868
1.0736031570122577,1.5408058608058608,2.266886446886447,0.03868131868131868
1.0738835750089493,1.5408058608058608,2.266886446886447,0.03868131868131868
1.0788866310031153,1.5408058608058608,2.266886446886447,0.03868131868131868
1.082027836004272,1.5408058608058608,2.266886446886447,0.03868131868131868
1.0836382460111054,1.5408058608058608,2.266886446886447,0.03868131868131868
1.0899347689992283,1.5408058608058608,2.266886446886447,0.03868131868131868
1.0931553600094048,2.6005128205128205,0.2635164835164835,0.5334798534798535
1.094837908007321,2.6005128205128205,0.2635164835164835,0.5334798534798535
1.0985400440113153,2.6005128205128205,0.2635164835164835,0.5334798534798535
1.1057378330006031,2.6005128205128205,0.2635164835164835,0.5334798534798535
1.1095291350065963,2.6005128205128205,0.2635164835164835,0.5334798534798535
1.114107828005217,2.6005128205128205,0.2635164835164835,0.5334798534798535
1.1143234170012875,2.6005128205128205,0.2635164835164835,0.5334798534798535
1.1202151650068117,2.6005128205128205,0.2635164835164835,0.5334798534798535
1.126151877004304,2.651282051282051,3.3,1.6616849816849815
1.1316632620000746,2.651282051282051,3.3,1.6616849816849815
1.1331748680095188,1.7543589743589743,0.1402197802197802,0.303003663003663
1.1381982840102864,2.673040293040293,0.7599267399267399,0.2063003663003663
1.142297045007581,2.6504761904761907,0.6898168498168498,0.06446886446886446
1.1445853390032426,2.6504761904761907,0.6898168498168498,0.06446886446886446
1.1454303530044854,2.7939194139194137,0.311062271062271,0.1378021978021978
1.1469771560077788,2.7939194139194137,0.311062271062271,0.1378021978021978
1.1514317680121167,3.3,0.9404395604395603,0.9283516483516483
1.1530974560009781,1.7446886446886447,0.28285714285714286,0.3706959706959707
1.1567921710084192,2.6545054945054947,2.635970695970696,0.5213919413919413
1.1625390219996916,2.6545054945054947,2.635970695970696,0.5213919413919413
1.1626684240036411,2.6545054945054947,2.635970695970696,0.5213919413919413
1.1688224270037608,2.6545054945054947,2.635970695970696,0.5213919413919413
1.172320812009275,2.6545054945054947,2.635970695970696,0.5213919413919413
1.1725034330011113,2.1315018315018315,1.1177289377289377,0.17406593406593407
1.1772596650116611,2.6690109890109888,2.681904761904762,0.47465201465201456
1.1773999420111068,2.6690109890109888,2.681904761904762,0.47465201465201456
1.182276517007267,2.6690109890109888,2.681904761904762,0.47465201465201456
1.1925956820050487,2.6690109890109888,2.681904761904762,0.47465201465201456
1.200002953002695,2.6690109890109888,2.681904761904762,0.47465201465201456
1.2063658420083812,2.6617582417582417,3.3,1.834139194139194
1.211801135999849,2.6617582417582417,3.3,1.834139194139194
1.212822542001959,1.3336996336996336,0.18615384615384614,0.10073260073260072
1.2136347530031344,2.655311355311355,2.7455677655677655,0.49238095238095236
1.2154801140131894,2.655311355311355,2.7455677655677655,0.49238095238095236
1.2179349550133338,2.655311355311355,2.7455677655677655,0.49238095238095236
1.218146950006485,2.655311355311355,2.7455677655677655,0.49238095238095236
1.2232218060089508,2.655311355311355,2.7455677655677655,0.49238095238095236
1.2262109840085031,2.655311355311355,2.7455677655677655,0.49238095238095236
1.229273060002015,2.6649816849816848,3.3,1.295018315018315
1.2315810760046588,2.2475457875457874,0.3199267399267399,0.4867399267399267
1.23179853700276,2.2475457875457874,0.3199267399267399,0.4867399267399267
1.2369553800090216,3.3,2.5715018315018314,0.39890109890109887
1.2406821600015974,2.6649816849816848,0.8856410256410255,0.25223443223443226
1.2460537430015393,2.6649816849816848,0.8856410256410255,0.25223443223443226
1.247800092009129,2.6649816849816848,0.8856410256410255,0.25223443223443226
1.2512467170017771,2.6649816849816848,0.8856410256410255,0.25223443223443226
1.2515235480095726,2.6649816849816848,0.8856410256410255,0.25223443223443226
1.2563128670008155,2.6649816849816848,0.8856410256410255,0.25223443223443226
1.256421924001188,2.6649816849816848,0.8856410256410255,0.25223443223443226
1.2612875300110318,2.6649816849816848,0.8856410256410255,0.25223443223443226
1.2660386040079175,2.6649816849816848,0.8856410256410255,0.25223443223443226
1.2662401120032882,2.154065934065934,0.3449084249084249,0.28930402930402926
1.2710390010033734,2.154065934065934,0.3449084249084249,0.28930402930402926
1.275833624007646,2.154065934065934,0.3449084249084249,0.28930402930402926
1.2760063840105431,2.154065934065934,0.3449084249084249,0.28930402930402926
1.2807275480008684,2.154065934065934,0.3449084249084249,0.28930402930402926
1.2809311330056516,2.154065934065934,0.3449084249084249,0.28930402930402926
1.2858185790100833,2.154065934065934,0.3449084249084249,0.28930402930402926
1.2906336860032752,2.154065934065934,0.3449084249084249,0.28930402930402926
1.295503125002142,2.154065934065934,0.3449084249084249,0.28930402930402926
1.2957094370067352,2.154065934065934,0.3449084249084249,0.28930402930402926
1.3004283110058168,2.154065934065934,0.3449084249084249,0.28930402930402926
1.3006560310022905,2.154065934065934,0.3449084249084249,0.28930402930402926
1.3055001660104608,2.154065934065934,0.3449084249084249,0.28930402930402926
1.3109748020069674,2.154065934065934,0.3449084249084249,0.28930402930402926
1.3120087260031141,1.9074725274725273,0.22564102564102564,0.3263736263736263
1.3128612610016717,1.9074725274725273,0.22564102564102564,0.3263736263736263
1.3144287090108264,1.9074725274725273,0.22564102564102564,0.3263736263736263
1.3190658670064295,1.9074725274725273,0.22564102564102564,0.3263736263736263
1.3193361680023372,1.9074725274725273,0.22564102564102564,0.3263736263736263
1.324489775011898,1.9074725274725273,0.22564102564102564,0.3263736263736263
1.3276100790099008,1.9074725274725273,0.22564102564102564,0.3263736263736263
1.3293392660125392,1.9074725274725273,0.22564102564102564,0.3263736263736263
1.3325198880047537,1.9074725274725273,0.22564102564102564,0.3263736263736263
1.3348557150020497,1.9074725274725273,0.22564102564102564,0.3263736263736263
1.3351044050068595,1.9074725274725273,0.22564102564102564,0.3263736263736263
1.3398656120116357,1.9074725274725273,0.22564102564102564,0.3263736263736263
1.3399816090095555,1.4755311355311356,2.0686446886446883,0.14263736263736262
1.3452928250044351,1.4755311355311356,2.0686446886446883,0.14263736263736262
1.3483154390123673,2.3458608058608057,0.792967032967033,0.2063003663003663
1.3513924520084402,2.9196336996336996,0.4021245421245421,0.6777289377289377
1.3537524300045334,1.174139194139194,0.17648351648351646,0.12168498168498168
1.3539628460130189,1.174139194139194,0.17648351648351646,0.12168498168498168
1.359574394999072,1.174139194139194,0.17648351648351646,0.12168498168498168
1.3603990810079267,1.2998534798534798,2.2878388278388275,0.06688644688644689
1.3619249830080662,1.2998534798534798,2.2878388278388275,0.06688644688644689
1.3661344140127767,1.2998534798534798,2.2878388278388275,0.06688644688644689
1.3682650560076581,2.725421245421245,0.4416117216117216,0.17245421245421244
1.369079103009426,2.725421245421245,0.4416117216117216,0.17245421245421244
1.371203864007839,2.725421245421245,0.4416117216117216,0.17245421245421244
1.3720239530084655,2.725421245421245,0.4416117216117216,0.17245421245421244
1.3742367740051122,2.725421245421245,0.4416117216117216,0.17245421245421244
1.374546637001913,2.725421245421245,0.4416117216117216,0.17245421245421244
1.3795006100117462,2.725421245421245,0.4416117216117216,0.17245421245421244
1.3845007510099094,2.725421245421245,0.4416117216117216,0.17245421245421244
1.3894370210036868,2.725421245421245,0.4416117216117216,0.17245421245421244
1.3941281100123888,3.3,3.3,1.1999267399267397
1.3943585780070862,3.3,3.3,1.1999267399267397
1.3992285130079836,3.3,3.3,1.1999267399267397
1.404536044006818,3.3,3.3,1.1999267399267397
1.4091090180008905,3.3,3.3,1.1999267399267397
1.413253810009337,3.3,3.3,1.1999267399267397
1.416054900008021,1.647985347985348,0.14424908424908423,0.21597069597069596
1.420166854004492,1.647985347985348,0.14424908424908423,0.21597069597069596
1.4236072470084764,1.647985347985348,0.14424908424908423,0.21597069597069596
1.4243703360116342,3.3,0.5504029304029303,0.020146520146520144
1.4264953240053728,3.3,0.5504029304029303,0.020146520146520144
1.4273550270008855,3.3,0.5504029304029303,0.020146520146520144
1.4288493480125908,3.3,0.5504029304029303,0.020146520146520144
1.4337675800052239,1.9816117216117215,0.24498168498168496,0.4045421245421245
1.4339841500041075,2.6649816849816848,2.6585347985347987,0.4778754578754579
1.4386359190102667,2.6649816849816848,2.6585347985347987,0.4778754578754579
1.4389035500062164,2.6649816849816848,2.6585347985347987,0.4778754578754579
1.4437670000043,2.6649816849816848,2.6585347985347987,0.4778754578754579
1.4485338520025834,3.20007326007326,0.6793406593406592,0.1241025641025641
1.448800119003863,3.3,2.4820512820512817,0.7309157509157509
1.4535841230099322,3.3,2.4820512820512817,0.7309157509157509
1.4537143310008105,3.3,2.4820512820512817,0.7309157509157509
1.4584574280015659,3.3,2.4820512820512817,0.7309157509157509
1.458659970012377,3.3,2.4820512820512817,0.7309157509157509
1.463491160000558,3.3,2.4820512820512817,0.7309157509157509
1.4682899570034351,3.3,2.4820512820512817,0.7309157509157509
1.4684133480041055,3.3,2.4820512820512817,0.7309157509157509
1.4731981060031103,3.3,2.4820512820512817,0.7309157509157509
1.4733447020116728,3.3,2.4820512820512817,0.7309157509157509
1.4781848929997068,3.3,2.4820512820512817,0.7309157509157509
1.4829772030061577,1.0234432234432234,2.0468864468864467,0.18776556776556774
1.4831656610040227,1.0234432234432234,2.0468864468864467,0.18776556776556774
1.4878403210022952,1.0234432234432234,2.0468864468864467,0.18776556776556774
1.4886235620069783,1.0234432234432234,2.0468864468864467,0.18776556776556774
1.4907199850131292,2.7197802197802194,0.2917216117216117,0.5657142857142857
1.4921601660025772,2.7197802197802194,0.2917216117216117,0.5657142857142857
1.4969374420034,2.7197802197802194,0.2917216117216117,0.5657142857142857
1.4971309710090281,2.7197802197802194,0.2917216117216117,0.5657142857142857
1.5018986250070157,2.7197802197802194,0.2917216117216117,0.5657142857142857
1.50210644400795,2.7197802197802194,0.2917216117216117,0.5657142857142857
1.5070262560038827,2.0734798534798533,0.2925274725274725,0.2345054945054945
1.5118762100028107,2.465128205128205,0.9315750915750916,0.1523076923076923
1.5120111010037363,2.465128205128205,0.9315750915750916,0.1523076923076923
1.516777495999122,2.465128205128205,0.9315750915750916,0.1523076923076923
1.5168846160086105,2.465128205128205,0.9315750915750916,0.1523076923076923
1.5216219480062136,2.465128205128205,0.9315750915750916,0.1523076923076923
1.5218597220082302,2.465128205128205,0.9315750915750916,0.1523076923076923
1.5266675000020768,2.465128205128205,0.9315750915750916,0.1523076923076923
1.5315293190069497,3.3,2.307179487179487,0.7317216117216117
1.5364835030050017,3.3,2.307179487179487,0.7317216117216117
1.5413873570068972,3.3,2.307179487179487,0.7317216117216117
1.5468603350018384,0.3723076923076923,2.313626373626373,0.10315018315018315
1.5494077160110464,0.3723076923076923,2.313626373626373,0.10315018315018315
1.5548468460037839,0.3723076923076923,2.313626373626373,0.10315018315018315
1.5564624940016074,0.3723076923076923,2.313626373626373,0.10315018315018315
1.5602594780066283,2.652087912087912,3.3,1.5416117216117216
1.5655294190073619,2.652087912087912,3.3,1.5416117216117216
1.568586266002967,2.805201465201465,0.27399267399267396,0.12893772893772892
1.5715895400062436,2.805201465201465,0.27399267399267396,0.12893772893772892
1.5739010410034098,2.805201465201465,0.27399267399267396,0.12893772893772892
1.5747440960112726,2.6617582417582417,2.5271794871794873,0.46417582417582415
1.5763315130025148,2.6617582417582417,2.5271794871794873,0.46417582417582415
1.5805823350092396,2.6617582417582417,2.5271794871794873,0.46417582417582415
1.582722384002409,2.6617582417582417,2.5271794871794873,0.46417582417582415
1.5841639330028556,2.6617582417582417,2.5271794871794873,0.46417582417582415
1.5888312850001967,2.6617582417582417,2.5271794871794873,0.46417582417582415
1.5890334770083427,2.6617582417582417,2.5271794871794873,0.46417582417582415
1.5937532630050555,2.6617582417582417,2.5271794871794873,0.46417582417582415
1.5938764530001208,2.6617582417582417,2.5271794871794873,0.46417582417582415
1.5985550250043161,2.6617582417582417,2.5271794871794873,0.46417582417582415
1.5987351370131364,2.6617582417582417,2.5271794871794873,0.46417582417582415
1.6034264879999682,2.6617582417582417,2.5271794871794873,0.46417582417582415
1.6035684550006408,2.6617582417582417,2.5271794871794873,0.46417582417582415
1.6088968140102224,2.6617582417582417,2.5271794871794873,0.46417582417582415
1.6110134059999837,2.4957509157509157,0.25787545787545785,0.17487179487179486
1.6124687200062908,2.4957509157509157,0.25787545787545785,0.17487179487179486
1.6171226510050474,2.4957509157509157,0.25787545787545785,0.17487179487179486
1.6173153429990634,2.4957509157509157,0.25787545787545785,0.17487179487179486
1.622278956012451,2.4957509157509157,0.25787545787545785,0.17487179487179486
1.6267869160074042,1.913919413919414,2.049304029304029,0.195018315018315
1.6283624600037,1.913919413919414,2.049304029304029,0.195018315018315
1.6328565450094175,1.913919413919414,2.049304029304029,0.195018315018315
1.6331457790074637,1.913919413919414,2.049304029304029,0.195018315018315
1.6384992290113587,1.913919413919414,2.049304029304029,0.195018315018315
1.6410755630058702,1.913919413919414,2.049304029304029,0.195018315018315
1.645716983010061,1.913919413919414,2.049304029304029,0.195018315018315
1.6459665530128404,1.913919413919414,2.049304029304029,0.195018315018315
1.6511665600119159,1.913919413919414,2.049304029304029,0.195018315018315
1.6548276120010996,1.913919413919414,2.049304029304029,0.195018315018315
1.6627597879996756,1.913919413919414,2.049304029304029,0.195018315018315
1.6691115030116634,1.913919413919414,2.049304029304029,0.195018315018315
1.6752541250025388,1.913919413919414,2.049304029304029,0.195018315018315
1.680775895001716,1.913919413919414,2.049304029304029,0.195018315018315
1.6811039770109346,1.913919413919414,2.049304029304029,0.195018315018315
1.6878617590118665,1.913919413919414,2.049304029304029,0.195018315018315
1.6918731379992096,1.913919413919414,2.049304029304029,0.195018315018315
1.6956062060053227,1.913919413919414,2.049304029304029,0.195018315018315
1.695718287010095,1.913919413919414,2.049304029304029,0.195018315018315
1.7010209600121016,1.913919413919414,2.049304029304029,0.195018315018315
1.7034348230081378,1.913919413919414,2.049304029304029,0.195018315018315
1.708837960002711,3.3,0.5882783882783883,0.02498168498168498
1.7111401450092671,3.3,0.5882783882783883,0.02498168498168498
1.711392577009974,3.3,0.5882783882783883,0.02498168498168498
1.7165377240016824,3.3,0.5882783882783883,0.02498168498168498
1.7207872220024,3.3,0.5882783882783883,0.02498168498168498
1.7229345260129776,3.3,0.5882783882783883,0.02498168498168498
1.7237674380012322,3.3,0.5882783882783883,0.02498168498168498
1.725824649009155,3.3,0.5882783882783883,0.02498168498168498
1.726667623006506,3.3,0.5882783882783883,0.02498168498168498
1.7289423550100764,3.3,0.5882783882783883,0.02498168498168498
1.7291470210038824,3.3,0.5882783882783883,0.02498168498168498
1.73390786901291,3.3,0.5882783882783883,0.02498168498168498
1.7340839600074105,2.652087912087912,2.631135531135531,0.4996336996336996
1.7387544210068882,2.652087912087912,2.631135531135531,0.4996336996336996
1.739060159001383,2.652087912087912,2.631135531135531,0.4996336996336996
1.7437651620130055,2.652087912087912,2.631135531135531,0.4996336996336996
1.7439336800016463,2.652087912087912,2.631135531135531,0.4996336996336996
1.7486285360064358,2.652087912087912,2.631135531135531,0.4996336996336996
1.7489093050098745,3.3,2.71010989010989,0.523003663003663
1.754157433999353,3.3,2.71010989010989,0.523003663003663
1.756525414006319,3.3,2.71010989010989,0.523003663003663
1.756711598005495,3.3,2.71010989010989,0.523003663003663
1.761517791004735,3.3,2.71010989010989,0.523003663003663
1.7617165910050971,3.3,2.71010989010989,0.523003663003663
1.7664394510065904,3.3,2.71010989010989,0.523003663003663
1.7666606290003983,3.3,2.71010989010989,0.523003663003663
1.7714189980033552,3.3,2.71010989010989,0.523003663003663
1.7760948430077406,3.3,2.71010989010989,0.523003663003663
1.7763953350076918,3.3,2.71010989010989,0.523003663003663
1.781176566000795,3.3,2.71010989010989,0.523003663003663
1.7812932770029875,3.3,2.71010989010989,0.523003663003663
1.786045800006832,3.3,2.71010989010989,0.523003663003663
1.7862170340085868,3.3,2.71010989010989,0.523003663003663
1.790888873001677,3.3,2.71010989010989,0.523003663003663
1.7911378930002684,3.3,0.5769963369963369,0.8542124542124543
1.7952696580032352,3.3,0.5769963369963369,0.8542124542124543
1.79866072301229,3.3,0.5769963369963369,0.8542124542124543
1.7994140570081072,3.3,0.5769963369963369,0.8542124542124543
1.8009985259996029,3.3,0.5769963369963369,0.8542124542124543
1.805061475999537,3.3,1.3844688644688645,0.1095970695970696
1.8079885050101439,2.22981684981685,0.5657142857142857,0.1772893772893773
1.8107817190029891,2.22981684981685,0.5657142857142857,0.1772893772893773
1.8149731640005484,2.22981684981685,0.5657142857142857,0.1772893772893773
1.8177780980040552,2.22981684981685,0.5657142857142857,0.1772893772893773
1.8217583500081673,2.22981684981685,0.5657142857142857,0.1772893772893773
1.8252607460017316,2.22981684981685,0.5657142857142857,0.1772893772893773
1.8254680320096668,2.22981684981685,0.5657142857142857,0.1772893772893773
1.8302344490075484,2.22981684981685,0.5657142857142857,0.1772893772893773
1.830439549012226,2.22981684981685,0.5657142857142857,0.1772893772893773
1.8351532840024447,2.22981684981685,0.5657142857142857,0.1772893772893773
1.8354055710078683,2.22981684981685,0.5657142857142857,0.1772893772893773
1.8401433540129801,2.22981684981685,0.5657142857142857,0.1772893772893773
1.840390738012502,2.22981684981685,0.5657142857142857,0.1772893772893773
1.845156630006386,2.22981684981685,0.5657142857142857,0.1772893772893773
1.845360179009731,2.22981684981685,0.5657142857142857,0.1772893772893773
1.850167398006306,2.22981684981685,0.5657142857142857,0.1772893772893773
1.8502869560034014,1.8784615384615382,0.23208791208791207,0.3038095238095238
1.8550669670075877,1.8784615384615382,0.23208791208791207,0.3038095238095238
1.855308733007405,1.8784615384615382,0.23208791208791207,0.3038095238095238
1.8600524250068702,1.8784615384615382,0.23208791208791207,0.3038095238095238
1.8602630120003596,1.8784615384615382,0.23208791208791207,0.3038095238095238
1.8650308450014563,1.8784615384615382,0.23208791208791207,0.3038095238095238
1.8651866400032304,1.6238095238095236,0.2248351648351648,0.3416849816849817
1.8699709870124934,1.6238095238095236,0.2248351648351648,0.3416849816849817
1.8701571690035053,1.6238095238095236,0.2248351648351648,0.3416849816849817
1.8749849220039323,1.6238095238095236,0.2248351648351648,0.3416849816849817
1.8751363710034639,3.3,0.4553113553113553,0.19018315018315018
1.8799417640111642,3.3,0.4553113553113553,0.19018315018315018
1.8801050590118393,3.3,0.4553113553113553,0.19018315018315018
1.884846181012108,3.3,0.4553113553113553,0.19018315018315018
1.885032130012405,1.9155311355311355,0.30945054945054945,0.32476190476190475
1.8897803540021414,1.9155311355311355,0.30945054945054945,0.32476190476190475
1.8900138760072878,1.9155311355311355,0.30945054945054945,0.32476190476190475
1.8947381580073852,1.9155311355311355,0.30945054945054945,0.32476190476190475
1.8949208400008501,2.6488644688644687,0.6882051282051282,0.0547985347985348
1.899698465000256,2.6488644688644687,0.6882051282051282,0.0547985347985348
1.8999504950043047,2.6488644688644687,0.6882051282051282,0.0547985347985348
1.9049851279996801,2.6488644688644687,0.6882051282051282,0.0547985347985348
1.9092387200071244,2.6488644688644687,0.6882051282051282,0.0547985347985348
1.912067436001962,2.6488644688644687,0.6882051282051282,0.0547985347985348
1.9155348360072821,1.4432967032967032,0.1958241758241758,0.1418315018315018
1.9163597020087764,1.4432967032967032,0.1958241758241758,0.1418315018315018
1.9178328700072598,1.4432967032967032,0.1958241758241758,0.1418315018315018
1.922645985003328,1.4432967032967032,0.1958241758241758,0.1418315018315018
1.9228867540077772,3.3,0.8453479853479853,0.12893772893772892
1.9276093500084244,3.3,0.8453479853479853,0.12893772893772892
1.9277659740037052,3.3,0.8453479853479853,0.12893772893772892
1.93255270300142,3.3,0.8453479853479853,0.12893772893772892
1.9326600630010944,2.1137728937728935,0.3449084249084249,0.4005128205128205
1.9374220650061034,2.1137728937728935,0.3449084249084249,0.4005128205128205
1.9375456320121884,2.1137728937728935,0.3449084249084249,0.4005128205128205
1.9423794280010043,2.1137728937728935,0.3449084249084249,0.4005128205128205
1.9425140610110248,2.1137728937728935,0.3449084249084249,0.4005128205128205
1.9473621670040302,2.1137728937728935,0.3449084249084249,0.4005128205128205
1.9475325620005606,3.3,3.074358974358974,0.929157509157509
1.952626059006434,3.3,3.074358974358974,0.929157509157509
1.9564262320054695,1.838168498168498,0.7027106227106227,0.1555311355311355
1.9599954560108017,2.6665934065934067,0.7905494505494506,0.21516483516483517
1.9602918300079182,2.6665934065934067,0.7905494505494506,0.21516483516483517
1.965123088011751,2.6665934065934067,0.7905494505494506,0.21516483516483517
1.9653067630133592,2.6665934065934067,0.7905494505494506,0.21516483516483517
1.9700081890041474,2.6665934065934067,0.7905494505494506,0.21516483516483517
1.9702868780004792,2.6665934065934067,0.7905494505494506,0.21516483516483517
1.975319657009095,2.6665934065934067,0.7905494505494506,0.21516483516483517
1.9794869480101625,2.6665934065934067,0.7905494505494506,0.21516483516483517
1.9817163680127123,3.3,1.747106227106227,0.1805128205128205
1.9831384700082708,3.3,1.747106227106227,0.1805128205128205
1.9873530240001855,3.3,1.747106227106227,0.1805128205128205
1.9901097540132469,2.629523809523809,0.12732600732600732,0.1643956043956044
1.9942629069992108,1.7043956043956046,0.37150183150183147,0.31267399267399265
1.9978098650026368,2.652087912087912,2.5715018315018314,0.4931868131868131
1.9981145900092088,2.652087912087912,2.5715018315018314,0.4931868131868131
2.002833841004758,2.652087912087912,2.5715018315018314,0.4931868131868131
2.003058731002966,3.1775091575091574,1.7785347985347983,0.19340659340659339
2.0081005050014937,3.2145787545787545,0.5471794871794872,0.10476190476190475
2.012269079001271,2.3845421245421243,0.4835164835164835,0.5463736263736263
2.0154395940044196,2.3845421245421243,0.4835164835164835,0.5463736263736263
2.017110123008024,2.3845421245421243,0.4835164835164835,0.5463736263736263
2.021777292000479,2.3845421245421243,0.4835164835164835,0.5463736263736263
2.021936048011412,2.3845421245421243,0.4835164835164835,0.5463736263736263
2.02712531000725,2.3845421245421243,0.4835164835164835,0.5463736263736263
2.031018515001051,1.8784615384615382,0.28446886446886444,0.23208791208791207
2.0349522290052846,1.4594139194139193,0.1515018315018315,0.19663003663003664
2.0380810080096126,1.4594139194139193,0.1515018315018315,0.19663003663003664
2.0397050010069506,1.4594139194139193,0.1515018315018315,0.19663003663003664
2.0443125540041365,1.4594139194139193,0.1515018315018315,0.19663003663003664
2.044579475012142,1.4594139194139193,0.1515018315018315,0.19663003663003664
2.050087355004507,1.4594139194139193,0.1515018315018315,0.19663003663003664
2.0516220749996137,1.4594139194139193,0.1515018315018315,0.19663003663003664
2.0560336600028677,1.4594139194139193,0.1515018315018315,0.19663003663003664
2.0569500920100836,2.6802930402930403,1.016190476190476,0.48835164835164835
2.058501112012891,2.6802930402930403,1.016190476190476,0.48835164835164835
2.062921445001848,3.3,1.7156776556776556,0.12974358974358974
2.064439467008924,3.3,1.7156776556776556,0.12974358974358974
2.068139252005494,3.3,1.7156776556776556,0.12974358974358974
2.073355768006877,3.3,1.7156776556776556,0.12974358974358974
2.077184087000205,2.652087912087912,2.652087912087912,0.46820512820512816
2.0811457300005713,2.996996336996337,1.6238095238095236,0.7075457875457875
2.0850602380087366,3.3,1.1773626373626374,0.1095970695970696
2.088997837010538,3.3,1.1773626373626374,0.1095970695970696
2.0929437190061435,3.3,3.3,1.0226373626373626
2.096031187000335,3.3,3.3,1.0226373626373626
2.0984873050038004,3.3,3.3,1.0226373626373626
2.1040664500033017,3.3,3.3,1.0226373626373626
2.1055336170102237,3.3,3.3,1.0226373626373626
2.1103939220047323,3.3,3.3,1.0226373626373626
2.11488861500402,3.3,3.3,1.0226373626373626
2.1151970010105288,2.6682051282051282,2.6190476190476186,0.48432234432234433
2.11976510900422,2.6682051282051282,2.6190476190476186,0.48432234432234433
2.1206234880082775,3.3,1.5883516483516482,0.112014652014652
2.122289795006509,3.3,1.5883516483516482,0.112014652014652
2.1259756830113474,3.3,1.5883516483516482,0.112014652014652
2.1314422730065417,3.3,1.5883516483516482,0.112014652014652
2.133194768000976,3.3,1.5883516483516482,0.112014652014652
2.1362442540121265,3.3,1.5883516483516482,0.112014652014652
2.138480633002473,3.3,1.5883516483516482,0.112014652014652
2.1388326470041648,3.3,1.5883516483516482,0.112014652014652
2.1440581460046815,3.3,1.5883516483516482,0.112014652014652
2.1465124740061583,3.3,1.5883516483516482,0.112014652014652
2.1467187640082557,3.3,1.5883516483516482,0.112014652014652
2.151962457006448,3.3,1.5883516483516482,0.112014652014652
2.155335905001266,3.3,1.5883516483516482,0.112014652014652
2.1561739340104396,3.3,1.5883516483516482,0.112014652014652
2.1577333050081506,3.3,1.5883516483516482,0.112014652014652
2.161801522001042,3.3,1.5883516483516482,0.112014652014652
2.165027856011875,3.3,1.5883516483516482,0.112014652014652
2.1665834010054823,1.88007326007326,0.1789010989010989,0.24417582417582417
2.1712887870089617,1.88007326007326,0.1789010989010989,0.24417582417582417
2.171479715005262,1.88007326007326,0.1789010989010989,0.24417582417582417
2.176021307008341,1.88007326007326,0.1789010989010989,0.24417582417582417
2.1769059270009166,1.88007326007326,0.1789010989010989,0.24417582417582417
2.1786550030083163,1.88007326007326,0.1789010989010989,0.24417582417582417
2.1816250160045456,1.88007326007326,0.1789010989010989,0.24417582417582417
2.184474557012436,1.88007326007326,0.1789010989010989,0.24417582417582417
2.187934765010141,1.88007326007326,0.1789010989010989,0.24417582417582417
2.188715245007188,1.88007326007326,0.1789010989010989,0.24417582417582417
2.1907970370084513,1.88007326007326,0.1789010989010989,0.24417582417582417
2.1922566880093655,1.88007326007326,0.1789010989010989,0.24417582417582417
2.1970221170049626,1.88007326007326,0.1789010989010989,0.24417582417582417
2.197808287004591,1.88007326007326,0.1789010989010989,0.24417582417582417
2.1992902120109648,1.88007326007326,0.1789010989010989,0.24417582417582417
2.204055258000153,1.88007326007326,0.1789010989010989,0.24417582417582417
2.204290228008176,1.88007326007326,0.1789010989010989,0.24417582417582417
2.209289008009364,1.88007326007326,0.1789010989010989,0.24417582417582417
2.2141052549995948,1.88007326007326,0.1789010989010989,0.24417582417582417
2.218954364012461,1.88007326007326,0.1789010989010989,0.24417582417582417
2.219208016002085,1.88007326007326,0.1789010989010989,0.24417582417582417
2.2239377930090996,1.88007326007326,0.1789010989010989,0.24417582417582417
2.2241879840003094,1.88007326007326,0.1789010989010989,0.24417582417582417
2.228863607000676,1.88007326007326,0.1789010989010989,0.24417582417582417
2.2290325200010557,1.88007326007326,0.1789010989010989,0.24417582417582417
2.2336740320024546,1.88007326007326,0.1789010989010989,0.24417582417582417
2.233999144009431,1.88007326007326,0.1789010989010989,0.24417582417582417
2.2386354330083122,1.88007326007326,0.1789010989010989,0.24417582417582417
2.238926268008072,1.88007326007326,0.1789010989010989,0.24417582417582417
2.243619534012396,3.3,1.5786813186813187,0.13538461538461538
2.2438601830072002,3.3,1.5786813186813187,0.13538461538461538
2.2493264920049114,3.3,1.5786813186813187,0.13538461538461538
2.250135908005177,2.1871062271062267,0.7317216117216117,0.17809523809523808
2.251774080999894,1.4142857142857141,0.27076923076923076,0.24498168498168496
2.2555129720130935,1.4142857142857141,0.27076923076923076,0.24498168498168496
2.260884599003475,2.652087912087912,0.6801465201465201,0.0821978021978022
2.2640264950023266,2.652087912087912,0.6801465201465201,0.0821978021978022
2.2655933780042687,1.7076190476190476,0.24014652014652016,0.3449084249084249
2.2701622750028037,1.7076190476190476,0.24014652014652016,0.3449084249084249
2.2702885910111945,1.7076190476190476,0.24014652014652016,0.3449084249084249
2.2758824699994875,1.7076190476190476,0.24014652014652016,0.3449084249084249
2.2775448890024563,1.7076190476190476,0.24014652014652016,0.3449084249084249
2.2814097100053914,1.7076190476190476,0.24014652014652016,0.3449084249084249
2.285733209006139,1.7076190476190476,0.24014652014652016,0.3449084249084249
2.28781255800277,1.6673260073260072,0.29333333333333333,0.3884249084249084
2.2892845419992227,3.243589743589743,0.5681318681318681,0.7913553113553113
2.294052522003767,2.813260073260073,0.39406593406593404,0.6076190476190476
2.2987634500022978,2.813260073260073,0.39406593406593404,0.6076190476190476
2.2995101679989602,2.813260073260073,0.39406593406593404,0.6076190476190476
2.301578711005277,2.813260073260073,0.39406593406593404,0.6076190476190476
2.302990021998994,2.813260073260073,0.39406593406593404,0.6076190476190476
2.3081652620021487,2.813260073260073,0.39406593406593404,0.6076190476190476
2.312088863007375,2.813260073260073,0.39406593406593404,0.6076190476190476
2.316689456012682,2.813260073260073,0.39406593406593404,0.6076190476190476
2.316992949010455,2.66014652014652,2.341025641025641,0.39809523809523806
2.322322311010794,2.66014652014652,2.341025641025641,0.39809523809523806
2.324773537009605,2.66014652014652,2.341025641025641,0.39809523809523806
2.324930625007255,2.66014652014652,2.341025641025641,0.39809523809523806
2.3295189490017947,2.66014652014652,2.341025641025641,0.39809523809523806
2.3297452310071094,2.66014652014652,2.341025641025641,0.39809523809523806
2.3350542610132834,2.66014652014652,2.341025641025641,0.39809523809523806
2.3374708949995693,2.66014652014652,2.341025641025641,0.39809523809523806
2.3431694800092373,3.1968498168498165,2.10007326007326,0.9114285714285715
2.3434083020110847,3.1968498168498165,2.10007326007326,0.9114285714285715
2.3484379800065653,3.1968498168498165,2.10007326007326,0.9114285714285715
2.352630551002221,1.9026373626373623,0.4448351648351648,0.22644688644688646
2.355854799010558,2.771355311355311,1.5174358974358972,0.2111355311355311
2.3574062190018594,2.771355311355311,1.5174358974358972,0.2111355311355311
2.3613753390091006,2.771355311355311,1.5174358974358972,0.2111355311355311
2.365314106005826,2.771355311355311,1.5174358974358972,0.2111355311355311
2.369309134010109,2.771355311355311,1.5174358974358972,0.2111355311355311
2.373140809999313,2.771355311355311,1.5174358974358972,0.2111355311355311
2.3775787020131247,2.771355311355311,1.5174358974358972,0.2111355311355311
2.37935999801266,2.771355311355311,1.5174358974358972,0.2111355311355311
2.3824804820033023,2.771355311355311,1.5174358974358972,0.2111355311355311
2.384314003007603,2.771355311355311,1.5174358974358972,0.2111355311355311
2.386565688007977,2.771355311355311,1.5174358974358972,0.2111355311355311
2.386834513003123,2.771355311355311,1.5174358974358972,0.2111355311355311
2.392078090007999,2.771355311355311,1.5174358974358972,0.2111355311355311
2.39449881001201,2.771355311355311,1.5174358974358972,0.2111355311355311
2.3999622840055963,2.673040293040293,2.0517216117216117,0.361025641025641
2.402131373004522,2.673040293040293,2.0517216117216117,0.361025641025641
2.4029448430082994,2.673040293040293,2.0517216117216117,0.361025641025641
2.4044798370014178,3.3,0.6189010989010989,0.11604395604395604
2.4101776970055653,2.238681318681319,0.7712087912087912,0.1772893772893773
2.4104522300040117,2.238681318681319,0.7712087912087912,0.1772893772893773
2.4156360199995106,2.238681318681319,0.7712087912087912,0.1772893772893773
2.420052437009872,3.3,3.046959706959707,1.3312820512820513
2.420949899009429,3.3,3.046959706959707,1.3312820512820513
2.422606952008209,3.3,3.046959706959707,1.3312820512820513
2.4264222940109903,3.3,3.046959706959707,1.3312820512820513
2.430262074005441,3.3,3.046959706959707,1.3312820512820513
2.4347339760133764,3.3,3.046959706959707,1.3312820512820513
2.4355781769991154,2.6746520146520147,2.7157509157509154,0.4448351648351648
2.4371214999991935,2.6746520146520147,2.7157509157509154,0.4448351648351648
2.4414913020009408,2.6746520146520147,2.7157509157509154,0.4448351648351648
2.4429901620023884,2.6843223443223443,1.6608791208791207,0.22644688644688646
2.44707562601252,2.6843223443223443,1.6608791208791207,0.22644688644688646
2.4504439209995326,2.423223443223443,0.850989010989011,0.17487179487179486
2.4512391520111123,2.423223443223443,0.850989010989011,0.17487179487179486
2.452736172999721,2.423223443223443,0.850989010989011,0.17487179487179486
2.457567374003702,2.423223443223443,0.850989010989011,0.17487179487179486
2.4577395230007824,3.3,3.3,1.6302564102564103
2.4619683640048606,3.3,3.3,1.6302564102564103
2.4647885320009664,3.3,3.3,1.6302564102564103
2.4675881700095488,3.3,3.3,1.6302564102564103
2.4723909120075405,3.3,3.3,1.6302564102564103
2.472524381999392,3.3,3.3,1.6302564102564103
2.4773113090050174,3.3,3.3,1.6302564102564103
2.482076316999155,3.3,3.3,1.6302564102564103
2.4828246110118926,3.3,3.3,1.6302564102564103
2.4849629670061404,3.3,3.3,1.6302564102564103
2.485838255000999,3.3,3.3,1.6302564102564103
2.4872815090056974,3.3,3.3,1.6302564102564103
2.4914476560079493,3.3,3.3,1.6302564102564103
2.4942193060123827,3.3,2.049304029304029,0.2482051282051282
2.4983250170043902,3.3,2.049304029304029,0.2482051282051282
2.5023304030037252,3.3,2.049304029304029,0.2482051282051282
2.5057481920084683,3.3,0.9364102564102563,0.06124542124542124
2.5065660040127113,3.3,0.9364102564102563,0.06124542124542124
2.5088413990015397,3.3,0.9364102564102563,0.06124542124542124
2.509084667006391,3.3,0.9364102564102563,0.06124542124542124
2.513804501009872,3.3,0.9364102564102563,0.06124542124542124
2.5145726570044644,3.3,0.9364102564102563,0.06124542124542124
2.5160566420090618,3.3,0.9364102564102563,0.06124542124542124
2.5207663230103208,3.3,3.3,1.0967765567765566
2.520940601010807,3.3,3.3,1.0967765567765566
2.525738001000718,3.3,3.3,1.0967765567765566
2.5259410470025614,3.3,3.3,1.0967765567765566
2.5307210590108298,3.3,3.3,1.0967765567765566
2.535575489004259,3.3,3.3,1.0967765567765566
2.5357183370069833,3.3,3.3,1.0967765567765566
2.5405259520048276,3.3,3.3,1.0967765567765566
2.545322097008466,3.3,1.0903296703296703,0.1789010989010989
2.5454141490045004,3.3,0.7389743589743589,0.12571428571428572
2.5500983750098385,3.3,0.7389743589743589,0.12571428571428572
2.5503138519998174,3.3,0.7389743589743589,0.12571428571428572
2.5561534380103694,3.3,0.7389743589743589,0.12571428571428572
2.5614077860082034,3.3,0.7389743589743589,0.12571428571428572
2.5648469640000258,3.3,1.2176556776556777,0.014505494505494505
2.56510522600729,3.3,1.2176556776556777,0.014505494505494505
2.569897118009976,3.3,1.2176556776556777,0.014505494505494505
2.570006699010264,3.3,1.2176556776556777,0.014505494505494505
2.5752998090028996,3.3,1.2176556776556777,0.014505494505494505
2.5794683280109894,3.111428571428571,2.0186813186813186,0.8791941391941391
2.5826655230048345,3.111428571428571,2.0186813186813186,0.8791941391941391
2.5835367200052133,3.111428571428571,2.0186813186813186,0.8791941391941391
2.5853516460047103,3.203296703296703,0.47706959706959706,0.03465201465201465
2.5877654580108356,3.203296703296703,0.47706959706959706,0.03465201465201465
2.5879588130046614,3.203296703296703,0.47706959706959706,0.03465201465201465
2.5936718880111584,3.203296703296703,0.47706959706959706,0.03465201465201465
2.5938291839993326,3.203296703296703,0.47706959706959706,0.03465201465201465
2.599409499001922,3.203296703296703,0.47706959706959706,0.03465201465201465
2.6003115480125416,3.203296703296703,0.47706959706959706,0.03465201465201465
2.601284183008829,2.702051282051282,1.527106227106227,0.19743589743589743
2.602173765000771,2.702051282051282,1.527106227106227,0.19743589743589743
2.6039888900122605,2.702051282051282,1.527106227106227,0.19743589743589743
2.6065979920094833,2.702051282051282,1.527106227106227,0.19743589743589743
2.6117459560045972,2.702051282051282,1.527106227106227,0.19743589743589743
2.6150055620091734,2.897069597069597,0.419047619047619,0.6027838827838827
2.6153247080073925,2.6649816849816848,2.8229304029304028,0.4899633699633699
2.620483738006442,2.6649816849816848,2.8229304029304028,0.4899633699633699
2.6244807520124596,2.6649816849816848,2.8229304029304028,0.4899633699633699
2.627715305003221,3.3,0.7857142857142856,0.1676190476190476
2.6295493220095523,2.4393406593406595,0.8429304029304028,0.19663003663003664
2.6319660570006818,2.4393406593406595,0.8429304029304028,0.19663003663003664
2.637260226008948,2.4393406593406595,0.8429304029304028,0.19663003663003664
2.6402590310026426,2.4393406593406595,0.8429304029304028,0.19663003663003664
2.6432534050109098,2.4393406593406595,0.8429304029304028,0.19663003663003664
2.6456105270044645,2.4393406593406595,0.8429304029304028,0.19663003663003664
2.645834338007262,2.4393406593406595,0.8429304029304028,0.19663003663003664
2.6509976710076444,2.4393406593406595,0.8429304029304028,0.19663003663003664
2.653986568999244,2.4393406593406595,0.8429304029304028,0.19663003663003664
2.656344725008239,2.4393406593406595,0.8429304029304028,0.19663003663003664
2.6565572660038015,2.4393406593406595,0.8429304029304028,0.19663003663003664
2.661958744007279,2.4393406593406595,0.8429304029304028,0.19663003663003664
2.663657145007164,2.4393406593406595,0.8429304029304028,0.19663003663003664
2.667379376012832,2.4393406593406595,0.8429304029304028,0.19663003663003664
2.672966740006814,2.4393406593406595,0.8429304029304028,0.19663003663003664
2.6732567730068695,2.4393406593406595,0.8429304029304028,0.19663003663003664
2.680090232999646,2.4393406593406595,0.8429304029304028,0.19663003663003664
2.6852277100115316,2.4393406593406595,0.8429304029304028,0.19663003663003664
2.6883550380007364,2.4393406593406595,0.8429304029304028,0.19663003663003664
2.689952678003465,2.4393406593406595,0.8429304029304028,0.19663003663003664
2.6936331000033533,2.4393406593406595,0.8429304029304028,0.19663003663003664
2.698883040007786,2.4393406593406595,0.8429304029304028,0.19663003663003664
2.7025173750007525,2.4393406593406595,0.8429304029304028,0.19663003663003664
2.7082667610084172,2.655311355311355,1.3586813186813185,0.11684981684981684
2.7084570940060075,2.655311355311355,1.3586813186813185,0.11684981684981684
2.7167209930048557,2.655311355311355,1.3586813186813185,0.11684981684981684
2.7243846820056206,2.655311355311355,1.3586813186813185,0.11684981684981684
2.7305554230115376,2.655311355311355,1.3586813186813185,0.11684981684981684
2.734477928999695,1.7890109890109889,0.3465201465201465,0.3263736263736263
2.7397875810129335,1.7890109890109889,0.3465201465201465,0.3263736263736263
2.7401311970024835,3.3,1.5593406593406591,0.12571428571428572
2.748003607004648,3.3,1.5593406593406591,0.12571428571428572
2.753582522011129,3.3,1.5593406593406591,0.12571428571428572
2.75547095600632,2.6665934065934067,2.7584615384615385,0.4553113553113553
2.7570664880040567,2.6665934065934067,2.7584615384615385,0.4553113553113553
2.762737240002025,2.6665934065934067,2.7584615384615385,0.4553113553113553
2.762898472006782,2.6665934065934067,2.7584615384615385,0.4553113553113553
2.7675078690081136,2.6665934065934067,2.7584615384615385,0.4553113553113553
2.767664766011876,2.033186813186813,0.17084249084249084,0.20388278388278389
2.7731686840124894,2.033186813186813,0.17084249084249084,0.20388278388278389
2.774033441004576,2.033186813186813,0.17084249084249084,0.20388278388278389
2.7756431410089135,2.033186813186813,0.17084249084249084,0.20388278388278389
2.779421931001707,2.033186813186813,0.17084249084249084,0.20388278388278389
2.78398109000409,1.6423443223443224,2.033992673992674,0.1789010989010989
2.784316288001719,1.6423443223443224,2.033992673992674,0.1789010989010989
2.79468410401023,1.6423443223443224,2.033992673992674,0.1789010989010989
2.7985414220020175,1.6423443223443224,2.033992673992674,0.1789010989010989
2.8032711750129238,1.6423443223443224,2.033992673992674,0.1789010989010989
2.803431056003319,2.6536996336996337,1.5617582417582416,0.2498168498168498
2.8092483970103785,2.6536996336996337,1.5617582417582416,0.2498168498168498
2.8148632740048924,2.6536996336996337,1.5617582417582416,0.2498168498168498
2.8156941030028975,2.6536996336996337,1.5617582417582416,0.2498168498168498
2.8173060120025184,2.6536996336996337,1.5617582417582416,0.2498168498168498
2.821014120010659,2.6536996336996337,1.5617582417582416,0.2498168498168498
2.8212427790131187,3.3,1.3514285714285714,0.04593406593406593
2.827245476000826,3.3,1.3514285714285714,0.04593406593406593
2.831690843013348,2.652087912087912,3.3,1.3385347985347984
2.8325359350128565,2.652087912087912,3.3,1.3385347985347984
2.8341314580029575,2.652087912087912,3.3,1.3385347985347984
2.8378787230030866,2.6488644688644687,0.7841025641025641,0.05882783882783882
2.844658966001589,2.6488644688644687,0.7841025641025641,0.05882783882783882
2.848433176011895,2.6488644688644687,0.7841025641025641,0.05882783882783882
2.8545280740072485,2.6488644688644687,0.7841025641025641,0.05882783882783882
2.858068881003419,2.6488644688644687,0.7841025641025641,0.05882783882783882
2.866682325999136,2.6488644688644687,0.7841025641025641,0.05882783882783882
2.875968186999671,2.6488644688644687,0.7841025641025641,0.05882783882783882
2.8817696050100494,2.848717948717949,0.5262271062271061,0.7333333333333333
2.8894505290081725,2.7084981684981684,0.5068864468864469,0.26915750915750913
2.894438887000433,3.3,1.847032967032967,0.7736263736263735
2.898425239007338,2.6504761904761907,2.66014652014652,0.4351648351648352
2.9044280870002694,3.167032967032967,2.598095238095238,0.42952380952380953
2.909018954000203,3.167032967032967,2.598095238095238,0.42952380952380953
2.909172416009824,3.167032967032967,2.598095238095238,0.42952380952380953
2.91513001700514,3.167032967032967,2.598095238095238,0.42952380952380953
2.9216033500124468,3.167032967032967,2.598095238095238,0.42952380952380953
2.924932269001147,3.167032967032967,2.598095238095238,0.42952380952380953
2.925242666999111,2.8664468864468864,0.35216117216117215,0.13457875457875457
2.9306635560060386,2.8664468864468864,0.35216117216117215,0.13457875457875457
2.9322825350100175,2.8664468864468864,0.35216117216117215,0.13457875457875457
2.941120632007369,2.8664468864468864,0.35216117216117215,0.13457875457875457
2.9480375980056124,3.3,2.726227106227106,1.1596336996336996
2.954752700010431,3.3,2.726227106227106,1.1596336996336996
2.9582966710004257,3.3,2.726227106227106,1.1596336996336996
2.9585227430070518,3.3,2.726227106227106,1.1596336996336996
2.9633614370104624,3.3,2.726227106227106,1.1596336996336996
2.9716991580062313,2.826153846153846,0.3505494505494505,0.16842490842490843
2.97673850900901,2.826153846153846,0.3505494505494505,0.16842490842490843
2.9799629490007646,2.826153846153846,0.3505494505494505,0.16842490842490843
2.981749046011828,2.826153846153846,0.3505494505494505,0.16842490842490843
2.9868680280051194,2.826153846153846,0.3505494505494505,0.16842490842490843
2.991723285012995,2.6198534798534796,0.9347985347985347,0.16842490842490843
2.9973370950028766,2.6198534798534796,0.9347985347985347,0.16842490842490843
3.005466009999509,2.6198534798534796,0.9347985347985347,0.16842490842490843
3.009385277007823,2.6198534798534796,0.9347985347985347,0.16842490842490843
3.012786800012691,2.6198534798534796,0.9347985347985347,0.16842490842490843
3.0136878220073413,2.6198534798534796,0.9347985347985347,0.16842490842490843
3.0145497680059634,2.6649816849816848,1.7865934065934064,0.4851282051282051
3.0164547710010083,2.6649816849816848,1.7865934065934064,0.4851282051282051
3.0207648720097495,2.693186813186813,3.3,1.6987545787545786
3.0211647180112777,3.3,1.8156043956043957,0.20146520146520144
3.0261601710080868,3.3,1.8156043956043957,0.20146520146520144
3.029908897005953,3.3,0.6495238095238095,0.016923076923076923
3.036736006004503,3.3,0.6495238095238095,0.016923076923076923
3.0403045900020516,3.3,0.6495238095238095,0.016923076923076923
3.040452773013385,3.017948717948718,1.8929670329670327,0.17084249084249084
3.04586755100172,3.017948717948718,1.8929670329670327,0.17084249084249084
3.0479149050079286,3.017948717948718,1.8929670329670327,0.17084249084249084
3.049801789005869,3.017948717948718,1.8929670329670327,0.17084249084249084
3.054101123008877,3.017948717948718,1.8929670329670327,0.17084249084249084
3.054536064999411,3.017948717948718,1.8929670329670327,0.17084249084249084
3.0588756460056175,3.017948717948718,1.8929670329670327,0.17084249084249084
3.0597585430077743,3.017948717948718,1.8929670329670327,0.17084249084249084
3.061454902999685,3.017948717948718,1.8929670329670327,0.17084249084249084
3.064698166999733,3.017948717948718,1.8929670329670327,0.17084249084249084
3.065646718008793,3.017948717948718,1.8929670329670327,0.17084249084249084
3.0668995290034218,3.017948717948718,1.8929670329670327,0.17084249084249084
3.067235091002658,3.017948717948718,1.8929670329670327,0.17084249084249084
3.074387665008544,3.017948717948718,1.8929670329670327,0.17084249084249084
3.0793204510118812,2.390989010989011,1.2926007326007325,0.1668131868131868
3.085696726004244,2.390989010989011,1.2926007326007325,0.1668131868131868
3.091526222007815,2.390989010989011,1.2926007326007325,0.1668131868131868
3.0972597310028505,2.390989010989011,1.2926007326007325,0.1668131868131868
3.1061033450096147,2.390989010989011,1.2926007326007325,0.1668131868131868
3.1108913450007094,2.390989010989011,1.2926007326007325,0.1668131868131868
3.1174220250104554,2.390989010989011,1.2926007326007325,0.1668131868131868
3.122642360001919,2.390989010989011,1.2926007326007325,0.1668131868131868
3.124187237001024,2.390989010989011,1.2926007326007325,0.1668131868131868
3.1286846980074188,2.390989010989011,1.2926007326007325,0.1668131868131868
3.1289800030062906,2.390989010989011,1.2926007326007325,0.1668131868131868
3.1341563960013445,2.390989010989011,1.2926007326007325,0.1668131868131868
3.138647469007992,1.4416849816849817,0.14747252747252745,0.14505494505494507
3.1439984000026016,1.4416849816849817,0.14747252747252745,0.14505494505494507
3.1462862160115037,2.461904761904762,0.3932600732600733,0.1515018315018315
3.1465480730112176,2.461904761904762,0.3932600732600733,0.1515018315018315
3.1546570870123105,2.461904761904762,0.3932600732600733,0.1515018315018315
3.1585531029995764,2.461904761904762,0.3932600732600733,0.1515018315018315
3.164026140002534,2.1605128205128206,2.063003663003663,0.13538461538461538
3.1649220890103607,2.1605128205128206,2.063003663003663,0.13538461538461538
3.1665357120073168,2.1605128205128206,2.063003663003663,0.13538461538461538
3.1763728670048295,2.647252747252747,3.3,1.1096703296703296
3.1871119560091756,2.655311355311355,2.7423443223443225,0.4464468864468864
3.1924475340056233,2.655311355311355,2.7423443223443225,0.4464468864468864
3.195428854000056,1.5013186813186812,0.1523076923076923,0.17406593406593407
3.19790216301044,1.5013186813186812,0.1523076923076923,0.17406593406593407
3.1980891220009653,1.5013186813186812,0.1523076923076923,0.17406593406593407
3.2062217330094427,2.1443956043956045,2.1186080586080585,0.11362637362637362
3.2099028890079353,2.1443956043956045,2.1186080586080585,0.11362637362637362
3.215243366008508,2.1443956043956045,2.1186080586080585,0.11362637362637362
3.2188993919990025,2.1443956043956045,2.1186080586080585,0.11362637362637362
3.225354086011066,3.3,1.6173626373626373,0.09106227106227105
3.2291440300032264,3.3,3.3,1.1072527472527471
3.235448894003639,3.3,3.3,1.1072527472527471
3.239984974003164,3.3,3.3,1.1072527472527471
3.2401061300042784,3.3,3.3,1.1072527472527471
3.2447413240006426,3.3,3.3,1.1072527472527471
3.244974392000586,3.3,3.3,1.1072527472527471
3.249468143010745,3.3,3.3,1.1072527472527471
3.2520404440001585,3.3,3.3,1.1072527472527471
3.257331205008086,1.938095238095238,0.8356776556776556,0.2216117216117216
3.2596289360080846,2.6698168498168497,3.3,1.6850549450549448
3.259834309006692,2.6698168498168497,3.3,1.6850549450549448
3.264450029004365,2.6698168498168497,3.3,1.6850549450549448
3.264739060003194,2.9607326007326007,0.5334798534798535,0.06446886446886446
3.272476199999801,2.9607326007326007,0.5334798534798535,0.06446886446886446
3.2775280180067057,2.9607326007326007,0.5334798534798535,0.06446886446886446
3.2813820529991062,2.9607326007326007,0.5334798534798535,0.06446886446886446
3.289455475009163,2.9607326007326007,0.5334798534798535,0.06446886446886446
3.2941786350129405,2.9607326007326007,0.5334798534798535,0.06446886446886446
3.2943031920003705,2.9607326007326007,0.5334798534798535,0.06446886446886446
3.300588701007655,2.9607326007326007,0.5334798534798535,0.06446886446886446
3.3069441200059373,2.9607326007326007,0.5334798534798535,0.06446886446886446
3.3105597170069814,3.3,0.7365567765567765,0.9017582417582416
3.3163718870055163,3.3,0.7365567765567765,0.9017582417582416
3.324296393999248,3.3,0.7365567765567765,0.9017582417582416
3.3291372820094693,3.3,0.7365567765567765,0.9017582417582416
3.336133102013264,3.3,0.7365567765567765,0.9017582417582416
3.3403230480034836,3.3,0.7365567765567765,0.9017582417582416
3.3426371020032093,3.3,0.7365567765567765,0.9017582417582416
3.342812323011458,3.3,0.7365567765567765,0.9017582417582416
3.3484509340050863,3.3,0.7365567765567765,0.9017582417582416
3.348720680005499,3.3,0.7365567765567765,0.9017582417582416
3.3572277019993635,3.3,0.7365567765567765,0.9017582417582416
3.3625730440107873,0.4810989010989011,2.1927472527472527,0.14989010989010987
3.3659842560009565,0.4810989010989011,2.1927472527472527,0.14989010989010987
3.366429188012262,0.4810989010989011,2.1927472527472527,0.14989010989010987
3.3729906320077134,0.4810989010989011,2.1927472527472527,0.14989010989010987
3.3766334030078724,0.4810989010989011,2.1927472527472527,0.14989010989010987
3.3818964220117778,0.4810989010989011,2.1927472527472527,0.14989010989010987
3.387210135013447,0.4810989010989011,2.1927472527472527,0.14989010989010987
3.3894710170134204,2.2088644688644687,0.2377289377289377,0.19743589743589743
3.3896729110128945,2.2088644688644687,0.2377289377289377,0.19743589743589743
3.3942898840032285,2.2088644688644687,0.2377289377289377,0.19743589743589743
3.39457570000377,2.2088644688644687,0.2377289377289377,0.19743589743589743
3.3998914050025633,2.2088644688644687,0.2377289377289377,0.19743589743589743
3.4030681810108945,2.2088644688644687,0.2377289377289377,0.19743589743589743
3.4051469640107825,2.2088644688644687,0.2377289377289377,0.19743589743589743
3.406823601006181,2.2088644688644687,0.2377289377289377,0.19743589743589743
3.410579814008088,2.2088644688644687,0.2377289377289377,0.19743589743589743
3.415104767002049,2.2088644688644687,0.2377289377289377,0.19743589743589743
3.415368597008637,2.2088644688644687,0.2377289377289377,0.19743589743589743
3.4226555909990566,2.2088644688644687,0.2377289377289377,0.19743589743589743
3.4276561639999272,2.6456410256410257,2.540879120879121,1.739047619047619
3.4314408430072945,2.5674725274725274,0.4198534798534798,0.6293772893772893
3.437617796007544,2.5674725274725274,0.4198534798534798,0.6293772893772893
3.4417909440089716,2.5674725274725274,0.4198534798534798,0.6293772893772893
3.4427064300107304,2.5674725274725274,0.4198534798534798,0.6293772893772893
3.444236293013091,2.5674725274725274,0.4198534798534798,0.6293772893772893
3.448596851012553,2.5674725274725274,0.4198534798534798,0.6293772893772893
3.451086386005045,2.5674725274725274,0.4198534798534798,0.6293772893772893
3.4585778410109924,1.606080586080586,0.15794871794871795,0.18534798534798536
3.463039400012349,2.651282051282051,3.3,1.622197802197802
3.4638883430015994,2.651282051282051,3.3,1.622197802197802
3.4656134079996264,2.651282051282051,3.3,1.622197802197802
3.4720255310094217,2.651282051282051,3.3,1.622197802197802
3.475523150002118,2.655311355311355,2.6327472527472526,0.49238095238095236
3.4756682900042506,2.66014652014652,0.6148717948717949,0.14505494505494507
3.4809889500029385,2.66014652014652,0.6148717948717949,0.14505494505494507
3.483967357999063,2.66014652014652,0.6148717948717949,0.14505494505494507
3.487788960002945,2.66014652014652,0.6148717948717949,0.14505494505494507
3.491167433006922,2.66014652014652,0.6148717948717949,0.14505494505494507
3.492001826001797,2.66014652014652,0.6148717948717949,0.14505494505494507
3.4936504770012107,2.66014652014652,0.6148717948717949,0.14505494505494507
3.4984286860126304,2.66014652014652,0.6148717948717949,0.14505494505494507
3.5047386530059157,2.036410256410256,2.0823443223443223,0.21355311355311357
3.507999928013305,2.036410256410256,2.0823443223443223,0.21355311355311357
3.5090307390055386,2.036410256410256,2.0823443223443223,0.21355311355311357
3.5093002230132697,2.036410256410256,2.0823443223443223,0.21355311355311357
3.5140481350099435,2.036410256410256,2.0823443223443223,0.21355311355311357
3.514158057005261,2.036410256410256,2.0823443223443223,0.21355311355311357
3.52088865400583,2.036410256410256,2.0823443223443223,0.21355311355311357
3.5240787560032913,2.036410256410256,2.0823443223443223,0.21355311355311357
3.525772605004022,3.248424908424908,0.5262271062271061,0.09347985347985348
3.5288145710073877,2.497362637362637,1.1088644688644689,0.2208058608058608
3.5311450170120224,2.497362637362637,1.1088644688644689,0.2208058608058608
3.531307702010963,2.497362637362637,1.1088644688644689,0.2208058608058608
3.53788619300758,2.497362637362637,1.1088644688644689,0.2208058608058608
3.5412804240040714,2.652087912087912,0.7986080586080586,0.06124542124542124
3.541566791012883,2.652087912087912,0.7986080586080586,0.06124542124542124
3.547879053003271,3.2717948717948717,0.7905494505494506,0.1515018315018315
3.554275262009469,2.955091575091575,0.40615384615384614,0.13054945054945052
3.5590284260106273,2.955091575091575,0.40615384615384614,0.13054945054945052
3.564431853010319,0.9275457875457875,2.1669597069597066,0.0
3.5679777059995104,0.9275457875457875,2.1669597069597066,0.0
3.5747291470033815,2.652087912087912,3.3,1.4062271062271061
3.579310594999697,2.6649816849816848,2.752014652014652,0.4391941391941392
3.579591376008466,2.6649816849816848,2.752014652014652,0.4391941391941392
3.5882660370116355,3.3,1.5907692307692307,0.06688644688644689
3.5931631450075656,3.3,1.5907692307692307,0.06688644688644689
3.5977042070007883,3.3,1.5907692307692307,0.06688644688644689
3.599318039006903,2.6536996336996337,0.6906227106227106,0.045128205128205125
3.6075420010020025,2.6536996336996337,0.6906227106227106,0.045128205128205125
3.6127974440023536,2.7455677655677655,0.3295970695970696,0.12974358974358974
3.613675486005377,2.7455677655677655,0.3295970695970696,0.12974358974358974
3.6159505040122895,2.7455677655677655,0.3295970695970696,0.12974358974358974
3.616234246001113,2.7455677655677655,0.3295970695970696,0.12974358974358974
3.622360163004487,2.7455677655677655,0.3295970695970696,0.12974358974358974
3.6257080610084813,2.7455677655677655,0.3295970695970696,0.12974358974358974
3.6265833240031498,3.3,2.0275457875457876,0.3158974358974359
3.6275083890068345,3.3,2.0275457875457876,0.3158974358974359
3.62917526900128,3.3,2.0275457875457876,0.3158974358974359
3.6331148500030395,2.3692307692307693,0.3384615384615384,0.5334798534798535
3.6391139840125106,2.3692307692307693,0.3384615384615384,0.5334798534798535
3.6430095890100347,3.3,0.5117216117216117,0.3191208791208791
3.6475463250098983,3.3,0.5117216117216117,0.3191208791208791
3.647774870012654,3.3,0.5117216117216117,0.3191208791208791
3.6550497520074714,3.3,0.5117216117216117,0.3191208791208791
3.658995144010987,2.6786813186813188,1.5303296703296703,0.33684981684981685
3.662116999999853,2.6786813186813188,1.5303296703296703,0.33684981684981685
3.663694986011251,2.6786813186813188,1.5303296703296703,0.33684981684981685
3.6686370220122626,2.6786813186813188,1.5303296703296703,0.33684981684981685
3.6738712130027125,1.9453479853479854,0.2683516483516483,0.29333333333333333
3.675448835012503,1.9453479853479854,0.2683516483516483,0.29333333333333333
3.6793405860080384,1.9453479853479854,0.2683516483516483,0.29333333333333333
3.685399968002457,2.444175824175824,1.917948717948718,0.12087912087912088
3.6900896220031427,3.3,1.2797069597069597,0.004029304029304029
3.690222414006712,3.3,1.2797069597069597,0.004029304029304029
3.69475961200078,3.3,1.2797069597069597,0.004029304029304029
3.695706399012124,3.3,1.2797069597069597,0.004029304029304029
3.6972695480071707,3.3,1.2797069597069597,0.004029304029304029
3.7049824070127215,1.0476190476190474,2.3635897435897433,0.016117216117216115
3.708885170010035,1.0476190476190474,2.3635897435897433,0.016117216117216115
3.7122073589998763,1.0476190476190474,2.3635897435897433,0.016117216117216115
3.71318931200949,1.0476190476190474,2.3635897435897433,0.016117216117216115
3.71416984401003,1.0476190476190474,2.3635897435897433,0.016117216117216115
3.715152744000079,1.0476190476190474,2.3635897435897433,0.016117216117216115
3.7161265169997932,1.0476190476190474,2.3635897435897433,0.016117216117216115
3.718506174001959,1.0476190476190474,2.3635897435897433,0.016117216117216115
3.7257296700117877,1.0476190476190474,2.3635897435897433,0.016117216117216115
3.7297414660133654,1.0476190476190474,2.3635897435897433,0.016117216117216115
3.7356631880102213,1.813992673992674,0.19179487179487179,0.3312087912087912
3.7411335540091386,1.813992673992674,0.19179487179487179,0.3312087912087912
3.7413937220117077,1.9316483516483516,2.0944322344322344,0.08058608058608058
3.74660156101163,1.9316483516483516,2.0944322344322344,0.08058608058608058
3.74910885700956,1.9316483516483516,2.0944322344322344,0.08058608058608058
3.760789844003739,1.9316483516483516,2.0944322344322344,0.08058608058608058
3.768266548999236,1.9316483516483516,2.0944322344322344,0.08058608058608058
3.7730465560016455,2.0589743589743588,0.5737728937728938,0.20146520146520144
3.7785931910038926,2.0589743589743588,0.5737728937728938,0.20146520146520144
3.780199644010281,2.66014652014652,0.6237362637362637,0.1112087912087912
3.7864856400119606,2.66014652014652,0.6237362637362637,0.1112087912087912
3.790404696002952,2.66014652014652,0.6237362637362637,0.1112087912087912
3.7941620260098716,1.2353846153846153,0.13377289377289378,0.14344322344322344
3.7998936040094122,1.2353846153846153,0.13377289377289378,0.14344322344322344
3.8004915620113024,1.2353846153846153,0.13377289377289378,0.14344322344322344
3.8061232910113176,1.2353846153846153,0.13377289377289378,0.14344322344322344
3.8116272810002556,2.6464468864468866,3.3,1.2426373626373626
3.8118381120002596,2.6464468864468866,3.3,1.2426373626373626
3.8171931130054872,2.6464468864468866,3.3,1.2426373626373626
3.821326825011056,2.6464468864468866,3.3,1.2426373626373626
3.822217572000227,2.6464468864468866,3.3,1.2426373626373626
3.823817197000608,2.6464468864468866,3.3,1.2426373626373626
3.827537913006381,2.6464468864468866,3.3,1.2426373626373626
3.837300981002045,2.652087912087912,3.3,1.3353113553113554
3.8424479880050058,2.652087912087912,3.3,1.3353113553113554
3.8462186220131116,2.652087912087912,3.3,1.3353113553113554
3.8538156880094903,3.3,2.0928205128205124,0.718021978021978
3.8590975160041125,1.9058608058608055,0.8848351648351648,0.15794871794871795
3.8599814920016797,1.9058608058608055,0.8848351648351648,0.15794871794871795
3.861649987011333,1.9058608058608055,0.8848351648351648,0.15794871794871795
3.8672057960066013,1.9058608058608055,0.8848351648351648,0.15794871794871795
3.867475221006316,1.9058608058608055,0.8848351648351648,0.15794871794871795
3.874450915012858,1.9058608058608055,0.8848351648351648,0.15794871794871795
3.878265816005296,1.9058608058608055,0.8848351648351648,0.15794871794871795
3.884708285011584,3.3,2.8616117216117214,1.278901098901099
3.8897147750103613,3.3,2.8616117216117214,1.278901098901099
3.892809841010603,3.3,2.8616117216117214,1.278901098901099
3.8952518020087155,3.3,2.8616117216117214,1.278901098901099
3.9036441140051465,2.7197802197802194,1.5528937728937728,0.6817582417582417
3.909171650011558,2.7197802197802194,1.5528937728937728,0.6817582417582417
3.9144362000079127,2.7197802197802194,1.5528937728937728,0.6817582417582417
3.91878644200915,2.7197802197802194,1.5528937728937728,0.6817582417582417
3.9191416670073522,1.3336996336996336,2.324102564102564,0.03304029304029304
3.9243710830050986,1.3336996336996336,2.324102564102564,0.03304029304029304
3.9273716610041447,1.3336996336996336,2.324102564102564,0.03304029304029304
3.9303359180048574,2.6722344322344322,3.3,1.257142857142857
3.9338334730127826,2.6722344322344322,3.3,1.257142857142857
3.93425812201167,2.6722344322344322,3.3,1.257142857142857
3.9402029480115743,2.6722344322344322,3.3,1.257142857142857
3.9440447480010334,2.6722344322344322,3.3,1.257142857142857
3.9486852640111465,3.3,0.585054945054945,0.06446886446886446
3.9490677889989456,3.3,0.585054945054945,0.06446886446886446
3.9566457990003983,3.3,0.585054945054945,0.06446886446886446
3.961209263012279,0.3102564102564102,2.295091575091575,0.10476190476190475
3.9614193400047952,0.3102564102564102,2.295091575091575,0.10476190476190475
3.9679006670048693,0.3102564102564102,2.295091575091575,0.10476190476190475
3.9740234030032298,0.3102564102564102,2.295091575091575,0.10476190476190475
3.9771977410127874,0.3102564102564102,2.295091575091575,0.10476190476190475
3.980154721008148,0.3102564102564102,2.295091575091575,0.10476190476190475
3.982929026999045,0.3102564102564102,2.295091575091575,0.10476190476190475
3.991555796004832,0.3102564102564102,2.295091575091575,0.10476190476190475
3.9960489430086454,0.3102564102564102,2.295091575091575,0.10476190476190475
3.9963793930073734,0.3102564102564102,2.295091575091575,0.10476190476190475
4.002096622003592,0.3102564102564102,2.295091575091575,0.10476190476190475
4.002348549009184,3.3,0.8751648351648351,0.03948717948717949
4.006955670003663,3.3,0.8751648351648351,0.03948717948717949
4.007832627001335,3.3,0.8751648351648351,0.03948717948717949
4.009626484999899,3.1968498168498165,0.5068864468864469,0.7268864468864469
4.012630117998924,1.411062271062271,0.3578021978021978,0.19743589743589743
4.01594371801184,1.411062271062271,0.3578021978021978,0.19743589743589743
4.0167877090134425,1.411062271062271,0.3578021978021978,0.19743589743589743
4.019141371012665,1.411062271062271,0.3578021978021978,0.19743589743589743
4.019280009000795,1.411062271062271,0.3578021978021978,0.19743589743589743
4.024300912002218,1.411062271062271,0.3578021978021978,0.19743589743589743
4.02866415301105,3.3,1.1999267399267397,0.008058608058608058
4.031615287007298,2.5279853479853482,1.2764835164835164,0.18615384615384614
4.036659691002569,2.5279853479853482,1.2764835164835164,0.18615384615384614
4.0396078180056065,2.5279853479853482,1.2764835164835164,0.18615384615384614
4.0427807100059,2.5279853479853482,1.2764835164835164,0.18615384615384614
4.04466690600384,2.5279853479853482,1.2764835164835164,0.18615384615384614
4.0472012990067014,2.5279853479853482,1.2764835164835164,0.18615384615384614
4.055409430002328,2.5279853479853482,1.2764835164835164,0.18615384615384614
4.062218413004302,2.5279853479853482,1.2764835164835164,0.18615384615384614
4.066615363000892,2.5279853479853482,1.2764835164835164,0.18615384615384614
4.070404369005701,3.3,2.6682051282051282,0.6471062271062271
4.073292922999826,3.3,2.6682051282051282,0.6471062271062271
4.0756806720019085,2.6569230769230767,2.41032967032967,0.4142124542124542
4.075898780007265,2.6569230769230767,2.41032967032967,0.4142124542124542
4.080515560999629,2.6569230769230767,2.41032967032967,0.4142124542124542
4.080806336001842,3.1904029304029304,1.8607326007326006,0.19824175824175824
4.087985311009106,3.1904029304029304,1.8607326007326006,0.19824175824175824
4.091816945001483,3.1904029304029304,1.8607326007326006,0.19824175824175824
4.098363151002559,1.8252747252747252,0.8703296703296703,0.13296703296703297
4.1062393140018685,1.8252747252747252,0.8703296703296703,0.13296703296703297
4.11189787100011,3.3,0.5673260073260072,0.01531135531135531
4.118965998000931,3.3,2.2475457875457874,0.3706959706959707
4.125131451000925,0.9750915750915751,2.07992673992674,0.1241025641025641
4.129487437006901,0.9750915750915751,2.07992673992674,0.1241025641025641
4.129834867009777,0.9750915750915751,2.07992673992674,0.1241025641025641
4.137640275002923,0.9750915750915751,2.07992673992674,0.1241025641025641
4.140758225010359,0.9750915750915751,2.07992673992674,0.1241025641025641
4.1423770140099805,3.3,1.7640293040293038,0.2071062271062271
4.146564455004409,3.3,1.7640293040293038,0.2071062271062271
4.149862197009497,3.3,1.7640293040293038,0.2071062271062271
4.150390850001713,3.3,1.7640293040293038,0.2071062271062271
4.1574887150054565,3.3,1.7640293040293038,0.2071062271062271
4.1626661629998125,3.3,1.7640293040293038,0.2071062271062271
4.165278705011588,2.9615384615384617,0.5197802197802197,0.11765567765567764
4.1733565280010225,2.9615384615384617,0.5197802197802197,0.11765567765567764
4.178021685002022,3.3,0.9678388278388278,0.896117216117216
4.1782916390075115,3.3,0.9678388278388278,0.896117216117216
4.186492784006987,3.3,0.9678388278388278,0.896117216117216
4.19257777700841,3.3,0.9678388278388278,0.896117216117216
4.196367313008523,3.3,0.9678388278388278,0.896117216117216
4.204807613001321,3.3,0.9678388278388278,0.896117216117216
4.210349187007523,1.6778021978021975,0.2087179487179487,0.4528937728937729
4.2105568920087535,1.6778021978021975,0.2087179487179487,0.4528937728937729
4.220264076007879,1.6778021978021975,0.2087179487179487,0.4528937728937729
4.227830082003493,1.6778021978021975,0.2087179487179487,0.4528937728937729
4.235696638002992,1.6778021978021975,0.2087179487179487,0.4528937728937729
4.241686812005355,1.6778021978021975,0.2087179487179487,0.4528937728937729
4.244748844008427,1.6778021978021975,0.2087179487179487,0.4528937728937729
4.24797951101209,1.6778021978021975,0.2087179487179487,0.4528937728937729
4.248789714009035,2.6545054945054947,3.3,1.3103296703296703
4.252223135001259,2.6545054945054947,3.3,1.3103296703296703
4.2575774650031235,2.6545054945054947,3.3,1.3103296703296703
4.259925470003509,2.6633699633699632,1.2837362637362637,0.2747985347985348
4.268176794008468,3.3,1.9397069597069596,0.19824175824175824
4.2723924910096684,3.3,1.9397069597069596,0.19824175824175824
4.274039776006248,1.5045421245421244,0.28769230769230764,0.32153846153846155
4.277971609000815,1.5045421245421244,0.28769230769230764,0.32153846153846155
4.282585289009148,2.9744322344322343,3.3,1.818021978021978
4.293216129008215,2.9744322344322343,3.3,1.818021978021978
4.301242961009848,2.9744322344322343,3.3,1.818021978021978
4.307753897999646,2.9744322344322343,3.3,1.818021978021978
4.311689604001003,2.9744322344322343,3.3,1.818021978021978
4.315446903012344,2.0267399267399266,0.17648351648351646,0.3295970695970696
4.325157420011237,2.677069597069597,0.5318681318681319,0.1112087912087912
4.329905695005436,2.677069597069597,0.5318681318681319,0.1112087912087912
4.3301027470006375,2.6665934065934067,3.3,1.2555311355311354
4.335003935004352,2.6665934065934067,3.3,1.2555311355311354
4.340292880006018,2.6665934065934067,3.3,1.2555311355311354
4.341924093008856,2.6536996336996337,2.6037362637362635,1.7535531135531135
4.346573594011716,2.6536996336996337,2.6037362637362635,1.7535531135531135
4.346726026007673,2.6536996336996337,2.6037362637362635,1.7535531135531135
4.355315227003302,2.6536996336996337,2.6037362637362635,1.7535531135531135
4.3598900150100235,2.6536996336996337,2.6037362637362635,1.7535531135531135
4.360113352013286,2.6536996336996337,2.6037362637362635,1.7535531135531135
4.3693611250055255,2.6496703296703297,1.4465201465201465,0.20307692307692307
4.373823336005444,2.6496703296703297,1.4465201465201465,0.20307692307692307
4.374737837002613,2.6496703296703297,1.4465201465201465,0.20307692307692307
4.3763746860058745,3.3,0.4891575091575091,0.15875457875457877
4.379991553010768,3.3,0.4891575091575091,0.15875457875457877
4.380169960000785,3.3,0.4891575091575091,0.15875457875457877
4.38928026900976,3.3,0.4891575091575091,0.15875457875457877
4.394056402001297,3.3,0.4891575091575091,0.15875457875457877
4.39417686201341,3.3,0.4891575091575091,0.15875457875457877
4.403802113010897,3.3,0.4891575091575091,0.15875457875457877
4.413621867002803,3.3,0.4891575091575091,0.15875457875457877
4.422444371011807,3.151721611721612,1.6979487179487176,0.24256410256410255
4.427723575005075,1.6512087912087912,2.083956043956044,0.12893772893772892
4.431278805001057,2.6488644688644687,3.3,1.3715750915750915
4.44084859600116,1.9961172161172158,0.31186813186813184,0.39487179487179486
4.446292849999736,1.9961172161172158,0.31186813186813184,0.39487179487179486
4.447908863003249,1.9961172161172158,0.31186813186813184,0.39487179487179486
4.455195506001473,1.9961172161172158,0.31186813186813184,0.39487179487179486
4.458368569001323,2.652087912087912,2.776190476190476,0.502051282051282
4.459914158011088,2.652087912087912,2.776190476190476,0.502051282051282
4.463932318001753,2.652087912087912,2.776190476190476,0.502051282051282
4.469731752004009,2.652087912087912,2.776190476190476,0.502051282051282
4.474998643010622,2.652087912087912,2.776190476190476,0.502051282051282
4.477533395009232,1.8333333333333333,0.4287179487179487,0.14102564102564102
4.482918414010783,1.8333333333333333,0.4287179487179487,0.14102564102564102
4.488533031006227,1.8333333333333333,0.4287179487179487,0.14102564102564102
4.493325413001003,1.9638827838827837,0.2594871794871795,0.3586080586080586
4.49782818100357,3.3,2.234652014652015,0.3416849816849817
4.498750667000422,0.1676190476190476,2.274139194139194,0.16358974358974357
4.500315605007927,0.1676190476190476,2.274139194139194,0.16358974358974357
4.5068435550056165,0.1676190476190476,2.274139194139194,0.16358974358974357
4.51082123600645,0.1676190476190476,2.274139194139194,0.16358974358974357
4.515311422001105,0.1676190476190476,2.274139194139194,0.16358974358974357
4.51558594701055,0.1676190476190476,2.274139194139194,0.16358974358974357
4.5263440670096315,0.1676190476190476,2.274139194139194,0.16358974358974357
4.5346874660026515,0.1676190476190476,2.274139194139194,0.16358974358974357
4.542902618006337,1.4997069597069597,0.15472527472527473,0.14747252747252745
4.549993261010968,1.4997069597069597,0.15472527472527473,0.14747252747252745
4.555762843010598,1.4997069597069597,0.15472527472527473,0.14747252747252745
4.561818012007279,2.73992673992674,2.772967032967033,0.4287179487179487
4.564885781001067,2.73992673992674,2.772967032967033,0.4287179487179487
4.568424122000579,2.73992673992674,2.772967032967033,0.4287179487179487
4.578410547008389,2.73992673992674,2.772967032967033,0.4287179487179487
4.584767419000855,2.73992673992674,2.772967032967033,0.4287179487179487
4.591261336012394,2.73992673992674,2.772967032967033,0.4287179487179487
4.594332206004765,2.73992673992674,2.772967032967033,0.4287179487179487
4.596681745009846,2.73992673992674,2.772967032967033,0.4287179487179487
4.596945248005795,2.73992673992674,2.772967032967033,0.4287179487179487
4.604690423002467,2.73992673992674,2.772967032967033,0.4287179487179487
4.60901615700277,2.73992673992674,2.772967032967033,0.4287179487179487
4.6106837800034555,2.73992673992674,2.772967032967033,0.4287179487179487
4.61455924200709,2.73992673992674,2.772967032967033,0.4287179487179487
4.623438812006498,2.73992673992674,2.772967032967033,0.4287179487179487
4.631398235011147,2.73992673992674,2.772967032967033,0.4287179487179487
4.639592198000173,3.2709890109890107,1.7769230769230768,0.3046153846153846
4.645411033008713,3.04051282051282,1.9026373626373623,0.27802197802197803
4.65522554400377,3.04051282051282,1.9026373626373623,0.27802197802197803
4.660744572000112,2.6504761904761907,3.3,1.0476190476190474
4.661667297012173,2.6504761904761907,3.3,1.0476190476190474
4.663261533001787,3.3,0.7188278388278388,0.11765567765567764
4.670228520000819,3.3,0.7188278388278388,0.11765567765567764
4.674202899012016,3.3,0.7188278388278388,0.11765567765567764
4.677460847000475,3.3,0.7188278388278388,0.11765567765567764
4.6789961850008694,3.3,0.7188278388278388,0.11765567765567764
4.682947943001636,3.3,0.7188278388278388,0.11765567765567764
4.689197398009128,3.3,0.7188278388278388,0.11765567765567764
4.693015306009329,3.3,0.7188278388278388,0.11765567765567764
4.697440923002432,2.6649816849816848,2.449010989010989,0.40534798534798533
4.699054235999938,3.3,3.3,1.8131868131868132
4.707481272009318,3.3,3.3,1.8131868131868132
4.714540437998949,3.3,0.7631501831501831,0.21597069597069596
4.720873823011061,2.6585347985347987,2.6746520146520147,0.46095238095238095
4.724093775002984,2.6585347985347987,2.6746520146520147,0.46095238095238095
4.725075164009468,2.6585347985347987,2.6746520146520147,0.46095238095238095
4.726638207008364,2.702857142857143,1.2821245421245422,0.2949450549450549
4.730492878006771,2.702857142857143,1.2821245421245422,0.2949450549450549
4.738037590999738,2.702857142857143,1.2821245421245422,0.2949450549450549
4.741203245008364,2.702857142857143,1.2821245421245422,0.2949450549450549
4.742818465005257,2.702857142857143,1.2821245421245422,0.2949450549450549
4.7466786980075995,3.3,0.6076190476190476,0.03545787545787545
4.7546407129993895,3.3,0.6076190476190476,0.03545787545787545
4.7591520930000115,3.3,0.6076190476190476,0.03545787545787545
4.759272888011765,3.3,0.6076190476190476,0.03545787545787545
4.764554642999428,3.3,0.6076190476190476,0.03545787545787545
4.771449554013088,2.237875457875458,0.469010989010989,0.3505494505494505
4.775925291003659,1.7317948717948717,0.2627106227106227,0.29736263736263735
4.776223317006952,1.7317948717948717,0.2627106227106227,0.29736263736263735
4.781486803010921,1.7317948717948717,0.2627106227106227,0.29736263736263735
4.784132362008677,1.7317948717948717,0.2627106227106227,0.29736263736263735
4.789088349003578,2.864835164835165,0.3690842490842491,0.1676190476190476
4.792169512002147,2.864835164835165,0.3690842490842491,0.1676190476190476
4.793799623002997,2.864835164835165,0.3690842490842491,0.1676190476190476
4.797583892010152,2.864835164835165,0.3690842490842491,0.1676190476190476
4.805193163003423,2.864835164835165,0.3690842490842491,0.1676190476190476
4.809779791001347,2.864835164835165,0.3690842490842491,0.1676190476190476
4.8100425860029645,2.864835164835165,0.3690842490842491,0.1676190476190476
4.8151929740124615,2.864835164835165,0.3690842490842491,0.1676190476190476
4.823304136007209,2.655311355311355,3.095311355311355,0.6398534798534798
4.829296879004687,2.655311355311355,3.095311355311355,0.6398534798534798
4.836049357007141,2.655311355311355,3.095311355311355,0.6398534798534798
4.83940140400955,2.655311355311355,3.095311355311355,0.6398534798534798
4.840252917012549,2.655311355311355,3.095311355311355,0.6398534798534798
4.842531222006073,2.655311355311355,3.095311355311355,0.6398534798534798
4.842746514012106,2.655311355311355,3.095311355311355,0.6398534798534798
4.847881691006478,2.655311355311355,3.095311355311355,0.6398534798534798
4.853101259999676,2.655311355311355,3.095311355311355,0.6398534798534798
4.854246523012989,2.655311355311355,3.095311355311355,0.6398534798534798
4.8545537590107415,2.655311355311355,3.095311355311355,0.6398534798534798
4.860067001005518,2.655311355311355,3.095311355311355,0.6398534798534798
4.862702320999233,2.655311355311355,3.095311355311355,0.6398534798534798
4.868347339011962,2.655311355311355,3.095311355311355,0.6398534798534798
4.868461246005609,2.655311355311355,3.095311355311355,0.6398534798534798
4.878083517003688,2.655311355311355,3.095311355311355,0.6398534798534798
4.887083642010111,2.655311355311355,3.095311355311355,0.6398534798534798
4.893039473012323,2.655311355311355,3.095311355311355,0.6398534798534798
4.896729522006353,2.6762637362637363,0.8389010989010988,0.26190476190476186
4.903041351004504,0.1797069597069597,2.2241758241758243,0.13457875457875457
4.906556939007714,3.3,0.5842490842490843,0.11926739926739927
4.906717502002721,3.3,0.5842490842490843,0.11926739926739927
4.912115847007954,3.3,0.5842490842490843,0.11926739926739927
4.914357771005598,3.3,0.5842490842490843,0.11926739926739927
4.914717967010802,3.3,0.5842490842490843,0.11926739926739927
4.924709270009771,3.3,0.5842490842490843,0.11926739926739927
4.9335774700011825,3.3,0.5842490842490843,0.11926739926739927
4.941303403000347,2.3168498168498166,0.4625641025641025,0.5310622710622711
4.949468961000093,2.736703296703297,1.9558241758241757,0.15794871794871795
4.9563092490134295,2.736703296703297,1.9558241758241757,0.15794871794871795
4.962661625002511,2.822124542124542,0.7534798534798535,0.37875457875457874
4.968888438001159,1.1693040293040293,2.04043956043956,0.17406593406593407
4.97261321300175,2.681098901098901,3.3,1.3272527472527473
4.977287675006664,2.681098901098901,3.3,1.3272527472527473
4.977421216011862,2.681098901098901,3.3,1.3272527472527473
4.987410632005776,2.681098901098901,3.3,1.3272527472527473
4.994426866003778,2.681098901098901,3.3,1.3272527472527473
5.000989615000435,2.6569230769230767,2.6883516483516483,0.47062271062271055
5.005852792004589,3.3,1.872014652014652,0.2909157509157509
5.0091064240114065,3.3,1.872014652014652,0.2909157509157509
5.010032125006546,2.336190476190476,0.332014652014652,0.5769963369963369
5.011641490011243,2.336190476190476,0.332014652014652,0.5769963369963369
5.017837328006863,2.8422710622710623,1.4843956043956044,0.2063003663003663
5.02213696599938,2.8422710622710623,1.4843956043956044,0.2063003663003663
5.022309374005999,2.8422710622710623,1.4843956043956044,0.2063003663003663
5.026934236011584,2.8422710622710623,1.4843956043956044,0.2063003663003663
5.027277148008579,2.8422710622710623,1.4843956043956044,0.2063003663003663
5.033938741005841,2.8422710622710623,1.4843956043956044,0.2063003663003663
5.038465980003821,2.6617582417582417,1.7487179487179487,0.32556776556776557
5.044223881006474,2.6617582417582417,1.7487179487179487,0.32556776556776557
5.050488138003857,3.3,1.1225641025641024,0.004835164835164835
5.055292914999882,3.3,1.1225641025641024,0.004835164835164835
5.060061798008974,3.3,1.1225641025641024,0.004835164835164835
5.065259472001344,3.3,1.1225641025641024,0.004835164835164835
5.071600628012675,3.3,1.1225641025641024,0.004835164835164835
5.075177774007898,3.3,1.1225641025641024,0.004835164835164835
5.075285757004167,3.3,1.1225641025641024,0.004835164835164835
5.080163475009613,3.3,1.1225641025641024,0.004835164835164835
5.080303328009904,0.2796336996336996,2.2265934065934068,0.10556776556776555
5.085308662004536,0.2796336996336996,2.2265934065934068,0.10556776556776555
5.08951743801299,3.3,3.3,1.0999999999999999
5.091723590012407,1.8293040293040292,0.18373626373626373,0.2602930402930403
5.09256975199969,1.8293040293040292,0.18373626373626373,0.2602930402930403
5.095076047000475,1.8293040293040292,0.18373626373626373,0.2602930402930403
5.103389550000429,3.3,0.42952380952380953,0.25545787545787546
5.1091497970046476,3.129157509157509,1.822857142857143,0.25868131868131866
5.113785416004248,3.129157509157509,1.822857142857143,0.25868131868131866
5.113939974005916,3.129157509157509,1.822857142857143,0.25868131868131866
5.1226115680037765,3.129157509157509,1.822857142857143,0.25868131868131866
5.128001880002557,1.278901098901099,2.357142857142857,0.044322344322344324
5.130257372002234,1.278901098901099,2.357142857142857,0.044322344322344324
5.130446920011309,1.278901098901099,2.357142857142857,0.044322344322344324
5.137251093008672,1.278901098901099,2.357142857142857,0.044322344322344324
5.141460733007989,2.5199267399267398,1.5907692307692307,0.7067399267399267
5.143109982003807,2.5199267399267398,1.5907692307692307,0.7067399267399267
5.146906813009991,2.5199267399267398,1.5907692307692307,0.7067399267399267
5.151578805001918,2.5199267399267398,1.5907692307692307,0.7067399267399267
5.151798924009199,2.3265201465201466,0.4222710622710622,0.6591941391941392
5.157117112001288,2.3265201465201466,0.4222710622710622,0.6591941391941392
5.1596441920119105,2.3265201465201466,0.4222710622710622,0.6591941391941392
5.165301423010533,2.3265201465201466,0.4222710622710622,0.6591941391941392
5.166203661006875,2.3265201465201466,0.4222710622710622,0.6591941391941392
5.167036596001708,2.3265201465201466,0.4222710622710622,0.6591941391941392
5.16879764701298,2.3265201465201466,0.4222710622710622,0.6591941391941392
5.1718852590129245,2.3265201465201466,0.4222710622710622,0.6591941391941392
5.174196015999769,2.3265201465201466,0.4222710622710622,0.6591941391941392
5.174512390003656,2.6617582417582417,2.748791208791209,0.4835164835164835
5.1793578610086115,2.6617582417582417,2.748791208791209,0.4835164835164835
5.184837282009539,0.1805128205128205,2.3845421245421243,0.1571428571428571
5.187233446005848,2.1524542124542125,0.23369963369963367,0.19743589743589743
5.1874188860092545,2.1524542124542125,0.23369963369963367,0.19743589743589743
5.192815981004969,2.1524542124542125,0.23369963369963367,0.19743589743589743
5.194432101008715,2.1524542124542125,0.23369963369963367,0.19743589743589743
5.198909188999096,2.1524542124542125,0.23369963369963367,0.19743589743589743
5.200440137006808,0.21274725274725276,2.198388278388278,0.1095970695970696
5.204239634011174,0.21274725274725276,2.198388278388278,0.1095970695970696
5.20954955900379,0.21274725274725276,2.198388278388278,0.1095970695970696
5.213269534011488,0.21274725274725276,2.198388278388278,0.1095970695970696
5.217701294008293,0.21274725274725276,2.198388278388278,0.1095970695970696
5.219323620010982,0.18615384615384614,2.207252747252747,0.07897435897435898
5.223180162007338,0.18615384615384614,2.207252747252747,0.07897435897435898
5.227860702012549,0.18615384615384614,2.207252747252747,0.07897435897435898
5.228165523003554,0.18615384615384614,2.207252747252747,0.07897435897435898
5.233537617008551,2.1524542124542125,0.3852014652014652,0.448058608058608
5.235110408000764,2.6536996336996337,2.6367765567765566,0.5753846153846153
5.2395594350091415,2.6536996336996337,2.6367765567765566,0.5753846153846153
5.240391637009452,2.6536996336996337,2.6367765567765566,0.5753846153846153
5.241937628001324,2.6536996336996337,2.6367765567765566,0.5753846153846153
5.246507971009123,2.6536996336996337,2.6367765567765566,0.5753846153846153
5.246738066009129,2.6536996336996337,2.6367765567765566,0.5753846153846153
5.252020050000283,2.6536996336996337,2.6367765567765566,0.5753846153846153
5.2544772360124625,1.3965567765567766,0.16036630036630037,0.19340659340659339
5.25982391400612,1.3965567765567766,0.16036630036630037,0.19340659340659339
5.263472935999744,1.3965567765567766,0.16036630036630037,0.19340659340659339
5.268702657005633,1.3965567765567766,0.16036630036630037,0.19340659340659339
5.271661942009814,1.3965567765567766,0.16036630036630037,0.19340659340659339
5.274678191999556,1.3965567765567766,0.16036630036630037,0.19340659340659339
5.2777304660121445,1.3965567765567766,0.16036630036630037,0.19340659340659339
5.280753116006963,2.6504761904761907,3.3,1.6197802197802196
5.283041781003703,2.6504761904761907,3.3,1.6197802197802196
5.2832861360075185,2.6504761904761907,3.3,1.6197802197802196
5.288026403010008,2.6504761904761907,3.3,1.6197802197802196
5.288203755000723,2.6545054945054947,3.3,1.3151648351648353
5.292776834001415,2.6545054945054947,3.3,1.3151648351648353
5.293074202010757,2.6569230769230767,2.764102564102564,0.4545054945054945
5.298334196006181,2.6569230769230767,2.764102564102564,0.4545054945054945
5.301038018005784,3.3,2.9615384615384617,1.2466666666666666
5.30901063400961,3.3,2.9615384615384617,1.2466666666666666
5.315449132001959,3.248424908424908,0.5576556776556777,0.7663736263736264
5.321337745001074,3.248424908424908,0.5576556776556777,0.7663736263736264
5.329583206010284,3.3,1.6649084249084247,0.17003663003663003
5.333912318004877,3.2726007326007327,0.5342857142857143,0.7953846153846154
5.335431308005354,3.2726007326007327,0.5342857142857143,0.7953846153846154
5.339756251007202,3.2726007326007327,0.5342857142857143,0.7953846153846154
5.341270846009138,2.7197802197802194,1.4497435897435897,0.14827838827838827
5.345624603010947,2.7197802197802194,1.4497435897435897,0.14827838827838827
5.3478255690133665,2.7197802197802194,1.4497435897435897,0.14827838827838827
5.348090218001744,2.7197802197802194,1.4497435897435897,0.14827838827838827
5.353488713008119,2.7197802197802194,1.4497435897435897,0.14827838827838827
5.355099514999893,3.3,2.4473992673992675,0.3876190476190476
5.362110101006692,3.3,2.4473992673992675,0.3876190476190476
5.36834373199963,3.2935531135531133,1.656043956043956,0.14344322344322344
5.372101126005873,3.0155311355311354,1.4964835164835164,0.2651282051282051
5.378985871007899,3.0155311355311354,1.4964835164835164,0.2651282051282051
5.3858894770091865,3.0155311355311354,1.4964835164835164,0.2651282051282051
5.3911001840024255,3.0155311355311354,1.4964835164835164,0.2651282051282051
5.392684880003799,3.0155311355311354,1.4964835164835164,0.2651282051282051
5.40052567901148,3.0155311355311354,1.4964835164835164,0.2651282051282051
5.40444676700281,2.652087912087912,0.6148717948717949,0.06769230769230769
5.407610184003715,3.3,0.6003663003663003,0.04593406593406593
5.410065225005383,3.3,0.6003663003663003,0.04593406593406593
5.410173416006728,3.3,0.6003663003663003,0.04593406593406593
5.415391547008767,3.3,0.6003663003663003,0.04593406593406593
5.419258522000746,3.3,0.6003663003663003,0.04593406593406593
5.426746877012192,3.3,1.6753846153846153,0.16117216117216115
5.431518208002672,3.3,1.041978021978022,0.0419047619047619
5.4397691570047755,2.189523809523809,0.5971428571428571,0.48835164835164835
5.444692492004833,2.189523809523809,0.5971428571428571,0.48835164835164835
5.449841510999249,2.2765567765567765,0.21274725274725276,0.1942124542124542
5.454125478005153,2.2765567765567765,0.21274725274725276,0.1942124542124542
5.454490282005281,2.2765567765567765,0.21274725274725276,0.1942124542124542
5.459893083010684,2.2765567765567765,0.21274725274725276,0.1942124542124542
5.461661876004655,2.2765567765567765,0.21274725274725276,0.1942124542124542
5.4652262029994745,2.2765567765567765,0.21274725274725276,0.1942124542124542
5.473066541002481,2.5070329670329667,0.8808058608058608,0.1676190476190476
5.477614095012541,2.5070329670329667,0.8808058608058608,0.1676190476190476
5.478430679999292,2.5070329670329667,0.8808058608058608,0.1676190476190476
5.479964103011298,2.5070329670329667,0.8808058608058608,0.1676190476190476
5.486840643003234,2.5070329670329667,0.8808058608058608,0.1676190476190476
5.490094330001739,2.5070329670329667,0.8808058608058608,0.1676190476190476
5.490956309004105,2.5070329670329667,0.8808058608058608,0.1676190476190476
5.492522712011123,2.5070329670329667,0.8808058608058608,0.1676190476190476
5.497019617003389,2.5070329670329667,0.8808058608058608,0.1676190476190476
5.497325535005075,2.6488644688644687,3.3,1.5053479853479852
5.503130970013444,2.6488644688644687,3.3,1.5053479853479852
5.508731898007682,2.6488644688644687,3.3,1.5053479853479852
5.509558014004142,3.3,2.0428571428571427,0.7091575091575092
5.51117978199909,3.3,2.0428571428571427,0.7091575091575092
5.516491404006956,3.3,2.0428571428571427,0.7091575091575092
5.520043064010679,3.3,2.0428571428571427,0.7091575091575092
5.528372266009683,3.3,2.0428571428571427,0.7091575091575092
5.536992033012211,2.0347985347985347,0.31347985347985347,0.4504761904761904
5.542067686008522,2.0347985347985347,0.31347985347985347,0.4504761904761904
5.544507021011668,2.0347985347985347,0.31347985347985347,0.4504761904761904
5.544647105009062,2.0347985347985347,0.31347985347985347,0.4504761904761904
5.5527867510099895,2.0347985347985347,0.31347985347985347,0.4504761904761904
5.557843861999572,3.3,0.5761904761904761,0.7736263736263735
5.56426188700425,3.3,0.5761904761904761,0.7736263736263735
5.568716390000191,3.3,0.5761904761904761,0.7736263736263735
5.569090264005354,2.02029304029304,0.5721611721611721,0.2208058608058608
5.576230360005866,2.02029304029304,0.5721611721611721,0.2208058608058608
5.581328439002391,2.02029304029304,0.5721611721611721,0.2208058608058608
5.585668836007244,2.02029304029304,0.5721611721611721,0.2208058608058608
5.5860250200057635,2.02029304029304,0.5721611721611721,0.2208058608058608
5.591587567003444,2.02029304029304,0.5721611721611721,0.2208058608058608
5.602285992004909,3.3,0.8348717948717947,0.9605860805860806
5.608944396008155,3.3,0.8348717948717947,0.9605860805860806
5.613338406008552,3.3,0.5923076923076923,0.0
5.613727321004262,3.3,0.5923076923076923,0.0
5.622364576003747,3.3,0.5923076923076923,0.0
5.626320776005741,3.3,1.854285714285714,0.2224175824175824
5.630215577999479,3.3,0.5713553113553113,0.017728937728937726
5.637440022008377,3.3,0.5713553113553113,0.017728937728937726
5.641416279002442,3.3,0.5713553113553113,0.017728937728937726
5.645207613008097,3.3,0.958974358974359,0.09347985347985348
5.651000632002251,3.3,0.958974358974359,0.09347985347985348
5.657652221008902,3.3,0.958974358974359,0.09347985347985348
5.661488543002633,3.3,0.958974358974359,0.09347985347985348
5.667354233999504,3.3,0.958974358974359,0.09347985347985348
5.673831671010703,2.5167032967032963,0.9202930402930403,0.1805128205128205
5.6780256330093835,2.6786813186813188,2.1202197802197804,0.3578021978021978
5.680475529006799,2.6786813186813188,2.1202197802197804,0.3578021978021978
5.688880074012559,2.6786813186813188,2.1202197802197804,0.3578021978021978
5.6935423130053096,2.6786813186813188,2.1202197802197804,0.3578021978021978
5.693723524003872,2.6786813186813188,2.1202197802197804,0.3578021978021978
5.698873679008102,2.6786813186813188,2.1202197802197804,0.3578021978021978
5.704841810002108,2.6786813186813188,2.1202197802197804,0.3578021978021978
5.708623623009771,2.6786813186813188,2.1202197802197804,0.3578021978021978
5.713162915999419,2.6786813186813188,2.1202197802197804,0.3578021978021978
5.714045700005954,2.6786813186813188,2.1202197802197804,0.3578021978021978
5.7156357940111775,2.6786813186813188,2.1202197802197804,0.3578021978021978
5.72069487500994,2.6786813186813188,2.1202197802197804,0.3578021978021978
5.723779215011746,2.6786813186813188,2.1202197802197804,0.3578021978021978
5.725388719001785,2.768131868131868,0.6454945054945055,0.26109890109890105
5.729746999000781,3.3,2.5400732600732603,0.4520879120879121
5.731356177013367,3.3,2.5400732600732603,0.4520879120879121
5.737808296005824,3.3,2.5400732600732603,0.4520879120879121
5.741059423002298,3.3,2.5400732600732603,0.4520879120879121
5.742134416010231,3.3,2.5400732600732603,0.4520879120879121
5.74244836300204,3.3,2.5400732600732603,0.4520879120879121
5.747142353007803,3.3,2.5400732600732603,0.4520879120879121
5.747346894000657,3.3,0.7502564102564102,1.0186080586080586
5.753908937011147,3.3,0.7502564102564102,1.0186080586080586
5.756992362003075,3.3,0.7502564102564102,1.0186080586080586
5.759369921011967,3.3,0.7502564102564102,1.0186080586080586
5.759726518008392,3.3,0.7502564102564102,1.0186080586080586
5.766396170001826,3.3,0.7502564102564102,1.0186080586080586
5.77064754901221,3.3,0.7502564102564102,1.0186080586080586
5.772249444999034,3.3,0.7502564102564102,1.0186080586080586
5.776052498011268,3.3,0.7502564102564102,1.0186080586080586
5.780430817001616,3.3,0.7502564102564102,1.0186080586080586
5.781396492006024,3.3,1.7164835164835166,0.14827838827838827
5.782672815010301,3.3,1.7164835164835166,0.14827838827838827
5.782893691008212,3.3,1.7164835164835166,0.14827838827838827
5.790573717007646,3.3,1.7164835164835166,0.14827838827838827
5.797683865006547,3.3,1.7164835164835166,0.14827838827838827
5.80457259301329,3.3,1.7164835164835166,0.14827838827838827
5.807588647003286,3.3,1.7164835164835166,0.14827838827838827
5.80989805101126,3.3,1.7164835164835166,0.14827838827838827
5.810131735008326,3.3,1.7164835164835166,0.14827838827838827
5.815430513001047,3.3,1.7164835164835166,0.14827838827838827
5.817514338006731,2.3958241758241754,1.2764835164835164,0.15633699633699633
5.818880624006852,2.3958241758241754,1.2764835164835164,0.15633699633699633
5.824513344006846,2.3958241758241754,1.2764835164835164,0.15633699633699633
5.824674495001091,2.3958241758241754,1.2764835164835164,0.15633699633699633
5.829364344011992,2.3958241758241754,1.2764835164835164,0.15633699633699633
5.829581546000554,2.3958241758241754,1.2764835164835164,0.15633699633699633
5.836991677002516,2.3958241758241754,1.2764835164835164,0.15633699633699633
5.841054002012243,2.3958241758241754,1.2764835164835164,0.15633699633699633
5.843346415000269,3.3,0.8227838827838827,0.09428571428571428
5.8436702840117505,3.3,0.8227838827838827,0.09428571428571428
5.849051614000928,3.3,0.8227838827838827,0.09428571428571428
5.849991660012165,3.3,0.8227838827838827,0.09428571428571428
5.852640955999959,3.3,0.8227838827838827,0.09428571428571428
5.859342966999975,3.3,0.8227838827838827,0.09428571428571428
5.862392315000761,2.6536996336996337,3.3,1.6068864468864468
5.865142993003246,2.6536996336996337,3.3,1.6068864468864468
5.871846704001655,3.3,0.630989010989011,0.05963369963369963
5.874846261009225,1.975164835164835,0.381978021978022,0.37150183150183147
5.877881516003981,1.975164835164835,0.381978021978022,0.37150183150183147
5.881998515003943,1.975164835164835,0.381978021978022,0.37150183150183147
5.884754184007761,1.975164835164835,0.381978021978022,0.37150183150183147
5.887773948008544,1.975164835164835,0.381978021978022,0.37150183150183147
5.890176382003119,1.975164835164835,0.381978021978022,0.37150183150183147
5.89029774600931,1.975164835164835,0.381978021978022,0.37150183150183147
5.89562339099939,1.975164835164835,0.381978021978022,0.37150183150183147
5.897945966004045,1.975164835164835,0.381978021978022,0.37150183150183147
5.898091976006981,1.1483516483516483,2.075897435897436,0.14666666666666667
5.9066525810048915,1.1483516483516483,2.075897435897436,0.14666666666666667
5.911481492003077,1.1483516483516483,2.075897435897436,0.14666666666666667
5.920122091003577,1.1725274725274726,0.2216117216117216,0.0821978021978022
5.926180355003453,3.3,1.0742124542124543,0.04673992673992674
5.9302940370107535,3.3,0.5923076923076923,0.03626373626373627
5.933498816011706,3.3,0.5923076923076923,0.03626373626373627
5.933897381008137,3.3,0.5923076923076923,0.03626373626373627
5.9401519970124355,3.3,0.5923076923076923,0.03626373626373627
5.94405238100444,3.3,0.5923076923076923,0.03626373626373627
5.947646247004741,3.3,0.713992673992674,0.020146520146520144
5.947841552013415,3.3,0.713992673992674,0.020146520146520144
5.955008883000119,3.3,0.713992673992674,0.020146520146520144
5.95941147900885,3.3,0.713992673992674,0.020146520146520144
5.95976773800794,1.1813919413919414,2.3724542124542123,0.025787545787545788
5.965662055008579,1.1813919413919414,2.3724542124542123,0.025787545787545788
5.97282070601068,1.1813919413919414,2.3724542124542123,0.025787545787545788
5.977565264009172,3.3,2.5586080586080584,0.4657875457875458
5.977750430000015,3.3,2.5586080586080584,0.4657875457875458
5.98333072400419,3.3,2.5586080586080584,0.4657875457875458
5.983548445001361,3.3,2.5586080586080584,0.4657875457875458
5.991219847011962,3.3,2.5586080586080584,0.4657875457875458
5.996625511004822,3.3,0.6052014652014651,0.8219780219780219
6.001187885005493,3.3,0.6052014652014651,0.8219780219780219
6.007400378002785,3.3,0.6052014652014651,0.8219780219780219
6.011281712999335,3.3,0.6052014652014651,0.8219780219780219
6.016158117010491,3.3,0.6052014652014651,0.8219780219780219
6.022442127999966,3.3,0.6052014652014651,0.8219780219780219
6.026245668006595,2.6528937728937727,1.3836630036630035,0.11926739926739927
6.026357554001152,2.6528937728937727,1.3836630036630035,0.11926739926739927
6.031714993005153,2.6528937728937727,1.3836630036630035,0.11926739926739927
6.0356048610119615,2.332967032967033,0.3497435897435897,0.6648351648351648
6.03902950900374,2.332967032967033,0.3497435897435897,0.6648351648351648
6.039219091006089,2.332967032967033,0.3497435897435897,0.6648351648351648
6.0466870900127105,2.332967032967033,0.3497435897435897,0.6648351648351648
6.055517548011267,2.332967032967033,0.3497435897435897,0.6648351648351648
6.067221108009107,2.332967032967033,0.3497435897435897,0.6648351648351648
6.081315247007296,2.6488644688644687,2.5432967032967033,1.6665201465201465
6.098684253011015,2.6488644688644687,2.5432967032967033,1.6665201465201465
6.1014974740101025,2.6488644688644687,2.5432967032967033,1.6665201465201465
6.104158843008918,2.6488644688644687,2.5432967032967033,1.6665201465201465
6.112165953003569,3.3,0.6205128205128204,0.05802197802197802
6.123467145007453,3.3,0.6205128205128204,0.05802197802197802
6.132510478011682,2.6488644688644687,0.6390476190476191,0.048351648351648346
6.141085973009467,2.6536996336996337,3.3,1.3183882783882783
6.147043754011975,2.6536996336996337,3.3,1.3183882783882783
6.151309234002838,3.3,2.5038095238095237,0.5504029304029303
6.151528819013038,3.3,2.5038095238095237,0.5504029304029303
6.1580040310072945,3.3,2.5038095238095237,0.5504029304029303
6.1624443370092195,3.3,2.5038095238095237,0.5504029304029303
6.164223438012414,1.967106227106227,0.24336996336996336,0.29736263736263735
6.168034371003159,1.967106227106227,0.24336996336996336,0.29736263736263735
6.173182665006607,1.967106227106227,0.24336996336996336,0.29736263736263735
6.176734981010668,1.967106227106227,0.24336996336996336,0.29736263736263735
6.177034146006918,1.967106227106227,0.24336996336996336,0.29736263736263735
6.182244399009505,1.967106227106227,0.24336996336996336,0.29736263736263735
6.185066706006182,2.3603663003663002,0.3626373626373626,0.2957509157509157
6.188307534001069,2.3603663003663002,0.3626373626373626,0.2957509157509157
6.189187806012342,2.3603663003663002,0.3626373626373626,0.2957509157509157
6.1908300740033155,2.3603663003663002,0.3626373626373626,0.2957509157509157
6.194641680005589,2.3603663003663002,0.3626373626373626,0.2957509157509157
6.199122103003901,2.3603663003663002,0.3626373626373626,0.2957509157509157
6.200769543007482,2.3603663003663002,0.3626373626373626,0.2957509157509157
6.205258769012289,2.3603663003663002,0.3626373626373626,0.2957509157509157
6.20553106800071,2.3603663003663002,0.3626373626373626,0.2957509157509157
6.210720935006975,2.3603663003663002,0.3626373626373626,0.2957509157509157
6.214548372008721,2.3603663003663002,0.3626373626373626,0.2957509157509157
6.220243790012319,2.3603663003663002,0.3626373626373626,0.2957509157509157
6.220377149002161,2.3603663003663002,0.3626373626373626,0.2957509157509157
6.225883618011721,2.3603663003663002,0.3626373626373626,0.2957509157509157
6.228074310012744,2.1669597069597066,0.46417582417582415,0.3449084249084249
6.228415513003711,2.1669597069597066,0.46417582417582415,0.3449084249084249
6.234370476013282,2.1669597069597066,0.46417582417582415,0.3449084249084249
6.238235707001877,2.6536996336996337,2.54974358974359,0.5641025641025641
6.242746725009056,2.6536996336996337,2.54974358974359,0.5641025641025641
6.243661678003264,2.6536996336996337,2.54974358974359,0.5641025641025641
6.244586674001766,2.6536996336996337,2.54974358974359,0.5641025641025641
6.246282157007954,2.6536996336996337,2.54974358974359,0.5641025641025641
6.251315089000855,2.6536996336996337,2.54974358974359,0.5641025641025641
6.254607303999364,2.6536996336996337,2.54974358974359,0.5641025641025641
6.25574071900337,2.655311355311355,2.5787545787545785,0.49076923076923074
6.255992590013193,2.655311355311355,2.5787545787545785,0.49076923076923074
6.261185276001925,2.655311355311355,2.5787545787545785,0.49076923076923074
6.266421707012341,2.655311355311355,2.5787545787545785,0.49076923076923074
6.267543496011058,2.655311355311355,2.5787545787545785,0.49076923076923074
6.267919247999089,2.655311355311355,2.5787545787545785,0.49076923076923074
6.273129467008403,2.655311355311355,2.5787545787545785,0.49076923076923074
6.2755565060069785,2.655311355311355,2.5787545787545785,0.49076923076923074
6.27567038401321,2.655311355311355,2.5787545787545785,0.49076923076923074
6.281600146001438,2.655311355311355,2.5787545787545785,0.49076923076923074
6.286807589000091,2.655311355311355,2.5787545787545785,0.49076923076923074
6.289481812011218,2.655311355311355,2.5787545787545785,0.49076923076923074
6.293413676001364,2.655311355311355,2.5787545787545785,0.49076923076923074
6.297434851003345,2.655311355311355,2.5787545787545785,0.49076923076923074
6.300678972009337,0.7663736263736264,2.3345787545787546,0.09831501831501832
6.30238368701248,3.3,1.2724542124542124,0.0
6.305595876008738,3.3,1.2724542124542124,0.0
6.307147741012159,3.3,1.2724542124542124,0.0
6.311127580003813,3.3,1.2724542124542124,0.0
6.315886313008377,1.9477655677655676,0.792967032967033,0.1555311355311355
6.3213705610105535,3.3,3.2782417582417582,1.606080586080586
6.321736370999133,3.3,3.2782417582417582,1.606080586080586
6.3263118360046064,3.3,3.2782417582417582,1.606080586080586
6.326593332007178,3.3,3.2782417582417582,1.606080586080586
6.331824978013174,3.3,3.2782417582417582,1.606080586080586
6.334863035008311,3.3,2.4038827838827834,0.47142857142857136
6.337130394007545,3.3,2.4038827838827834,0.47142857142857136
6.33740119500726,3.3,2.4038827838827834,0.47142857142857136
6.3424996660032775,3.3,2.4038827838827834,0.47142857142857136
6.346286971005611,1.614139194139194,0.23853479853479853,0.5713553113553113
6.351683057000628,2.071868131868132,0.1789010989010989,0.3376556776556776
6.354879263002658,1.6318681318681318,0.13619047619047617,0.06849816849816849
6.355792853006278,2.655311355311355,2.331355311355311,0.4198534798534798
6.357420856002136,2.655311355311355,2.331355311355311,0.4198534798534798
6.36180831900856,2.655311355311355,2.331355311355311,0.4198534798534798
