time,emg1,emg2,emg3
0.03530466899974272,3.163003663003663,0.5334798534798535,0.518974358974359
0.035878198003047146,3.163003663003663,0.5334798534798535,0.518974358974359
0.043155032995855436,3.163003663003663,0.5334798534798535,0.518974358974359
0.0480574249959318,3.163003663003663,0.5334798534798535,0.518974358974359
0.052341514005092904,3.163003663003663,0.5334798534798535,0.518974358974359
0.053510935002123006,2.6956043956043954,1.0645421245421245,0.4319413919413919
0.053766896002343856,2.6956043956043954,1.0645421245421245,0.4319413919413919
0.059395739997853525,2.6956043956043954,1.0645421245421245,0.4319413919413919
0.05965521800681017,2.6956043956043954,1.0645421245421245,0.4319413919413919
0.06505729400669225,2.6956043956043954,1.0645421245421245,0.4319413919413919
0.06684267800301313,2.6956043956043954,1.0645421245421245,0.4319413919413919
0.06981403200188652,2.6956043956043954,1.0645421245421245,0.4319413919413919
0.07254323200322688,2.6956043956043954,1.0645421245421245,0.4319413919413919
0.07691798399901018,2.6956043956043954,1.0645421245421245,0.4319413919413919
0.07797484600450844,2.6956043956043954,1.0645421245421245,0.4319413919413919
0.07830829599697609,2.6956043956043954,1.0645421245421245,0.4319413919413919
0.08371640399855096,2.6956043956043954,1.0645421245421245,0.4319413919413919
0.08473171200603247,2.6722344322344322,1.7559706959706958,0.3441025641025641
0.08565724000800401,2.6722344322344322,1.7559706959706958,0.3441025641025641
0.08668323200254235,2.6722344322344322,1.7559706959706958,0.3441025641025641
0.08768791299371514,2.6722344322344322,1.7559706959706958,0.3441025641025641
0.08861353900283575,2.6722344322344322,1.7559706959706958,0.3441025641025641
0.08960622899758164,2.6722344322344322,1.7559706959706958,0.3441025641025641
0.09069579000060912,2.6722344322344322,1.7559706959706958,0.3441025641025641
0.09094109899888281,2.6722344322344322,1.7559706959706958,0.3441025641025641
0.09649890099535696,2.6722344322344322,1.7559706959706958,0.3441025641025641
0.09741452100570314,2.6722344322344322,1.7559706959706958,0.3441025641025641
0.09838952800782863,2.6722344322344322,1.7559706959706958,0.3441025641025641
0.09936659899540246,2.6722344322344322,1.7559706959706958,0.3441025641025641
0.10040522800409235,2.6722344322344322,1.7559706959706958,0.3441025641025641
0.1013640419987496,2.6722344322344322,1.7559706959706958,0.3441025641025641
0.1022932519990718,2.6722344322344322,1.7559706959706958,0.3441025641025641
0.10403714400308672,2.6722344322344322,1.7559706959706958,0.3441025641025641
0.10734296499867924,2.6722344322344322,1.7559706959706958,0.3441025641025641
0.10823414899641648,2.6722344322344322,1.7559706959706958,0.3441025641025641
0.10916678300418425,2.6722344322344322,1.7559706959706958,0.3441025641025641
0.11076042499917094,2.6722344322344322,1.7559706959706958,0.3441025641025641
0.11462993899476714,2.6722344322344322,1.7559706959706958,0.3441025641025641
0.11847698400379159,2.6722344322344322,1.7559706959706958,0.3441025641025641
0.12289009800588246,2.6722344322344322,1.7559706959706958,0.3441025641025641
0.12372034600412007,2.6722344322344322,1.7559706959706958,0.3441025641025641
0.12529391200223472,2.6722344322344322,1.7559706959706958,0.3441025641025641
0.12983696600713301,2.6722344322344322,1.7559706959706958,0.3441025641025641
0.1301221199973952,2.324908424908425,1.6125274725274723,0.6301831501831501
0.13551414500398096,2.324908424908425,1.6125274725274723,0.6301831501831501
0.13719039200805128,2.324908424908425,1.6125274725274723,0.6301831501831501
0.14110016899940092,2.324908424908425,1.6125274725274723,0.6301831501831501
0.14983247900090646,2.324908424908425,1.6125274725274723,0.6301831501831501
0.15537735000543762,2.698021978021978,1.8365567765567765,0.43274725274725273
0.15560874399670865,2.698021978021978,1.8365567765567765,0.43274725274725273
0.16026818100363016,2.698021978021978,1.8365567765567765,0.43274725274725273
0.16045103200303856,2.698021978021978,1.8365567765567765,0.43274725274725273
0.1649830429960275,2.698021978021978,1.8365567765567765,0.43274725274725273
0.16585440500057302,2.698021978021978,1.8365567765567765,0.43274725274725273
0.16828148800414056,2.698021978021978,1.8365567765567765,0.43274725274725273
0.1784065020037815,2.698021978021978,1.8365567765567765,0.43274725274725273
0.18767764000222087,2.6617582417582417,0.14344322344322344,0.4496703296703296
0.19620310199388769,2.6617582417582417,0.14344322344322344,0.4496703296703296
0.20384734800609294,2.6617582417582417,0.14344322344322344,0.4496703296703296
0.20912634600244928,3.2258608058608056,0.24095238095238095,0.28446886446886444
0.21239535699714907,3.2258608058608056,0.24095238095238095,0.28446886446886444
0.22541800400358625,3.2258608058608056,0.24095238095238095,0.28446886446886444
0.231419678995735,2.697216117216117,0.5705494505494505,0.5310622710622711
0.23868644499452785,0.6076190476190476,1.797069597069597,0.5963369963369963
0.2432974289986305,0.6076190476190476,1.797069597069597,0.5963369963369963
0.2441663299978245,2.548937728937729,0.12732600732600732,0.12329670329670328
0.24571740000101272,2.548937728937729,0.12732600732600732,0.12329670329670328
0.249546591003309,2.548937728937729,0.12732600732600732,0.12329670329670328
0.2538612450007349,2.548937728937729,0.12732600732600732,0.12329670329670328
0.25474984099855646,2.548937728937729,0.12732600732600732,0.12329670329670328
0.2563449449953623,2.548937728937729,0.12732600732600732,0.12329670329670328
0.2600582220038632,2.548937728937729,0.12732600732600732,0.12329670329670328
0.26542416799929924,2.548937728937729,0.12732600732600732,0.12329670329670328
0.26816875400254503,2.548937728937729,0.12732600732600732,0.12329670329670328
0.27264678600477055,2.548937728937729,0.12732600732600732,0.12329670329670328
0.27296971500618383,2.548937728937729,0.12732600732600732,0.12329670329670328
0.2776013399998192,2.6649816849816848,0.17326007326007326,0.43355311355311354
0.2778344950056635,2.6649816849816848,0.17326007326007326,0.43355311355311354
0.2824777269997867,2.6649816849816848,0.17326007326007326,0.43355311355311354
0.2827311720029684,2.6649816849816848,0.17326007326007326,0.43355311355311354
0.2893144499976188,2.6649816849816848,0.17326007326007326,0.43355311355311354
0.29320841599837877,1.1773626373626374,1.8051282051282052,0.6704761904761904
0.2984850899956655,3.3,0.1241025641025641,0.5826373626373627
0.3011909500055481,3.3,0.1241025641025641,0.5826373626373627
0.3066585210035555,3.3,0.1241025641025641,0.5826373626373627
0.3069260259944713,3.3,0.1241025641025641,0.5826373626373627
0.31239358699531294,3.3,0.1241025641025641,0.5826373626373627
0.31411366000247654,2.7197802197802194,0.3376556776556776,0.12249084249084248
0.3193261220003478,2.7197802197802194,0.3376556776556776,0.12249084249084248
0.32244507799623534,2.6714285714285713,0.6680586080586081,0.7978021978021977
0.32406257500406355,2.6714285714285713,0.6680586080586081,0.7978021978021977
0.32999147100781556,2.6714285714285713,0.6680586080586081,0.7978021978021977
0.3354263030050788,2.5005860805860802,1.5883516483516482,0.6463003663003662
0.3357611160026863,2.5005860805860802,1.5883516483516482,0.6463003663003662
0.34039197099627927,2.6569230769230767,0.09589743589743589,0.39406593406593404
0.3461424609995447,2.9228571428571426,0.32798534798534795,0.3078388278388278
0.3463998210063437,2.6964102564102563,1.2966300366300365,0.28849816849816845
0.3542916470032651,2.6964102564102563,1.2966300366300365,0.28849816849816845
0.35999678999360185,2.6964102564102563,1.2966300366300365,0.28849816849816845
0.3648013729980448,2.6964102564102563,1.2966300366300365,0.28849816849816845
0.3649396160035394,2.6964102564102563,1.2966300366300365,0.28849816849816845
0.3720835849962896,2.6964102564102563,1.2966300366300365,0.28849816849816845
0.3763191860052757,2.6964102564102563,1.2966300366300365,0.28849816849816845
0.378795850003371,2.6964102564102563,1.2966300366300365,0.28849816849816845
0.3868552380008623,2.6964102564102563,1.2966300366300365,0.28849816849816845
0.391039110996644,2.6964102564102563,1.2966300366300365,0.28849816849816845
0.39360493200365454,2.693992673992674,0.8679120879120878,0.3553846153846154
0.3986276929936139,2.693992673992674,0.8679120879120878,0.3553846153846154
0.4057088970002951,2.6738461538461538,0.1112087912087912,0.3102564102564102
0.4099579269968672,2.6738461538461538,0.1112087912087912,0.3102564102564102
0.4117190800025128,2.6738461538461538,0.1112087912087912,0.3102564102564102
0.41422513700672425,2.6738461538461538,0.1112087912087912,0.3102564102564102
0.41436560699366964,2.6738461538461538,0.1112087912087912,0.3102564102564102
0.42233160500472877,2.6738461538461538,0.1112087912087912,0.3102564102564102
0.42749469699629117,2.6738461538461538,0.1112087912087912,0.3102564102564102
0.43411419399490114,2.6536996336996337,3.3,1.7914285714285711
0.439485823007999,2.6536996336996337,3.3,1.7914285714285711
0.43978891700680833,2.6585347985347987,2.9647619047619047,0.40534798534798533
0.44741931300086435,2.6585347985347987,2.9647619047619047,0.40534798534798533
0.45657237399427686,2.6665934065934067,1.9638827838827837,0.381978021978022
0.4639768070046557,2.6665934065934067,1.9638827838827837,0.381978021978022
0.47121557699574623,2.6665934065934067,1.9638827838827837,0.381978021978022
0.47531798100681044,2.698827838827839,0.6616117216117217,0.07655677655677656
0.47918154900253285,2.698827838827839,0.6616117216117217,0.07655677655677656
0.4832898919994477,2.698827838827839,0.6616117216117217,0.07655677655677656
0.48810518499522004,3.3,0.3199267399267399,0.2772161172161172
0.4954460000008112,3.3,0.3199267399267399,0.2772161172161172
0.5023379439953715,3.3,0.3199267399267399,0.2772161172161172
0.506753106994438,2.6698168498168497,2.5715018315018314,0.3223443223443223
0.5070346040010918,2.6698168498168497,2.5715018315018314,0.3223443223443223
0.5124398920015665,2.6698168498168497,2.5715018315018314,0.3223443223443223
0.5141776840027887,2.6698168498168497,2.5715018315018314,0.3223443223443223
0.5195283409993863,2.6698168498168497,2.5715018315018314,0.3223443223443223
0.5198369050049223,2.6698168498168497,2.5715018315018314,0.3223443223443223
0.5246503109956393,2.6698168498168497,2.5715018315018314,0.3223443223443223
0.5300487589993281,2.5827838827838825,0.2345054945054945,0.16278388278388278
0.5317089629970724,2.5827838827838825,0.2345054945054945,0.16278388278388278
0.5367637949966593,2.5827838827838825,0.2345054945054945,0.16278388278388278
0.5409167689940659,2.655311355311355,0.1104029304029304,0.40615384615384614
0.5433941999945091,2.655311355311355,0.1104029304029304,0.40615384615384614
0.5435970469989115,2.1282783882783884,0.1652014652014652,0.07897435897435898
0.5483370779984398,2.6923809523809523,1.9783882783882782,0.5068864468864469
0.548655200007488,2.6536996336996337,1.0919413919413918,0.8638827838827838
0.5557282049994683,2.6536996336996337,1.0919413919413918,0.8638827838827838
0.5604972190049011,2.6536996336996337,1.0919413919413918,0.8638827838827838
0.5670233559940243,3.3,3.3,0.9073992673992675
0.5715461200015852,2.697216117216117,0.70996336996337,0.0410989010989011
0.5771679239987861,2.697216117216117,0.70996336996337,0.0410989010989011
0.5787675710016629,2.697216117216117,0.70996336996337,0.0410989010989011
0.583711138999206,2.697216117216117,0.70996336996337,0.0410989010989011
0.5899695330008399,2.697216117216117,0.70996336996337,0.0410989010989011
0.5939494820049731,2.697216117216117,0.70996336996337,0.0410989010989011
0.5978797290008515,2.697216117216117,0.70996336996337,0.0410989010989011
0.605361202993663,2.697216117216117,0.70996336996337,0.0410989010989011
0.6100324940052815,2.697216117216117,0.70996336996337,0.0410989010989011
0.6103384680027375,2.697216117216117,0.70996336996337,0.0410989010989011
0.6158159699989483,2.697216117216117,0.70996336996337,0.0410989010989011
0.6195846680057002,2.697216117216117,0.70996336996337,0.0410989010989011
0.6240601600002265,3.3,3.3,1.0065201465201465
0.6306925440003397,3.3,3.3,1.0065201465201465
0.6373502219939837,2.929304029304029,1.6149450549450548,0.6293772893772893
0.6410105980030494,3.3,0.3642490842490842,0.4126007326007326
0.6465434169949731,3.3,0.3642490842490842,0.4126007326007326
0.6480940019973787,3.3,0.5979487179487178,0.2909157509157509
0.6560342459997628,3.3,0.5979487179487178,0.2909157509157509
0.6599071710079443,3.3,0.5979487179487178,0.2909157509157509
0.6646074360032799,3.3,0.4158241758241758,0.5858608058608058
0.6647597470000619,3.3,0.4158241758241758,0.5858608058608058
0.6733448339946335,2.6964102564102563,0.9920146520146519,0.25545787545787546
0.6806544940045569,2.697216117216117,0.6712820512820512,0.4029304029304029
0.6860013880068436,2.697216117216117,0.6712820512820512,0.4029304029304029
0.6872875459957868,2.697216117216117,0.6712820512820512,0.4029304029304029
0.6929493040079251,2.697216117216117,0.6712820512820512,0.4029304029304029
0.6932164070021827,2.697216117216117,1.0903296703296703,0.45369963369963373
0.6991617610037792,2.697216117216117,1.0903296703296703,0.45369963369963373
0.7078870580007788,2.697216117216117,0.21999999999999997,0.09428571428571428
0.7126068119978299,2.545714285714286,0.17648351648351646,0.13054945054945052
0.7128078310051933,2.545714285714286,0.17648351648351646,0.13054945054945052
0.7207549330050824,2.545714285714286,0.17648351648351646,0.13054945054945052
0.7246449119993486,2.545714285714286,0.17648351648351646,0.13054945054945052
0.7291277769982116,2.4127472527472524,0.16197802197802197,0.13377289377289378
0.7301930910034571,3.261318681318681,1.6624908424908424,0.6164835164835165
0.7310433060047217,3.261318681318681,1.6624908424908424,0.6164835164835165
0.7333065809943946,3.261318681318681,1.6624908424908424,0.6164835164835165
0.7335373450041516,3.261318681318681,1.6624908424908424,0.6164835164835165
0.7420851189963287,3.261318681318681,1.6624908424908424,0.6164835164835165
0.7487554569961503,3.261318681318681,1.6624908424908424,0.6164835164835165
0.7538473089953186,2.740732600732601,1.7148717948717949,0.6479120879120879
0.7565346909977961,2.7165567765567764,1.1507692307692305,0.5544322344322344
0.7603690090036253,2.7165567765567764,1.1507692307692305,0.5544322344322344
0.7650136349984678,2.7165567765567764,1.1507692307692305,0.5544322344322344
0.7651815169956535,2.7165567765567764,1.1507692307692305,0.5544322344322344
0.7737225690070773,2.7165567765567764,1.1507692307692305,0.5544322344322344
0.7799528000032296,2.698021978021978,0.9138461538461539,0.3811721611721612
0.7837793079961557,2.698021978021978,0.9138461538461539,0.3811721611721612
0.7921127050067298,2.484468864468864,0.17487179487179486,0.13054945054945052
0.7959243850054918,2.484468864468864,0.17487179487179486,0.13054945054945052
0.801138616996468,2.484468864468864,0.17487179487179486,0.13054945054945052
0.8081043209967902,2.484468864468864,0.17487179487179486,0.13054945054945052
0.8117291189992102,2.693992673992674,2.3224908424908426,0.5383150183150183
0.8178615090000676,2.693992673992674,2.3224908424908426,0.5383150183150183
0.8243974369979696,2.693992673992674,2.3224908424908426,0.5383150183150183
0.8281937199935783,3.3,0.32073260073260074,0.3739194139194139
0.833693256994593,3.3,0.32073260073260074,0.3739194139194139
0.8349413899995852,3.3,0.32073260073260074,0.3739194139194139
0.8351212239940651,3.3,0.32073260073260074,0.3739194139194139
0.8431351339968387,3.3,0.32073260073260074,0.3739194139194139
0.8469191439944552,2.6504761904761907,0.7752380952380952,0.9476923076923076
0.8543756050057709,2.6504761904761907,0.7752380952380952,0.9476923076923076
0.8582573979947483,2.6504761904761907,0.7752380952380952,0.9476923076923076
0.8643710939941229,2.6504761904761907,0.7752380952380952,0.9476923076923076
0.8688168000080623,2.6504761904761907,0.7752380952380952,0.9476923076923076
0.8691267359972699,2.6504761904761907,0.7752380952380952,0.9476923076923076
0.8741418349964079,2.6504761904761907,0.7752380952380952,0.9476923076923076
0.8778467499942053,2.718168498168498,0.7212454212454212,0.24014652014652016
0.8854475319967605,2.718168498168498,0.7212454212454212,0.24014652014652016
0.8918836810044013,2.718168498168498,0.7212454212454212,0.24014652014652016
0.8972582360001979,2.718168498168498,0.7212454212454212,0.24014652014652016
0.8991145110048819,2.693992673992674,0.3336263736263736,0.2111355311355311
0.9027763970079832,2.693992673992674,0.3336263736263736,0.2111355311355311
0.909372958005406,2.693992673992674,0.3336263736263736,0.2111355311355311
0.9155423379997956,0.772014652014652,2.0887912087912084,0.5874725274725274
0.9203608969983179,2.6956043956043954,0.9243223443223443,0.3046153846153846
0.9243346010043751,2.6956043956043954,0.9243223443223443,0.3046153846153846
0.9274329570034752,2.6956043956043954,0.9243223443223443,0.3046153846153846
0.9297848779970082,2.6956043956043954,0.9243223443223443,0.3046153846153846
0.9299945420061704,2.6956043956043954,0.9243223443223443,0.3046153846153846
0.9383852809987729,2.6956043956043954,0.9243223443223443,0.3046153846153846
0.945400520999101,2.6738461538461538,0.13619047619047617,0.3586080586080586
0.9509818079968682,2.685934065934066,2.157289377289377,0.448058608058608
0.9607615940039977,2.6698168498168497,1.340952380952381,0.6189010989010989
0.9697444540070137,2.6698168498168497,1.340952380952381,0.6189010989010989
0.9750860729982378,3.3,1.822857142857143,1.0605128205128205
0.9774736469989875,2.686739926739927,0.23128205128205126,0.1805128205128205
0.9776687120029237,2.6536996336996337,0.13054945054945052,0.45772893772893775
0.9831624180078506,2.6536996336996337,0.13054945054945052,0.45772893772893775
0.985475930996472,2.6536996336996337,0.13054945054945052,0.45772893772893775
0.9856251409946708,2.6536996336996337,0.13054945054945052,0.45772893772893775
0.9904470820038114,2.6536996336996337,0.13054945054945052,0.45772893772893775
0.9958665870071854,2.6536996336996337,0.13054945054945052,0.45772893772893775
0.9974689109949395,3.3,0.1813186813186813,0.51010989010989
1.003386787007912,2.655311355311355,2.424835164835165,0.30622710622710625
1.012317956003244,2.6956043956043954,2.287032967032967,0.5721611721611721
1.0193873469979735,2.6956043956043954,2.287032967032967,0.5721611721611721
1.0228907660057303,2.655311355311355,1.0983882783882783,1.1032234432234431
1.0232120199943893,2.655311355311355,1.0983882783882783,1.1032234432234431
1.0279026979987975,2.655311355311355,1.0983882783882783,1.1032234432234431
1.0351962429995183,2.6956043956043954,0.5632967032967032,0.6068131868131869
1.0389973359997384,2.6956043956043954,0.5632967032967032,0.6068131868131869
1.0428612289979355,2.6956043956043954,0.5632967032967032,0.6068131868131869
1.0467936390050454,2.6956043956043954,0.5632967032967032,0.6068131868131869
1.0525748700019903,2.698827838827839,0.8920879120879119,0.07575091575091575
1.0527914590056753,2.6794871794871793,1.3095238095238093,0.6068131868131869
1.0567463240004145,2.6714285714285713,0.24175824175824176,0.39890109890109887
1.061597719002748,2.6714285714285713,0.24175824175824176,0.39890109890109887
1.070541053006309,3.09047619047619,0.5076923076923077,0.45772893772893775
1.0746631479996722,3.09047619047619,0.5076923076923077,0.45772893772893775
1.0770517659984762,3.09047619047619,0.5076923076923077,0.45772893772893775
1.0772929869999643,3.3,0.5439560439560439,0.4528937728937729
1.0838530939945485,3.3,0.5439560439560439,0.4528937728937729
1.0877413470007014,3.3,0.5439560439560439,0.4528937728937729
1.0916921059979359,3.3,0.5439560439560439,0.4528937728937729
1.0961595599947032,3.3,0.5439560439560439,0.4528937728937729
1.098127111006761,2.6585347985347987,0.15956043956043955,0.5157509157509157
1.1009307610074757,2.6585347985347987,0.15956043956043955,0.5157509157509157
1.1042075220029801,2.6585347985347987,0.15956043956043955,0.5157509157509157
1.1050634550047107,2.6585347985347987,0.15956043956043955,0.5157509157509157
1.1065873540064786,2.6585347985347987,0.15956043956043955,0.5157509157509157
1.1107870470004855,2.6585347985347987,0.15956043956043955,0.5157509157509157
1.1131087480025599,2.6585347985347987,0.15956043956043955,0.5157509157509157
1.1134550790011417,2.6585347985347987,0.15956043956043955,0.5157509157509157
1.11805052300042,2.6585347985347987,0.15956043956043955,0.5157509157509157
1.1183102289942326,2.6585347985347987,0.15956043956043955,0.5157509157509157
1.1233864420064492,2.6585347985347987,0.15956043956043955,0.5157509157509157
1.1268940080044558,2.6585347985347987,0.15956043956043955,0.5157509157509157
1.1270197370031383,2.6585347985347987,0.15956043956043955,0.5157509157509157
1.1321439780003857,2.6585347985347987,0.15956043956043955,0.5157509157509157
1.1364244370051892,2.6585347985347987,0.15956043956043955,0.5157509157509157
1.1367406549979933,2.6585347985347987,0.15956043956043955,0.5157509157509157
1.1421016539970879,2.6585347985347987,0.15956043956043955,0.5157509157509157
1.1437999839981785,2.6585347985347987,0.15956043956043955,0.5157509157509157
1.1467870290071005,2.6585347985347987,0.15956043956043955,0.5157509157509157
1.1499841750046471,2.6673992673992672,0.8405128205128204,0.7849084249084248
1.1516118120052852,2.6673992673992672,0.8405128205128204,0.7849084249084248
1.156196957002976,2.6673992673992672,0.8405128205128204,0.7849084249084248
1.1563983069936512,2.6673992673992672,0.8405128205128204,0.7849084249084248
1.1616548290039646,2.6673992673992672,0.8405128205128204,0.7849084249084248
1.1658197380020283,2.6673992673992672,0.8405128205128204,0.7849084249084248
1.1692490419954993,2.6673992673992672,0.8405128205128204,0.7849084249084248
1.174725759003195,2.6673992673992672,0.8405128205128204,0.7849084249084248
1.176416122005321,2.6673992673992672,0.8405128205128204,0.7849084249084248
1.1797203659953084,2.6673992673992672,0.8405128205128204,0.7849084249084248
1.1800137289974373,2.6673992673992672,0.8405128205128204,0.7849084249084248
1.1885482460056664,2.6673992673992672,0.8405128205128204,0.7849084249084248
1.1939349460008088,2.6673992673992672,0.8405128205128204,0.7849084249084248
1.197095976996934,2.6673992673992672,0.8405128205128204,0.7849084249084248
1.1995611279999139,2.6585347985347987,3.066300366300366,0.3972893772893773
1.20660542800033,2.6585347985347987,3.066300366300366,0.3972893772893773
1.211217839998426,2.6585347985347987,3.066300366300366,0.3972893772893773
1.211447212001076,2.3974358974358974,1.7624175824175823,0.7147985347985348
1.216795792002813,2.3974358974358974,1.7624175824175823,0.7147985347985348
1.2184812339983182,2.3974358974358974,1.7624175824175823,0.7147985347985348
1.222407592998934,2.3974358974358974,1.7624175824175823,0.7147985347985348
1.2263048390013864,3.3,0.25384615384615383,0.3602197802197802
1.2318480100075249,3.3,0.25384615384615383,0.3602197802197802
1.2323064359952696,3.3,2.9663736263736262,0.9831501831501831
1.2366164380073315,3.3,2.9663736263736262,0.9831501831501831
1.2381974900054047,3.3,2.9663736263736262,0.9831501831501831
1.2422899230004987,3.3,2.9663736263736262,0.9831501831501831
1.2457124250067864,3.3,2.9663736263736262,0.9831501831501831
1.2459010820020922,3.3,2.9663736263736262,0.9831501831501831
1.251117688996601,2.698021978021978,0.6011721611721611,0.6293772893772893
1.2543331699998816,2.698021978021978,0.6011721611721611,0.6293772893772893
1.2559192449989496,2.698021978021978,0.6011721611721611,0.6293772893772893
1.2599827160011046,2.698021978021978,0.6011721611721611,0.6293772893772893
1.2639819369942416,2.698021978021978,0.6011721611721611,0.6293772893772893
1.2679326829966158,3.3,0.3295970695970696,0.2377289377289377
1.2726268130063545,3.3,2.3635897435897433,1.3401465201465201
1.2727646550047211,3.3,2.3635897435897433,1.3401465201465201
1.2780887669941876,3.3,2.3635897435897433,1.3401465201465201
1.2796603000024334,2.6536996336996337,3.2129670329670326,0.5093040293040293
1.283540124000865,2.6536996336996337,3.2129670329670326,0.5093040293040293
1.2880531739938306,2.6536996336996337,3.2129670329670326,0.5093040293040293
1.2889019610011019,3.3,3.3,1.8889377289377287
1.29050988900417,3.3,3.3,1.8889377289377287
1.2943114780064207,3.3,3.3,1.8889377289377287
1.298782215002575,3.3,3.3,1.8889377289377287
1.2996115379937692,3.3,3.3,1.8889377289377287
1.3012532489956357,3.3,3.3,1.8889377289377287
1.305030010000337,3.3,3.3,1.8889377289377287
1.3105174049997004,3.3,3.3,1.8889377289377287
1.3122554319998017,2.697216117216117,0.5939194139194138,0.6543589743589743
1.315231977001531,2.697216117216117,0.5939194139194138,0.6543589743589743
1.3175136710051447,2.697216117216117,0.5939194139194138,0.6543589743589743
1.3177236400078982,2.697216117216117,0.5939194139194138,0.6543589743589743
1.3231212209939258,2.697216117216117,0.5939194139194138,0.6543589743589743
1.3247619169997051,2.1846886446886447,0.1676190476190476,0.05963369963369963
1.327877008006908,2.1846886446886447,0.1676190476190476,0.05963369963369963
1.3294202050019521,2.6923809523809523,0.722051282051282,0.4931868131868131
1.3340311750071123,2.6923809523809523,0.722051282051282,0.4931868131868131
1.3342512550007086,2.6923809523809523,0.722051282051282,0.4931868131868131
1.339354561001528,2.6923809523809523,0.722051282051282,0.4931868131868131
1.3442668920033611,2.6923809523809523,0.722051282051282,0.4931868131868131
1.3488112049963092,2.6923809523809523,0.722051282051282,0.4931868131868131
1.3491210930078523,2.6923809523809523,0.722051282051282,0.4931868131868131
1.354561617001309,2.6923809523809523,0.722051282051282,0.4931868131868131
1.3554820569988806,2.6923809523809523,0.722051282051282,0.4931868131868131
1.3572925490007037,2.6923809523809523,0.722051282051282,0.4931868131868131
1.3604550199961523,2.652087912087912,3.3,0.527032967032967
1.3620354000013322,2.652087912087912,3.3,0.527032967032967
1.3657641989993863,2.652087912087912,3.3,0.527032967032967
1.3701962799968896,2.652087912087912,3.3,0.527032967032967
1.3710897020064294,2.652087912087912,3.3,0.527032967032967
1.3727038609940792,2.652087912087912,3.3,0.527032967032967
1.376638023997657,2.652087912087912,3.3,0.527032967032967
1.3805900510051288,2.652087912087912,3.3,0.527032967032967
1.3851069990050746,3.3,0.2506227106227106,0.46417582417582415
1.3859887970029376,3.3,0.2506227106227106,0.46417582417582415
1.3875616419973085,3.3,0.2506227106227106,0.46417582417582415
1.3917171070061158,3.3,0.2506227106227106,0.46417582417582415
1.3934621530061122,3.3,0.2506227106227106,0.46417582417582415
1.3964792199985823,3.3,0.2506227106227106,0.46417582417582415
1.3994828129943926,3.3,0.2506227106227106,0.46417582417582415
1.4024829849950038,3.3,0.2506227106227106,0.46417582417582415
1.4049626009946223,3.3,0.2506227106227106,0.46417582417582415
1.4051688570034457,3.3,0.2506227106227106,0.46417582417582415
1.4103736499964725,3.3,0.2506227106227106,0.46417582417582415
1.4137247420003405,3.3,0.2506227106227106,0.46417582417582415
1.413927651999984,3.3,0.2506227106227106,0.46417582417582415
1.419420453006751,3.3,0.2506227106227106,0.46417582417582415
1.421016452004551,2.6585347985347987,3.3,0.7381684981684982
1.4249102309986483,2.6585347985347987,3.3,0.7381684981684982
1.4287405170034617,3.171062271062271,0.16842490842490843,0.14424908424908423
1.4333803310000803,3.171062271062271,0.16842490842490843,0.14424908424908423
1.4335962680052035,2.697216117216117,0.9138461538461539,0.2224175824175824
1.4382831459952286,2.697216117216117,0.9138461538461539,0.2224175824175824
1.4385718060075305,2.655311355311355,3.0646886446886445,0.386007326007326
1.4442013439984294,2.655311355311355,3.0646886446886445,0.386007326007326
1.4443727670004591,2.697216117216117,2.37003663003663,0.5753846153846153
1.4499919719964964,2.697216117216117,2.37003663003663,0.5753846153846153
1.4509734440071043,2.697216117216117,2.37003663003663,0.5753846153846153
1.451862253001309,2.697216117216117,2.37003663003663,0.5753846153846153
1.4527544470038265,2.697216117216117,2.37003663003663,0.5753846153846153
1.454359301002114,2.697216117216117,2.37003663003663,0.5753846153846153
1.4588314099964919,2.6665934065934067,0.18454212454212454,0.35135531135531134
1.459172696006135,2.673040293040293,1.8784615384615382,0.40776556776556777
1.4643872589949751,2.673040293040293,1.8784615384615382,0.40776556776556777
1.4676900030026445,2.673040293040293,1.8784615384615382,0.40776556776556777
1.4679310909996275,2.698827838827839,0.8292307692307692,0.14263736263736262
1.4732207159977406,2.698827838827839,0.8292307692307692,0.14263736263736262
1.4760126509936526,2.698827838827839,0.8292307692307692,0.14263736263736262
1.4801476550055668,2.698827838827839,0.8292307692307692,0.14263736263736262
1.4823438220046228,2.698827838827839,0.8292307692307692,0.14263736263736262
1.4831803540000692,2.698827838827839,0.8292307692307692,0.14263736263736262
1.4846476149978116,2.698827838827839,0.8292307692307692,0.14263736263736262
1.4888639639975736,2.698827838827839,2.294285714285714,0.4786813186813187
1.4910295419977047,2.698827838827839,2.294285714285714,0.4786813186813187
1.4919064370042179,2.698827838827839,2.294285714285714,0.4786813186813187
1.4933962850045646,2.698827838827839,2.294285714285714,0.4786813186813187
1.498227460993803,2.698827838827839,2.294285714285714,0.4786813186813187
1.498333776005893,2.697216117216117,0.26190476190476186,0.11926739926739927
1.5032991240004776,2.697216117216117,0.26190476190476186,0.11926739926739927
1.5071802500024205,2.697216117216117,0.26190476190476186,0.11926739926739927
1.5117426910001086,2.697216117216117,0.26190476190476186,0.11926739926739927
1.5119807129958645,2.697216117216117,0.26190476190476186,0.11926739926739927
1.5173062849935377,2.697216117216117,0.26190476190476186,0.11926739926739927
1.5196973609999986,2.697216117216117,0.26190476190476186,0.11926739926739927
1.5252993619942572,3.3,0.4448351648351648,0.5318681318681319
1.5270202690007864,3.3,0.1821245421245421,0.3336263736263736
1.5309089950023917,3.3,0.1821245421245421,0.3336263736263736
1.5348716160078766,3.3,0.1821245421245421,0.3336263736263736
1.5386001659935573,3.3,0.1821245421245421,0.3336263736263736
1.543958267007838,3.3,0.1821245421245421,0.3336263736263736
1.54633778599964,3.2709890109890107,0.25868131868131866,0.38358974358974357
1.5465157410071697,3.2709890109890107,0.25868131868131866,0.38358974358974357
1.5514291059953393,3.2709890109890107,0.25868131868131866,0.38358974358974357
1.5562702220049687,2.697216117216117,0.9831501831501831,0.1265201465201465
1.5605168920010328,2.697216117216117,0.9831501831501831,0.1265201465201465
1.5626506370026618,2.697216117216117,0.9831501831501831,0.1265201465201465
1.5641135970072355,2.697216117216117,0.9831501831501831,0.1265201465201465
1.5689505290065426,2.697216117216117,0.9831501831501831,0.1265201465201465
1.573100360998069,2.6956043956043954,0.8614652014652014,0.17245421245421244
1.5765731830033474,2.6956043956043954,0.8614652014652014,0.17245421245421244
1.5767765600030543,2.6956043956043954,0.8614652014652014,0.17245421245421244
1.581602218997432,2.6956043956043954,0.8614652014652014,0.17245421245421244
1.5818257399951108,2.6956043956043954,0.8614652014652014,0.17245421245421244
1.586637011001585,2.6956043956043954,0.8614652014652014,0.17245421245421244
1.5867418039997574,2.6956043956043954,0.8614652014652014,0.17245421245421244
1.5917378059966723,3.3,3.3,1.6536263736263734
1.5967423980036983,3.3,3.3,1.6536263736263734
1.6016545070015127,3.3,3.3,1.6536263736263734
1.605848880004487,2.71010989010989,1.3506227106227104,0.30542124542124544
1.6086958539963234,2.71010989010989,1.3506227106227104,0.30542124542124544
1.6121955919952597,2.71010989010989,1.3506227106227104,0.30542124542124544
1.612383364001289,2.71010989010989,1.3506227106227104,0.30542124542124544
1.6171934879967012,2.71010989010989,1.3506227106227104,0.30542124542124544
1.6173584339994704,2.9712087912087912,1.4231501831501832,0.3908424908424908
1.6222215430025244,2.9712087912087912,1.4231501831501832,0.3908424908424908
1.627136415001587,2.9712087912087912,1.4231501831501832,0.3908424908424908
1.632054835994495,3.3,1.8115750915750917,1.1346520146520145
1.636226953996811,3.3,1.8115750915750917,1.1346520146520145
1.6383965200075181,2.698827838827839,0.20388278388278389,0.27318681318681315
1.6392252520017792,2.698827838827839,0.20388278388278389,0.27318681318681315
1.6413496489985846,2.698827838827839,0.20388278388278389,0.27318681318681315
1.6422592900053132,2.698827838827839,0.20388278388278389,0.27318681318681315
1.6437945079960627,2.698827838827839,0.20388278388278389,0.27318681318681315
1.6479669149994152,2.698827838827839,0.20388278388278389,0.27318681318681315
1.6514367680065334,2.698827838827839,0.20388278388278389,0.27318681318681315
1.6517382220044965,2.698827838827839,0.20388278388278389,0.27318681318681315
1.6565410580078606,2.698827838827839,0.20388278388278389,0.27318681318681315
1.6567721430037636,2.6617582417582417,0.13377289377289378,0.5294505494505495
1.6617316220072098,2.6617582417582417,0.13377289377289378,0.5294505494505495
1.666637089001597,2.6617582417582417,0.6422710622710622,0.8106959706959707
1.6715722030057805,2.6617582417582417,0.6422710622710622,0.8106959706959707
1.6758075550023932,3.1146520146520142,2.804395604395604,0.9476923076923076
1.6781384950008942,3.1146520146520142,2.804395604395604,0.9476923076923076
1.678448456004844,3.1146520146520142,2.804395604395604,0.9476923076923076
1.682736921007745,2.6577289377289377,0.8437362637362636,1.0556776556776555
1.6849557530076709,2.6577289377289377,0.8437362637362636,1.0556776556776555
1.6857949789991835,2.6577289377289377,0.8437362637362636,1.0556776556776555
1.6873153880005702,2.6577289377289377,0.8437362637362636,1.0556776556776555
1.691501989000244,2.6577289377289377,0.8437362637362636,1.0556776556776555
1.6936797939997632,2.6577289377289377,0.8437362637362636,1.0556776556776555
1.6951474719971884,2.6577289377289377,0.8437362637362636,1.0556776556776555
1.6993251189996954,2.6577289377289377,0.8437362637362636,1.0556776556776555
1.7020663529983722,2.6577289377289377,0.8437362637362636,1.0556776556776555
1.7055749330029357,2.6577289377289377,0.8437362637362636,1.0556776556776555
1.7057812860002741,2.6577289377289377,0.8437362637362636,1.0556776556776555
1.7107449680042919,2.6577289377289377,0.8437362637362636,1.0556776556776555
1.7149129190074746,2.6577289377289377,0.8437362637362636,1.0556776556776555
1.7172864280000795,2.718974358974359,0.3432967032967033,0.28205128205128205
1.7176261450076709,2.655311355311355,3.3,0.4585347985347985
1.7224689480062807,2.655311355311355,3.3,0.4585347985347985
1.7274072839936707,2.655311355311355,3.3,0.4585347985347985
1.7322033600066788,2.655311355311355,3.3,0.4585347985347985
1.7323425710055744,2.655311355311355,3.3,0.4585347985347985
1.7371708190039499,2.655311355311355,3.3,0.4585347985347985
1.7423464589955984,2.655311355311355,3.3,0.4585347985347985
1.74586756399367,2.655311355311355,3.3,0.4585347985347985
1.746031953007332,2.655311355311355,3.3,0.4585347985347985
1.750970545996097,2.655311355311355,3.3,0.4585347985347985
1.7551459009991959,2.655311355311355,3.3,0.4585347985347985
1.7579344830010086,2.655311355311355,3.3,0.4585347985347985
1.761553250005818,2.655311355311355,3.3,0.4585347985347985
1.7617441619950114,2.655311355311355,3.3,0.4585347985347985
1.7665133830014383,2.655311355311355,3.3,0.4585347985347985
1.7667493560002185,2.655311355311355,3.3,0.4585347985347985
1.7715660009998828,2.655311355311355,3.3,0.4585347985347985
1.7718015400023432,2.655311355311355,3.3,0.4585347985347985
1.776675992005039,2.655311355311355,3.3,0.4585347985347985
1.7815527000057045,2.655311355311355,3.3,0.4585347985347985
1.7816496479936177,2.655311355311355,3.3,0.4585347985347985
1.7864975690026768,2.655311355311355,3.3,0.4585347985347985
1.791411013007746,2.655311355311355,3.3,0.4585347985347985
1.796301989001222,2.655311355311355,3.3,0.4585347985347985
1.7964153189968783,2.655311355311355,3.3,0.4585347985347985
1.8012691879994236,2.655311355311355,3.3,0.4585347985347985
1.806197562997113,3.3,3.3,0.772014652014652
1.8112569429940777,2.6956043956043954,0.8856410256410255,0.1652014652014652
1.8151859390054597,2.6956043956043954,0.8856410256410255,0.1652014652014652
1.8189024589955807,3.3,0.17326007326007326,0.6567765567765567
1.823562439007219,3.3,0.17326007326007326,0.6567765567765567
1.823680007000803,2.6762637362637363,1.9010256410256408,0.3505494505494505
1.829288610999356,2.6762637362637363,1.9010256410256408,0.3505494505494505
1.8301164580043405,2.6762637362637363,1.9010256410256408,0.3505494505494505
1.83237616099359,2.6762637362637363,1.9010256410256408,0.3505494505494505
1.8326298650063109,2.6762637362637363,1.9010256410256408,0.3505494505494505
1.8375068750028731,2.6762637362637363,1.9010256410256408,0.3505494505494505
1.8424406800040742,3.3,3.3,1.003296703296703
1.8474297170032514,3.3,3.3,1.003296703296703
1.851641257002484,3.3,3.3,1.003296703296703
1.8538040510029532,2.7165567765567764,1.382051282051282,0.5987545787545787
1.8541621759941336,2.693992673992674,0.3723076923076923,0.30945054945054945
1.8590749699942535,2.693992673992674,0.3723076923076923,0.30945054945054945
1.8591708620078862,2.693992673992674,0.3723076923076923,0.30945054945054945
1.8640681440010667,2.693992673992674,0.3723076923076923,0.30945054945054945
1.8689186770061497,2.693992673992674,0.3723076923076923,0.30945054945054945
1.874096166997333,3.3,3.0775824175824176,1.518241758241758
1.8770090600010008,3.3,3.0775824175824176,1.518241758241758
1.8805396270036,2.673040293040293,0.17003663003663003,0.3038095238095238
1.880713132006349,2.673040293040293,0.17003663003663003,0.3038095238095238
1.8856263769994257,2.673040293040293,0.17003663003663003,0.3038095238095238
1.8904468099935912,2.673040293040293,0.17003663003663003,0.3038095238095238
1.8906914120016154,2.673040293040293,0.17003663003663003,0.3038095238095238
1.8954625699989265,2.673040293040293,0.17003663003663003,0.3038095238095238
1.8956667669990566,2.673040293040293,0.17003663003663003,0.3038095238095238
1.9005149620061275,3.3,0.15794871794871795,0.4819047619047619
1.9053345680003986,3.3,0.15794871794871795,0.4819047619047619
1.9054817319993163,3.3,0.15794871794871795,0.4819047619047619
1.9103894650033908,3.3,0.15794871794871795,0.4819047619047619
1.9152794760011602,3.3,3.3,1.7801465201465199
1.9202320759941358,3.3,3.3,1.7801465201465199
1.9244097659975523,3.3,0.1821245421245421,0.2949450549450549
1.926620197002194,3.3,0.1821245421245421,0.2949450549450549
1.9273825790005503,2.697216117216117,0.6261538461538461,0.6463003663003662
1.9295918200077722,2.697216117216117,0.6261538461538461,0.6463003663003662
1.9298907140037045,2.697216117216117,0.6261538461538461,0.6463003663003662
1.934699121004087,2.6956043956043954,1.315970695970696,0.622124542124542
1.9349099660030333,2.697216117216117,0.5898901098901098,0.01531135531135531
1.9398938789963722,2.697216117216117,0.5898901098901098,0.01531135531135531
1.9445242359943222,2.6682051282051282,0.7599267399267399,0.9347985347985347
1.9448083419993054,2.6682051282051282,0.7599267399267399,0.9347985347985347
1.9497194739960833,2.6682051282051282,0.7599267399267399,0.9347985347985347
1.954555459000403,2.6875457875457873,0.5479853479853479,0.7156043956043956
1.954808922004304,2.6875457875457873,0.5479853479853479,0.7156043956043956
1.959682733999216,2.6875457875457873,0.5479853479853479,0.7156043956043956
1.959791089000646,2.8197069597069593,0.5794139194139193,0.4126007326007326
1.9646641480067046,2.8197069597069593,0.5794139194139193,0.4126007326007326
1.969388383004116,2.8197069597069593,0.5794139194139193,0.4126007326007326
1.9696109680080554,1.967106227106227,1.8397802197802198,0.755091575091575
1.9744523520057555,1.967106227106227,1.8397802197802198,0.755091575091575
1.97930995200295,1.967106227106227,1.8397802197802198,0.755091575091575
1.9795040510070976,1.967106227106227,1.8397802197802198,0.755091575091575
1.983749621998868,1.967106227106227,1.8397802197802198,0.755091575091575
1.9858592569944449,1.967106227106227,1.8397802197802198,0.755091575091575
1.9873100349941524,1.967106227106227,1.8397802197802198,0.755091575091575
1.9920931130036479,1.967106227106227,1.8397802197802198,0.755091575091575
1.997065471005044,1.967106227106227,1.8397802197802198,0.755091575091575
2.001787619999959,1.967106227106227,1.8397802197802198,0.755091575091575
2.0019730850035558,1.967106227106227,1.8397802197802198,0.755091575091575
2.006959459002246,1.967106227106227,1.8397802197802198,0.755091575091575
2.011225239999476,1.967106227106227,1.8397802197802198,0.755091575091575
2.013308184003108,1.967106227106227,1.8397802197802198,0.755091575091575
2.0141338279936463,1.967106227106227,1.8397802197802198,0.755091575091575
2.0163166230049683,1.967106227106227,1.8397802197802198,0.755091575091575
2.017126658000052,1.967106227106227,1.8397802197802198,0.755091575091575
2.0192950990021927,1.967106227106227,1.8397802197802198,0.755091575091575
2.0207674959965516,1.967106227106227,1.8397802197802198,0.755091575091575
2.024870959998225,1.967106227106227,1.8397802197802198,0.755091575091575
2.027951652999036,2.6996336996336994,2.445787545787546,0.5109157509157509
2.03024868000648,3.3,2.5215384615384613,1.340952380952381
2.0310405019990867,3.3,2.5215384615384613,1.340952380952381
2.03320107399486,3.3,2.5215384615384613,1.340952380952381
2.0339973910013214,3.3,2.5215384615384613,1.340952380952381
2.0362177869974403,3.3,2.5215384615384613,1.340952380952381
2.0365352000080748,2.6673992673992672,0.15794871794871795,0.33684981684981685
2.041347581995069,2.6673992673992672,0.15794871794871795,0.33684981684981685
2.0415128220047336,2.6545054945054947,0.7567032967032966,0.9565567765567766
2.046396243997151,2.6545054945054947,0.7567032967032966,0.9565567765567766
2.0513278680009535,2.6545054945054947,0.7567032967032966,0.9565567765567766
2.056211123999674,3.3,3.3,1.3482051282051282
2.0605181559949415,3.3,3.3,1.3482051282051282
2.0620545569981914,3.3,3.3,1.3482051282051282
2.066988284001127,3.3,0.19663003663003664,0.27802197802197803
2.0671110010007396,3.3,0.19663003663003664,0.27802197802197803
2.0720118960016407,3.3,0.19663003663003664,0.27802197802197803
2.076946565997787,2.697216117216117,0.8372893772893772,0.1926007326007326
2.0813260059949243,2.697216117216117,0.8372893772893772,0.1926007326007326
2.0839346340071643,2.697216117216117,0.8372893772893772,0.1926007326007326
2.0888876920071198,2.697216117216117,0.8372893772893772,0.1926007326007326
2.09378744699643,2.693992673992674,0.5915018315018314,0.6616117216117217
2.098613213005592,2.693992673992674,0.5915018315018314,0.6616117216117217
2.1043092150066514,3.3,0.6390476190476191,0.7317216117216117
2.1052642180002294,3.3,0.6390476190476191,0.7317216117216117
2.106149244995322,3.3,0.6390476190476191,0.7317216117216117
2.107721678999951,3.3,0.6390476190476191,0.7317216117216117
2.112330011004815,3.3,0.6390476190476191,0.7317216117216117
2.1125992010056507,3.3,0.6390476190476191,0.7317216117216117
2.1172048120060936,3.3,0.6390476190476191,0.7317216117216117
2.117523895998602,3.3,0.6390476190476191,0.7317216117216117
2.1229398059949744,2.9792673992673993,1.1693040293040293,1.1016117216117214
2.124033660002169,2.9792673992673993,1.1693040293040293,1.1016117216117214
2.124353406994487,2.9792673992673993,1.1693040293040293,1.1016117216117214
2.1288321890024235,2.9792673992673993,1.1693040293040293,1.1016117216117214
2.129672256996855,2.655311355311355,3.3,1.80029304029304
2.1312349890067708,2.655311355311355,3.3,1.80029304029304
2.1356716139998753,2.655311355311355,3.3,1.80029304029304
2.136636263006949,2.655311355311355,3.3,1.80029304029304
2.137507519000792,2.655311355311355,3.3,1.80029304029304
2.1389745229971595,2.655311355311355,3.3,1.80029304029304
2.1433105479954975,2.655311355311355,3.3,1.80029304029304
2.1455681000079494,3.3,0.27399267399267396,0.42065934065934063
2.145820746998652,3.3,0.27399267399267396,0.42065934065934063
2.150946648005629,3.3,0.27399267399267396,0.42065934065934063
2.1539253590017324,2.698827838827839,1.332087912087912,0.6148717948717949
2.1568624159990577,2.698827838827839,1.332087912087912,0.6148717948717949
2.159742179006571,2.698827838827839,1.332087912087912,0.6148717948717949
2.1625818080065073,2.698827838827839,1.332087912087912,0.6148717948717949
2.1667206160054775,2.698827838827839,1.332087912087912,0.6148717948717949
2.1695135079935426,2.698827838827839,1.332087912087912,0.6148717948717949
2.1730153920070734,2.698827838827839,1.332087912087912,0.6148717948717949
2.17382402200019,2.6682051282051282,0.17326007326007326,0.5528205128205127
2.175362124995445,2.6682051282051282,0.17326007326007326,0.5528205128205127
2.1795222840009956,2.6585347985347987,0.15069597069597068,0.38681318681318677
2.182983211998362,2.6585347985347987,0.15069597069597068,0.38681318681318677
2.183276620999095,2.6585347985347987,0.15069597069597068,0.38681318681318677
2.188158856006339,2.6585347985347987,0.15069597069597068,0.38681318681318677
2.188251761996071,2.697216117216117,0.7156043956043956,0.4819047619047619
2.193439227005001,2.697216117216117,0.7156043956043956,0.4819047619047619
2.1965214740048395,2.697216117216117,0.7156043956043956,0.4819047619047619
2.1988367720041424,2.697216117216117,0.7156043956043956,0.4819047619047619
2.199119142998825,2.697216117216117,0.7156043956043956,0.4819047619047619
2.2044912559940713,2.697216117216117,0.7156043956043956,0.4819047619047619
2.206065837002825,2.697216117216117,0.7961904761904761,0.0975091575091575
2.2105173879972426,2.697216117216117,0.7961904761904761,0.0975091575091575
2.210759206005605,2.681098901098901,1.4304029304029304,0.6720879120879121
2.2151369200000772,2.681098901098901,1.4304029304029304,0.6720879120879121
2.21738966400153,2.7125274725274724,0.1926007326007326,0.42952380952380953
2.2181823020073352,2.7125274725274724,0.1926007326007326,0.42952380952380953
2.2203589669952635,2.7125274725274724,0.1926007326007326,0.42952380952380953
2.2211414049961604,2.739120879120879,0.5479853479853479,0.763956043956044
2.2233088780049,2.739120879120879,0.5479853479853479,0.763956043956044
2.2240995559986914,2.739120879120879,0.5479853479853479,0.763956043956044
2.226259816001402,2.739120879120879,0.5479853479853479,0.763956043956044
2.2270414550002897,2.698021978021978,0.5858608058608058,0.6446886446886446
2.2292065630026627,2.698021978021978,0.5858608058608058,0.6446886446886446
2.2300545170000987,2.698021978021978,0.5858608058608058,0.6446886446886446
2.2321606350014918,2.698021978021978,0.5858608058608058,0.6446886446886446
2.232993230994907,2.698021978021978,0.5858608058608058,0.6446886446886446
2.235107999003958,2.698021978021978,0.5858608058608058,0.6446886446886446
2.2365689230064163,2.698021978021978,0.5858608058608058,0.6446886446886446
2.2415639190003276,2.655311355311355,3.3,0.8598534798534798
2.2471222699969076,2.655311355311355,3.3,0.8598534798534798
2.24794451300113,2.655311355311355,3.3,0.8598534798534798
2.2495647629984887,2.655311355311355,3.3,0.8598534798534798
2.2531750420021126,2.655311355311355,3.3,0.8598534798534798
2.2533519599965075,2.655311355311355,3.3,0.8598534798534798
2.2582515490066726,2.655311355311355,3.3,0.8598534798534798
2.262471006004489,2.655311355311355,3.3,0.8598534798534798
2.264580611998099,2.714945054945055,2.4981684981684977,0.5310622710622711
2.2654243470024085,2.714945054945055,2.4981684981684977,0.5310622710622711
2.267550108997966,2.714945054945055,2.4981684981684977,0.5310622710622711
2.268983935005963,2.714945054945055,2.4981684981684977,0.5310622710622711
2.2731809920078376,2.714945054945055,2.4981684981684977,0.5310622710622711
2.275977855999372,2.714945054945055,2.4981684981684977,0.5310622710622711
2.280139312002575,2.714945054945055,2.4981684981684977,0.5310622710622711
2.2829753539990634,2.9639560439560437,3.3,0.9831501831501831
2.2864827919984236,2.9639560439560437,3.3,0.9831501831501831
2.2866804399964167,2.9639560439560437,3.3,0.9831501831501831
2.2915134060021956,2.9639560439560437,3.3,0.9831501831501831
2.296485250000842,2.6714285714285713,1.4868131868131869,0.6898168498168498
2.2965967710042605,2.6714285714285713,1.4868131868131869,0.6898168498168498
2.3014011019986356,2.6714285714285713,1.4868131868131869,0.6898168498168498
2.3017201500042574,2.6714285714285713,1.4868131868131869,0.6898168498168498
2.306512687006034,2.6714285714285713,1.4868131868131869,0.6898168498168498
2.311341684006038,2.697216117216117,1.1515750915750915,0.29736263736263735
2.3114880490029464,2.697216117216117,1.1515750915750915,0.29736263736263735
2.3164338409987977,2.697216117216117,1.1515750915750915,0.29736263736263735
2.3205726989981486,2.690769230769231,0.2224175824175824,0.40534798534798533
2.324105806997977,2.690769230769231,0.2224175824175824,0.40534798534798533
2.324359739999636,2.690769230769231,0.2224175824175824,0.40534798534798533
2.329678530993988,2.690769230769231,0.2224175824175824,0.40534798534798533
2.331442676993902,2.690769230769231,0.2224175824175824,0.40534798534798533
2.3344929110025987,2.690769230769231,0.2224175824175824,0.40534798534798533
2.336937318003038,2.690769230769231,0.2224175824175824,0.40534798534798533
2.3371739129943307,2.690769230769231,0.2224175824175824,0.40534798534798533
2.342585959006101,2.690769230769231,0.2224175824175824,0.40534798534798533
2.3441618689976167,2.690769230769231,0.2224175824175824,0.40534798534798533
2.3484260510012973,2.690769230769231,0.2224175824175824,0.40534798534798533
2.349953381999512,2.690769230769231,0.2224175824175824,0.40534798534798533
2.3543509949959116,2.690769230769231,0.2224175824175824,0.40534798534798533
2.35518943000352,2.690769230769231,0.2224175824175824,0.40534798534798533
2.356832214994938,2.690769230769231,0.2224175824175824,0.40534798534798533
2.3604744110052707,2.690769230769231,0.2224175824175824,0.40534798534798533
2.3654661740001757,2.690769230769231,0.2224175824175824,0.40534798534798533
2.370628677002969,2.698827838827839,2.3764835164835163,0.5512087912087912
2.373675299997558,3.3,3.043736263736264,1.004102564102564
2.3767129449988715,3.3,0.10556776556776555,0.6253479853479853
2.379727380000986,2.655311355311355,0.13941391941391942,0.43999999999999995
2.3820697110058973,2.655311355311355,0.13941391941391942,0.43999999999999995
2.382368853999651,2.655311355311355,0.13941391941391942,0.43999999999999995
2.3876789290079614,2.655311355311355,0.13941391941391942,0.43999999999999995
2.389397890001419,2.698827838827839,0.776043956043956,0.03142857142857143
2.3924514440004714,2.698827838827839,0.776043956043956,0.03142857142857143
2.395565380997141,2.6665934065934067,0.195018315018315,0.4754578754578754
2.397165689995745,2.6665934065934067,0.195018315018315,0.4754578754578754
2.4017894209973747,2.6665934065934067,0.195018315018315,0.4754578754578754
2.402007130003767,2.6665934065934067,0.195018315018315,0.4754578754578754
2.4077521239960333,2.6665934065934067,0.195018315018315,0.4754578754578754
2.40795501699904,2.9945787545787543,3.3,1.9904761904761903
2.413651694005239,2.9945787545787543,3.3,1.9904761904761903
2.4138649740052642,2.9945787545787543,3.3,1.9904761904761903
2.418690021993825,2.9945787545787543,3.3,1.9904761904761903
2.418862596998224,2.6536996336996337,3.3,0.8147252747252747
2.4238617210066877,2.6536996336996337,3.3,0.8147252747252747
2.4284832470002584,2.6536996336996337,3.3,0.8147252747252747
2.428653082999517,2.6536996336996337,3.3,0.8147252747252747
2.433503930005827,2.6536996336996337,3.3,0.8147252747252747
2.4390147009980865,2.6536996336996337,3.3,0.8147252747252747
2.440049637996708,2.6536996336996337,3.3,0.8147252747252747
2.440351803001249,2.6536996336996337,3.3,0.8147252747252747
2.4448433950019535,2.6536996336996337,3.3,0.8147252747252747
2.44636394000554,2.6536996336996337,3.3,0.8147252747252747
2.4505940550006926,2.6536996336996337,3.3,0.8147252747252747
2.452876698007458,2.6536996336996337,3.3,0.8147252747252747
2.453203508994193,2.6536996336996337,3.3,0.8147252747252747
2.458119158007321,2.6536996336996337,3.3,0.8147252747252747
2.4624148790026084,2.697216117216117,0.6261538461538461,0.7945787545787546
2.464556631006417,2.6956043956043954,2.289450549450549,0.5778021978021978
2.4653966299956664,2.6956043956043954,2.289450549450549,0.5778021978021978
2.467540772006032,2.6956043956043954,2.289450549450549,0.5778021978021978
2.468342095002299,2.6956043956043954,2.289450549450549,0.5778021978021978
2.469975997999427,2.6956043956043954,2.289450549450549,0.5778021978021978
2.4742218449973734,2.6956043956043954,2.289450549450549,0.5778021978021978
2.476468256005319,2.6545054945054947,0.15956043956043955,0.5842490842490843
2.477416590001667,3.3,0.3142857142857142,0.5068864468864469
2.4789657759974943,3.3,0.3142857142857142,0.5068864468864469
2.4838639160007006,3.3,0.6374358974358975,0.6003663003663003
2.4886013780051144,2.374871794871795,0.24659340659340656,0.15633699633699633
2.4887647690047743,2.374871794871795,0.24659340659340656,0.15633699633699633
2.494318925004336,2.374871794871795,0.24659340659340656,0.15633699633699633
2.4951470009982586,2.374871794871795,0.24659340659340656,0.15633699633699633
2.496768750002957,2.374871794871795,0.24659340659340656,0.15633699633699633
2.5005756040045526,2.374871794871795,0.24659340659340656,0.15633699633699633
2.505820702004712,2.618241758241758,0.33926739926739924,0.24336996336996336
2.509820988998399,2.693992673992674,0.7873260073260073,0.0709157509157509
2.5130939219961874,2.693992673992674,0.7873260073260073,0.0709157509157509
2.514075054001296,2.66014652014652,0.19663003663003664,0.49560439560439556
2.5149942559946794,2.66014652014652,0.19663003663003664,0.49560439560439556
2.516616784996586,2.66014652014652,0.19663003663003664,0.49560439560439556
2.5205227109981934,2.66014652014652,0.19663003663003664,0.49560439560439556
2.525150618996122,2.66014652014652,0.19663003663003664,0.49560439560439556
2.5253864740079734,2.66014652014652,0.19663003663003664,0.49560439560439556
2.5307366920023924,2.66014652014652,0.19663003663003664,0.49560439560439556
2.533211501999176,2.697216117216117,1.0677655677655677,0.5157509157509157
2.5334331589983776,2.693186813186813,0.381978021978022,0.21677655677655677
2.5380416569969384,2.693186813186813,0.381978021978022,0.21677655677655677
2.538327438000124,2.693186813186813,0.381978021978022,0.21677655677655677
2.5432911649986636,2.693186813186813,0.381978021978022,0.21677655677655677
2.548863984993659,2.693186813186813,0.381978021978022,0.21677655677655677
2.549122137002996,2.693186813186813,0.381978021978022,0.21677655677655677
2.5542269489960745,2.693186813186813,0.381978021978022,0.21677655677655677
2.558051924002939,2.693186813186813,0.381978021978022,0.21677655677655677
2.5627027790033026,2.693186813186813,0.381978021978022,0.21677655677655677
2.5629799849994015,2.693186813186813,0.381978021978022,0.21677655677655677
2.568426771002123,2.693186813186813,0.381978021978022,0.21677655677655677
2.5700264670012984,2.693186813186813,0.381978021978022,0.21677655677655677
2.5745015639986377,2.693186813186813,0.381978021978022,0.21677655677655677
2.575400779998745,2.693186813186813,0.381978021978022,0.21677655677655677
2.5770171269978164,2.693186813186813,0.381978021978022,0.21677655677655677
2.581468713004142,2.693186813186813,0.381978021978022,0.21677655677655677
2.5817578520072857,2.652087912087912,0.6938461538461538,1.0524542124542122
2.5869993819942465,2.652087912087912,0.6938461538461538,1.0524542124542122
2.5900482239958365,2.652087912087912,0.6938461538461538,1.0524542124542122
2.593034802004695,2.652087912087912,0.6938461538461538,1.0524542124542122
2.5951742790057324,2.652087912087912,0.6938461538461538,1.0524542124542122
2.595987412001705,2.652087912087912,0.6938461538461538,1.0524542124542122
2.5981252460042015,2.652087912087912,0.6938461538461538,1.0524542124542122
2.598978192996583,2.652087912087912,0.6938461538461538,1.0524542124542122
2.6005333369976142,2.652087912087912,0.6938461538461538,1.0524542124542122
2.604745799995726,3.067912087912088,0.3457142857142857,0.4045421245421245
2.6075323749973904,3.067912087912088,0.3457142857142857,0.4045421245421245
2.6116552620078437,3.067912087912088,0.3457142857142857,0.4045421245421245
2.6145245899970178,3.067912087912088,0.3457142857142857,0.4045421245421245
2.617988708007033,2.9695970695970697,0.19179487179487179,0.46417582417582415
2.6187690359947737,2.9695970695970697,0.19179487179487179,0.46417582417582415
2.620944494003197,3.3,0.6575824175824176,0.5737728937728938
2.6212755470041884,3.3,0.6575824175824176,0.5737728937728938
2.626055718996213,3.3,0.6575824175824176,0.5737728937728938
2.6308908200007863,3.3,0.6575824175824176,0.5737728937728938
2.6310005959967384,3.3,0.6575824175824176,0.5737728937728938
2.635915146995103,3.3,0.6575824175824176,0.5737728937728938
2.6407169599988265,3.3,0.6575824175824176,0.5737728937728938
2.6408853260072647,3.3,0.6575824175824176,0.5737728937728938
2.6457687170041027,3.3,0.6575824175824176,0.5737728937728938
2.645933074003551,2.698827838827839,1.1580219780219778,0.253040293040293
2.6520828240027186,2.698827838827839,1.1580219780219778,0.253040293040293
2.6560272320057265,2.698827838827839,1.1580219780219778,0.253040293040293
2.660262170000351,2.698827838827839,1.1580219780219778,0.253040293040293
2.6618211949971737,2.698827838827839,1.1580219780219778,0.253040293040293
2.66658519700286,2.698827838827839,1.1580219780219778,0.253040293040293
2.666706971998792,2.698827838827839,1.1580219780219778,0.253040293040293
2.6709022230061237,2.698827838827839,1.1580219780219778,0.253040293040293
2.6737394380033948,2.697216117216117,1.0113553113553113,0.5117216117216117
2.6773005020077107,2.71010989010989,0.4754578754578754,0.25142857142857145
2.6775651579955593,2.71010989010989,0.4754578754578754,0.25142857142857145
2.682430361994193,2.71010989010989,0.4754578754578754,0.25142857142857145
2.690261259005638,2.6746520146520147,0.6019780219780219,0.8034432234432234
2.6966993329988327,2.6746520146520147,0.6019780219780219,0.8034432234432234
2.7017492710001534,2.6746520146520147,0.6019780219780219,0.8034432234432234
2.70589731700602,2.655311355311355,0.904981684981685,1.0548717948717947
2.707418083999073,2.655311355311355,0.904981684981685,1.0548717948717947
2.714322877000086,2.655311355311355,0.904981684981685,1.0548717948717947
2.7198881119984435,2.655311355311355,0.904981684981685,1.0548717948717947
2.729557233004016,3.3,0.4126007326007326,0.5576556776556777
2.739763096004026,3.3,0.4126007326007326,0.5576556776556777
2.7472820279945154,2.677069597069597,0.25706959706959703,0.381978021978022
2.754534574007266,2.677069597069597,0.25706959706959703,0.381978021978022
2.761530917006894,2.677069597069597,0.25706959706959703,0.381978021978022
2.7672534809971694,2.66014652014652,0.14989010989010987,0.43355311355311354
2.773209446007968,3.3,3.3,1.9082783882783882
2.780898140001227,3.3,3.3,1.9082783882783882
2.788542624999536,2.6682051282051282,3.269377289377289,0.46014652014652013
2.7944350089965155,2.6682051282051282,3.269377289377289,0.46014652014652013
2.798332047997974,2.6682051282051282,3.269377289377289,0.46014652014652013
2.802079886998399,2.6682051282051282,3.269377289377289,0.46014652014652013
2.8068198090040823,2.6682051282051282,3.269377289377289,0.46014652014652013
2.807006379996892,2.6682051282051282,3.269377289377289,0.46014652014652013
2.8124485519947484,2.6682051282051282,3.269377289377289,0.46014652014652013
2.814078714000061,2.6682051282051282,3.269377289377289,0.46014652014652013
2.8178626330045518,2.6682051282051282,3.269377289377289,0.46014652014652013
2.8223463939939393,3.008278388278388,1.3498168498168497,1.0339194139194139
2.8233301660075085,3.008278388278388,1.3498168498168497,1.0339194139194139
2.8241935260011815,3.008278388278388,1.3498168498168497,1.0339194139194139
2.825782519998029,3.008278388278388,1.3498168498168497,1.0339194139194139
2.8295303780032555,3.008278388278388,1.3498168498168497,1.0339194139194139
2.834050022007432,1.2176556776556777,2.0589743589743588,0.689010989010989
2.8356931729940698,2.6609523809523807,0.17648351648351646,0.4625641025641025
2.8397532840026543,3.3,0.16036630036630037,0.5052747252747253
2.8451040549989557,2.6682051282051282,0.7841025641025641,0.9936263736263735
2.846648959995946,2.6682051282051282,0.7841025641025641,0.9936263736263735
2.852206173003651,2.6682051282051282,0.7841025641025641,0.9936263736263735
2.8525742269994225,3.3,1.68021978021978,0.7228571428571429
2.8583347819949267,2.6665934065934067,0.18615384615384614,0.46659340659340653
2.858568267998635,2.6665934065934067,0.18615384615384614,0.46659340659340653
2.868581978007569,2.6665934065934067,0.18615384615384614,0.46659340659340653
2.8765793009952176,2.6665934065934067,0.18615384615384614,0.46659340659340653
2.8819284939963836,2.709304029304029,0.26109890109890105,0.1813186813186813
2.8834948610019637,2.66014652014652,0.9718681318681318,1.1717216117216116
2.8883939719962655,2.66014652014652,0.9718681318681318,1.1717216117216116
2.8924300859944196,2.66014652014652,0.9718681318681318,1.1717216117216116
2.8955248209967976,2.66014652014652,0.9718681318681318,1.1717216117216116
2.897270015993854,2.66014652014652,0.9718681318681318,1.1717216117216116
2.9023226760036778,2.66014652014652,0.9718681318681318,1.1717216117216116
2.904057501000352,2.66014652014652,0.9718681318681318,1.1717216117216116
2.907156949004275,2.66014652014652,0.9718681318681318,1.1717216117216116
2.9095752489956794,2.66014652014652,0.9718681318681318,1.1717216117216116
2.910574801004259,2.66014652014652,0.9718681318681318,1.1717216117216116
2.910769966998487,2.66014652014652,0.9718681318681318,1.1717216117216116
2.9179863809986273,2.66014652014652,0.9718681318681318,1.1717216117216116
2.9230187609937275,2.66014652014652,0.9718681318681318,1.1717216117216116
2.9260529309976846,2.66014652014652,0.9718681318681318,1.1717216117216116
2.928453354004887,2.6665934065934067,0.8703296703296703,0.8115018315018314
2.9365597010037163,2.6665934065934067,0.8703296703296703,0.8115018315018314
2.9407073659967864,2.6665934065934067,0.8703296703296703,0.8115018315018314
2.9430193709995365,2.6665934065934067,0.8703296703296703,0.8115018315018314
2.9432651420065667,2.6665934065934067,0.8703296703296703,0.8115018315018314
2.948348491001525,2.6665934065934067,0.8703296703296703,0.8115018315018314
2.9540668679983355,2.693992673992674,1.112893772893773,0.2079120879120879
2.9594980029942235,2.693992673992674,1.112893772893773,0.2079120879120879
2.9630339419964002,2.693992673992674,1.112893772893773,0.2079120879120879
2.9714971850044094,3.3,0.22886446886446887,0.3046153846153846
2.976375286001712,3.3,2.121025641025641,1.187032967032967
2.981331189002958,3.3,2.121025641025641,1.187032967032967
2.98655300399696,3.3,2.121025641025641,1.187032967032967
2.9883339740044903,3.3,2.121025641025641,1.187032967032967
2.991515703004552,3.3,2.121025641025641,1.187032967032967
2.9924470969999675,3.3,2.121025641025641,1.187032967032967
2.9934470010048244,3.3,2.121025641025641,1.187032967032967
2.9943791029945714,3.3,2.121025641025641,1.187032967032967
2.9960452140076086,3.3,2.121025641025641,1.187032967032967
3.001380222995067,3.3,2.121025641025641,1.187032967032967
3.0024566289939685,3.3,2.121025641025641,1.187032967032967
3.0027644670044538,3.3,2.121025641025641,1.187032967032967
3.0074597579950932,3.3,2.121025641025641,1.187032967032967
3.0076086949993623,3.3,2.121025641025641,1.187032967032967
3.0122488509950927,0.5262271062271061,2.075091575091575,0.70996336996337
3.0125691819994245,0.5262271062271061,2.075091575091575,0.70996336996337
3.019809183999314,0.5262271062271061,2.075091575091575,0.70996336996337
3.0235412100009853,0.5262271062271061,2.075091575091575,0.70996336996337
3.0287038759997813,3.3,0.20146520146520144,0.2627106227106227
3.0320589670009213,3.3,0.20146520146520144,0.2627106227106227
3.033100700995419,2.6923809523809523,1.3361172161172161,0.22886446886446887
3.033459291997133,2.6923809523809523,1.3361172161172161,0.22886446886446887
3.0397580830031075,2.6923809523809523,1.3361172161172161,0.22886446886446887
3.0437668280064827,2.6923809523809523,1.3361172161172161,0.22886446886446887
3.0479016220051562,2.6923809523809523,1.3361172161172161,0.22886446886446887
3.0520984820032027,3.3,2.4756043956043956,1.3328937728937729
3.0530575909942854,2.698827838827839,1.1386813186813185,0.48835164835164835
3.0539349379978376,2.698827838827839,1.1386813186813185,0.48835164835164835
3.0555443589983042,2.698827838827839,1.1386813186813185,0.48835164835164835
3.060005526000168,2.698827838827839,1.1386813186813185,0.48835164835164835
3.0616789880004944,2.698827838827839,1.1386813186813185,0.48835164835164835
3.0659383239981253,2.698827838827839,1.1386813186813185,0.48835164835164835
3.0662870520027354,2.698827838827839,1.1386813186813185,0.48835164835164835
3.074825792995398,2.698827838827839,1.1386813186813185,0.48835164835164835
3.0825136119965464,2.698827838827839,1.1386813186813185,0.48835164835164835
3.090275777998613,2.698827838827839,1.1386813186813185,0.48835164835164835
3.0972581969981547,2.698827838827839,1.1386813186813185,0.48835164835164835
3.1038864760048455,3.3,0.14908424908424908,0.5673260073260072
3.108271381002851,2.689157509157509,0.938021978021978,1.0927472527472526
3.110584748996189,1.1515750915750915,2.125054945054945,0.6841758241758242
3.110752787004458,1.1515750915750915,2.125054945054945,0.6841758241758242
3.1163163610035554,1.1515750915750915,2.125054945054945,0.6841758241758242
3.117393512002309,1.1515750915750915,2.125054945054945,0.6841758241758242
3.1176548109942814,1.1515750915750915,2.125054945054945,0.6841758241758242
3.122606431003078,1.1515750915750915,2.125054945054945,0.6841758241758242
3.126433786994312,1.1515750915750915,2.125054945054945,0.6841758241758242
3.1326329090079525,1.1515750915750915,2.125054945054945,0.6841758241758242
3.1374190089991316,1.1515750915750915,2.125054945054945,0.6841758241758242
3.143233242997667,2.66014652014652,3.3,0.423076923076923
3.1504010259959614,2.66014652014652,3.3,0.423076923076923
3.154853305997676,2.02996336996337,1.9106959706959707,0.7752380952380952
3.1551750759972492,2.02996336996337,1.9106959706959707,0.7752380952380952
3.160377141000936,2.02996336996337,1.9106959706959707,0.7752380952380952
3.1632184390036855,2.02996336996337,1.9106959706959707,0.7752380952380952
3.1691078459989512,2.02996336996337,1.9106959706959707,0.7752380952380952
3.175654744001804,2.02996336996337,1.9106959706959707,0.7752380952380952
3.1797265759960283,2.02996336996337,1.9106959706959707,0.7752380952380952
3.18515866099915,2.02996336996337,1.9106959706959707,0.7752380952380952
3.1854380820004735,2.02996336996337,1.9106959706959707,0.7752380952380952
3.192798264994053,2.02996336996337,1.9106959706959707,0.7752380952380952
3.1960651709960075,2.02996336996337,1.9106959706959707,0.7752380952380952
3.197711825996521,2.02996336996337,1.9106959706959707,0.7752380952380952
3.2017177270026878,2.02996336996337,1.9106959706959707,0.7752380952380952
3.205573519007885,3.1807326007326004,0.4778754578754579,0.46095238095238095
3.210246607006411,3.1807326007326004,0.4778754578754579,0.46095238095238095
3.2105242969992105,3.1807326007326004,0.4778754578754579,0.46095238095238095
3.217549651002628,3.1807326007326004,0.4778754578754579,0.46095238095238095
3.2209517400042387,3.1807326007326004,0.4778754578754579,0.46095238095238095
3.221216777994414,2.3539194139194137,0.28608058608058606,0.1772893772893773
3.2258464500046102,2.3539194139194137,0.28608058608058606,0.1772893772893773
3.225982132003992,2.3539194139194137,0.28608058608058606,0.1772893772893773
3.2323007240047446,2.3539194139194137,0.28608058608058606,0.1772893772893773
3.2364085339941084,2.3539194139194137,0.28608058608058606,0.1772893772893773
3.2380963199975668,2.6802930402930403,0.1515018315018315,0.31509157509157504
3.2424873800046043,2.6802930402930403,0.1515018315018315,0.31509157509157504
3.2427881229959894,2.9099633699633696,0.26915750915750913,0.2917216117216117
3.2500879730068846,2.9099633699633696,0.26915750915750913,0.2917216117216117
3.2555517069995403,2.6682051282051282,3.3,1.88007326007326
3.2558602960052667,2.6682051282051282,3.3,1.88007326007326
3.263281570005347,2.6682051282051282,3.3,1.88007326007326
3.2708743090042844,2.6682051282051282,3.3,1.88007326007326
3.274969396996312,2.6682051282051282,3.3,1.88007326007326
3.2784472159983125,2.6682051282051282,3.3,1.88007326007326
3.278589950001333,2.6682051282051282,3.3,1.88007326007326
3.28657252699486,2.6682051282051282,3.3,1.88007326007326
3.2906230320077157,2.6682051282051282,3.3,1.88007326007326
3.2937333739973838,2.6682051282051282,3.3,1.88007326007326
3.295482772999094,2.6682051282051282,3.3,1.88007326007326
3.3001584489975357,2.6682051282051282,3.3,1.88007326007326
3.307755984002142,3.1323809523809523,0.307032967032967,0.3352380952380952
3.3137540540046757,2.7165567765567764,0.8928937728937728,0.1386080586080586
3.3197995310038095,2.7165567765567764,0.8928937728937728,0.1386080586080586
3.3242551230068784,2.7165567765567764,0.8928937728937728,0.1386080586080586
3.3250999610027066,2.7165567765567764,0.8928937728937728,0.1386080586080586
3.326926061999984,2.7165567765567764,0.8928937728937728,0.1386080586080586
3.329473360994598,2.7165567765567764,0.8928937728937728,0.1386080586080586
3.3353610890044365,2.7165567765567764,0.8928937728937728,0.1386080586080586
3.3409629819943802,2.697216117216117,0.8574358974358974,0.20468864468864467
3.3418464989954373,2.6545054945054947,0.7599267399267399,0.9057875457875458
3.3427707299997564,2.6545054945054947,0.7599267399267399,0.9057875457875458
3.344518651996623,2.6545054945054947,0.7599267399267399,0.9057875457875458
3.347633540004608,2.6545054945054947,0.7599267399267399,0.9057875457875458
3.3500348550005583,2.6545054945054947,0.7599267399267399,0.9057875457875458
3.3501966839976376,2.6545054945054947,0.7599267399267399,0.9057875457875458
3.355044486001134,2.6545054945054947,0.7599267399267399,0.9057875457875458
3.360386992993881,2.6545054945054947,0.7599267399267399,0.9057875457875458
3.3619687699974747,2.6545054945054947,0.7599267399267399,0.9057875457875458
3.3677897050074534,2.6545054945054947,0.7599267399267399,0.9057875457875458
3.375857332997839,2.7197802197802194,2.3265201465201466,0.3441025641025641
3.3825638760026777,2.7197802197802194,2.3265201465201466,0.3441025641025641
3.38807159299904,2.7197802197802194,2.3265201465201466,0.3441025641025641
3.3889030900027137,2.7197802197802194,2.3265201465201466,0.3441025641025641
3.390496512001846,2.7197802197802194,2.3265201465201466,0.3441025641025641
3.3947833540005377,2.7197802197802194,2.3265201465201466,0.3441025641025641
3.396396676005679,2.6778754578754578,0.2627106227106227,0.40534798534798533
3.4036629299953347,2.6778754578754578,0.2627106227106227,0.40534798534798533
3.4076141959958477,3.0308424908424905,0.49882783882783877,0.6463003663003662
3.4122918250068324,3.0308424908424905,0.49882783882783877,0.6463003663003662
3.4124674100021366,3.0308424908424905,0.49882783882783877,0.6463003663003662
3.420083520002663,3.0308424908424905,0.49882783882783877,0.6463003663003662
3.42390888799855,3.0308424908424905,0.49882783882783877,0.6463003663003662
3.4280061120080063,3.0308424908424905,0.49882783882783877,0.6463003663003662
3.4312396680034,3.0308424908424905,0.49882783882783877,0.6463003663003662
3.432359644997632,3.0308424908424905,0.49882783882783877,0.6463003663003662
3.4327894220041344,3.0308424908424905,0.49882783882783877,0.6463003663003662
3.44036338099977,3.0308424908424905,0.49882783882783877,0.6463003663003662
3.445738986003562,3.0308424908424905,0.49882783882783877,0.6463003663003662
3.4459826730017085,3.0308424908424905,0.49882783882783877,0.6463003663003662
3.4545720089954557,3.0308424908424905,0.49882783882783877,0.6463003663003662
3.4591122359997826,3.0308424908424905,0.49882783882783877,0.6463003663003662
3.460085593003896,3.0308424908424905,0.49882783882783877,0.6463003663003662
3.4610378030047286,3.0308424908424905,0.49882783882783877,0.6463003663003662
3.4620036109990906,3.0308424908424905,0.49882783882783877,0.6463003663003662
3.462896123994142,3.0308424908424905,0.49882783882783877,0.6463003663003662
3.464233677004813,3.0308424908424905,0.49882783882783877,0.6463003663003662
3.4647079239948653,3.0308424908424905,0.49882783882783877,0.6463003663003662
3.4705235120054567,3.0308424908424905,0.49882783882783877,0.6463003663003662
3.4760384279943537,3.0308424908424905,0.49882783882783877,0.6463003663003662
3.4768640940019395,3.0308424908424905,0.49882783882783877,0.6463003663003662
3.4784473500039894,3.0308424908424905,0.49882783882783877,0.6463003663003662
3.484282773002633,3.0308424908424905,0.49882783882783877,0.6463003663003662
3.490203253008076,3.0308424908424905,0.49882783882783877,0.6463003663003662
3.494007964996854,2.9615384615384617,1.6294505494505493,0.7212454212454212
3.502525821008021,2.718168498168498,0.28124542124542123,0.1555311355311355
3.508013487997232,2.4909157509157507,0.27641025641025635,0.14263736263736262
3.508249506005086,2.698827838827839,0.6414652014652015,0.6978754578754578
3.5130557939992286,2.698827838827839,0.6414652014652015,0.6978754578754578
3.521483336997335,2.6956043956043954,0.9259340659340659,0.24417582417582417
3.5268500100064557,2.6956043956043954,0.9259340659340659,0.24417582417582417
3.52863082899421,2.698827838827839,2.233040293040293,0.5157509157509157
3.5322349869966274,2.698827838827839,2.233040293040293,0.5157509157509157
3.539293200999964,2.697216117216117,0.9871794871794871,0.3336263736263736
3.5441813039942645,2.697216117216117,0.9871794871794871,0.3336263736263736
3.5500635570060695,2.697216117216117,0.9871794871794871,0.3336263736263736
3.556909191000159,2.697216117216117,0.9871794871794871,0.3336263736263736
3.5609082790033426,2.697216117216117,0.9871794871794871,0.3336263736263736
3.5653908380045323,2.697216117216117,0.9871794871794871,0.3336263736263736
3.5656487590022152,2.697216117216117,0.9871794871794871,0.3336263736263736
3.5721860159974312,2.697216117216117,0.9871794871794871,0.3336263736263736
3.576031670003431,2.698827838827839,0.8082783882783882,0.13538461538461538
3.5809949329996016,2.698827838827839,0.8082783882783882,0.13538461538461538
3.588026526995236,2.655311355311355,0.7373626373626374,0.8864468864468864
3.591824061004445,2.655311355311355,0.7373626373626374,0.8864468864468864
3.5970948430040153,2.655311355311355,0.7373626373626374,0.8864468864468864
3.6013991450017784,2.655311355311355,0.7373626373626374,0.8864468864468864
3.602379015996121,2.655311355311355,0.7373626373626374,0.8864468864468864
3.6032978309958708,2.655311355311355,0.7373626373626374,0.8864468864468864
3.60487802499847,2.655311355311355,0.7373626373626374,0.8864468864468864
3.6087217180029256,2.655311355311355,0.7373626373626374,0.8864468864468864
3.613432391997776,2.6682051282051282,1.5198534798534797,0.7002930402930403
3.6135731940012192,2.698827838827839,1.3401465201465201,0.4528937728937729
3.6204664380056784,2.698827838827839,1.3401465201465201,0.4528937728937729
3.624353302002419,2.698827838827839,1.3401465201465201,0.4528937728937729
3.6299744400021154,2.698827838827839,1.3401465201465201,0.4528937728937729
3.6324005180067616,0.6084249084249085,2.0734798534798533,0.7284981684981684
3.632664852004382,2.693186813186813,0.4819047619047619,0.31509157509157504
3.6383413940056926,2.693186813186813,0.4819047619047619,0.31509157509157504
3.6384530829964206,2.693186813186813,0.4819047619047619,0.31509157509157504
3.6433029900072142,2.693186813186813,0.4819047619047619,0.31509157509157504
3.6434148349944735,2.693186813186813,0.4819047619047619,0.31509157509157504
3.6505508179980097,2.693186813186813,0.4819047619047619,0.31509157509157504
3.6546598830027506,2.693186813186813,0.4819047619047619,0.31509157509157504
3.6569751700008055,2.693186813186813,0.4819047619047619,0.31509157509157504
3.6572597790072905,2.693186813186813,0.4819047619047619,0.31509157509157504
3.662977560001309,2.693186813186813,0.4819047619047619,0.31509157509157504
3.6631696859985823,2.693186813186813,0.4819047619047619,0.31509157509157504
3.6709110679948935,2.693186813186813,0.4819047619047619,0.31509157509157504
3.675658840002143,2.693186813186813,0.4819047619047619,0.31509157509157504
3.675781366007868,2.693186813186813,0.4819047619047619,0.31509157509157504
3.680668582004728,2.693186813186813,0.4819047619047619,0.31509157509157504
3.6808345680037746,2.693186813186813,0.4819047619047619,0.31509157509157504
3.6881497989961645,2.693186813186813,0.4819047619047619,0.31509157509157504
3.6926841759996023,2.697216117216117,0.6108424908424909,0.7115750915750916
3.693656784002087,2.697216117216117,1.1789743589743589,0.5109157509157509
3.694556611008011,2.697216117216117,1.1789743589743589,0.5109157509157509
3.696159725994221,2.6956043956043954,0.2989743589743589,0.1668131868131868
3.702660035007284,2.6956043956043954,0.2989743589743589,0.1668131868131868
3.7057152040069923,2.6956043956043954,0.2989743589743589,0.1668131868131868
3.708898647004389,2.697216117216117,0.7841025641025641,0.0547985347985348
3.709844744997099,2.697216117216117,0.7841025641025641,0.0547985347985348
3.711391475997516,2.697216117216117,0.7841025641025641,0.0547985347985348
3.7165419810044114,2.697216117216117,0.7841025641025641,0.0547985347985348
3.7198529739980586,2.697216117216117,0.7841025641025641,0.0547985347985348
3.720165321996319,2.697216117216117,0.7841025641025641,0.0547985347985348
3.7254860990069574,2.697216117216117,0.7841025641025641,0.0547985347985348
3.7277767969935667,2.697216117216117,0.7841025641025641,0.0547985347985348
3.728591773993685,2.697216117216117,0.7841025641025641,0.0547985347985348
3.7302557859948138,2.697216117216117,0.7841025641025641,0.0547985347985348
3.7355134789977456,2.697216117216117,0.7841025641025641,0.0547985347985348
3.738085617995239,2.693992673992674,0.5584615384615385,0.051575091575091575
3.7428237419953803,3.3,0.7115750915750916,0.6591941391941392
3.743095022000489,3.3,0.7115750915750916,0.6591941391941392
3.7478962180030067,3.3,0.7115750915750916,0.6591941391941392
3.755172612000024,3.042124542124542,3.3,1.8849084249084247
3.75981786599732,3.042124542124542,3.3,1.8849084249084247
3.760215080998023,3.042124542124542,3.3,1.8849084249084247
3.7663903500069864,3.042124542124542,3.3,1.8849084249084247
3.773425273000612,3.042124542124542,3.3,1.8849084249084247
3.7787323980010115,3.042124542124542,3.3,1.8849084249084247
3.779009050995228,3.042124542124542,3.3,1.8849084249084247
3.7891342140064808,3.042124542124542,3.3,1.8849084249084247
3.794020223998814,2.652087912087912,3.3,1.818827838827839
3.802102643996477,2.718168498168498,0.28446886446886444,0.1265201465201465
3.808232108000084,2.718168498168498,0.28446886446886444,0.1265201465201465
3.8121291379939066,2.698827838827839,0.8953113553113552,0.3416849816849817
3.816473290004069,2.698827838827839,0.8953113553113552,0.3416849816849817
3.819247813997208,2.698827838827839,0.8953113553113552,0.3416849816849817
3.822411072003888,2.698827838827839,0.8953113553113552,0.3416849816849817
3.823393031998421,2.698827838827839,0.8953113553113552,0.3416849816849817
3.8242998009955045,2.698827838827839,0.8953113553113552,0.3416849816849817
3.8259394140040968,2.698827838827839,0.8953113553113552,0.3416849816849817
3.8304560240067076,2.698827838827839,0.8953113553113552,0.3416849816849817
3.8313272230006987,2.698827838827839,0.8953113553113552,0.3416849816849817
3.833692090003751,2.698827838827839,0.8953113553113552,0.3416849816849817
3.841736064001452,2.6746520146520147,0.21516483516483517,0.3416849816849817
3.8464949449989945,2.6746520146520147,0.21516483516483517,0.3416849816849817
3.8466872709977906,2.693186813186813,2.341025641025641,0.6035897435897435
3.8529668830015,3.3,3.3,1.4658608058608058
3.8575828119937796,3.3,3.3,1.4658608058608058
3.862773875007406,3.3,3.3,0.7897435897435897
3.8667080820014235,2.6956043956043954,1.9163369963369963,0.5729670329670329
3.871074551003403,2.6956043956043954,1.9163369963369963,0.5729670329670329
3.8727008540008683,2.6956043956043954,1.9163369963369963,0.5729670329670329
3.875820985005703,2.6956043956043954,1.9163369963369963,0.5729670329670329
3.878178212995408,2.6956043956043954,1.9163369963369963,0.5729670329670329
3.8783926510077436,2.6956043956043954,1.9163369963369963,0.5729670329670329
3.8858644910069415,2.6956043956043954,1.9163369963369963,0.5729670329670329
3.891648211007123,2.6956043956043954,1.9163369963369963,0.5729670329670329
3.8965155460027745,2.6956043956043954,1.9163369963369963,0.5729670329670329
3.9014603800023906,2.9518681318681317,0.17084249084249084,0.4657875457875458
3.9052554329973646,3.3,2.024322344322344,0.8985347985347985
3.9104687979997834,3.3,2.024322344322344,0.8985347985347985
3.9129155249975156,2.718168498168498,0.9323809523809523,0.361025641025641
3.921303707000334,2.718168498168498,0.9323809523809523,0.361025641025641
3.9285447360016406,2.718168498168498,0.9323809523809523,0.361025641025641
3.934280421002768,2.718168498168498,0.9323809523809523,0.361025641025641
3.9418966049997834,2.6665934065934067,0.2079120879120879,0.3191208791208791
3.9466063430008944,2.6665934065934067,0.2079120879120879,0.3191208791208791
3.9544202880060766,2.693992673992674,0.8147252747252747,0.4166300366300366
3.9590455860015936,2.693992673992674,0.8147252747252747,0.4166300366300366
3.9600679419963853,2.6762637362637363,2.8197069597069593,0.3336263736263736
3.9603883389936527,2.6762637362637363,2.8197069597069593,0.3336263736263736
3.9659904510044726,2.6762637362637363,2.8197069597069593,0.3336263736263736
3.96626392500184,2.6762637362637363,2.8197069597069593,0.3336263736263736
3.974647537994315,2.6762637362637363,2.8197069597069593,0.3336263736263736
3.9799024450039724,2.6762637362637363,2.8197069597069593,0.3336263736263736
3.9817481310019502,2.655311355311355,3.3,0.6728937728937728
3.986187513000914,2.8583882783882784,0.1789010989010989,0.1265201465201465
3.986507145993528,2.8583882783882784,0.1789010989010989,0.1265201465201465
3.991099866005243,2.8583882783882784,0.1789010989010989,0.1265201465201465
3.9913805149990367,2.7197802197802194,0.6761172161172161,0.03062271062271062
3.9967284190061036,2.7197802197802194,0.6761172161172161,0.03062271062271062
3.9998393999994732,2.7238095238095235,0.27076923076923076,0.47706959706959706
4.001434499004972,2.7238095238095235,0.27076923076923076,0.47706959706959706
4.005601372002275,2.7238095238095235,0.27076923076923076,0.47706959706959706
4.007967040000949,2.7238095238095235,0.27076923076923076,0.47706959706959706
4.008241852003266,2.7238095238095235,0.27076923076923076,0.47706959706959706
4.014762217004318,2.7238095238095235,0.27076923076923076,0.47706959706959706
4.02076384499378,2.7238095238095235,0.27076923076923076,0.47706959706959706
4.0267845670023235,2.7238095238095235,0.27076923076923076,0.47706959706959706
4.032803779002279,2.7197802197802194,2.1524542124542125,0.5318681318681319
4.038323581000441,0.6801465201465201,2.0654212454212453,0.7188278388278388
4.043900057004066,0.6801465201465201,2.0654212454212453,0.7188278388278388
4.044768947002012,0.6801465201465201,2.0654212454212453,0.7188278388278388
4.0464319409948075,0.6801465201465201,2.0654212454212453,0.7188278388278388
4.052447221998591,0.6801465201465201,2.0654212454212453,0.7188278388278388
4.057585757007473,0.6801465201465201,2.0654212454212453,0.7188278388278388
4.0617119039961835,0.6801465201465201,2.0654212454212453,0.7188278388278388
4.063334225007566,2.71010989010989,0.29413919413919415,0.303003663003663
4.069859751005424,2.71010989010989,0.29413919413919415,0.303003663003663
4.075653243999113,3.3,3.3,1.8994139194139192
4.082567396995728,3.3,3.3,1.8994139194139192
4.087684717000229,3.3,0.42710622710622714,0.5624908424908425
4.089332464005565,3.3,0.42710622710622714,0.5624908424908425
4.093279692999204,3.3,0.42710622710622714,0.5624908424908425
4.100259012004244,3.3,0.42710622710622714,0.5624908424908425
4.1045873789989855,3.3,0.42710622710622714,0.5624908424908425
4.10567887200159,3.3,0.42710622710622714,0.5624908424908425
4.10601407699869,3.3,0.42710622710622714,0.5624908424908425
4.1111192560056224,3.3,0.42710622710622714,0.5624908424908425
4.114799503004178,2.7197802197802194,1.261172161172161,0.5600732600732601
4.121584281005198,2.7197802197802194,1.261172161172161,0.5600732600732601
4.125515057006851,2.7197802197802194,1.261172161172161,0.5600732600732601
4.129681010002969,2.7197802197802194,1.261172161172161,0.5600732600732601
4.133121374004986,2.7197802197802194,1.261172161172161,0.5600732600732601
4.1332839480019175,2.7197802197802194,1.261172161172161,0.5600732600732601
4.138881335995393,2.7197802197802194,1.261172161172161,0.5600732600732601
4.139044195006136,2.7197802197802194,1.261172161172161,0.5600732600732601
4.144623254003818,2.7197802197802194,1.261172161172161,0.5600732600732601
4.145558065007208,2.851941391941392,0.17487179487179486,0.14263736263736262
4.1475205070019,2.851941391941392,0.17487179487179486,0.14263736263736262
4.149375264998525,2.851941391941392,0.17487179487179486,0.14263736263736262
4.15264720399864,2.693186813186813,1.340952380952381,0.6172893772893773
4.152916617007577,2.693186813186813,1.340952380952381,0.6172893772893773
4.157602973005851,2.693186813186813,1.340952380952381,0.6172893772893773
4.157785114002763,2.693186813186813,1.340952380952381,0.6172893772893773
4.162439716994413,2.693186813186813,1.340952380952381,0.6172893772893773
4.162788023997564,2.693186813186813,1.340952380952381,0.6172893772893773
4.169343635003315,2.693186813186813,1.340952380952381,0.6172893772893773
4.173341700996389,3.3,3.3,1.8405860805860805
4.176571931006038,3.3,3.3,1.8405860805860805
4.177495783005725,3.3,3.3,1.8405860805860805
4.179084811999928,3.3,3.3,1.8405860805860805
4.184812448002049,3.3,0.49399267399267394,0.7389743589743589
4.190406103996793,2.8293772893772893,0.1772893772893773,0.18695970695970696
4.192647746007424,2.697216117216117,1.3804395604395605,0.6237362637362637
4.192953709003632,2.697216117216117,1.3804395604395605,0.6237362637362637
4.199362127998029,2.697216117216117,1.3804395604395605,0.6237362637362637
4.203492319997167,2.697216117216117,1.3804395604395605,0.6237362637362637
4.20589516099426,2.697216117216117,1.3804395604395605,0.6237362637362637
4.206191042001592,2.697216117216117,1.3804395604395605,0.6237362637362637
4.211600882001221,2.697216117216117,1.3804395604395605,0.6237362637362637
4.212493169994559,2.2523809523809524,1.9356776556776556,0.8106959706959707
4.214838373998646,2.2523809523809524,1.9356776556776556,0.8106959706959707
4.224912110003061,2.2523809523809524,1.9356776556776556,0.8106959706959707
4.233172858002945,2.2523809523809524,1.9356776556776556,0.8106959706959707
4.240763170004357,2.2523809523809524,1.9356776556776556,0.8106959706959707
4.248658772005001,2.2523809523809524,1.9356776556776556,0.8106959706959707
4.255663949996233,2.2523809523809524,1.9356776556776556,0.8106959706959707
4.259438873006729,3.3,0.29978021978021974,0.5641025641025641
4.266346678006812,3.3,0.29978021978021974,0.5641025641025641
4.2707241869939025,3.3,0.29978021978021974,0.5641025641025641
4.271593297002255,3.3,0.29978021978021974,0.5641025641025641
4.273206180005218,3.3,0.29978021978021974,0.5641025641025641
4.277818418006063,3.3,0.29978021978021974,0.5641025641025641
4.2780777599982684,3.3,0.29978021978021974,0.5641025641025641
4.285714951998671,3.3,0.29978021978021974,0.5641025641025641
4.2912679169967305,3.3,0.29978021978021974,0.5641025641025641
4.29282678400341,3.3,0.29978021978021974,0.5641025641025641
4.298973712007864,3.3,0.29978021978021974,0.5641025641025641
4.303415115995449,3.3,0.29978021978021974,0.5641025641025641
4.3035987930052215,3.3,0.29978021978021974,0.5641025641025641
4.311363415996311,2.697216117216117,1.6818315018315015,0.3352380952380952
4.315378247003537,2.697216117216117,1.6818315018315015,0.3352380952380952
4.319924452996929,2.697216117216117,1.6818315018315015,0.3352380952380952
4.320061884995084,2.697216117216117,1.6818315018315015,0.3352380952380952
4.330875236002612,2.697216117216117,1.6818315018315015,0.3352380952380952
4.338184256004752,2.698827838827839,0.6406593406593406,0.012893772893772894
4.343346028006636,2.698827838827839,0.6406593406593406,0.012893772893772894
4.3484689710021485,2.698827838827839,0.6406593406593406,0.012893772893772894
4.35292367299553,2.698827838827839,0.6406593406593406,0.012893772893772894
4.353128864997416,2.698827838827839,0.6406593406593406,0.012893772893772894
4.358321078005247,2.698827838827839,0.6406593406593406,0.012893772893772894
4.362091322007473,3.3,0.39487179487179486,0.5286446886446886
4.369204194998019,3.3,0.39487179487179486,0.5286446886446886
4.3730503669939935,3.3,0.39487179487179486,0.5286446886446886
4.3768474660028005,3.3,0.39487179487179486,0.5286446886446886
4.383460375000141,3.3,3.3,0.958974358974359
4.387270278995857,3.3,3.3,0.958974358974359
4.39037810699665,3.3,3.3,0.958974358974359
4.393394630998955,3.3,3.3,0.958974358974359
4.395046100995387,3.3,3.3,0.958974358974359
4.400328162999358,3.3,3.3,0.958974358974359
4.401732152007753,3.3,0.6720879120879121,0.6406593406593406
4.40760494999995,3.3,0.6720879120879121,0.6406593406593406
4.407727830999647,3.3,0.6720879120879121,0.6406593406593406
4.414421360997949,3.3,0.6720879120879121,0.6406593406593406
4.42086440899584,2.693992673992674,0.7687912087912088,0.02175824175824176
4.426000577004743,3.3,0.4182417582417582,0.6906227106227106
4.42893259000266,3.3,0.4182417582417582,0.6906227106227106
4.431586241000332,3.3,0.4182417582417582,0.6906227106227106
4.437927541002864,2.7165567765567764,0.6696703296703297,0.12007326007326008
4.441940994001925,2.7165567765567764,0.6696703296703297,0.12007326007326008
4.445023296997533,3.3,0.6688644688644688,0.697069597069597
4.449651524002547,2.698827838827839,0.8453479853479853,0.3908424908424908
4.456064896003227,2.698827838827839,0.8453479853479853,0.3908424908424908
4.460183335002512,2.698827838827839,0.8453479853479853,0.3908424908424908
4.463323917996604,2.698827838827839,0.8453479853479853,0.3908424908424908
4.46480736900412,2.698827838827839,0.8453479853479853,0.3908424908424908
4.471831392002059,2.698827838827839,0.6454945054945055,0.4657875457875458
4.476695545003167,2.698827838827839,0.6454945054945055,0.4657875457875458
4.483583434994216,2.698827838827839,0.6454945054945055,0.4657875457875458
4.487136188006843,2.652087912087912,0.8735531135531135,1.037948717948718
4.4873814589955145,2.652087912087912,0.8735531135531135,1.037948717948718
4.4919637169950875,2.652087912087912,0.8735531135531135,1.037948717948718
4.492372045002412,2.652087912087912,0.8735531135531135,1.037948717948718
4.49704925599508,2.652087912087912,0.8735531135531135,1.037948717948718
4.49726677799481,2.652087912087912,0.8735531135531135,1.037948717948718
4.50393755499681,2.652087912087912,0.8735531135531135,1.037948717948718
4.50781287800055,2.652087912087912,0.8735531135531135,1.037948717948718
4.51234324699908,2.652087912087912,0.8735531135531135,1.037948717948718
4.512662257999182,2.652087912087912,0.8735531135531135,1.037948717948718
4.519357102006325,2.652087912087912,0.8735531135531135,1.037948717948718
4.523631632007891,2.6569230769230767,0.14344322344322344,0.419047619047619
4.526470098993741,2.6569230769230767,0.14344322344322344,0.419047619047619
4.5327912509965245,2.6569230769230767,0.14344322344322344,0.419047619047619
4.537583640994853,2.698021978021978,0.5399267399267399,0.06124542124542124
4.541248388995882,2.698021978021978,0.5399267399267399,0.06124542124542124
4.5414068670070264,2.698021978021978,0.5399267399267399,0.06124542124542124
4.547026543994434,2.698021978021978,0.5399267399267399,0.06124542124542124
4.548257556001772,2.698021978021978,0.5399267399267399,0.06124542124542124
4.548463076003827,2.698021978021978,0.5399267399267399,0.06124542124542124
4.553852632001508,2.698021978021978,0.5399267399267399,0.06124542124542124
4.555489466001745,2.6956043956043954,0.5737728937728938,0.06769230769230769
4.560019601995009,2.6956043956043954,0.5737728937728938,0.06769230769230769
4.560968268007855,2.6956043956043954,0.5737728937728938,0.06769230769230769
4.561273995001102,2.6956043956043954,0.5737728937728938,0.06769230769230769
4.569351237005321,2.6956043956043954,0.5737728937728938,0.06769230769230769
4.573128051997628,2.6956043956043954,0.5737728937728938,0.06769230769230769
4.577740282999002,2.6956043956043954,0.5737728937728938,0.06769230769230769
4.578036364007858,2.6956043956043954,0.5737728937728938,0.06769230769230769
4.586657990003005,2.6956043956043954,0.5737728937728938,0.06769230769230769
4.5912020779942395,2.6956043956043954,0.5737728937728938,0.06769230769230769
4.591490912003792,2.6956043956043954,0.5737728937728938,0.06769230769230769
4.597741830002633,2.6956043956043954,0.5737728937728938,0.06769230769230769
4.605922479997389,2.9534798534798536,3.3,0.9235164835164835
4.6119745379983215,2.9534798534798536,3.3,0.9235164835164835
4.619151702994714,2.9534798534798536,3.3,0.9235164835164835
4.623197934997734,2.752014652014652,0.16197802197802197,0.45772893772893775
4.6262023849994875,2.714945054945055,1.6447619047619046,0.4005128205128205
4.6313875960040605,2.714945054945055,1.6447619047619046,0.4005128205128205
4.632933304004837,2.714945054945055,1.6447619047619046,0.4005128205128205
4.639325744006783,3.3,0.13538461538461538,0.6745054945054945
4.642510738995043,3.3,0.13538461538461538,0.6745054945054945
4.644356571006938,3.3,0.13538461538461538,0.6745054945054945
4.646923787004198,3.3,0.13538461538461538,0.6745054945054945
4.656467876993702,3.3,0.13538461538461538,0.6745054945054945
4.662501900995267,3.3,0.13538461538461538,0.6745054945054945
4.671776098999544,3.3,0.13538461538461538,0.6745054945054945
4.679766640998423,3.3,0.13538461538461538,0.6745054945054945
4.685092297993833,3.3,0.13538461538461538,0.6745054945054945
4.686911715994938,2.0428571428571427,0.1813186813186813,0.08542124542124542
4.689538539998466,2.0428571428571427,0.1813186813186813,0.08542124542124542
4.694151093994151,2.0428571428571427,0.1813186813186813,0.08542124542124542
4.694971015996998,2.0428571428571427,0.1813186813186813,0.08542124542124542
4.695884893008042,2.0428571428571427,0.1813186813186813,0.08542124542124542
4.698136138002155,2.0428571428571427,0.1813186813186813,0.08542124542124542
4.698372052007471,2.0428571428571427,0.1813186813186813,0.08542124542124542
4.704392579005798,3.3,0.7043223443223443,0.6189010989010989
4.70897096900444,3.3,0.7043223443223443,0.6189010989010989
4.709206070998334,3.3,0.7043223443223443,0.6189010989010989
4.715006919999723,3.3,0.7043223443223443,0.6189010989010989
4.715240207995521,3.3,0.7043223443223443,0.6189010989010989
4.72307387899491,3.3,0.7043223443223443,0.6189010989010989
4.729846599002485,3.3,0.3876190476190476,0.3658608058608058
4.737996819996624,3.3,0.3876190476190476,0.3658608058608058
4.74297461900278,3.3,0.3876190476190476,0.3658608058608058
4.74692591499479,3.3,0.3876190476190476,0.3658608058608058
4.755436371007818,3.3,3.0614652014652015,1.551282051282051
4.762394781995681,3.3,3.0614652014652015,1.551282051282051
4.769520884001395,3.3,3.0614652014652015,1.551282051282051
4.773214568005642,3.3,3.0614652014652015,1.551282051282051
4.778483456000686,2.693186813186813,0.7147985347985348,0.17406593406593407
4.783051527003408,3.3,3.3,0.8912820512820512
4.783252862995141,2.4312820512820514,0.18534798534798536,0.12168498168498168
4.788553367005079,2.4312820512820514,0.18534798534798536,0.12168498168498168
4.790169895000872,2.4312820512820514,0.18534798534798536,0.12168498168498168
4.794595015002415,2.4312820512820514,0.18534798534798536,0.12168498168498168
4.795517563004978,2.4312820512820514,0.18534798534798536,0.12168498168498168
4.798247211001581,2.4312820512820514,0.18534798534798536,0.12168498168498168
4.802838350995444,2.4312820512820514,0.18534798534798536,0.12168498168498168
4.802944880007999,3.1090109890109887,0.21032967032967032,0.12007326007326008
4.807686699001351,3.1090109890109887,0.21032967032967032,0.12007326007326008
4.807948674002546,2.698827838827839,0.9517216117216116,0.311062271062271
4.8134944530029316,2.698827838827839,0.9517216117216116,0.311062271062271
4.814354964997619,2.6802930402930403,1.4545787545787545,0.6801465201465201
4.816705621997244,2.6802930402930403,1.4545787545787545,0.6801465201465201
4.822333567994065,2.6802930402930403,1.4545787545787545,0.6801465201465201
4.823212300994783,2.6802930402930403,1.4545787545787545,0.6801465201465201
4.824854963997495,2.6802930402930403,1.4545787545787545,0.6801465201465201
4.8283589119964745,2.6802930402930403,1.4545787545787545,0.6801465201465201
4.828575450999779,1.4884249084249084,2.2048351648351647,0.7204395604395604
4.834869136000634,1.4884249084249084,2.2048351648351647,0.7204395604395604
4.838472785006161,2.6746520146520147,0.253040293040293,0.30864468864468864
4.838620826994884,2.6746520146520147,0.253040293040293,0.30864468864468864
4.843988426000578,2.9357509157509156,0.5205860805860806,0.42710622710622714
4.846530045993859,2.9357509157509156,0.5205860805860806,0.42710622710622714
4.846678621004685,2.9357509157509156,0.5205860805860806,0.42710622710622714
4.854322615006822,2.9357509157509156,0.5205860805860806,0.42710622710622714
4.859203369007446,2.7197802197802194,0.8292307692307692,0.11604395604395604
4.864810826999019,2.7197802197802194,0.8292307692307692,0.11604395604395604
4.8649811829964165,2.7197802197802194,0.8292307692307692,0.11604395604395604
4.874381749003078,2.7197802197802194,0.8292307692307692,0.11604395604395604
4.8806706850009505,2.713333333333333,0.9428571428571427,0.23047619047619047
4.886635817994829,2.713333333333333,0.9428571428571427,0.23047619047619047
4.88998720300151,2.713333333333333,0.9428571428571427,0.23047619047619047
4.890960349002853,2.9647619047619047,1.6447619047619046,0.7389743589743589
4.891957415005891,2.9647619047619047,1.6447619047619046,0.7389743589743589
4.89290498700575,2.9647619047619047,1.6447619047619046,0.7389743589743589
4.893839548007236,2.9647619047619047,1.6447619047619046,0.7389743589743589
4.894833108002786,2.9647619047619047,1.6447619047619046,0.7389743589743589
4.895716191997053,2.9647619047619047,1.6447619047619046,0.7389743589743589
4.898179691997939,2.9647619047619047,1.6447619047619046,0.7389743589743589
4.904990534996614,2.6545054945054947,0.9565567765567766,1.1153113553113554
4.908840578995296,2.693992673992674,0.8469597069597068,0.09912087912087912
4.913500826995005,2.693992673992674,0.8469597069597068,0.09912087912087912
4.913643136998871,2.693992673992674,0.8469597069597068,0.09912087912087912
4.920588477994897,2.693992673992674,0.8469597069597068,0.09912087912087912
4.924697565002134,2.693992673992674,0.8469597069597068,0.09912087912087912
4.927910914004315,2.7157509157509154,0.8824175824175824,0.07816849816849816
4.928878143007751,2.7157509157509154,0.8824175824175824,0.07816849816849816
4.9300864249962615,2.7157509157509154,0.8824175824175824,0.07816849816849816
4.930573791003553,2.7157509157509154,0.8824175824175824,0.07816849816849816
4.936596384999575,2.7157509157509154,0.8824175824175824,0.07816849816849816
4.9406161890074145,2.6536996336996337,0.2328937728937729,0.5794139194139193
4.944484139996348,3.3,0.6068131868131869,0.6575824175824176
4.9507340069976635,2.697216117216117,1.3949450549450548,0.29736263736263735
4.954574525996577,2.697216117216117,1.3949450549450548,0.29736263736263735
4.958485869996366,2.697216117216117,1.3949450549450548,0.29736263736263735
4.9633822790056,2.697216117216117,1.3949450549450548,0.29736263736263735
4.9704791510012,2.6964102564102563,2.2064468864468862,0.5713553113553113
4.974594992003404,2.6964102564102563,2.2064468864468862,0.5713553113553113
4.977888919005636,2.6964102564102563,2.2064468864468862,0.5713553113553113
4.978249709005468,2.6528937728937727,3.3,0.9339926739926739
4.9875399120064685,2.6528937728937727,3.3,0.9339926739926739
4.99479781500122,2.6665934065934067,1.9703296703296702,0.4867399267399267
4.996388257000945,2.6665934065934067,1.9703296703296702,0.4867399267399267
5.006656885001576,2.6665934065934067,1.9703296703296702,0.4867399267399267
5.021311970005627,2.698021978021978,2.207252747252747,0.5165567765567766
5.034959772994625,2.698827838827839,0.4859340659340659,0.10395604395604395
5.049745475000236,2.697216117216117,0.8179487179487179,0.14586080586080585
5.058264941995731,2.7197802197802194,0.7212454212454212,0.16197802197802197
5.067975484998897,2.7197802197802194,0.7212454212454212,0.16197802197802197
5.080962430001819,2.7197802197802194,0.7212454212454212,0.16197802197802197
5.092957496002782,2.7197802197802194,0.7212454212454212,0.16197802197802197
5.103112947996124,2.7197802197802194,0.7212454212454212,0.16197802197802197
5.115930265004863,2.7197802197802194,0.7212454212454212,0.16197802197802197
5.1285279559961054,2.7197802197802194,0.7212454212454212,0.16197802197802197
5.138749189005466,2.7197802197802194,0.7212454212454212,0.16197802197802197
5.146961538004689,2.697216117216117,1.05003663003663,0.43597069597069593
5.154533976994571,2.697216117216117,2.5521611721611723,0.6495238095238095
5.159875048993854,2.9776556776556777,0.19018315018315018,0.47706959706959706
5.160235429997556,2.9776556776556777,0.19018315018315018,0.47706959706959706
5.168076446003397,2.9776556776556777,0.19018315018315018,0.47706959706959706
5.174957623006776,2.9776556776556777,0.19018315018315018,0.47706959706959706
5.180309603005298,3.3,0.1829304029304029,0.47706959706959706
5.181742322005448,3.3,0.1829304029304029,0.47706959706959706
5.188645349000581,3.3,0.1829304029304029,0.47706959706959706
5.194200187994284,3.3,2.1315018315018315,1.2023443223443222
5.19441200500296,2.6673992673992672,0.190989010989011,0.5576556776556777
5.2038791719969595,2.6673992673992672,0.190989010989011,0.5576556776556777
5.211463366998942,2.6673992673992672,0.190989010989011,0.5576556776556777
5.216414285998326,2.6673992673992672,0.190989010989011,0.5576556776556777
5.221504367000307,2.6673992673992672,0.190989010989011,0.5576556776556777
5.2252883769979235,2.6673992673992672,0.190989010989011,0.5576556776556777
5.232824040998821,2.6673992673992672,0.190989010989011,0.5576556776556777
5.237899515996105,2.6673992673992672,0.190989010989011,0.5576556776556777
5.2431318890012335,2.6956043956043954,0.2224175824175824,0.12571428571428572
5.247439951999695,2.6956043956043954,0.2224175824175824,0.12571428571428572
5.247662861002027,2.6956043956043954,0.2224175824175824,0.12571428571428572
5.255220835999353,2.6956043956043954,0.2224175824175824,0.12571428571428572
5.259769209995284,2.6956043956043954,0.2224175824175824,0.12571428571428572
5.260122207997483,2.6956043956043954,0.2224175824175824,0.12571428571428572
5.265441608993569,2.6956043956043954,0.2224175824175824,0.12571428571428572
5.267786227996112,2.6956043956043954,0.2224175824175824,0.12571428571428572
5.26812065699778,2.6956043956043954,0.2224175824175824,0.12571428571428572
5.2733977750031045,2.6956043956043954,0.2224175824175824,0.12571428571428572
5.275705412001116,2.6956043956043954,0.2224175824175824,0.12571428571428572
5.27593356599391,2.6956043956043954,0.2224175824175824,0.12571428571428572
5.281117279999307,2.6956043956043954,0.2224175824175824,0.12571428571428572
5.284892096999101,3.034065934065934,0.20388278388278389,0.16842490842490843
5.290694056006032,2.698827838827839,0.6551648351648351,0.5133333333333333
5.291058991002501,2.698827838827839,0.6551648351648351,0.5133333333333333
5.300081288005458,2.698827838827839,0.6551648351648351,0.5133333333333333
5.306184907996794,2.6682051282051282,0.15311355311355312,0.28769230769230764
5.309914334997302,2.6682051282051282,0.15311355311355312,0.28769230769230764
5.31447607500013,2.6956043956043954,1.0492307692307692,0.4416117216117216
5.315350592994946,2.6956043956043954,1.0492307692307692,0.4416117216117216
5.316974657995161,2.6956043956043954,1.0492307692307692,0.4416117216117216
5.320759221998742,2.6956043956043954,1.0492307692307692,0.4416117216117216
5.325975145999109,2.6956043956043954,1.0492307692307692,0.4416117216117216
5.329013608003152,3.3,2.5876190476190475,1.36996336996337
5.331934161004028,3.3,2.5876190476190475,1.36996336996337
5.3343456919974415,3.3,2.5876190476190475,1.36996336996337
5.3345320469961734,3.3,2.5876190476190475,1.36996336996337
5.339003108005272,3.3,2.5876190476190475,1.36996336996337
5.3412767440022435,2.6536996336996337,0.664029304029304,0.834065934065934
5.341627001995221,2.6536996336996337,0.664029304029304,0.834065934065934
5.346132796999882,2.6536996336996337,0.664029304029304,0.834065934065934
5.347135938005522,3.3,2.1717948717948716,1.3046886446886445
5.348069497995311,3.3,2.1717948717948716,1.3046886446886445
5.349732300994219,3.3,2.1717948717948716,1.3046886446886445
5.354091617002268,3.3,2.1717948717948716,1.3046886446886445
5.356185101001756,2.6665934065934067,0.1926007326007326,0.31267399267399265
5.356513437000103,2.6665934065934067,0.1926007326007326,0.31267399267399265
5.3632258319994435,2.6665934065934067,0.1926007326007326,0.31267399267399265
5.367959167007939,2.6665934065934067,0.1926007326007326,0.31267399267399265
5.375585253001191,2.436117216117216,1.9106959706959707,0.801025641025641
5.383669211005326,2.436117216117216,1.9106959706959707,0.801025641025641
5.388016174998484,2.436117216117216,1.9106959706959707,0.801025641025641
5.388907361004385,2.436117216117216,1.9106959706959707,0.801025641025641
5.390651006993721,2.436117216117216,1.9106959706959707,0.801025641025641
5.394519901004969,2.436117216117216,1.9106959706959707,0.801025641025641
5.397663345007459,3.3,0.2772161172161172,0.6092307692307692
5.400699089004775,3.3,0.2772161172161172,0.6092307692307692
5.402324972994393,3.175897435897436,0.1829304029304029,0.26915750915750913
5.407367648003856,3.175897435897436,0.1829304029304029,0.26915750915750913
5.411640196994995,3.175897435897436,0.1829304029304029,0.26915750915750913
5.41366153099807,3.175897435897436,0.1829304029304029,0.26915750915750913
5.418114571002661,3.175897435897436,0.1829304029304029,0.26915750915750913
5.425205502004246,3.175897435897436,0.1829304029304029,0.26915750915750913
5.431204238993814,2.698021978021978,0.8590476190476191,0.07172161172161172
5.438982683001086,2.698021978021978,0.8590476190476191,0.07172161172161172
5.445976335002342,2.698021978021978,0.8590476190476191,0.07172161172161172
5.452621624994208,2.698021978021978,0.8590476190476191,0.07172161172161172
5.457454477000283,2.698021978021978,0.8590476190476191,0.07172161172161172
5.461427603993798,2.698021978021978,0.8590476190476191,0.07172161172161172
5.465751137002371,2.698021978021978,0.8590476190476191,0.07172161172161172
5.466431334003573,2.714945054945055,1.9364835164835164,0.5624908424908425
5.472829773003468,2.714945054945055,1.9364835164835164,0.5624908424908425
5.476370621996466,2.714945054945055,1.9364835164835164,0.5624908424908425
5.476659086998552,2.6536996336996337,2.8172893772893772,0.3158974358974359
5.483416921008029,2.6536996336996337,2.8172893772893772,0.3158974358974359
5.488759297004435,3.3,0.3102564102564102,0.4158241758241758
5.4896352869982366,3.3,0.3102564102564102,0.4158241758241758
5.49129653100681,3.3,0.3102564102564102,0.4158241758241758
5.495730124996044,3.3,0.3102564102564102,0.4158241758241758
5.496179837005911,3.3,0.3102564102564102,0.4158241758241758
5.5051909210014855,3.3,3.3,0.929157509157509
5.5128954270039685,3.3,3.3,0.929157509157509
5.521537104999879,3.3,3.3,0.929157509157509
5.526654253000743,3.3,3.3,0.929157509157509
5.528976590998354,3.3,3.3,0.929157509157509
5.529287901998032,0.5745787545787545,2.1556776556776556,0.7212454212454212
5.5398026689945254,0.5745787545787545,2.1556776556776556,0.7212454212454212
5.546474720002152,0.5745787545787545,2.1556776556776556,0.7212454212454212
5.554459475999465,2.693992673992674,0.6076190476190476,0.6076190476190476
5.559062411004561,2.693992673992674,0.6076190476190476,0.6076190476190476
5.559288917007507,2.693992673992674,0.6076190476190476,0.6076190476190476
5.566448383993702,3.1243223443223442,0.41018315018315016,0.4174358974358974
5.570940909005003,3.1243223443223442,0.41018315018315016,0.4174358974358974
5.571121443994343,2.7117216117216114,0.6801465201465201,0.11765567765567764
5.576573262995225,2.7117216117216114,0.6801465201465201,0.11765567765567764
5.578119733007043,2.7117216117216114,0.6801465201465201,0.11765567765567764
5.584859715003404,2.7117216117216114,0.6801465201465201,0.11765567765567764
5.588459418999264,2.6682051282051282,1.987252747252747,0.40776556776556777
5.588682073997916,2.6682051282051282,1.987252747252747,0.40776556776556777
5.594093734995113,2.693992673992674,1.22007326007326,0.5076923076923077
5.5959812679939205,2.693992673992674,1.22007326007326,0.5076923076923077
5.600306134001585,2.693992673992674,1.22007326007326,0.5076923076923077
5.600734396997723,2.693992673992674,1.22007326007326,0.5076923076923077
5.6055228559998795,2.693992673992674,1.22007326007326,0.5076923076923077
5.611176505000913,2.693992673992674,1.22007326007326,0.5076923076923077
5.611424499002169,2.693992673992674,1.22007326007326,0.5076923076923077
5.6197135639959015,2.693992673992674,1.22007326007326,0.5076923076923077
5.623726530000567,2.655311355311355,0.1515018315018315,0.419047619047619
5.6284086870000465,2.655311355311355,0.1515018315018315,0.419047619047619
5.62857335699664,2.655311355311355,0.1515018315018315,0.419047619047619
5.635622105997754,2.655311355311355,0.1515018315018315,0.419047619047619
5.6394346070010215,2.655311355311355,0.1515018315018315,0.419047619047619
5.64485099700687,2.9728205128205127,0.5326739926739926,0.4416117216117216
5.64812925500155,2.698021978021978,2.352307692307692,0.6148717948717949
5.648568357995828,3.3,1.759194139194139,0.747032967032967
5.654119326005457,3.3,1.759194139194139,0.747032967032967
5.654265852004755,3.3,1.759194139194139,0.747032967032967
5.658852891006973,3.3,1.759194139194139,0.747032967032967
5.659175157998106,3.3,1.759194139194139,0.747032967032967
5.667543627001578,3.3,1.759194139194139,0.747032967032967
5.672713070001919,3.3,1.759194139194139,0.747032967032967
5.676141453004675,3.3,1.759194139194139,0.747032967032967
5.676413491004496,2.6762637362637363,0.1805128205128205,0.3199267399267399
5.681874287998653,2.6762637362637363,0.1805128205128205,0.3199267399267399
5.684591337994789,2.6762637362637363,0.1805128205128205,0.3199267399267399
5.691992703999858,2.6762637362637363,0.1805128205128205,0.3199267399267399
5.697554540995043,2.6762637362637363,0.1805128205128205,0.3199267399267399
5.697837643005187,2.6875457875457873,0.21677655677655677,0.17809523809523808
5.70307414799754,2.6875457875457873,0.21677655677655677,0.17809523809523808
5.7054210740025155,2.6875457875457873,0.21677655677655677,0.17809523809523808
5.705559120993712,2.6673992673992672,0.8582417582417583,0.8139194139194139
5.710155838998617,2.6673992673992672,0.8582417582417583,0.8139194139194139
5.711043211995275,2.6964102564102563,1.1064468864468864,0.4472527472527472
5.71204723000119,2.697216117216117,0.5520146520146519,0.10395604395604395
5.712907524997718,2.697216117216117,0.5520146520146519,0.10395604395604395
5.7150649139948655,2.697216117216117,0.5520146520146519,0.10395604395604395
5.715422381996177,2.697216117216117,0.5520146520146519,0.10395604395604395
5.7204059539944865,2.697216117216117,0.5520146520146519,0.10395604395604395
5.724874224004452,2.697216117216117,0.5520146520146519,0.10395604395604395
5.725122071002261,2.697216117216117,0.5520146520146519,0.10395604395604395
5.730364672999713,2.697216117216117,0.5520146520146519,0.10395604395604395
5.735242017995915,2.697216117216117,0.5520146520146519,0.10395604395604395
5.742467795003904,2.697216117216117,0.5520146520146519,0.10395604395604395
5.749099095002748,2.697216117216117,0.5520146520146519,0.10395604395604395
5.754419920005603,2.697216117216117,0.5520146520146519,0.10395604395604395
5.755279721997795,2.697216117216117,0.5520146520146519,0.10395604395604395
5.7568802750029135,2.697216117216117,0.5520146520146519,0.10395604395604395
5.7609445650014095,2.697216117216117,0.5520146520146519,0.10395604395604395
5.76632113699452,2.697216117216117,0.5520146520146519,0.10395604395604395
5.768400468004984,2.698827838827839,0.9114285714285715,0.22886446886446887
5.76868538200506,2.698827838827839,0.9114285714285715,0.22886446886446887
5.774113410996506,2.698827838827839,0.9114285714285715,0.22886446886446887
5.775869641001918,2.698827838827839,0.9114285714285715,0.22886446886446887
5.778629401000217,2.698827838827839,0.9114285714285715,0.22886446886446887
5.785272737994092,2.6617582417582417,2.752014652014652,0.7583150183150182
5.790321455002413,2.6617582417582417,2.752014652014652,0.7583150183150182
5.792629517003661,2.648058608058608,3.3,1.7245421245421246
5.792801420000615,2.648058608058608,3.3,1.7245421245421246
5.800643377995584,2.648058608058608,3.3,1.7245421245421246
5.807066130000749,2.648058608058608,3.3,1.7245421245421246
5.812949276005384,3.3,2.6746520146520147,1.361098901098901
5.820988256993587,3.3,2.6746520146520147,1.361098901098901
5.824827219999861,2.6649816849816848,0.16358974358974357,0.31347985347985347
5.830538819995127,2.6923809523809523,2.075897435897436,0.5254212454212454
5.831934620000538,2.6923809523809523,2.075897435897436,0.5254212454212454
5.839116728006047,2.6923809523809523,2.075897435897436,0.5254212454212454
5.845895386999473,2.6923809523809523,2.075897435897436,0.5254212454212454
5.8539670369937085,2.697216117216117,0.6406593406593406,0.6664468864468864
5.861522562001483,2.697216117216117,0.6406593406593406,0.6664468864468864
5.8684622699947795,2.697216117216117,0.6406593406593406,0.6664468864468864
5.8743219720054185,2.698827838827839,0.7978021978021977,0.35619047619047617
5.8788158200040925,2.698827838827839,0.7978021978021977,0.35619047619047617
5.879139843003941,2.6569230769230767,3.3,0.7293040293040293
5.887557873997139,2.6569230769230767,3.3,0.7293040293040293
5.89446777899866,2.689157509157509,2.473186813186813,0.5028571428571429
5.899558791003074,2.689157509157509,2.473186813186813,0.5028571428571429
5.903300745005254,2.689157509157509,2.473186813186813,0.5028571428571429
5.907852135002031,2.689157509157509,2.473186813186813,0.5028571428571429
5.908188091998454,2.689157509157509,2.473186813186813,0.5028571428571429
5.913384166997275,2.689157509157509,2.473186813186813,0.5028571428571429
5.921270481005195,2.689157509157509,2.473186813186813,0.5028571428571429
5.928700574993854,2.689157509157509,2.473186813186813,0.5028571428571429
5.934185024001636,2.689157509157509,2.473186813186813,0.5028571428571429
5.934421162994113,2.689157509157509,2.473186813186813,0.5028571428571429
5.939334435999626,2.689157509157509,2.473186813186813,0.5028571428571429
5.939453126993612,2.689157509157509,2.473186813186813,0.5028571428571429
5.945669751003152,2.689157509157509,2.473186813186813,0.5028571428571429
5.952490223004133,2.693992673992674,1.3353113553113554,0.4279120879120879
5.956307982007274,2.6665934065934067,0.3199267399267399,0.4142124542124542
5.960976803005906,2.6665934065934067,0.3199267399267399,0.4142124542124542
5.961327237993828,3.3,0.20146520146520144,0.14344322344322344
5.968077145007555,3.3,0.20146520146520144,0.14344322344322344
5.971837429999141,3.3,0.20146520146520144,0.14344322344322344
5.977444535994437,3.3,0.20146520146520144,0.14344322344322344
5.977651093999157,2.655311355311355,3.3,0.5802197802197803
5.983993087007548,2.655311355311355,3.3,0.5802197802197803
5.98722968500806,2.698827838827839,2.3764835164835163,0.5955311355311355
5.989579860004596,2.698827838827839,2.3764835164835163,0.5955311355311355
5.989782895994722,2.698827838827839,2.3764835164835163,0.5955311355311355
5.997644572998979,2.698827838827839,2.3764835164835163,0.5955311355311355
6.003644098003861,2.6673992673992672,0.17809523809523808,0.3304029304029304
6.008818967005936,2.6673992673992672,0.17809523809523808,0.3304029304029304
6.010026917007053,2.6673992673992672,0.17809523809523808,0.3304029304029304
6.010189788998105,2.6673992673992672,0.17809523809523808,0.3304029304029304
6.019842895999318,2.6923809523809523,0.6728937728937728,0.0547985347985348
6.024678889007191,3.3,0.14827838827838827,0.5544322344322344
6.033994156998233,3.3,0.14827838827838827,0.5544322344322344
6.038557310006581,2.698827838827839,1.365128205128205,0.6043956043956044
6.0387569760059705,2.698827838827839,1.365128205128205,0.6043956043956044
6.043390177001129,2.698827838827839,1.365128205128205,0.6043956043956044
6.044352715005516,2.698827838827839,1.365128205128205,0.6043956043956044
6.046404555003392,2.698827838827839,1.365128205128205,0.6043956043956044
6.047916180003085,2.698827838827839,1.365128205128205,0.6043956043956044
6.053307128007873,2.698827838827839,1.365128205128205,0.6043956043956044
6.053576113001327,2.698827838827839,1.365128205128205,0.6043956043956044
6.059281986003043,2.698827838827839,1.365128205128205,0.6043956043956044
6.059421419005957,2.698827838827839,1.365128205128205,0.6043956043956044
6.065897524997126,2.698827838827839,1.365128205128205,0.6043956043956044
6.0697338369936915,2.698827838827839,0.7462271062271062,0.4545054945054945
6.074344243999803,2.698827838827839,0.7462271062271062,0.4545054945054945
6.074652594994404,2.693992673992674,0.3352380952380952,0.3384615384615384
6.07936100999359,2.6778754578754578,1.8567032967032966,0.40534798534798533
6.0796007010067115,2.6577289377289377,3.0808058608058606,0.44402930402930396
6.087970299005974,2.6577289377289377,3.0808058608058606,0.44402930402930396
6.094065758006764,2.673040293040293,0.713992673992674,0.7075457875457875
6.097322507004719,2.693992673992674,0.8799999999999999,0.2111355311355311
6.098474387006718,2.693992673992674,0.8799999999999999,0.2111355311355311
6.098756545005017,2.693992673992674,0.8799999999999999,0.2111355311355311
6.104435590998037,2.693992673992674,0.8799999999999999,0.2111355311355311
6.1046093629993265,2.693992673992674,0.8799999999999999,0.2111355311355311
6.109169639996253,2.6956043956043954,0.6205128205128204,0.5657142857142857
6.110087003005901,2.6956043956043954,0.6205128205128204,0.5657142857142857
6.111689255005331,2.6956043956043954,0.6205128205128204,0.5657142857142857
6.118647473995225,2.6956043956043954,0.6205128205128204,0.5657142857142857
6.1227150530030485,2.6956043956043954,0.6205128205128204,0.5657142857142857
6.126434675999917,3.3,0.30058608058608055,0.19018315018315018
6.132587436004542,3.3,0.30058608058608055,0.19018315018315018
6.137288180005271,3.3,0.30058608058608055,0.19018315018315018
6.137473021997721,2.681098901098901,0.1692307692307692,0.2224175824175824
6.143072777995258,2.681098901098901,0.1692307692307692,0.2224175824175824
6.143281901997398,2.681098901098901,0.1692307692307692,0.2224175824175824
6.152592957005254,2.681098901098901,0.1692307692307692,0.2224175824175824
6.156517208000878,2.6633699633699632,3.3,2.0517216117216117
6.1611997750005685,2.6746520146520147,0.19179487179487179,0.2361172161172161
6.1685732119949535,2.6746520146520147,0.19179487179487179,0.2361172161172161
6.1731094349961495,2.697216117216117,0.8429304029304028,0.40695970695970696
6.173955846999888,2.697216117216117,0.8429304029304028,0.40695970695970696
6.175552190004964,2.693992673992674,0.3416849816849817,0.0
6.179372337006498,2.693992673992674,0.3416849816849817,0.0
6.185263798994129,2.693992673992674,0.3416849816849817,0.0
6.191097182003432,2.693992673992674,0.3416849816849817,0.0
6.198960697001894,2.693992673992674,0.3416849816849817,0.0
6.204039949006983,2.693992673992674,0.3416849816849817,0.0
6.208796614999301,2.693992673992674,0.3416849816849817,0.0
6.214588172006188,2.693992673992674,0.3416849816849817,0.0
6.214780220005196,2.693992673992674,0.3416849816849817,0.0
6.2220252660044935,2.693992673992674,0.3416849816849817,0.0
6.226281837996794,2.693992673992674,0.3416849816849817,0.0
6.228658751002513,2.693992673992674,0.3416849816849817,0.0
6.228845215999172,2.693992673992674,0.3416849816849817,0.0
6.236538776996895,2.7004395604395603,1.3627106227106225,0.6092307692307692
6.241175104005379,2.681098901098901,0.2377289377289377,0.17487179487179486
6.241472637993866,2.681098901098901,0.2377289377289377,0.17487179487179486
