time,emg1,emg2,emg3
0.020482039006310515,1.1652747252747253,0.6132600732600733,2.5795604395604395
0.036219569003151264,1.1652747252747253,0.6132600732600733,2.5795604395604395
0.0462126500060549,1.1652747252747253,0.6132600732600733,2.5795604395604395
0.05494824700144818,1.1652747252747253,0.6132600732600733,2.5795604395604395
0.06341226800577715,1.1652747252747253,0.6132600732600733,2.5795604395604395
0.06874094399972819,0.21194139194139192,0.20227106227106226,2.573919413919414
0.06976506600040011,0.21194139194139192,0.20227106227106226,2.573919413919414
0.07009351000306197,0.21194139194139192,0.20227106227106226,2.573919413919414
0.0785030950064538,0.21194139194139192,0.20227106227106226,2.573919413919414
0.08440593300474575,0.4520879120879121,0.31509157509157504,2.5763369963369964
0.08897869300562888,0.4520879120879121,0.31509157509157504,2.5763369963369964
0.08913971400033915,0.9114285714285715,0.5915018315018314,2.5763369963369964
0.10010176800278714,0.9114285714285715,0.5915018315018314,2.5763369963369964
0.11005689200101187,0.083003663003663,0.38358974358974357,1.0854945054945053
0.11847941500309389,0.083003663003663,0.38358974358974357,1.0854945054945053
0.1229454260028433,0.083003663003663,0.38358974358974357,1.0854945054945053
0.12456241500331089,0.083003663003663,0.38358974358974357,1.0854945054945053
0.12834468600340188,0.083003663003663,0.38358974358974357,1.0854945054945053
0.13353533100598725,0.7921611721611721,0.5995604395604395,2.5763369963369964
0.13612166200618958,0.7921611721611721,0.5995604395604395,2.5763369963369964
0.14333787000214215,0.7921611721611721,0.5995604395604395,2.5763369963369964
0.14683570100169163,0.33926739926739924,0.51010989010989,1.7237362637362637
0.1470859270048095,0.33926739926739924,0.51010989010989,1.7237362637362637
0.15213556100206915,0.33926739926739924,0.51010989010989,1.7237362637362637
0.15796385000430746,0.33926739926739924,0.51010989010989,1.7237362637362637
0.16390260300249793,0.0,0.14747252747252745,0.5705494505494505
0.1685594000009587,0.0,0.14747252747252745,0.5705494505494505
0.16883138400589814,0.0,0.14747252747252745,0.5705494505494505
0.17418120200454723,0.0,0.14747252747252745,0.5705494505494505
0.17702229800488567,1.1499633699633698,1.4497435897435897,2.561831501831502
0.179414224003267,1.1499633699633698,1.4497435897435897,2.561831501831502
0.17962286800320726,1.1499633699633698,1.4497435897435897,2.561831501831502
0.18412658000306692,1.1499633699633698,1.4497435897435897,2.561831501831502
0.18446299300558167,1.1499633699633698,1.4497435897435897,2.561831501831502
0.18973832800111268,1.1499633699633698,1.4497435897435897,2.561831501831502
0.19319777000055183,1.1499633699633698,1.4497435897435897,2.561831501831502
0.19334680000611115,1.1499633699633698,1.4497435897435897,2.561831501831502
0.19865462900634157,1.1499633699633698,1.4497435897435897,2.561831501831502
0.20092131300043548,1.1499633699633698,1.4497435897435897,2.561831501831502
0.2011104859993793,1.1499633699633698,1.4497435897435897,2.561831501831502
0.20571621900307946,1.1499633699633698,1.4497435897435897,2.561831501831502
0.205968242000381,1.1499633699633698,1.4497435897435897,2.561831501831502
0.21100890100206016,1.1499633699633698,1.4497435897435897,2.561831501831502
0.21478870000282768,1.1499633699633698,1.4497435897435897,2.561831501831502
0.2232702360051917,1.1499633699633698,1.4497435897435897,2.561831501831502
0.23149822800041875,0.0032234432234432234,0.17003663003663003,2.5505494505494504
0.23916440400353167,0.0,0.15633699633699633,2.86
0.24655558800441213,0.0,0.15633699633699633,2.86
0.2527469350025058,0.0,0.15633699633699633,2.86
0.2585791110032005,0.5302564102564102,0.954945054945055,3.3
0.2639296490015113,0.23934065934065935,0.2216117216117216,2.5787545787545785
0.2647860450015287,1.0822710622710623,1.212014652014652,2.5465201465201464
0.2664304930003709,1.0822710622710623,1.212014652014652,2.5465201465201464
0.27024373700260185,1.0822710622710623,1.212014652014652,2.5465201465201464
0.27410676100407727,1.0822710622710623,1.212014652014652,2.5465201465201464
0.27901294299954316,1.0822710622710623,1.212014652014652,2.5465201465201464
0.28520218199992087,0.0,0.16197802197802197,0.5987545787545787
0.2918783560016891,0.0,0.16197802197802197,0.5987545787545787
0.2952874510010588,0.190989010989011,0.6801465201465201,2.4272527472527474
0.29551933699985966,0.190989010989011,0.6801465201465201,2.4272527472527474
0.30194422600470716,0.190989010989011,0.6801465201465201,2.4272527472527474
0.3063134230033029,0.190989010989011,0.6801465201465201,2.4272527472527474
0.30902143500134116,0.03706959706959707,0.29655677655677654,2.561025641025641
0.3135166710053454,0.03706959706959707,0.29655677655677654,2.561025641025641
0.31383800500043435,1.1693040293040293,1.5343589743589743,2.565860805860806
0.319012873005704,1.1693040293040293,1.5343589743589743,2.565860805860806
0.32249815000250237,1.1693040293040293,1.5343589743589743,2.565860805860806
0.33098655300273094,0.00967032967032967,0.1821245421245421,3.3
0.33698691400059033,0.00967032967032967,0.1821245421245421,3.3
0.34162426900002174,0.6616117216117217,0.3771428571428571,2.5755311355311354
0.34199961600097595,0.6616117216117217,0.3771428571428571,2.5755311355311354
0.346004338003695,0.6616117216117217,0.3771428571428571,2.5755311355311354
0.349722915001621,0.6616117216117217,0.3771428571428571,2.5755311355311354
0.35557092100498267,0.6616117216117217,0.3771428571428571,2.5755311355311354
0.3558061260046088,0.6616117216117217,0.3771428571428571,2.5755311355311354
0.3614097640020191,0.6616117216117217,0.3771428571428571,2.5755311355311354
0.3616313680031453,0.6616117216117217,0.3771428571428571,2.5755311355311354
0.36746970700187376,0.6616117216117217,0.3771428571428571,2.5755311355311354
0.36761402300180634,0.0,0.19985347985347984,2.701245421245421
0.3736546630025259,0.0,0.19985347985347984,2.701245421245421
0.37932677800563397,0.0,0.19985347985347984,2.701245421245421
0.38462621600046987,0.0,0.14424908424908423,1.0967765567765566
0.38715990900527686,0.0,0.14424908424908423,1.0967765567765566
0.39651173400488915,0.0,0.14424908424908423,1.0967765567765566
0.40354612600640394,0.0,0.14424908424908423,1.0967765567765566
0.40983147700171685,0.0,0.14424908424908423,1.0967765567765566
0.4147174140016432,0.0,0.3465201465201465,3.3
0.4217856810064404,0.0,0.3465201465201465,3.3
0.4271421730009024,0.0,0.1418315018315018,1.1684981684981686
0.4275285090043326,0.0,0.1418315018315018,1.1684981684981686
0.4342670780024491,0.0,0.1418315018315018,1.1684981684981686
0.441562331005116,0.0,0.1418315018315018,1.1684981684981686
0.4467130300035933,0.008058608058608058,0.14586080586080585,3.3
0.4485137130031944,0.0,0.21999999999999997,3.3
0.45201831600570586,0.0,0.21999999999999997,3.3
0.4521599280051305,0.0,0.21999999999999997,3.3
0.4582785260063247,0.0,0.21999999999999997,3.3
0.4655769640012295,0.0,0.21999999999999997,3.3
0.47023029000411043,1.016996336996337,0.8848351648351648,3.0195604395604394
0.47716865600523306,1.016996336996337,0.8848351648351648,3.0195604395604394
0.4816577640012838,1.016996336996337,0.8848351648351648,3.0195604395604394
0.48268745899986243,1.016996336996337,0.8848351648351648,3.0195604395604394
0.4830027880016132,1.3659340659340657,1.4956776556776556,2.5465201465201464
0.48867128400161164,1.3659340659340657,1.4956776556776556,2.5465201465201464
0.48889051000151085,0.3811721611721612,0.3843956043956044,2.569084249084249
0.496173154002463,0.3811721611721612,0.3843956043956044,2.569084249084249
0.5001348510049866,1.1467399267399265,1.4658608058608058,2.5626373626373624
0.5038804480063845,1.1467399267399265,1.4658608058608058,2.5626373626373624
0.5105424310022499,1.1467399267399265,1.4658608058608058,2.5626373626373624
0.5149805080000078,1.1467399267399265,1.4658608058608058,2.5626373626373624
0.5152619350046734,1.1467399267399265,1.4658608058608058,2.5626373626373624
0.5207554730004631,1.1467399267399265,1.4658608058608058,2.5626373626373624
0.5217562079997151,0.2224175824175824,0.253040293040293,2.5521611721611723
0.5231696740011103,0.2224175824175824,0.253040293040293,2.5521611721611723
0.5315899170018383,0.2224175824175824,0.253040293040293,2.5521611721611723
0.5390840620020754,0.8389010989010988,0.6092307692307692,2.5755311355311354
0.5441301329992712,0.8389010989010988,0.6092307692307692,2.5755311355311354
0.5468718350020936,0.0,0.2063003663003663,3.3
0.5513442040028167,0.0,0.2063003663003663,3.3
0.552379695000127,1.062930402930403,0.6785347985347985,2.5787545787545785
0.5527171610010555,1.062930402930403,0.6785347985347985,2.5787545787545785
0.5609113130049082,1.062930402930403,0.6785347985347985,2.5787545787545785
0.5660022610027227,0.07575091575091575,0.18857142857142856,3.3
0.568825870002911,0.0,0.20227106227106226,3.3
0.5715757780053536,0.0,0.20227106227106226,3.3
0.5799998550064629,0.0,0.20227106227106226,3.3
0.5855124720037566,0.0,0.20227106227106226,3.3
0.5871169080055552,0.47706959706959706,0.6293772893772893,1.622197802197802
0.594302918005269,0.47706959706959706,0.6293772893772893,1.622197802197802
0.5980382670022664,0.47706959706959706,0.6293772893772893,1.622197802197802
0.6023224130040035,0.47706959706959706,0.6293772893772893,1.622197802197802
0.604851497002528,0.47706959706959706,0.6293772893772893,1.622197802197802
0.6130123780021677,0.47706959706959706,0.6293772893772893,1.622197802197802
0.6180950570051209,0.6882051282051282,0.5383150183150183,2.5747252747252745
0.6221709279998322,0.6882051282051282,0.5383150183150183,2.5747252747252745
0.6268660640052985,0.6882051282051282,0.5383150183150183,2.5747252747252745
0.6313644440015196,0.0,0.1829304029304029,2.9115750915750915
0.6316399530041963,0.0,0.1829304029304029,2.9115750915750915
0.6372346540010767,0.0,0.1829304029304029,2.9115750915750915
0.6375021780040697,0.0,0.1829304029304029,2.9115750915750915
0.6453296340041561,0.0,0.1829304029304029,2.9115750915750915
0.650017296000442,0.0,0.1829304029304029,2.9115750915750915
0.6502112560046953,0.0,0.1829304029304029,2.9115750915750915
0.6559623860011925,0.0,0.1829304029304029,2.9115750915750915
0.6562919870048063,0.0,0.1829304029304029,2.9115750915750915
0.6626800400044885,0.0,0.1829304029304029,2.9115750915750915
0.6668134510036907,0.0,0.1829304029304029,2.9115750915750915
0.6693201300004148,0.2506227106227106,0.28124542124542123,2.565860805860806
0.676881074999983,0.2506227106227106,0.28124542124542123,2.565860805860806
0.680556744999194,0.2506227106227106,0.28124542124542123,2.565860805860806
0.6863764520021505,0.2506227106227106,0.28124542124542123,2.565860805860806
0.6942224459999125,0.8187545787545787,0.5858608058608058,2.5795604395604395
0.6983140100055607,0.8187545787545787,0.5858608058608058,2.5795604395604395
0.7022212619995116,0.8187545787545787,0.5858608058608058,2.5795604395604395
0.7080931170057738,0.8187545787545787,0.5858608058608058,2.5795604395604395
0.7083334630005993,0.8187545787545787,0.5858608058608058,2.5795604395604395
0.7145140040011029,0.8187545787545787,0.5858608058608058,2.5795604395604395
0.7185097440014943,0.8187545787545787,0.5858608058608058,2.5795604395604395
0.7224601010020706,0.8187545787545787,0.5858608058608058,2.5795604395604395
0.7287816270036274,0.8187545787545787,0.5858608058608058,2.5795604395604395
0.7320730749997892,0.7615384615384615,0.5616849816849817,2.5787545787545785
0.7330556760061882,0.7615384615384615,0.5616849816849817,2.5787545787545785
0.7339990559994476,0.7615384615384615,0.5616849816849817,2.5787545787545785
0.7356049330046517,0.7615384615384615,0.5616849816849817,2.5787545787545785
0.7412717870029155,0.7615384615384615,0.5616849816849817,2.5787545787545785
0.7414763550041243,0.7615384615384615,0.5616849816849817,2.5787545787545785
0.7486745040005189,0.7615384615384615,0.5616849816849817,2.5787545787545785
0.7533067360054702,0.7615384615384615,0.5616849816849817,2.5787545787545785
0.7536153380060568,0.07978021978021978,0.5399267399267399,1.7688644688644688
0.7618590560014127,0.07978021978021978,0.5399267399267399,1.7688644688644688
0.7685806530062109,0.07978021978021978,0.5399267399267399,1.7688644688644688
0.7745900139998412,0.963003663003663,0.7147985347985348,2.573919413919414
0.7799786790055805,0.963003663003663,0.7147985347985348,2.573919413919414
0.7801094009992084,0.963003663003663,0.7147985347985348,2.573919413919414
0.7882816640048986,0.963003663003663,0.7147985347985348,2.573919413919414
0.7971178549996694,0.963003663003663,0.7147985347985348,2.573919413919414
0.8027294240018819,0.9194871794871795,0.5350915750915751,2.5787545787545785
0.8029302110007848,0.9194871794871795,0.5350915750915751,2.5787545787545785
0.8095085660024779,0.9194871794871795,0.5350915750915751,2.5787545787545785
0.8131444070022553,0.9009523809523808,0.6471062271062271,2.5747252747252745
0.8179187720015761,0.9009523809523808,0.6471062271062271,2.5747252747252745
0.8180279360021814,0.9009523809523808,0.6471062271062271,2.5747252747252745
0.8228704050052329,0.9009523809523808,0.6471062271062271,2.5747252747252745
0.823140198001056,0.9009523809523808,0.6471062271062271,2.5747252747252745
0.8298546210062341,0.028205128205128206,0.2836630036630036,2.561831501831502
0.8344199040002422,0.028205128205128206,0.2836630036630036,2.561831501831502
0.8347737040021457,0.028205128205128206,0.2836630036630036,2.561831501831502
0.8416785860026721,0.028205128205128206,0.2836630036630036,2.561831501831502
0.8452491970019764,0.028205128205128206,0.2836630036630036,2.561831501831502
0.8453661830062629,0.028205128205128206,0.2836630036630036,2.561831501831502
0.8524498490005499,0.028205128205128206,0.2836630036630036,2.561831501831502
0.8587592360054259,0.028205128205128206,0.2836630036630036,2.561831501831502
0.8639233590001822,0.10556776556776555,0.166007326007326,3.3
0.8660832830064464,0.10556776556776555,0.166007326007326,3.3
0.8670772860059515,0.10556776556776555,0.166007326007326,3.3
0.8674644050042843,0.10556776556776555,0.166007326007326,3.3
0.8743557820052956,0.10556776556776555,0.166007326007326,3.3
0.8783009969993145,0.10556776556776555,0.166007326007326,3.3
0.8833315640004002,0.10556776556776555,0.166007326007326,3.3
0.888610605004942,0.08058608058608058,0.15956043956043955,2.54974358974359
0.8910070790007012,0.8848351648351648,0.6132600732600733,2.5755311355311354
0.8980506690058974,0.8848351648351648,0.6132600732600733,2.5755311355311354
0.9032454400003189,0.2063003663003663,0.1829304029304029,2.5602197802197804
0.9065184960054467,0.2063003663003663,0.1829304029304029,2.5602197802197804
0.9076858660046128,0.2063003663003663,0.1829304029304029,2.5602197802197804
0.9079295030023786,0.2063003663003663,0.1829304029304029,2.5602197802197804
0.9183357790025184,0.2063003663003663,0.1829304029304029,2.5602197802197804
0.9282528950061533,0.22644688644688646,0.15956043956043955,2.5755311355311354
0.9362073100055568,0.025787545787545788,0.12168498168498168,3.3
0.944615052001609,0.9807326007326007,0.5915018315018314,2.5755311355311354
0.9489371230010875,1.1467399267399265,0.921098901098901,2.9953846153846153
0.9506199960014783,1.1467399267399265,0.921098901098901,2.9953846153846153
0.9546067030023551,1.1467399267399265,0.921098901098901,2.9953846153846153
0.9589561530010542,1.1467399267399265,0.921098901098901,2.9953846153846153
0.9591700510063674,1.1467399267399265,0.921098901098901,2.9953846153846153
0.9652206940008909,1.1467399267399265,0.921098901098901,2.9953846153846153
0.9726259520029998,1.1467399267399265,0.921098901098901,2.9953846153846153
0.9807479360024445,1.1402930402930402,0.7397802197802198,2.5787545787545785
0.9860319270010223,1.1402930402930402,0.7397802197802198,2.5787545787545785
0.9886662940043607,1.1402930402930402,0.7397802197802198,2.5787545787545785
0.9958332820024225,0.42468864468864465,0.4029304029304029,2.573919413919414
0.9998965350023354,0.3771428571428571,0.3021978021978022,2.5787545787545785
1.0022872000045027,0.3771428571428571,0.3021978021978022,2.5787545787545785
1.0024996499996632,0.3771428571428571,0.3021978021978022,2.5787545787545785
1.0107064000039827,0.3771428571428571,0.3021978021978022,2.5787545787545785
1.0167161589997704,0.6664468864468864,0.6132600732600733,2.577948717948718
1.0206558350037085,0.6664468864468864,0.6132600732600733,2.577948717948718
1.027770808999776,0.6664468864468864,0.6132600732600733,2.577948717948718
1.0317921259993454,0.6664468864468864,0.6132600732600733,2.577948717948718
1.0350739890054683,0.6664468864468864,0.6132600732600733,2.577948717948718
1.0360673110044445,0.6664468864468864,0.6132600732600733,2.577948717948718
1.036891078001645,0.6664468864468864,0.6132600732600733,2.577948717948718
1.0386641980003333,0.6664468864468864,0.6132600732600733,2.577948717948718
1.0429103679998661,0.6664468864468864,0.6132600732600733,2.577948717948718
1.0450029220010038,1.4868131868131869,1.332087912087912,3.3
1.0459270179999294,1.4868131868131869,1.332087912087912,3.3
1.0468702310026856,1.4868131868131869,1.332087912087912,3.3
1.0478671270029736,1.4868131868131869,1.332087912087912,3.3
1.0488733090023743,1.4868131868131869,1.332087912087912,3.3
1.0498117470051511,1.4868131868131869,1.332087912087912,3.3
1.0514686880051158,1.4868131868131869,1.332087912087912,3.3
1.054630487000395,1.4868131868131869,1.332087912087912,3.3
1.0564087530001416,1.4868131868131869,1.332087912087912,3.3
1.0617905120016076,1.4868131868131869,1.332087912087912,3.3
1.067366301002039,1.4868131868131869,1.332087912087912,3.3
1.068261751002865,1.4868131868131869,1.332087912087912,3.3
1.06929704000504,1.4868131868131869,1.332087912087912,3.3
1.0701850700061186,1.4868131868131869,1.332087912087912,3.3
1.0719638880036655,1.4868131868131869,1.332087912087912,3.3
1.0761660560019664,1.4868131868131869,1.332087912087912,3.3
1.0774986850010464,0.796996336996337,0.5375091575091575,2.573919413919414
1.0834749390051002,0.796996336996337,0.5375091575091575,2.573919413919414
1.0889905240037479,0.796996336996337,0.5375091575091575,2.573919413919414
1.091296359001717,0.796996336996337,0.5375091575091575,2.573919413919414
1.0914898210030515,0.796996336996337,0.5375091575091575,2.573919413919414
1.0971878740019747,0.796996336996337,0.5375091575091575,2.573919413919414
1.0973471260003862,0.796996336996337,0.5375091575091575,2.573919413919414
1.1046591210033512,0.796996336996337,0.5375091575091575,2.573919413919414
1.110721677003312,0.796996336996337,0.5375091575091575,2.573919413919414
1.1145362250026665,0.70996336996337,0.6237362637362637,2.573919413919414
1.1191355050032143,0.70996336996337,0.6237362637362637,2.573919413919414
1.1194488640030613,0.70996336996337,0.6237362637362637,2.573919413919414
1.1247261880052974,0.70996336996337,0.6237362637362637,2.573919413919414
1.1272681610062136,0.007252747252747252,0.28124542124542123,2.5626373626373624
1.1328734690032434,0.007252747252747252,0.28124542124542123,2.5626373626373624
1.1344828799992683,0.007252747252747252,0.28124542124542123,2.5626373626373624
1.13828856600594,0.007252747252747252,0.28124542124542123,2.5626373626373624
1.1429112260011607,0.007252747252747252,0.28124542124542123,2.5626373626373624
1.143121790002624,0.007252747252747252,0.28124542124542123,2.5626373626373624
1.148971889000677,0.007252747252747252,0.28124542124542123,2.5626373626373624
1.1491014950006502,0.007252747252747252,0.28124542124542123,2.5626373626373624
1.1546201560049667,0.0,0.4029304029304029,2.5626373626373624
1.1562084940014756,0.8759706959706959,0.6374358974358975,2.5755311355311354
1.1600074950038106,0.8759706959706959,0.6374358974358975,2.5755311355311354
1.1659056940043229,0.8759706959706959,0.6374358974358975,2.5755311355311354
1.1757231850060634,0.8759706959706959,0.6374358974358975,2.5755311355311354
1.1836005530058173,0.8759706959706959,0.6374358974358975,2.5755311355311354
1.1917627729999367,0.8759706959706959,0.6374358974358975,2.5755311355311354
1.197277135004697,0.8759706959706959,0.6374358974358975,2.5755311355311354
1.1975908189997426,0.8759706959706959,0.6374358974358975,2.5755311355311354
1.2027083760040114,0.8759706959706959,0.6374358974358975,2.5755311355311354
1.2062188020063331,0.8759706959706959,0.6374358974358975,2.5755311355311354
1.2063659800041933,0.8759706959706959,0.6374358974358975,2.5755311355311354
1.2123036449993378,0.8759706959706959,0.6374358974358975,2.5755311355311354
1.2174236400023801,0.8759706959706959,0.6374358974358975,2.5755311355311354
1.2210304390027886,0.3424908424908425,0.27238095238095233,2.5787545787545785
1.2212470670056064,0.3424908424908425,0.27238095238095233,2.5787545787545785
1.2262194260038086,0.3424908424908425,0.27238095238095233,2.5787545787545785
1.2309935910016065,0.3424908424908425,0.27238095238095233,2.5787545787545785
1.2369375370035414,0.3424908424908425,0.27238095238095233,2.5787545787545785
1.2371033540039207,0.3424908424908425,0.27238095238095233,2.5787545787545785
1.2433537310062093,0.3424908424908425,0.27238095238095233,2.5787545787545785
1.2477887410059338,1.278901098901099,1.4972893772893772,2.5481318681318683
1.2487890830016113,1.278901098901099,1.4972893772893772,2.5481318681318683
1.2497359610060812,1.278901098901099,1.4972893772893772,2.5481318681318683
1.2506604910013266,1.278901098901099,1.4972893772893772,2.5481318681318683
1.2515716270063422,0.045128205128205125,0.5455677655677655,1.863150183150183
1.25338326900237,0.045128205128205125,0.5455677655677655,1.863150183150183
1.2559251740021864,0.7695970695970695,0.5592673992673992,2.5787545787545785
1.2618084290006664,0.7695970695970695,0.5592673992673992,2.5787545787545785
1.2672913090063957,0.0,0.13941391941391942,3.3
1.268877792004787,0.0,0.13941391941391942,3.3
1.2733475040004123,0.0,0.13941391941391942,3.3
1.27420801500557,0.0,0.13941391941391942,3.3
1.275785388002987,0.0,0.13941391941391942,3.3
1.2802802110018092,0.0,0.13941391941391942,3.3
1.28115522400185,0.0,0.14827838827838827,1.315970695970696
1.2827377240028,0.0,0.14827838827838827,1.315970695970696
1.2865709680045256,0.0,0.14827838827838827,1.315970695970696
1.2907316540004103,0.0,0.14827838827838827,1.315970695970696
1.2929335680018994,0.0,0.14827838827838827,1.315970695970696
1.2937653310000314,0.0,0.14827838827838827,1.315970695970696
1.2959714810058358,0.0,0.14827838827838827,1.315970695970696
1.296774288006418,0.4891575091575091,0.332014652014652,2.5763369963369964
1.2989551780046895,0.4891575091575091,0.332014652014652,2.5763369963369964
1.2997213790004025,0.4891575091575091,0.332014652014652,2.5763369963369964
1.301905110005464,0.4891575091575091,0.332014652014652,2.5763369963369964
1.3027295210049488,0.4891575091575091,0.332014652014652,2.5763369963369964
1.3042453240050236,0.4891575091575091,0.332014652014652,2.5763369963369964
1.3085592280040146,0.4891575091575091,0.332014652014652,2.5763369963369964
1.3113696930013248,0.4891575091575091,0.332014652014652,2.5763369963369964
1.3142429860017728,0.4891575091575091,0.332014652014652,2.5763369963369964
1.317869538004743,1.0798534798534798,1.4013919413919413,2.56989010989011
1.3179810430010548,1.0798534798534798,1.4013919413919413,2.56989010989011
1.3228282470008708,1.0798534798534798,1.4013919413919413,2.56989010989011
1.3278094440029236,1.0798534798534798,1.4013919413919413,2.56989010989011
1.3329281090045697,0.0,0.1805128205128205,2.689157509157509
1.3369524580048164,0.0,0.1805128205128205,2.689157509157509
1.340538546006428,0.0,0.1805128205128205,2.689157509157509
1.3407562990032602,0.09509157509157509,0.21274725274725276,2.557802197802198
1.3450083960051415,0.09509157509157509,0.21274725274725276,2.557802197802198
1.3472453840004164,0.09509157509157509,0.21274725274725276,2.557802197802198
1.3481477300010738,0.09509157509157509,0.21274725274725276,2.557802197802198
1.3496582110019517,0.09509157509157509,0.21274725274725276,2.557802197802198
1.3538582200053497,0.09509157509157509,0.21274725274725276,2.557802197802198
1.3568080270051723,1.2305494505494505,1.5206593406593405,2.5674725274725274
1.3597395720062195,1.2305494505494505,1.5206593406593405,2.5674725274725274
1.3632442800007993,1.2305494505494505,1.5206593406593405,2.5674725274725274
1.3683990400022594,1.2305494505494505,1.5206593406593405,2.5674725274725274
1.3725462850052281,1.2305494505494505,1.5206593406593405,2.5674725274725274
1.3749082620051922,1.2305494505494505,1.5206593406593405,2.5674725274725274
1.3750924170017242,1.2305494505494505,1.5206593406593405,2.5674725274725274
1.3796643750029034,1.2305494505494505,1.5206593406593405,2.5674725274725274
1.3805704670012346,1.2305494505494505,1.5206593406593405,2.5674725274725274
1.3825656730041374,0.0,0.1418315018315018,2.9865201465201463
1.384278916004405,0.0,0.1418315018315018,2.9865201465201463
1.387531806001789,0.0,0.1418315018315018,2.9865201465201463
1.3884194610000122,0.0,0.1418315018315018,2.9865201465201463
1.3903381180061842,0.0,0.1418315018315018,2.9865201465201463
1.3921680800049216,0.0,0.1418315018315018,2.9865201465201463
1.3954217520004022,0.0,0.1418315018315018,2.9865201465201463
1.3962630290043307,0.0,0.1418315018315018,2.9865201465201463
1.3979778659995645,0.0,0.1418315018315018,2.9865201465201463
1.4022314610047033,0.0,0.1418315018315018,2.9865201465201463
1.4039970610028831,0.0,0.12249084249084248,3.1694505494505494
1.4072613710013684,0.0,0.12249084249084248,3.1694505494505494
1.4081964610013529,0.0,0.12249084249084248,3.1694505494505494
1.409165873999882,0.0,0.12249084249084248,3.1694505494505494
1.4101835600013146,0.0,0.12249084249084248,3.1694505494505494
1.4112415060008061,0.0,0.12249084249084248,3.1694505494505494
1.4116238030037493,0.0,0.12249084249084248,3.1694505494505494
1.4205257180001354,0.0,0.12249084249084248,3.1694505494505494
1.4260066040005768,0.0,0.12249084249084248,3.1694505494505494
1.427472226001555,0.0,0.12249084249084248,3.1694505494505494
1.432615784004156,0.0,0.12249084249084248,3.1694505494505494
1.4361434260063106,0.0,0.12249084249084248,3.1694505494505494
1.4363187840062892,0.0,0.12249084249084248,3.1694505494505494
1.4445476410037372,0.0,0.12249084249084248,3.1694505494505494
1.4484422410023399,0.0,0.12249084249084248,3.1694505494505494
1.4530268980015535,0.0,0.16197802197802197,1.755164835164835
1.4532435330038425,0.0,0.16197802197802197,1.755164835164835
1.4613716380044934,0.0,0.16197802197802197,1.755164835164835
1.4662127880001208,0.04996336996336996,0.16117216117216115,2.5465201465201464
1.466307754002628,0.04996336996336996,0.16117216117216115,2.5465201465201464
1.4719143719994463,0.04996336996336996,0.16117216117216115,2.5465201465201464
1.4748839870007941,0.04996336996336996,0.16117216117216115,2.5465201465201464
1.4769673820046592,0.8018315018315018,0.5673260073260072,2.5787545787545785
1.4779187870008172,0.8018315018315018,0.5673260073260072,2.5787545787545785
1.479488577999291,0.8018315018315018,0.5673260073260072,2.5787545787545785
1.4836530790053075,0.8018315018315018,0.5673260073260072,2.5787545787545785
1.4862673600000562,0.8018315018315018,0.5673260073260072,2.5787545787545785
1.4917588550015353,0.8018315018315018,0.5673260073260072,2.5787545787545785
1.4926129820014467,0.8018315018315018,0.5673260073260072,2.5787545787545785
1.4943357310039573,0.8018315018315018,0.5673260073260072,2.5787545787545785
1.4981605670036515,0.8018315018315018,0.5673260073260072,2.5787545787545785
1.502825040006428,0.8018315018315018,0.5673260073260072,2.5787545787545785
1.5031111600037548,0.8018315018315018,0.5673260073260072,2.5787545787545785
1.5097083180007758,0.8018315018315018,0.5673260073260072,2.5787545787545785
1.5141030340018915,0.42952380952380953,0.40937728937728934,2.5787545787545785
1.515179263005848,0.42952380952380953,0.40937728937728934,2.5787545787545785
1.5155290070033516,0.42952380952380953,0.40937728937728934,2.5787545787545785
1.5207932900011656,0.42952380952380953,0.40937728937728934,2.5787545787545785
1.525232436004444,0.42952380952380953,0.40937728937728934,2.5787545787545785
1.5254215330060106,0.0008058608058608059,0.25545787545787546,2.5553846153846154
1.531779914002982,0.0008058608058608059,0.25545787545787546,2.5553846153846154
1.535948497003119,0.0008058608058608059,0.25545787545787546,2.5553846153846154
1.537668233999284,0.0008058608058608059,0.25545787545787546,2.5553846153846154
1.5441494560000137,0.0008058608058608059,0.25545787545787546,2.5553846153846154
1.5500185390046681,0.0008058608058608059,0.25545787545787546,2.5553846153846154
1.5573419330030447,0.0008058608058608059,0.25545787545787546,2.5553846153846154
1.562772543002211,1.1467399267399265,1.3989743589743588,2.569084249084249
1.564383461001853,1.1467399267399265,1.3989743589743588,2.569084249084249
1.5696337280023727,1.1467399267399265,1.3989743589743588,2.569084249084249
1.5699671370020951,0.004029304029304029,0.4383882783882784,2.5666666666666664
1.578764035999484,0.004029304029304029,0.4383882783882784,2.5666666666666664
1.5863372349995188,1.1016117216117214,1.282930402930403,2.5674725274725274
1.5931178570026532,1.1016117216117214,1.282930402930403,2.5674725274725274
1.5971957200017641,0.0,0.33684981684981685,3.3
1.6005760330008343,0.0,0.33684981684981685,3.3
1.6008471570021356,0.0,0.1265201465201465,2.440952380952381
1.6081851460039616,0.0,0.1265201465201465,2.440952380952381
1.6124975560014718,0.0,0.1265201465201465,2.440952380952381
1.6142261540007894,0.0,0.1265201465201465,2.440952380952381
1.617064616002608,0.805054945054945,0.6172893772893773,2.577948717948718
1.620494974005851,0.0,0.13377289377289378,2.5787545787545785
1.620800455006247,0.0,0.1523076923076923,3.3
1.6271353280026233,0.0,0.1523076923076923,3.3
1.6330863990006037,0.0,0.17164835164835165,1.8293040293040292
1.6405225630005589,0.0,0.17164835164835165,1.8293040293040292
1.6454872540052747,0.5455677655677655,0.527032967032967,2.5787545787545785
1.6513032220027526,0.5455677655677655,0.527032967032967,2.5787545787545785
1.6596207300026435,0.5455677655677655,0.527032967032967,2.5787545787545785
1.664443180001399,0.5455677655677655,0.527032967032967,2.5787545787545785
1.664639487004024,0.14102564102564102,0.2796336996336996,2.4989743589743587
1.6709624659997644,0.14102564102564102,0.2796336996336996,2.4989743589743587
1.6753882730045007,0.0,0.1821245421245421,1.8357509157509158
1.6763970720057841,0.0,0.1821245421245421,1.8357509157509158
1.677359465000336,0.0,0.1821245421245421,1.8357509157509158
1.678270248004992,0.0,0.1821245421245421,1.8357509157509158
1.6802071890051593,0.0,0.12974358974358974,0.747032967032967
1.6817865550037823,0.0,0.12974358974358974,0.747032967032967
1.6871144489996368,0.0,0.12974358974358974,0.747032967032967
1.688661910004157,0.0,0.12974358974358974,0.747032967032967
1.6924798309992184,0.0,0.12974358974358974,0.747032967032967
1.6970133270006045,0.0,0.12974358974358974,0.747032967032967
1.6972448279993841,0.0,0.12974358974358974,0.747032967032967
1.7024845400010236,0.0,0.12974358974358974,0.747032967032967
1.7062296270014485,0.5109157509157509,0.6841758241758242,1.9824175824175823
1.7108059540041722,0.0,0.22564102564102564,2.755238095238095
1.7116245979996165,0.0,0.22564102564102564,2.755238095238095
1.7132758400039165,0.0,0.22564102564102564,2.755238095238095
1.717707223004254,0.0,0.22564102564102564,2.755238095238095
1.718515558000945,0.0,0.22564102564102564,2.755238095238095
1.7207729220026522,0.0,0.22564102564102564,2.755238095238095
1.7210380390024511,0.0,0.22564102564102564,2.755238095238095
1.726210324006388,0.0,0.22564102564102564,2.755238095238095
1.7298935409999103,0.0,0.22564102564102564,2.755238095238095
1.735168937004346,0.755091575091575,0.6406593406593406,2.5787545787545785
1.7374424530062242,0.7728205128205128,0.5286446886446886,2.5755311355311354
1.7376696700011962,0.7728205128205128,0.5286446886446886,2.5755311355311354
1.742890374000126,0.7728205128205128,0.5286446886446886,2.5755311355311354
1.7467712330035283,0.014505494505494505,0.28124542124542123,2.561025641025641
1.7516198350058403,0.0,0.190989010989011,2.694798534798535
1.757219282000733,0.20227106227106226,0.43113553113553116,2.5755311355311354
1.7575747560040327,0.7897435897435897,0.5093040293040293,2.5787545787545785
1.7622371300021769,0.7897435897435897,0.5093040293040293,2.5787545787545785
1.7624472099996638,0.7897435897435897,0.5093040293040293,2.5787545787545785
1.76824344900524,0.7897435897435897,0.5093040293040293,2.5787545787545785
1.7743818550006836,0.7897435897435897,0.5093040293040293,2.5787545787545785
1.7777243110031122,0.5221978021978021,0.9484981684981684,2.5481318681318683
1.7786057780031115,0.5221978021978021,0.9484981684981684,2.5481318681318683
1.7802616670014686,0.5221978021978021,0.9484981684981684,2.5481318681318683
1.783822630000941,0.5221978021978021,0.9484981684981684,2.5481318681318683
1.7840199790007318,0.5221978021978021,0.9484981684981684,2.5481318681318683
1.7888659500022186,0.5221978021978021,0.9484981684981684,2.5481318681318683
1.793980039001326,0.5221978021978021,0.9484981684981684,2.5481318681318683
1.7974297180044232,0.904981684981685,0.6583882783882784,2.5763369963369964
1.7976207230021828,0.0,0.1813186813186813,1.838974358974359
1.8021577920007985,0.0,0.1813186813186813,1.838974358974359
1.8030659130017739,0.0,0.1813186813186813,1.838974358974359
1.8039685930052656,0.0,0.1813186813186813,1.838974358974359
1.8056680110021261,0.0,0.2594871794871795,2.5505494505494504
1.809621808999509,0.0,0.2594871794871795,2.5505494505494504
1.813685434004583,0.0,0.2594871794871795,2.5505494505494504
1.8170193800033303,0.0,0.2594871794871795,2.5505494505494504
1.8172735670013935,0.0,0.2594871794871795,2.5505494505494504
1.823121761000948,0.0,0.2594871794871795,2.5505494505494504
1.8288057160025346,0.0,0.2594871794871795,2.5505494505494504
1.8298497700016014,0.0,0.16358974358974357,3.3
1.8301045970001724,0.0,0.16358974358974357,3.3
1.8357949760029442,0.0,0.16358974358974357,3.3
1.836022742005298,0.0,0.16358974358974357,3.3
1.8417662659994676,0.0,0.16358974358974357,3.3
1.8419904969996423,0.0,0.1555311355311355,1.0476190476190474
1.84721940500458,0.0,0.1555311355311355,1.0476190476190474
1.850549195005442,0.0,0.1555311355311355,1.0476190476190474
1.8507890550026787,0.0,0.1555311355311355,1.0476190476190474
1.8567526710030506,0.0,0.1555311355311355,1.0476190476190474
1.862842990005447,0.0,0.1555311355311355,1.0476190476190474
1.8671228180028265,0.0,0.1555311355311355,1.0476190476190474
1.8679601570038358,0.0,0.1555311355311355,1.0476190476190474
1.8696966330026044,0.0,0.1555311355311355,1.0476190476190474
1.8738529559996095,0.0,0.1555311355311355,1.0476190476190474
1.875535402999958,0.8437362637362636,0.6978754578754578,2.5787545787545785
1.8799028050052584,0.8437362637362636,0.6978754578754578,2.5787545787545785
1.8801649490051204,0.8437362637362636,0.6978754578754578,2.5787545787545785
1.8850684150020243,0.8437362637362636,0.6978754578754578,2.5787545787545785
1.890533754005446,0.0,0.17164835164835165,2.8237362637362633
1.8921566760036512,0.7631501831501831,0.6229304029304029,2.5763369963369964
1.8962691250053467,1.2797069597069597,1.4956776556776556,2.5682783882783884
1.8994306420063367,0.8066666666666666,0.5141391941391941,2.5787545787545785
1.9009888870059513,0.8066666666666666,0.5141391941391941,2.5787545787545785
1.9056912460000603,0.8066666666666666,0.5141391941391941,2.5787545787545785
1.9058266150022973,0.06769230769230769,0.2635164835164835,2.8414652014652013
1.9114513180029462,0.06769230769230769,0.2635164835164835,2.8414652014652013
1.9123164980046568,0.06769230769230769,0.2635164835164835,2.8414652014652013
1.913968819004367,0.06769230769230769,0.2635164835164835,2.8414652014652013
1.918729714001529,0.8243956043956043,0.6326007326007326,2.581172161172161
1.924415179004427,0.8243956043956043,0.6326007326007326,2.581172161172161
1.9246536390055553,0.8243956043956043,0.6326007326007326,2.581172161172161
1.92939213700447,0.8243956043956043,0.6326007326007326,2.581172161172161
1.9296052060017246,0.8243956043956043,0.6326007326007326,2.581172161172161
1.934479920004378,0.8243956043956043,0.6326007326007326,2.581172161172161
1.9391752120063757,0.8243956043956043,0.6326007326007326,2.581172161172161
1.9450067600046168,0.8243956043956043,0.6326007326007326,2.581172161172161
1.9451208020036574,0.8243956043956043,0.6326007326007326,2.581172161172161
1.949904521003191,0.8243956043956043,0.6326007326007326,2.581172161172161
1.9500370410023606,0.8243956043956043,0.6326007326007326,2.581172161172161
1.9548087690054672,0.0,0.33926739926739924,3.3
1.9550125730020227,1.1435164835164835,1.3643223443223442,2.56989010989011
1.9600415400054771,1.1435164835164835,1.3643223443223442,2.56989010989011
1.9646064690023195,0.0,0.12893772893772892,0.6301831501831501
1.9648401740050758,0.0,0.12893772893772892,0.6301831501831501
1.970716222000192,0.0,0.12893772893772892,0.6301831501831501
1.977814693003893,0.0,0.12893772893772892,0.6301831501831501
1.9824961930062273,0.0,0.12893772893772892,0.6301831501831501
1.9827117680033552,1.5617582417582416,1.4376556776556777,3.3
1.9906924950046232,1.5617582417582416,1.4376556776556777,3.3
1.9965566790051525,1.5617582417582416,1.4376556776556777,3.3
2.0012466740008676,1.5617582417582416,1.4376556776556777,3.3
2.0083922800040455,1.5617582417582416,1.4376556776556777,3.3
2.012058710002748,1.5617582417582416,1.4376556776556777,3.3
2.0178024570050184,1.5617582417582416,1.4376556776556777,3.3
2.0249353160033934,0.38036630036630037,0.3078388278388278,2.5787545787545785
2.0299993680018815,0.38036630036630037,0.3078388278388278,2.5787545787545785
2.0336095790044055,0.38036630036630037,0.3078388278388278,2.5787545787545785
2.0400106410015724,0.38036630036630037,0.3078388278388278,2.5787545787545785
2.0438377669997863,0.19743589743589743,0.24659340659340656,3.3
2.0479517429994303,0.19743589743589743,0.24659340659340656,3.3
2.052570085004845,0.0,0.16197802197802197,1.49003663003663
2.0580187380037387,0.0,0.16197802197802197,1.49003663003663
2.058916264999425,0.0,0.16197802197802197,1.49003663003663
2.060461901004601,0.0,0.16197802197802197,1.49003663003663
2.064958517003106,0.0,0.16197802197802197,1.49003663003663
2.0658398380037397,0.0,0.16197802197802197,1.49003663003663
2.0675698250051937,0.0,0.16197802197802197,1.49003663003663
2.070864214001631,0.0,0.16197802197802197,1.49003663003663
2.0721832950002863,0.0,0.448058608058608,2.5561904761904763
2.0785852520057233,0.0,0.448058608058608,2.5561904761904763
2.082306000003882,0.0,0.448058608058608,2.5561904761904763
2.086813121000887,0.0,0.448058608058608,2.5561904761904763
2.0877224480063887,0.8058608058608058,0.6873992673992674,2.5747252747252745
2.088732191004965,0.8058608058608058,0.6873992673992674,2.5747252747252745
2.091114856004424,0.8058608058608058,0.6873992673992674,2.5747252747252745
2.096600381002645,0.8058608058608058,0.6873992673992674,2.5747252747252745
2.097452518006321,0.7035164835164834,0.48432234432234433,2.5803663003663004
2.0994128370002727,0.7035164835164834,0.48432234432234433,2.5803663003663004
2.1014328570017824,0.07897435897435898,0.18615384615384614,2.544908424908425
2.10334628700366,0.07897435897435898,0.18615384615384614,2.544908424908425
2.1059105880049174,1.108058608058608,1.2652014652014651,2.5465201465201464
2.1110263760056114,1.108058608058608,1.2652014652014651,2.5465201465201464
2.113947632002237,1.108058608058608,1.2652014652014651,2.5465201465201464
2.116848713005311,1.108058608058608,1.2652014652014651,2.5465201465201464
2.119745726005931,1.108058608058608,1.2652014652014651,2.5465201465201464
2.1234987230054685,0.0,0.16358974358974357,2.8664468864468864
2.129132166002819,0.0,0.16358974358974357,2.8664468864468864
2.1295024450009805,0.4085714285714286,0.5197802197802197,2.577142857142857
2.134525746005238,0.4085714285714286,0.5197802197802197,2.577142857142857
2.1386792070043157,0.4085714285714286,0.5197802197802197,2.577142857142857
2.1412345260032453,0.4085714285714286,0.5197802197802197,2.577142857142857
2.1463087240044842,0.4085714285714286,0.5197802197802197,2.577142857142857
2.149690558006114,0.0,0.17245421245421244,3.3
2.1498648260021582,0.0,0.17245421245421244,3.3
2.155448258999968,0.0,0.17245421245421244,3.3
2.1562804380009766,1.1394871794871795,1.5287179487179487,2.56989010989011
2.157907847002207,1.1394871794871795,1.5287179487179487,2.56989010989011
2.1619867520057596,1.1394871794871795,1.5287179487179487,2.56989010989011
2.165101835002133,1.1394871794871795,1.5287179487179487,2.56989010989011
2.166848619999655,1.1394871794871795,1.5287179487179487,2.56989010989011
2.16990200500004,1.1394871794871795,1.5287179487179487,2.56989010989011
2.1723354600035236,1.1394871794871795,1.5287179487179487,2.56989010989011
2.172538743005134,1.1394871794871795,1.5287179487179487,2.56989010989011
2.1769916490011383,1.1394871794871795,1.5287179487179487,2.56989010989011
2.1778870850030216,1.1394871794871795,1.5287179487179487,2.56989010989011
2.1795307760039577,1.1394871794871795,1.5287179487179487,2.56989010989011
2.1837329879999743,1.1394871794871795,1.5287179487179487,2.56989010989011
2.1854852920005214,1.1394871794871795,1.5287179487179487,2.56989010989011
2.18890165600169,1.1394871794871795,1.5287179487179487,2.56989010989011
2.1890479499998037,1.1394871794871795,1.5287179487179487,2.56989010989011
2.193945762999647,1.1394871794871795,1.5287179487179487,2.56989010989011
2.1987410050060134,1.1394871794871795,1.5287179487179487,2.56989010989011
2.198938004003139,1.1394871794871795,1.5287179487179487,2.56989010989011
2.203918812003394,1.1394871794871795,1.5287179487179487,2.56989010989011
2.208945707003295,0.010476190476190476,0.27399267399267396,2.561025641025641
2.2124795020063175,0.0,0.19663003663003664,1.9413186813186813
2.2126981930050533,0.0,0.19663003663003664,1.9413186813186813
2.217813641000248,0.0,0.19663003663003664,1.9413186813186813
2.222077005004394,0.0,0.19663003663003664,1.9413186813186813
2.2236281460063765,0.004835164835164835,0.16842490842490843,3.3
2.228201183999772,0.004835164835164835,0.16842490842490843,3.3
2.2284536990046035,0.004835164835164835,0.16842490842490843,3.3
2.233295789003023,0.004835164835164835,0.16842490842490843,3.3
2.238356843001384,0.801025641025641,0.5778021978021978,2.577948717948718
2.2437099189992296,0.801025641025641,0.5778021978021978,2.577948717948718
2.245474514005764,0.0,0.19340659340659339,3.3
2.2495919770008186,0.0,0.19340659340659339,3.3
2.2511888299995917,0.0,0.19340659340659339,3.3
2.2554518840042874,0.0,0.19340659340659339,3.3
2.2580184820035356,0.6616117216117217,1.0661538461538462,2.5626373626373624
2.2630263829996693,0.1652014652014652,0.1805128205128205,2.5715018315018314
2.2671326190029504,0.1652014652014652,0.1805128205128205,2.5715018315018314
2.2704007270003785,0.1652014652014652,0.1805128205128205,2.5715018315018314
2.2712673490023008,0.1652014652014652,0.1805128205128205,2.5715018315018314
2.2729120190051617,0.1652014652014652,0.1805128205128205,2.5715018315018314
2.276777006001794,0.1652014652014652,0.1805128205128205,2.5715018315018314
2.2806122550027794,0.6519413919413919,0.3892307692307692,2.5747252747252745
2.286344092004583,0.6519413919413919,0.3892307692307692,2.5747252747252745
2.286499296002148,0.6519413919413919,0.3892307692307692,2.5747252747252745
2.2913184580029338,0.6519413919413919,0.3892307692307692,2.5747252747252745
2.2914922350028064,0.6519413919413919,0.3892307692307692,2.5747252747252745
2.296364693000214,0.6519413919413919,0.3892307692307692,2.5747252747252745
2.296490651999193,0.6519413919413919,0.3892307692307692,2.5747252747252745
2.301375180002651,0.6519413919413919,0.3892307692307692,2.5747252747252745
2.3062483620014973,1.1676923076923076,1.24021978021978,2.5473260073260073
2.311833096006012,0.0,0.21032967032967032,3.3
2.3136431940001785,0.0,0.21032967032967032,3.3
2.3160044590040343,0.0,0.21032967032967032,3.3
2.316212721001648,0.0,0.21032967032967032,3.3
2.3216286040042178,0.23208791208791207,0.253040293040293,2.5594139194139194
2.3241592370031867,0.7849084249084248,0.8872527472527472,2.5441025641025643
2.3297408090002136,0.7849084249084248,0.8872527472527472,2.5441025641025643
2.330615350001608,0.0,0.36666666666666664,3.3
2.3323500040060026,0.0,0.36666666666666664,3.3
2.3366626920033013,0.0,0.36666666666666664,3.3
2.3375916100048926,0.0,0.36666666666666664,3.3
2.3394576140053687,0.0,0.36666666666666664,3.3
2.34138418600196,0.0,0.36666666666666664,3.3
2.343985261999478,0.0,0.36666666666666664,3.3
2.348683839001751,0.0,0.36666666666666664,3.3
2.348977563000517,0.0,0.36666666666666664,3.3
2.354164356002002,0.0,0.36666666666666664,3.3
2.3567767040003673,0.0,0.36666666666666664,3.3
2.3629192220032564,0.0,0.36666666666666664,3.3
2.3669399450009223,0.0,0.36666666666666664,3.3
2.3709573700034525,0.0,0.36666666666666664,3.3
2.374494854004297,0.0,0.36666666666666664,3.3
2.3799963140045293,0.0,0.36666666666666664,3.3
2.38167272300052,0.0,0.14586080586080585,1.1539926739926738
2.384596596006304,0.0,0.14586080586080585,1.1539926739926738
2.388279869002872,0.0,0.14586080586080585,1.1539926739926738
2.3946329800019157,0.0,0.14586080586080585,1.1539926739926738
2.39910053100175,0.0,0.14586080586080585,1.1539926739926738
2.404860230999475,0.0,0.14586080586080585,1.1539926739926738
2.4052114950027317,0.0,0.14586080586080585,1.1539926739926738
2.4119165910015,0.0,0.14586080586080585,1.1539926739926738
2.4183071730003576,0.5447619047619047,0.9541391941391941,3.3
2.4215881090058247,0.5447619047619047,0.9541391941391941,3.3
2.423098701001436,0.5447619047619047,0.9541391941391941,3.3
2.4280217190025724,0.5447619047619047,0.9541391941391941,3.3
2.4318714480032213,0.5447619047619047,0.9541391941391941,3.3
2.4365537270059576,0.5447619047619047,0.9541391941391941,3.3
2.43675424700632,0.5447619047619047,0.9541391941391941,3.3
2.4426622850005515,0.5447619047619047,0.9541391941391941,3.3
2.4478956000020844,0.5447619047619047,0.9541391941391941,3.3
2.450369350000983,0.5447619047619047,0.9541391941391941,3.3
2.4505042790042353,0.5447619047619047,0.9541391941391941,3.3
2.4557403990038438,0.5447619047619047,0.9541391941391941,3.3
2.4592578490046435,0.5447619047619047,0.9541391941391941,3.3
2.4595078690035734,0.5447619047619047,0.9541391941391941,3.3
2.4641677230029018,0.5447619047619047,0.9541391941391941,3.3
2.464504300005501,0.5447619047619047,0.9541391941391941,3.3
2.47028275699995,0.5447619047619047,0.9541391941391941,3.3
2.47607033100212,0.0,0.4126007326007326,2.5715018315018314
2.4763510760021745,0.0,0.4126007326007326,2.5715018315018314
2.4815618050051853,0.0,0.4126007326007326,2.5715018315018314
2.484817504999228,0.826007326007326,0.8920879120879119,2.8148717948717947
2.4856786119999015,0.0,0.2191941391941392,3.274212454212454
2.487277491003624,0.0,0.2191941391941392,3.274212454212454
2.491152085000067,0.0,0.2191941391941392,3.274212454212454
2.4966985170030966,0.0,0.2191941391941392,3.274212454212454
2.497715084005904,0.0,0.2191941391941392,3.274212454212454
2.4986066660057986,0.0,0.2191941391941392,3.274212454212454
2.499609128004522,0.0,0.2191941391941392,3.274212454212454
2.500483585004986,0.0,0.16842490842490843,3.3
2.5020998130057706,0.40615384615384614,0.6567765567765567,1.7994871794871792
2.5061075539997546,0.40615384615384614,0.6567765567765567,1.7994871794871792
2.509872634000203,0.40615384615384614,0.6567765567765567,1.7994871794871792
2.5151130280064535,1.008937728937729,0.6616117216117217,2.5787545787545785
2.5181891419997555,0.6583882783882784,0.713992673992674,2.5634432234432234
2.520481680003286,0.6583882783882784,0.713992673992674,2.5634432234432234
2.5207210420048796,0.6583882783882784,0.713992673992674,2.5634432234432234
2.5261932520006667,0.423076923076923,0.7075457875457875,2.063003663003663
2.527740409001126,0.423076923076923,0.7075457875457875,2.063003663003663
2.532236519000435,0.423076923076923,0.7075457875457875,2.063003663003663
2.5330185999991954,0.423076923076923,0.7075457875457875,2.063003663003663
2.535181963001378,0.423076923076923,0.7075457875457875,2.063003663003663
2.5359824640036095,0.423076923076923,0.7075457875457875,2.063003663003663
2.5383976450029877,0.423076923076923,0.7075457875457875,2.063003663003663
2.5386398450064007,0.423076923076923,0.7075457875457875,2.063003663003663
2.544301975001872,0.423076923076923,0.7075457875457875,2.063003663003663
2.544584080002096,0.0,0.14666666666666667,2.718974358974359
2.550824044003093,0.0,0.14666666666666667,2.718974358974359
2.5546666950031067,0.0,0.14666666666666667,2.718974358974359
2.564707557001384,0.0,0.14666666666666667,2.718974358974359
2.574525235002511,0.0,0.14666666666666667,2.718974358974359
2.586702887005231,0.0,0.14666666666666667,2.718974358974359
2.598579007004446,0.0,0.14666666666666667,2.718974358974359
2.611273494003399,0.0,0.14666666666666667,2.718974358974359
2.614519795999513,0.0,0.14666666666666667,2.718974358974359
2.6269450320032774,0.0,0.14666666666666667,2.718974358974359
2.638172332000977,0.0,0.14666666666666667,2.718974358974359
2.651304587001505,0.0,0.14666666666666667,2.718974358974359
2.662161181004194,1.1322344322344322,1.2386080586080586,2.5674725274725274
2.6720147880041623,1.1322344322344322,1.2386080586080586,2.5674725274725274
2.6832448820059653,1.1322344322344322,1.2386080586080586,2.5674725274725274
2.690599314002611,1.1322344322344322,1.2386080586080586,2.5674725274725274
2.6948578860028647,1.1322344322344322,1.2386080586080586,2.5674725274725274
2.6966469580002013,1.1322344322344322,1.2386080586080586,2.5674725274725274
2.6991866790049244,0.23128205128205126,0.2328937728937729,2.556996336996337
2.704097357003775,0.23128205128205126,0.2328937728937729,2.556996336996337
2.710108327999478,1.4497435897435897,1.4126739926739926,2.5465201465201464
2.7141486480031745,1.4497435897435897,1.4126739926739926,2.5465201465201464
2.716627781999705,0.8389010989010988,0.5697435897435897,2.5787545787545785
2.7168094020016724,0.8389010989010988,0.5697435897435897,2.5787545787545785
2.721479615000135,0.8389010989010988,0.5697435897435897,2.5787545787545785
2.7217725820009946,0.8389010989010988,0.5697435897435897,2.5787545787545785
2.7271658500030753,0.8389010989010988,0.5697435897435897,2.5787545787545785
2.7279900960056693,0.0,0.18937728937728937,2.8656410256410254
2.7295920030010166,0.0,0.18937728937728937,2.8656410256410254
2.7336742370025604,0.0,0.18937728937728937,2.8656410256410254
2.73701913900004,0.0,0.18937728937728937,2.8656410256410254
2.7378515450036502,0.0,0.18937728937728937,2.8656410256410254
2.739626065005723,0.0,0.18937728937728937,2.8656410256410254
2.7433217340003466,0.0,0.18937728937728937,2.8656410256410254
2.748775532003492,0.0,0.18937728937728937,2.8656410256410254
2.750323161999404,0.0,0.18937728937728937,2.8656410256410254
2.7540394210009254,0.0,0.18937728937728937,2.8656410256410254
2.758482738005114,0.0,0.18937728937728937,2.8656410256410254
2.7602569430018775,0.0,0.18937728937728937,2.8656410256410254
2.7634325090039056,0.0,0.20146520146520144,0.8485714285714284
2.7658634000035818,0.4891575091575091,0.8397069597069596,2.54974358974359
2.77119950800261,0.4891575091575091,0.8397069597069596,2.54974358974359
2.774432688005618,1.1604395604395605,1.274871794871795,2.557802197802198
2.7753347030011355,1.1604395604395605,1.274871794871795,2.557802197802198
2.7769132489993353,1.1604395604395605,1.274871794871795,2.557802197802198
2.7808088420060812,0.0,0.1378021978021978,0.7002930402930403
2.784730154002318,0.0,0.1378021978021978,0.7002930402930403
2.7885045729999547,0.0,0.1378021978021978,0.7002930402930403
2.793263173000014,0.0,0.3884249084249084,2.5723076923076924
2.8030854829994496,0.0,0.3884249084249084,2.5723076923076924
2.8085946990031516,0.0,0.3884249084249084,2.5723076923076924
2.810127085002023,0.0,0.3884249084249084,2.5723076923076924
2.8138624410057673,0.0,0.3884249084249084,2.5723076923076924
2.813966382003855,0.0,0.3884249084249084,2.5723076923076924
2.819355768006062,0.0,0.3884249084249084,2.5723076923076924
2.821659109002212,0.0,0.3884249084249084,2.5723076923076924
2.8218663340012426,0.0,0.3884249084249084,2.5723076923076924
2.8275279330046033,0.0,0.3884249084249084,2.5723076923076924
2.827838643002906,0.0,0.3884249084249084,2.5723076923076924
2.8332072789999074,0.0,0.3884249084249084,2.5723076923076924
2.8356578570019337,0.0,0.3884249084249084,2.5723076923076924
2.840940786001738,0.0,0.3884249084249084,2.5723076923076924
2.8442249540021294,0.0,0.3884249084249084,2.5723076923076924
2.845219798000471,0.0,0.3884249084249084,2.5723076923076924
2.846151917001407,0.0,0.19663003663003664,2.1790476190476187
2.847694501004298,0.0,0.19663003663003664,2.1790476190476187
2.851811587002885,0.0,0.19663003663003664,2.1790476190476187
2.8548905499992543,0.0,0.19663003663003664,2.1790476190476187
2.8565101660060463,0.0,0.19663003663003664,2.1790476190476187
2.8603347890020814,0.0,0.19663003663003664,2.1790476190476187
2.867772909004998,0.0,0.19663003663003664,2.1790476190476187
2.873068997003429,0.0,0.19663003663003664,2.1790476190476187
2.8752328870032215,0.0,0.19663003663003664,2.1790476190476187
2.875373565002519,0.0,0.19663003663003664,2.1790476190476187
2.886911608002265,0.0,0.19663003663003664,2.1790476190476187
2.8989595279999776,0.0,0.19663003663003664,2.1790476190476187
2.89913513600186,0.0,0.19663003663003664,2.1790476190476187
2.9051815109996824,0.0,0.19663003663003664,2.1790476190476187
2.91247264300182,0.047545787545787546,0.26915750915750913,3.3
2.916337790004036,0.047545787545787546,0.26915750915750913,3.3
2.9201728620028007,0.047545787545787546,0.26915750915750913,3.3
2.9294734110007994,1.041978021978022,1.0323076923076921,3.3
2.9343717980009387,0.0,0.1668131868131868,3.3
2.9404811920030625,0.0,0.1668131868131868,3.3
2.945302553001966,1.2966300366300365,1.0895238095238093,3.3
2.949940531005268,1.2966300366300365,1.0895238095238093,3.3
2.9501233100018,0.0,0.30622710622710625,3.3
2.955375287005154,0.0,0.30622710622710625,3.3
2.960587986999599,0.7857142857142856,0.4021245421245421,2.5755311355311354
2.96237018800457,0.7857142857142856,0.4021245421245421,2.5755311355311354
2.9656162060055067,0.7857142857142856,0.4021245421245421,2.5755311355311354
2.9672143410061835,0.7857142857142856,0.4021245421245421,2.5755311355311354
2.970299997003167,0.7857142857142856,0.4021245421245421,2.5755311355311354
2.973011302005034,0.8888644688644688,0.722051282051282,2.5787545787545785
2.979765866002708,0.7397802197802198,0.6728937728937728,2.5594139194139194
2.98377618300583,0.7397802197802198,0.6728937728937728,2.5594139194139194
2.9875460420007585,1.4529670329670328,1.4578021978021978,2.5465201465201464
2.9956501020060387,1.4529670329670328,1.4578021978021978,2.5465201465201464
3.0005417370048235,0.0,0.2868864468864469,1.7801465201465199
3.0108512490041903,0.0,0.2868864468864469,1.7801465201465199
3.015976443006366,0.0,0.1523076923076923,2.6109890109890106
3.0190981210034806,0.24256410256410255,0.24175824175824176,2.569084249084249
3.0207204060061486,0.0419047619047619,0.14747252747252745,3.3
3.0269974620023277,0.0419047619047619,0.14747252747252745,3.3
3.0303581789994496,0.0419047619047619,0.14747252747252745,3.3
3.031356178005808,0.0419047619047619,0.14747252747252745,3.3
3.0323340430040844,0.0419047619047619,0.14747252747252745,3.3
3.034255190999829,0.0419047619047619,0.14747252747252745,3.3
3.0362547770055244,0.0419047619047619,0.14747252747252745,3.3
3.037991476005118,0.0419047619047619,0.14747252747252745,3.3
3.043183471003431,0.0419047619047619,0.14747252747252745,3.3
3.046150932001183,0.06769230769230769,0.14827838827838827,2.552967032967033
3.0485317750062677,0.06769230769230769,0.14827838827838827,2.552967032967033
3.0487145869992673,0.06769230769230769,0.14827838827838827,2.552967032967033
3.0545990870014066,0.06769230769230769,0.14827838827838827,2.552967032967033
3.065093691002403,0.6471062271062271,0.9879853479853479,3.3
3.07076174300164,0.6471062271062271,0.9879853479853479,3.3
3.0716370410009404,0.6471062271062271,0.9879853479853479,3.3
3.074131761000899,0.6471062271062271,0.9879853479853479,3.3
3.0812055870046606,0.6471062271062271,0.9879853479853479,3.3
3.0861952080012998,0.6471062271062271,0.9879853479853479,3.3
3.092814563002321,0.6471062271062271,0.9879853479853479,3.3
3.096344142999442,0.6471062271062271,0.9879853479853479,3.3
3.0965187900001183,0.6471062271062271,0.9879853479853479,3.3
3.1043514480043086,0.6471062271062271,0.9879853479853479,3.3
3.1104425720041036,0.6471062271062271,0.9879853479853479,3.3
3.114731567002309,0.6471062271062271,0.9879853479853479,3.3
3.1164680360016064,0.6471062271062271,0.9879853479853479,3.3
3.119781831999717,0.6471062271062271,0.9879853479853479,3.3
3.120089445001213,0.6471062271062271,0.9879853479853479,3.3
3.1265201500063995,0.6471062271062271,0.9879853479853479,3.3
3.1317759770026896,0.6471062271062271,0.9879853479853479,3.3
3.1345830589998513,0.6471062271062271,0.9879853479853479,3.3
3.1388984470031573,0.8155311355311355,0.5576556776556777,2.5803663003663004
3.139185787003953,0.8155311355311355,0.5576556776556777,2.5803663003663004
3.145022446005896,0.8155311355311355,0.5576556776556777,2.5803663003663004
3.1502426600054605,0.0,0.1692307692307692,3.1726739926739924
3.1534389890002785,0.8332600732600732,0.5971428571428571,2.5787545787545785
3.155114045999653,0.8332600732600732,0.5971428571428571,2.5787545787545785
3.1594412510021357,0.6503296703296703,0.41018315018315016,2.5755311355311354
3.1597051640055724,0.6503296703296703,0.41018315018315016,2.5755311355311354
3.1649696750027942,0.6503296703296703,0.41018315018315016,2.5755311355311354
3.1674086070052,0.6503296703296703,0.41018315018315016,2.5755311355311354
3.173489315006009,0.6503296703296703,0.41018315018315016,2.5755311355311354
3.1833609040040756,0.6503296703296703,0.41018315018315016,2.5755311355311354
3.1917350700023235,0.6503296703296703,0.41018315018315016,2.5755311355311354
3.196931158003281,0.6503296703296703,0.41018315018315016,2.5755311355311354
3.2001927260062075,0.5197802197802197,0.34813186813186814,2.5755311355311354
3.2010695909993956,0.0,0.15875457875457877,2.2354578754578753
3.20283142500557,0.0,0.15875457875457877,2.2354578754578753
3.206549004004046,0.0,0.15875457875457877,2.2354578754578753
3.2141070310026407,0.0,0.15875457875457877,2.2354578754578753
3.219096356006048,0.0,0.15875457875457877,2.2354578754578753
3.2248612190014683,0.0,0.15875457875457877,2.2354578754578753
3.225048352003796,0.0,0.17003663003663003,3.3
3.2304261790050077,0.0,0.17003663003663003,3.3
3.2321072510021622,0.0,0.17003663003663003,3.3
3.235535443003755,0.0,0.17003663003663003,3.3
3.23645119300636,0.0,0.17003663003663003,3.3
3.2372937470063334,0.0,0.17003663003663003,3.3
3.2392706540049403,0.0,0.17003663003663003,3.3
3.24127386300097,0.0,0.17003663003663003,3.3
3.243202924000798,0.0,0.17003663003663003,3.3
3.2455717050033854,0.0,0.17003663003663003,3.3
3.245755658004782,0.0,0.17003663003663003,3.3
3.2510037060055765,0.0,0.17003663003663003,3.3
3.253551071000402,0.0,0.17003663003663003,3.3
3.2607326690049376,0.0,0.17003663003663003,3.3
3.264925816001778,0.0,0.1418315018315018,2.735897435897436
3.2666798740028753,0.0,0.1418315018315018,2.735897435897436
3.270018715003971,0.0,0.1418315018315018,2.735897435897436
3.2708834080040106,0.0,0.1418315018315018,2.735897435897436
3.2726880270056427,0.0,0.1418315018315018,2.735897435897436
3.277280865004286,0.0,0.1418315018315018,2.735897435897436
3.2834218200005125,0.0,0.1515018315018315,0.6366300366300366
3.287499022000702,0.0,0.1515018315018315,0.6366300366300366
3.2903486940049333,0.0,0.19985347985347984,3.3
3.2944795200019144,0.0,0.19985347985347984,3.3
3.29720542600262,0.0,0.19985347985347984,3.3
3.3004946330038365,0.0,0.19985347985347984,3.3
3.3022006610044627,0.0,0.19985347985347984,3.3
3.3055265240036533,0.0,0.19985347985347984,3.3
3.3058502950007096,0.0,0.19985347985347984,3.3
3.3115516990001197,0.0,0.19985347985347984,3.3
3.3117835049997666,0.5979487179487178,0.5657142857142857,2.5755311355311354
3.316727550001815,0.5979487179487178,0.5657142857142857,2.5755311355311354
3.320805572999234,0.5979487179487178,0.5657142857142857,2.5755311355311354
3.324457838003582,0.5979487179487178,0.5657142857142857,2.5755311355311354
3.3308598730000085,0.5979487179487178,0.5657142857142857,2.5755311355311354
3.3342024790035794,0.5979487179487178,0.5657142857142857,2.5755311355311354
3.335080311000638,0.5979487179487178,0.5657142857142857,2.5755311355311354
3.3367439890062087,0.5979487179487178,0.5657142857142857,2.5755311355311354
3.3416317170049297,0.047545787545787546,0.1643956043956044,3.287106227106227
3.3479196930056787,0.047545787545787546,0.1643956043956044,3.287106227106227
3.3519046510045882,0.06688644688644689,0.3046153846153846,2.552967032967033
3.3561543460018584,0.06688644688644689,0.3046153846153846,2.552967032967033
3.357409573000041,0.06688644688644689,0.3046153846153846,2.552967032967033
3.3575831100024516,0.06688644688644689,0.3046153846153846,2.552967032967033
3.366152686001442,0.06688644688644689,0.3046153846153846,2.552967032967033
3.3719404690054944,0.06688644688644689,0.3046153846153846,2.552967032967033
3.372180461003154,0.06688644688644689,0.3046153846153846,2.552967032967033
3.379700325000158,0.06688644688644689,0.3046153846153846,2.552967032967033
3.3841007230003015,0.010476190476190476,0.15472527472527473,3.3
3.384368627004733,0.010476190476190476,0.15472527472527473,3.3
3.392186914999911,0.010476190476190476,0.15472527472527473,3.3
3.3996319560028496,0.010476190476190476,0.15472527472527473,3.3
3.406014847001643,0.010476190476190476,0.15472527472527473,3.3
3.4102474310057005,0.010476190476190476,0.15472527472527473,3.3
3.411960112003726,0.010476190476190476,0.15472527472527473,3.3
3.4151924600009806,0.010476190476190476,0.15472527472527473,3.3
3.416300193006464,0.010476190476190476,0.15472527472527473,3.3
3.417222521005897,0.18534798534798536,0.2369230769230769,2.548937728937729
3.4182367180037545,0.18534798534798536,0.2369230769230769,2.548937728937729
3.4191047370040906,0.18534798534798536,0.2369230769230769,2.548937728937729
3.420809740004188,0.18534798534798536,0.2369230769230769,2.548937728937729
3.4276073350047227,0.18534798534798536,0.2369230769230769,2.548937728937729
3.431186282003182,0.18534798534798536,0.2369230769230769,2.548937728937729
3.431314003006264,0.18534798534798536,0.2369230769230769,2.548937728937729
3.4368187690051855,0.18534798534798536,0.2369230769230769,2.548937728937729
3.4387653330049943,0.13941391941391942,0.20227106227106226,2.5481318681318683
3.441428073005227,0.13941391941391942,0.20227106227106226,2.5481318681318683
3.449311537005997,0.13941391941391942,0.20227106227106226,2.5481318681318683
3.4543143789996975,0.0,0.20065934065934066,3.3
3.459761404999881,0.0,0.20065934065934066,3.3
3.4600505300040822,0.0,0.20065934065934066,3.3
3.46558923900011,0.0,0.20065934065934066,3.3
3.4664865550003015,0.0,0.1571428571428571,3.3
3.4681652639992535,0.0,0.1571428571428571,3.3
3.475070565000351,0.0,0.1571428571428571,3.3
3.47881131000031,0.0,0.1571428571428571,3.3
3.4837331130038365,0.0,0.1571428571428571,3.3
3.4900267430057283,1.4674725274725273,1.3006593406593405,3.3
3.4939794120000442,0.9742857142857142,0.6978754578754578,2.5763369963369964
3.4978916969994316,0.9742857142857142,0.6978754578754578,2.5763369963369964
3.501680698005657,0.9742857142857142,0.6978754578754578,2.5763369963369964
3.50930605600297,0.9742857142857142,0.6978754578754578,2.5763369963369964
3.514398212006199,0.9742857142857142,0.6978754578754578,2.5763369963369964
3.520752825999807,0.9742857142857142,0.6978754578754578,2.5763369963369964
3.527276487002382,0.9742857142857142,0.6978754578754578,2.5763369963369964
3.532379039999796,0.09347985347985348,0.5673260073260072,2.5642490842490844
3.5355832710047252,0.09347985347985348,0.5673260073260072,2.5642490842490844
3.5374058230008814,0.09347985347985348,0.5673260073260072,2.5642490842490844
3.5433714390019304,0.09347985347985348,0.5673260073260072,2.5642490842490844
3.546622699999716,0.09347985347985348,0.5673260073260072,2.5642490842490844
3.5475341220007977,0.09347985347985348,0.5673260073260072,2.5642490842490844
3.549158981004439,0.09347985347985348,0.5673260073260072,2.5642490842490844
3.553653660004784,0.09347985347985348,0.5673260073260072,2.5642490842490844
3.5547576600001776,0.09347985347985348,0.5673260073260072,2.5642490842490844
3.555036363999534,0.09347985347985348,0.5673260073260072,2.5642490842490844
3.5639643680042354,0.5471794871794872,0.3231501831501831,2.5787545787545785
3.570089717002702,0.0,0.14344322344322344,0.6720879120879121
3.57515158100432,0.5133333333333333,0.5576556776556777,2.577948717948718
3.5790688330016565,0.7164102564102564,0.4512820512820513,2.5747252747252745
3.5822908590052975,0.7164102564102564,0.4512820512820513,2.5747252747252745
3.584847030004312,0.7164102564102564,0.4512820512820513,2.5747252747252745
3.5917808130034246,0.7164102564102564,0.4512820512820513,2.5747252747252745
3.597229630999209,0.7164102564102564,0.4512820512820513,2.5747252747252745
3.5975454530052957,0.7164102564102564,0.4512820512820513,2.5747252747252745
3.6056534700037446,0.7164102564102564,0.4512820512820513,2.5747252747252745
3.611687641001481,0.016923076923076923,0.17487179487179486,2.548937728937729
3.618341555004008,0.016923076923076923,0.17487179487179486,2.548937728937729
3.6248494520041277,0.016923076923076923,0.17487179487179486,2.548937728937729
3.630804350003018,0.016923076923076923,0.17487179487179486,2.548937728937729
3.635519095005293,1.2079853479853477,1.3619047619047617,2.569084249084249
3.643466001005436,0.5987545787545787,0.386007326007326,2.5763369963369964
3.6476114340039203,0.5987545787545787,0.386007326007326,2.5763369963369964
3.650013800004672,0.938021978021978,0.6567765567765567,2.577948717948718
3.6502684720035177,0.7986080586080586,0.6664468864468864,2.5787545787545785
3.6572627070054295,0.7986080586080586,0.6664468864468864,2.5787545787545785
3.6620376339997165,0.7986080586080586,0.6664468864468864,2.5787545787545785
3.666607269005908,0.7986080586080586,0.6664468864468864,2.5787545787545785
3.6674768930024584,0.7986080586080586,0.6664468864468864,2.5787545787545785
3.6694242020021193,0.7986080586080586,0.6664468864468864,2.5787545787545785
3.6713745140004903,0.7986080586080586,0.6664468864468864,2.5787545787545785
3.675879997004813,0.7986080586080586,0.6664468864468864,2.5787545787545785
3.682088677000138,0.5504029304029303,0.39890109890109887,2.5787545787545785
3.6864718520009774,1.4835897435897436,1.4368498168498167,2.557802197802198
3.6867384319994017,0.0,0.2602930402930403,3.3
3.697456959002011,0.0,0.2602930402930403,3.3
3.706145407006261,0.0,0.2602930402930403,3.3
3.711238312003843,0.0,0.18937728937728937,1.6947252747252746
3.7143320700051845,0.0,0.18937728937728937,1.6947252747252746
3.7160196490003727,0.8904761904761904,0.6205128205128204,2.5763369963369964
3.71933354200155,0.796996336996337,0.48432234432234433,2.573919413919414
3.720217987000069,0.796996336996337,0.48432234432234433,2.573919413919414
3.7220088050016784,0.796996336996337,0.48432234432234433,2.573919413919414
3.7268184820059105,0.796996336996337,0.48432234432234433,2.573919413919414
3.7314499970016186,0.796996336996337,0.48432234432234433,2.573919413919414
3.7317907930046204,0.796996336996337,0.48432234432234433,2.573919413919414
3.7420792449993314,0.796996336996337,0.48432234432234433,2.573919413919414
3.7471276960059186,0.8453479853479853,0.6116483516483516,2.5755311355311354
3.7509611480054446,0.8453479853479853,0.6116483516483516,2.5755311355311354
3.757215379999252,0.8453479853479853,0.6116483516483516,2.5755311355311354
3.762176547003037,0.8453479853479853,0.6116483516483516,2.5755311355311354
3.7652176120027434,0.46659340659340653,0.6559706959706959,1.6874725274725273
3.7683280530036427,0.46659340659340653,0.6559706959706959,1.6874725274725273
3.7692580170041765,0.7534798534798535,0.5697435897435897,2.5787545787545785
3.7702254750038264,0.7534798534798535,0.5697435897435897,2.5787545787545785
3.7726707760011777,0.0,0.25465201465201465,2.207252747252747
3.7793272500057356,0.9372161172161171,0.6479120879120879,2.5787545787545785
3.7831867320055608,0.9372161172161171,0.6479120879120879,2.5787545787545785
3.7870043860020814,1.4755311355311356,1.4013919413919413,3.3
3.794200313001056,0.0,0.18534798534798536,3.3
3.7981589270057157,0.7905494505494506,1.1322344322344322,2.565860805860806
3.8025824640062638,0.7905494505494506,1.1322344322344322,2.565860805860806
3.802834469002846,0.7905494505494506,1.1322344322344322,2.565860805860806
3.8129649270049413,0.7905494505494506,1.1322344322344322,2.565860805860806
3.820096903000376,0.0,0.1797069597069597,3.3
3.8280862419996993,0.0,0.1797069597069597,3.3
3.8313055640028324,0.0,0.1418315018315018,3.3
3.83298564600409,0.0,0.1418315018315018,3.3
3.836869373000809,0.0,0.1418315018315018,3.3
3.8459337420063093,0.0,0.1418315018315018,3.3
3.8503009359992575,0.0,0.1386080586080586,2.2314285714285713
3.851232859000447,0.0,0.1386080586080586,2.2314285714285713
3.852336171999923,0.0,0.1386080586080586,2.2314285714285713
3.853189563000342,0.0,0.1386080586080586,2.2314285714285713
3.855425006004225,0.0,0.1386080586080586,2.2314285714285713
3.857087398006115,0.0,0.1386080586080586,2.2314285714285713
3.860182962002,0.37875457875457874,0.2925274725274725,2.5803663003663004
3.8610762800017255,0.37875457875457874,0.2925274725274725,2.5803663003663004
3.8627447430044413,0.37875457875457874,0.2925274725274725,2.5803663003663004
3.866622435001773,0.09589743589743589,0.28849816849816845,2.7495970695970695
3.870561310002813,0.0,0.13619047619047617,3.3
3.875932273003855,0.0,0.13619047619047617,3.3
3.8783988890063483,0.0,0.13619047619047617,3.3
3.885827075006091,0.0,0.13619047619047617,3.3
3.8906094720005058,0.0,0.2191941391941392,3.3
3.899545462001697,0.0,0.2191941391941392,3.3
3.908168491005199,0.0,0.2191941391941392,3.3
3.91529590600112,0.0,0.2191941391941392,3.3
3.920941797005071,1.0798534798534798,1.2732600732600732,2.5674725274725274
3.927776115000597,1.0798534798534798,1.2732600732600732,2.5674725274725274
3.9319584620025125,1.0798534798534798,1.2732600732600732,2.5674725274725274
3.9336577550056973,0.8485714285714284,1.1781684981684981,2.5674725274725274
3.9377761430005194,0.8485714285714284,1.1781684981684981,2.5674725274725274
3.9418651160012814,0.8485714285714284,1.1781684981684981,2.5674725274725274
3.945254129001114,0.8485714285714284,1.1781684981684981,2.5674725274725274
3.9514449300040724,0.8485714285714284,1.1781684981684981,2.5674725274725274
3.9568004259999725,0.8485714285714284,1.1781684981684981,2.5674725274725274
3.95823008500156,0.8485714285714284,1.1781684981684981,2.5674725274725274
3.96467860499979,0.8485714285714284,1.1781684981684981,2.5674725274725274
3.969470751006156,0.8485714285714284,1.1781684981684981,2.5674725274725274
3.9787015760011855,0.8485714285714284,1.1781684981684981,2.5674725274725274
3.9846844090061495,0.7228571428571429,0.46659340659340653,2.5755311355311354
3.9916560870042304,0.7228571428571429,0.46659340659340653,2.5755311355311354
3.996298903999559,0.0,0.4416117216117216,2.5602197802197804
4.002931079005066,0.0,0.4416117216117216,2.5602197802197804
4.00868637500389,0.0,0.4416117216117216,2.5602197802197804
4.017644629006099,0.0,0.4416117216117216,2.5602197802197804
4.025159845004964,0.0,0.4416117216117216,2.5602197802197804
4.031415482000739,1.4835897435897436,1.3772161172161173,3.3
4.0359888750026585,0.6664468864468864,1.0186080586080586,2.5666666666666664
4.036163920005492,0.36666666666666664,0.2643223443223443,2.5747252747252745
4.046277451001515,0.36666666666666664,0.2643223443223443,2.5747252747252745
4.054672382000717,0.36666666666666664,0.2643223443223443,2.5747252747252745
4.061188292005681,0.14666666666666667,0.4045421245421245,2.5747252747252745
4.066926322004292,0.14666666666666667,0.4045421245421245,2.5747252747252745
4.077226331006386,0.14666666666666667,0.4045421245421245,2.5747252747252745
4.086541100004979,0.14666666666666667,0.4045421245421245,2.5747252747252745
4.093520239002828,0.473040293040293,0.747032967032967,2.0009523809523806
4.09806718800246,0.473040293040293,0.747032967032967,2.0009523809523806
4.0983726770064095,0.473040293040293,0.747032967032967,2.0009523809523806
4.104043968000042,0.473040293040293,0.747032967032967,2.0009523809523806
4.104232333003893,0.473040293040293,0.747032967032967,2.0009523809523806
4.111854262999259,0.473040293040293,0.747032967032967,2.0009523809523806
4.118090433999896,0.473040293040293,0.747032967032967,2.0009523809523806
4.122462630999507,0.1386080586080586,0.2208058608058608,3.3
4.122845583005983,0.0,0.12732600732600732,3.3
4.129491003004659,0.0,0.12732600732600732,3.3
4.133561617003579,0.0,0.12732600732600732,3.3
4.136667891005345,0.0,0.12732600732600732,3.3
4.138662312005181,0.0,0.12732600732600732,3.3
4.142344894004054,0.008864468864468863,0.1571428571428571,3.3
4.146531708000111,0.008864468864468863,0.1571428571428571,3.3
4.149252736002381,0.008864468864468863,0.1571428571428571,3.3
4.152501810000103,0.008864468864468863,0.1571428571428571,3.3
4.15481845800241,0.008864468864468863,0.1571428571428571,3.3
4.155087573999481,0.008864468864468863,0.1571428571428571,3.3
4.164240537000296,0.008864468864468863,0.1571428571428571,3.3
4.173044227005448,0.008864468864468863,0.1571428571428571,3.3
4.179588262006291,0.008864468864468863,0.1571428571428571,3.3
4.182912591000786,0.008864468864468863,0.1571428571428571,3.3
4.183771370000613,0.0419047619047619,0.34007326007326005,2.5715018315018314
4.185424381001212,0.0419047619047619,0.34007326007326005,2.5715018315018314
4.190744594001444,0.0419047619047619,0.34007326007326005,2.5715018315018314
4.19288956100354,0.0419047619047619,0.34007326007326005,2.5715018315018314
4.19381441900623,0.0419047619047619,0.34007326007326005,2.5715018315018314
4.195504836003238,0.0419047619047619,0.34007326007326005,2.5715018315018314
4.198750233001192,0.0419047619047619,0.34007326007326005,2.5715018315018314
4.2003899440023815,0.0419047619047619,0.34007326007326005,2.5715018315018314
4.204940196003008,0.0419047619047619,0.34007326007326005,2.5715018315018314
4.2052093430029345,0.0419047619047619,0.34007326007326005,2.5715018315018314
4.211412107004435,0.0419047619047619,0.34007326007326005,2.5715018315018314
4.215469728005701,1.1322344322344322,1.3006593406593405,2.5666666666666664
4.218685571999231,1.1322344322344322,1.3006593406593405,2.5666666666666664
4.219563386999653,1.1322344322344322,1.3006593406593405,2.5666666666666664
4.221218771002896,1.1322344322344322,1.3006593406593405,2.5666666666666664
4.227826443006052,1.1322344322344322,1.3006593406593405,2.5666666666666664
4.231096989002253,1.1322344322344322,1.3006593406593405,2.5666666666666664
4.232843278005021,1.1322344322344322,1.3006593406593405,2.5666666666666664
4.235991822002688,1.1322344322344322,1.3006593406593405,2.5666666666666664
4.23695386700274,1.1322344322344322,1.3006593406593405,2.5666666666666664
4.238888178006164,1.1322344322344322,1.3006593406593405,2.5666666666666664
4.2412205260043265,1.1322344322344322,1.3006593406593405,2.5666666666666664
4.248865567002213,1.1322344322344322,1.3006593406593405,2.5666666666666664
4.254346961002739,1.1322344322344322,1.3006593406593405,2.5666666666666664
4.257130558005883,1.1322344322344322,1.3006593406593405,2.5666666666666664
4.259836525001447,1.1322344322344322,1.3006593406593405,2.5666666666666664
4.263862327003153,1.1322344322344322,1.3006593406593405,2.5666666666666664
4.267740463001246,1.1322344322344322,1.3006593406593405,2.5666666666666664
4.2734639100017375,0.0,0.17326007326007326,3.3
4.273696102005488,0.0,0.17326007326007326,3.3
4.279288591002114,0.0,0.17326007326007326,3.3
4.279620409004565,0.47706959706959706,0.3441025641025641,2.5763369963369964
4.2848116340028355,0.47706959706959706,0.3441025641025641,2.5763369963369964
4.288008006005839,0.47706959706959706,0.3441025641025641,2.5763369963369964
4.291078899004788,0.47706959706959706,0.3441025641025641,2.5763369963369964
4.2923428480062285,0.47706959706959706,0.3441025641025641,2.5763369963369964
4.297953886001778,0.47706959706959706,0.3441025641025641,2.5763369963369964
4.2982329270016635,0.47706959706959706,0.3441025641025641,2.5763369963369964
4.3036168920007185,0.47706959706959706,0.3441025641025641,2.5763369963369964
4.3053231590020005,0.47706959706959706,0.3441025641025641,2.5763369963369964
4.3101538800037815,0.0024175824175824176,0.19179487179487179,2.5916483516483515
4.31512671100063,0.0024175824175824176,0.19179487179487179,2.5916483516483515
4.318197284999769,0.32073260073260074,0.25787545787545785,2.565860805860806
4.320723425000324,0.18373626373626373,0.21194139194139192,2.553772893772894
4.3287187430032645,0.0,0.1555311355311355,3.3
4.333286986002349,0.0,0.1555311355311355,3.3
4.334209341999667,0.0,0.1555311355311355,3.3
4.335300507002103,0.0,0.1555311355311355,3.3
4.33613444200455,0.0,0.1555311355311355,3.3
4.338243326004886,0.0,0.1555311355311355,3.3
4.339834663005604,0.0,0.1555311355311355,3.3
4.344741981003608,0.0,0.1555311355311355,3.3
4.347997053999279,1.4972893772893772,1.3336996336996336,3.3
4.348861550002766,1.4972893772893772,1.3336996336996336,3.3
4.35048653800186,1.4972893772893772,1.3336996336996336,3.3
4.354486422002083,1.4972893772893772,1.3336996336996336,3.3
4.358937014003459,1.4972893772893772,1.3336996336996336,3.3
4.359205295004358,1.4972893772893772,1.3336996336996336,3.3
4.36340212700452,1.4972893772893772,1.3336996336996336,3.3
4.366408968002361,0.0419047619047619,0.25142857142857145,3.3
4.368724833999295,0.0419047619047619,0.25142857142857145,3.3
4.369018921999668,0.0419047619047619,0.25142857142857145,3.3
4.3762831240019295,0.0419047619047619,0.25142857142857145,3.3
4.380588937005086,0.6873992673992674,0.3972893772893773,2.5747252747252745
4.382245377004438,0.6873992673992674,0.3972893772893773,2.5747252747252745
4.386238848004723,0.6873992673992674,0.3972893772893773,2.5747252747252745
4.392478321002272,0.6873992673992674,0.3972893772893773,2.5747252747252745
4.3985288130061235,0.6873992673992674,0.3972893772893773,2.5747252747252745
4.404668535004021,0.38036630036630037,0.2917216117216117,2.5763369963369964
4.408875742999953,0.38036630036630037,0.2917216117216117,2.5763369963369964
4.409941018006066,0.38036630036630037,0.2917216117216117,2.5763369963369964
4.4103253170032986,0.38036630036630037,0.2917216117216117,2.5763369963369964
4.417064249006216,0.12571428571428572,0.6261538461538461,2.2846153846153845
4.422318610006187,0.8808058608058608,0.6680586080586081,2.5763369963369964
4.425376306004182,0.0,0.12813186813186814,3.3
4.4265412259992445,0.0,0.1813186813186813,3.3
4.42675007100479,0.0,0.1813186813186813,3.3
4.436712430004263,1.0806593406593406,0.722051282051282,2.5747252747252745
4.447384221006359,0.43032967032967034,0.5350915750915751,2.581172161172161
4.453216532005172,0.43032967032967034,0.5350915750915751,2.581172161172161
4.461811986999237,0.43032967032967034,0.5350915750915751,2.581172161172161
4.46862775500631,0.43032967032967034,0.5350915750915751,2.581172161172161
4.475337909003429,0.1942124542124542,0.2506227106227106,2.5674725274725274
4.478987991002214,0.9138461538461539,0.6575824175824176,2.581172161172161
4.48452191400429,0.9138461538461539,0.6575824175824176,2.581172161172161
4.4864215750058065,0.1112087912087912,0.25384615384615383,2.4433699633699635
4.4901965349999955,0.31509157509157504,0.4013186813186813,2.5763369963369964
4.4933172759992885,0.31509157509157504,0.4013186813186813,2.5763369963369964
4.4949956120035495,0.31509157509157504,0.4013186813186813,2.5763369963369964
4.498731878004037,0.5068864468864469,0.3424908424908425,2.5787545787545785
4.504120700003114,0.25706959706959703,0.25706959706959703,2.565860805860806
4.505971235004836,0.0,0.24578754578754577,2.436923076923077
4.509282570004871,0.0,0.24578754578754577,2.436923076923077
4.50959188699926,0.0,0.24578754578754577,2.436923076923077
4.514207767002517,0.0,0.24578754578754577,2.436923076923077
4.514453146999585,0.0,0.24578754578754577,2.436923076923077
4.52013846400223,0.0,0.24578754578754577,2.436923076923077
4.520293175999541,0.21838827838827837,0.1958241758241758,2.5795604395604395
4.526385706005385,0.21838827838827837,0.1958241758241758,2.5795604395604395
4.531052758000442,0.21838827838827837,0.1958241758241758,2.5795604395604395
4.531210266999551,0.21838827838827837,0.1958241758241758,2.5795604395604395
4.536842803005129,0.21838827838827837,0.1958241758241758,2.5795604395604395
4.537009968000348,0.21838827838827837,0.1958241758241758,2.5795604395604395
4.544004269999277,0.21838827838827837,0.1958241758241758,2.5795604395604395
4.54841025800124,0.21838827838827837,0.1958241758241758,2.5795604395604395
4.550015357002849,0.0,0.15794871794871795,3.058241758241758
4.5539659710048,0.0,0.15794871794871795,3.058241758241758
4.560352573003911,0.5979487179487178,0.38358974358974357,2.5763369963369964
4.5635847540033865,0.0,0.15311355311355312,3.3
4.565243711003859,0.0,0.15311355311355312,3.3
4.568389218002267,0.0,0.15311355311355312,3.3
4.572502183000324,0.0,0.15311355311355312,3.3
4.575125868002942,0.020146520146520144,0.3497435897435897,1.4779487179487178
4.57900530200277,0.020146520146520144,0.3497435897435897,1.4779487179487178
4.582823199001723,0.020146520146520144,0.3497435897435897,1.4779487179487178
4.5886093440058175,0.0,0.24901098901098898,3.3
4.588860629002738,0.0,0.24901098901098898,3.3
4.596175134000077,0.0,0.24901098901098898,3.3
4.599955536003108,0.01934065934065934,0.42388278388278383,1.3038827838827838
4.605435695004417,0.01934065934065934,0.42388278388278383,1.3038827838827838
4.6086409020063,0.01934065934065934,0.42388278388278383,1.3038827838827838
4.609540458004631,0.7268864468864469,0.5778021978021978,2.5787545787545785
4.6105581800002255,0.7268864468864469,0.5778021978021978,2.5787545787545785
4.611446890005027,0.7268864468864469,0.5778021978021978,2.5787545787545785
4.6130673680017935,0.7268864468864469,0.5778021978021978,2.5787545787545785
4.616159978999349,0.7268864468864469,0.5778021978021978,2.5787545787545785
4.619151671002328,0.6011721611721611,0.41098901098901097,2.577142857142857
4.622161897001206,0.6011721611721611,0.41098901098901097,2.577142857142857
4.626263599006052,0.6011721611721611,0.41098901098901097,2.577142857142857
4.627868579002097,0.6011721611721611,0.41098901098901097,2.577142857142857
4.631706709005812,0.3046153846153846,0.4859340659340659,2.577948717948718
4.636517400002049,0.0,0.3352380952380952,3.3
4.643900025002949,0.43032967032967034,0.3158974358974359,2.5787545787545785
4.648137825999584,0.43032967032967034,0.3158974358974359,2.5787545787545785
4.650504921002721,0.43032967032967034,0.3158974358974359,2.5787545787545785
4.650731592999364,0.43032967032967034,0.3158974358974359,2.5787545787545785
4.657623235005303,0.43032967032967034,0.3158974358974359,2.5787545787545785
4.663537200001883,0.43032967032967034,0.3158974358974359,2.5787545787545785
4.670539381004346,0.43032967032967034,0.3158974358974359,2.5787545787545785
4.678062036000483,0.523003663003663,0.4512820512820513,2.5755311355311354
4.682903660999727,0.523003663003663,0.4512820512820513,2.5755311355311354
4.690576512002735,0.523003663003663,0.4512820512820513,2.5755311355311354
4.694161990999419,0.2063003663003663,0.767985347985348,2.8994871794871795
4.699964773004467,0.2063003663003663,0.767985347985348,2.8994871794871795
4.70024840500264,0.008058608058608058,0.14586080586080585,3.3
4.707099103005021,0.946080586080586,0.8743589743589744,3.0074725274725274
4.712799074004579,0.946080586080586,0.8743589743589744,3.0074725274725274
4.721121232003497,0.946080586080586,0.8743589743589744,3.0074725274725274
4.7267808280012105,0.946080586080586,0.8743589743589744,3.0074725274725274
4.726901175999956,0.946080586080586,0.8743589743589744,3.0074725274725274
4.731498478002322,0.946080586080586,0.8743589743589744,3.0074725274725274
4.732338781002909,0.946080586080586,0.8743589743589744,3.0074725274725274
4.733971854999254,0.9057875457875458,0.6712820512820512,2.5747252747252745
4.73792528299964,0.9057875457875458,0.6712820512820512,2.5747252747252745
4.743300444999477,0.9057875457875458,0.6712820512820512,2.5747252747252745
4.743703815001936,0.9057875457875458,0.6712820512820512,2.5747252747252745
4.7486876680050045,0.9057875457875458,0.6712820512820512,2.5747252747252745
4.752744263001659,0.7575091575091575,0.5842490842490843,2.5803663003663004
4.756765488004021,0.7575091575091575,0.5842490842490843,2.5803663003663004
4.760985422006343,0.5737728937728938,0.3723076923076923,2.5787545787545785
4.7619204860020545,0.5737728937728938,0.3723076923076923,2.5787545787545785
4.763542364002205,0.5737728937728938,0.3723076923076923,2.5787545787545785
4.767378648000886,0.5737728937728938,0.3723076923076923,2.5787545787545785
4.773259218003659,0.5737728937728938,0.3723076923076923,2.5787545787545785
4.780043951002881,0.23208791208791207,0.6809523809523809,2.4756043956043956
4.783866657002363,0.0,0.17648351648351646,1.1854212454212454
4.7923196270057815,0.0,0.17648351648351646,1.1854212454212454
4.7987692180031445,0.7937728937728937,0.4593406593406593,2.5787545787545785
4.803614219999872,0.7937728937728937,0.4593406593406593,2.5787545787545785
4.811767944003805,0.7937728937728937,0.4593406593406593,2.5787545787545785
4.818165430006047,0.7937728937728937,0.4593406593406593,2.5787545787545785
4.824808356999711,0.7937728937728937,0.4593406593406593,2.5787545787545785
4.828463919002388,0.0,0.2361172161172161,3.3
4.828560111003753,0.0,0.2361172161172161,3.3
4.834844264005369,0.0,0.2361172161172161,3.3
4.840246574000048,1.22007326007326,1.3788278388278388,2.5715018315018314
4.84060536200559,1.22007326007326,1.3788278388278388,2.5715018315018314
4.845776979003858,1.22007326007326,1.3788278388278388,2.5715018315018314
4.848973967003985,0.0,0.3191208791208791,2.5553846153846154
4.849877416003437,0.0,0.3191208791208791,2.5553846153846154
4.851488331005385,0.0,0.3191208791208791,2.5553846153846154
4.856495849999192,0.0,0.3191208791208791,2.5553846153846154
4.860791762002918,0.0,0.3191208791208791,2.5553846153846154
4.861781968000287,0.0,0.3191208791208791,2.5553846153846154
4.863448706004419,0.0,0.3191208791208791,2.5553846153846154
4.866588843004138,0.0,0.3191208791208791,2.5553846153846154
4.869138785004907,0.0,0.3191208791208791,2.5553846153846154
4.875156157002493,0.0,0.3191208791208791,2.5553846153846154
4.8784623259998625,0.0,0.3191208791208791,2.5553846153846154
4.879354010001407,0.0,0.3191208791208791,2.5553846153846154
4.880977384003927,0.0,0.3191208791208791,2.5553846153846154
4.884962356001779,0.0,0.3191208791208791,2.5553846153846154
4.889211246001651,0.0,0.3191208791208791,2.5553846153846154
4.892639533005422,0.0,0.3191208791208791,2.5553846153846154
4.901399668000522,0.0,0.3191208791208791,2.5553846153846154
4.90789720700559,0.0,0.3191208791208791,2.5553846153846154
4.912992300000042,0.224029304029304,0.4561172161172161,2.5787545787545785
4.916802544001257,0.005641025641025641,0.365054945054945,2.5787545787545785
4.921372846001759,0.005641025641025641,0.365054945054945,2.5787545787545785
4.929535082002985,0.005641025641025641,0.365054945054945,2.5787545787545785
4.934299767002813,0.0,0.17567765567765567,1.8276923076923077
4.934480127005372,0.0,0.17567765567765567,1.8276923076923077
4.940399010003603,0.0,0.17567765567765567,1.8276923076923077
4.946830945002148,0.0,0.17567765567765567,1.8276923076923077
4.954166381001414,0.0,0.17567765567765567,1.8276923076923077
4.95892890200048,0.0,0.17567765567765567,1.8276923076923077
4.965190029004589,0.0,0.13538461538461538,0.8582417582417583
4.968332601005386,0.0,0.1643956043956044,3.3
4.970030702002987,0.0,0.1643956043956044,3.3
4.974947711001732,0.0556043956043956,0.49479853479853475,1.3441758241758242
4.979420012001356,0.0556043956043956,0.49479853479853475,1.3441758241758242
4.980858770999475,0.0,0.14102564102564102,1.7124542124542126
4.987586665003619,0.0,0.14102564102564102,1.7124542124542126
4.9931444820031174,0.0,0.14102564102564102,1.7124542124542126
5.001609471000847,0.0,0.14102564102564102,1.7124542124542126
5.010445313004311,0.0,0.14102564102564102,1.7124542124542126
5.015847968003072,1.1136996336996337,1.2740659340659342,2.56989010989011
5.016760102000262,0.25787545787545785,0.23853479853479853,2.5594139194139194
5.018477613004507,0.0,0.14424908424908423,2.493333333333333
5.02277414600394,0.0,0.14424908424908423,2.493333333333333
5.024624346006021,0.0,0.15956043956043955,2.8583882783882784
5.0265505260031205,0.0,0.14102564102564102,3.3
5.028987602003326,0.0,0.14102564102564102,3.3
5.0291002040030435,0.0,0.14102564102564102,3.3
5.034742334006296,0.0,0.14102564102564102,3.3
5.035033450003539,0.5407326007326007,0.36827838827838827,2.5747252747252745
5.041222587002267,0.5407326007326007,0.36827838827838827,2.5747252747252745
5.044716002004861,0.5407326007326007,0.664029304029304,1.8712087912087911
5.044894508006109,0.0,0.16842490842490843,3.3
5.050602338000317,0.0,0.16842490842490843,3.3
5.05077800500294,0.855018315018315,0.6680586080586081,2.573919413919414
5.055738778006344,0.855018315018315,0.6680586080586081,2.573919413919414
5.060548590001417,0.855018315018315,0.6680586080586081,2.573919413919414
5.065021775000787,0.855018315018315,0.6680586080586081,2.573919413919414
5.0658954120008275,0.855018315018315,0.6680586080586081,2.573919413919414
5.0675290130020585,0.855018315018315,0.6680586080586081,2.573919413919414
5.072285356000066,0.855018315018315,0.6680586080586081,2.573919413919414
5.078572095000709,0.855018315018315,0.6680586080586081,2.573919413919414
5.083293414005311,0.028205128205128206,0.24014652014652016,3.3
5.08745948500291,0.10153846153846154,0.23047619047619047,1.7664468864468863
5.091021583000838,0.10153846153846154,0.23047619047619047,1.7664468864468863
5.096324695005023,0.10153846153846154,0.23047619047619047,1.7664468864468863
5.100081002005027,0.052380952380952375,0.15633699633699633,3.3
5.103845067002112,0.052380952380952375,0.15633699633699633,3.3
5.103948460004176,0.052380952380952375,0.15633699633699633,3.3
5.109852458001114,0.052380952380952375,0.15633699633699633,3.3
5.121845770001528,0.942051282051282,0.7438095238095238,2.5763369963369964
5.128278012001829,0.7583150183150182,0.6438827838827839,2.561831501831502
5.132196421000117,0.0,0.16036630036630037,2.185494505494505
5.136912512003619,0.2756043956043956,0.8082783882783882,3.3
5.137114475000999,0.2756043956043956,0.8082783882783882,3.3
5.144996255003207,0.2756043956043956,0.8082783882783882,3.3
5.150126195003395,0.2756043956043956,0.8082783882783882,3.3
5.1557222490009735,0.2756043956043956,0.8082783882783882,3.3
5.15596732400445,0.2756043956043956,0.8082783882783882,3.3
5.161264542999561,0.2756043956043956,0.8082783882783882,3.3
5.16302646099939,1.2740659340659342,1.2772893772893772,3.3
5.16635071800556,0.0,0.2345054945054945,2.5553846153846154
5.167195715999696,0.0,0.2345054945054945,2.5553846153846154
5.168098182002723,0.0,0.2345054945054945,2.5553846153846154
5.169778283001506,0.0,0.2345054945054945,2.5553846153846154
5.173999689002812,0.028205128205128206,0.386007326007326,2.5747252747252745
5.1757391930004815,0.6696703296703297,1.0387545787545787,2.565860805860806
5.179746667003201,0.6696703296703297,1.0387545787545787,2.565860805860806
5.1829936360009015,0.6696703296703297,1.0387545787545787,2.565860805860806
5.183888293002383,0.0,0.24336996336996336,2.5545787545787544
5.185492955999507,0.0,0.24336996336996336,2.5545787545787544
5.193560955005523,0.0,0.24336996336996336,2.5545787545787544
5.198087930999463,0.0,0.3698901098901099,2.552967032967033
5.198322330004885,0.0,0.3698901098901099,2.552967032967033
5.203996102005476,0.0,0.3698901098901099,2.552967032967033
5.204354375004186,0.0846153846153846,0.26109890109890105,2.8382417582417583
5.2097056200000225,0.0846153846153846,0.26109890109890105,2.8382417582417583
5.211324686999433,0.0846153846153846,0.26109890109890105,2.8382417582417583
5.215913195999747,0.0846153846153846,0.26109890109890105,2.8382417582417583
5.216106776002562,0.0846153846153846,0.26109890109890105,2.8382417582417583
5.221206272006384,0.0846153846153846,0.26109890109890105,2.8382417582417583
5.225558843005274,1.4650549450549448,1.3256410256410256,2.5505494505494504
5.226872057006403,1.4650549450549448,1.3256410256410256,2.5505494505494504
5.231544186004612,0.7147985347985348,0.6301831501831501,2.577948717948718
5.231816373001493,0.7147985347985348,0.6301831501831501,2.577948717948718
5.2372277790054795,0.7147985347985348,0.6301831501831501,2.577948717948718
5.239497542002937,0.7147985347985348,0.6301831501831501,2.577948717948718
5.239751057000831,0.7147985347985348,0.6301831501831501,2.577948717948718
5.247763141000178,0.7147985347985348,0.6301831501831501,2.577948717948718
5.252515108004445,0.7147985347985348,0.6301831501831501,2.577948717948718
5.262452508999559,0.7147985347985348,0.6301831501831501,2.577948717948718
5.270710900003905,0.7147985347985348,0.6301831501831501,2.577948717948718
5.276619133001077,0.7147985347985348,0.6301831501831501,2.577948717948718
5.2810836150019895,0.7147985347985348,0.6301831501831501,2.577948717948718
5.2813483540012385,0.0,0.1571428571428571,3.3
5.287135992002732,0.0,0.1571428571428571,3.3
5.287231681999401,0.0,0.1571428571428571,3.3
5.2927734140030225,0.0,0.1571428571428571,3.3
5.2937228650043835,0.0,0.1571428571428571,3.3
5.2946828410058515,0.0,0.1571428571428571,3.3
5.295691145001911,0.0,0.1571428571428571,3.3
5.296682009000506,0.0,0.1571428571428571,3.3
5.297682142001577,0.0,0.1571428571428571,3.3
5.299335192001308,0.0,0.1571428571428571,3.3
5.302642956005002,0.0,0.1571428571428571,3.3
5.303463193005882,0.0,0.1571428571428571,3.3
5.305093324001064,0.0,0.1571428571428571,3.3
5.311157303003711,0.0,0.1571428571428571,3.3
5.314459204004379,0.0,0.1571428571428571,3.3
5.315406736001023,0.0,0.1571428571428571,3.3
5.3163676250042045,0.0,0.1571428571428571,3.3
5.318018095000298,0.07413919413919413,0.19018315018315018,3.3
5.32568347400229,0.19018315018315018,0.2071062271062271,2.5747252747252745
5.331229013005213,0.7421978021978022,0.83003663003663,2.352307692307692
5.331538033002289,0.9114285714285715,0.6213186813186813,2.5763369963369964
5.336327566001273,0.9114285714285715,0.6213186813186813,2.5763369963369964
5.340955233004934,0.9114285714285715,0.6213186813186813,2.5763369963369964
5.341167349004536,0.9114285714285715,0.6213186813186813,2.5763369963369964
5.345888957999705,0.9114285714285715,0.6213186813186813,2.5763369963369964
5.346170807002636,0.9114285714285715,0.6213186813186813,2.5763369963369964
5.3516570210049395,0.9114285714285715,0.6213186813186813,2.5763369963369964
5.352978087001247,0.9114285714285715,0.6213186813186813,2.5763369963369964
5.358345035005186,0.9114285714285715,0.6213186813186813,2.5763369963369964
5.360813213002984,0.9114285714285715,0.6213186813186813,2.5763369963369964
5.366185866005253,0.0,0.16117216117216115,1.328058608058608
5.368598987006408,0.0,0.16842490842490843,3.3
5.368847420999373,0.0,0.16842490842490843,3.3
5.373595245000615,0.0,0.16842490842490843,3.3
5.373792021004192,0.0,0.16842490842490843,3.3
5.378884720004862,0.0,0.16842490842490843,3.3
5.382839542005968,0.0,0.16842490842490843,3.3
5.38764913000341,0.0,0.16842490842490843,3.3
5.395024519006256,0.0,0.16842490842490843,3.3
5.401244111999404,0.0,0.16842490842490843,3.3
5.408879975002492,0.0,0.16842490842490843,3.3
5.4154725230037,0.0,0.21435897435897436,3.3
5.422108978003962,0.0,0.21435897435897436,3.3
5.4290198189992225,0.0,0.21435897435897436,3.3
5.4323337500027264,0.0,0.21435897435897436,3.3
5.433279164004489,0.8816117216117215,0.6543589743589743,2.5706959706959704
5.4343091860064305,0.809084249084249,0.5487912087912087,2.5747252747252745
5.435250145004829,0.809084249084249,0.5487912087912087,2.5747252747252745
5.436119588004658,0.809084249084249,0.5487912087912087,2.5747252747252745
5.4389375259997905,0.809084249084249,0.5487912087912087,2.5747252747252745
5.443153644999256,0.809084249084249,0.5487912087912087,2.5747252747252745
5.443469763005851,0.809084249084249,0.5487912087912087,2.5747252747252745
5.448983656002383,0.809084249084249,0.5487912087912087,2.5747252747252745
5.450626394005667,0.809084249084249,0.5487912087912087,2.5747252747252745
5.454878386000928,0.809084249084249,0.5487912087912087,2.5747252747252745
5.457854641004815,0.809084249084249,0.5487912087912087,2.5747252747252745
5.460006162000354,0.10153846153846154,0.18615384615384614,3.3
5.460193279002851,0.10153846153846154,0.18615384615384614,3.3
5.465091614001722,0.10153846153846154,0.18615384615384614,3.3
5.471496846999798,0.0,0.27076923076923076,3.3
5.476379599000211,0.0,0.27076923076923076,3.3
5.479973583001993,0.0,0.27076923076923076,3.3
5.485618770006113,0.0,0.27076923076923076,3.3
5.487827994002146,0.30945054945054945,0.7567032967032966,2.556996336996337
5.488251150003634,0.30945054945054945,0.7567032967032966,2.556996336996337
5.494269528004224,0.30945054945054945,0.7567032967032966,2.556996336996337
5.497624715004349,0.585054945054945,0.39487179487179486,2.5787545787545785
5.498492697006441,0.585054945054945,0.39487179487179486,2.5787545787545785
5.500066858003265,0.585054945054945,0.39487179487179486,2.5787545787545785
5.504056989004312,0.585054945054945,0.39487179487179486,2.5787545787545785
5.51047094900423,0.0,0.20065934065934066,3.3
5.513740033005888,0.27802197802197803,0.7333333333333333,2.7076923076923074
5.514737813005922,0.27802197802197803,0.7333333333333333,2.7076923076923074
5.515744499003631,0.27802197802197803,0.7333333333333333,2.7076923076923074
5.516665164002916,0.27802197802197803,0.7333333333333333,2.7076923076923074
5.518273039000633,0.27802197802197803,0.7333333333333333,2.7076923076923074
5.523531390004791,0.1772893772893773,0.195018315018315,2.573113553113553
5.527305994000926,1.3957509157509156,1.3224175824175823,3.3
5.532626640000672,1.3957509157509156,1.3224175824175823,3.3
5.534078468001098,0.04351648351648352,0.527032967032967,1.4336263736263737
5.541342068005179,0.6559706959706959,0.4432234432234432,2.5747252747252745
5.545819831000699,0.0,0.11523809523809524,0.5931135531135531
5.545991934006452,0.0,0.11523809523809524,0.5931135531135531
5.551271180003823,0.0,0.11523809523809524,0.5931135531135531
5.555286545000854,0.0,0.11523809523809524,0.5931135531135531
5.55889675400249,0.0,0.11523809523809524,0.5931135531135531
5.56267513900093,0.0,0.17326007326007326,2.880952380952381
5.567187795000791,0.0,0.253040293040293,3.3
5.567572129999462,0.0,0.253040293040293,3.3
5.5764929550059605,0.0,0.253040293040293,3.3
5.581214835001447,0.0,0.5947252747252747,2.5594139194139194
5.586280929004715,0.0,0.5947252747252747,2.5594139194139194
5.593223187002877,0.0,0.5947252747252747,2.5594139194139194
5.597527474004892,0.0,0.5947252747252747,2.5594139194139194
5.601761340003577,0.0,0.5947252747252747,2.5594139194139194
5.603380715001549,0.0,0.5947252747252747,2.5594139194139194
5.610242372000357,0.0,0.5947252747252747,2.5594139194139194
5.615497265003796,0.0,0.5947252747252747,2.5594139194139194
5.617042431003938,1.2692307692307692,1.4545787545787545,2.5682783882783884
5.622101543005556,1.2692307692307692,1.4545787545787545,2.5682783882783884
5.627126824001607,1.2692307692307692,1.4545787545787545,2.5682783882783884
5.629004671005532,1.2692307692307692,1.4545787545787545,2.5682783882783884
5.630863294005394,1.2692307692307692,1.4545787545787545,2.5682783882783884
5.633265361000667,1.2692307692307692,1.4545787545787545,2.5682783882783884
5.63347867000266,1.2692307692307692,1.4545787545787545,2.5682783882783884
5.640158718000748,1.2692307692307692,1.4545787545787545,2.5682783882783884
5.644607474001532,1.2692307692307692,1.4545787545787545,2.5682783882783884
5.652896167004656,1.2692307692307692,1.4545787545787545,2.5682783882783884
5.661394545000803,0.7091575091575092,0.4448351648351648,2.5763369963369964
5.668381089002651,0.7091575091575092,0.4448351648351648,2.5763369963369964
5.67713320000621,0.8985347985347985,0.7413919413919414,2.577948717948718
5.683190502000798,0.8985347985347985,0.7413919413919414,2.577948717948718
5.6905403140044655,0.8985347985347985,0.7413919413919414,2.577948717948718
5.695939649005595,0.8985347985347985,0.7413919413919414,2.577948717948718
5.696169173999806,0.8985347985347985,0.7413919413919414,2.577948717948718
5.705362012005935,0.8985347985347985,0.7413919413919414,2.577948717948718
5.711268655999447,0.8985347985347985,0.7413919413919414,2.577948717948718
5.715850067004794,0.8977289377289376,0.6479120879120879,2.5715018315018314
5.716031530006148,0.6156776556776556,0.41098901098901097,2.5755311355311354
5.721938401002262,0.6156776556776556,0.41098901098901097,2.5755311355311354
5.72831451100501,0.09992673992673992,0.17326007326007326,2.5594139194139194
5.73212658000557,0.0,0.1555311355311355,2.262857142857143
5.737039610001375,0.0,0.40695970695970696,2.552967032967033
5.743987859001209,0.0,0.40695970695970696,2.552967032967033
5.747914474006393,0.23934065934065935,0.7083516483516483,2.557802197802198
5.75237630000629,0.23934065934065935,0.7083516483516483,2.557802197802198
5.753895475005265,0.23934065934065935,0.7083516483516483,2.557802197802198
5.761035925002943,0.23934065934065935,0.7083516483516483,2.557802197802198
5.7656705690023955,0.23934065934065935,0.7083516483516483,2.557802197802198
5.76600125200639,0.23934065934065935,0.7083516483516483,2.557802197802198
5.772823195002275,0.23934065934065935,0.7083516483516483,2.557802197802198
5.777269303005596,0.23934065934065935,0.7083516483516483,2.557802197802198
5.7776361560027,0.23934065934065935,0.7083516483516483,2.557802197802198
5.782196952000959,0.23934065934065935,0.7083516483516483,2.557802197802198
5.783075535000535,0.0008058608058608059,0.16117216117216115,3.3
5.7846150059995125,0.0008058608058608059,0.16117216117216115,3.3
5.792740216005768,0.0008058608058608059,0.16117216117216115,3.3
5.7965783850013395,0.0,0.1402197802197802,2.1629304029304026
5.800425805005943,0.0,0.1402197802197802,2.1629304029304026
5.808413164006197,0.0,0.1402197802197802,2.1629304029304026
5.8118515530004515,0.0,0.20468864468864467,3.3
5.812102890005917,0.8356776556776556,0.6809523809523809,2.565860805860806
5.81662217000121,0.8356776556776556,0.6809523809523809,2.565860805860806
5.816924278005899,0.3811721611721612,0.2836630036630036,2.5787545787545785
5.824121969999396,0.3811721611721612,0.2836630036630036,2.5787545787545785
5.828935131001344,0.3811721611721612,0.2836630036630036,2.5787545787545785
5.833466963005776,0.3811721611721612,0.2836630036630036,2.5787545787545785
5.833790946002409,0.8405128205128204,0.5866666666666667,2.5787545787545785
5.84022535099939,0.8405128205128204,0.5866666666666667,2.5787545787545785
5.845910519004974,0.0,0.13699633699633698,3.3
5.850526686001103,0.0,0.13699633699633698,3.3
5.850780796004983,0.8517948717948718,0.697069597069597,2.5787545787545785
5.858403268000984,0.8517948717948718,0.697069597069597,2.5787545787545785
5.86306822100596,0.8517948717948718,0.697069597069597,2.5787545787545785
5.867625658000179,0.8517948717948718,0.697069597069597,2.5787545787545785
5.86786823800503,0.0,0.1692307692307692,3.1307692307692303
5.8787249740053085,0.0,0.1692307692307692,3.1307692307692303
5.884679084003437,0.0,0.40937728937728934,2.553772893772894
5.888789857002848,0.0,0.40937728937728934,2.553772893772894
5.891829070002132,0.0,0.40937728937728934,2.553772893772894
5.894321169005707,1.0717948717948718,1.3756043956043955,2.5747252747252745
5.90429727800074,1.0717948717948718,1.3756043956043955,2.5747252747252745
5.910684278002009,1.0717948717948718,1.3756043956043955,2.5747252747252745
5.91452775200014,1.0717948717948718,1.3756043956043955,2.5747252747252745
5.919272787999944,1.0717948717948718,1.3756043956043955,2.5747252747252745
5.926486528005626,1.0717948717948718,1.3756043956043955,2.5747252747252745
5.930783463001717,1.0717948717948718,1.3756043956043955,2.5747252747252745
5.931747571004962,1.0717948717948718,1.3756043956043955,2.5747252747252745
5.933304461999796,1.0717948717948718,1.3756043956043955,2.5747252747252745
5.941206515002705,1.0717948717948718,1.3756043956043955,2.5747252747252745
5.944893199004582,0.10798534798534798,0.2111355311355311,3.3
5.94962643100007,0.10798534798534798,0.2111355311355311,3.3
5.94977831900178,0.10798534798534798,0.2111355311355311,3.3
5.957846782999695,0.10798534798534798,0.2111355311355311,3.3
5.963642662005441,0.10798534798534798,0.2111355311355311,3.3
5.9689329320026445,0.006446886446886447,0.16117216117216115,3.3
5.9733171990010305,0.006446886446886447,0.16117216117216115,3.3
5.9736863680009264,0.006446886446886447,0.16117216117216115,3.3
5.9813096600046265,0.006446886446886447,0.16117216117216115,3.3
5.988386287004687,1.1032234432234431,1.3256410256410256,2.5521611721611723
5.992814369004918,0.0024175824175824176,0.3908424908424908,2.56989010989011
5.993055812003149,0.0024175824175824176,0.3908424908424908,2.56989010989011
5.999140904001251,0.0024175824175824176,0.3908424908424908,2.56989010989011
6.003278192001744,0.0,0.13296703296703297,1.1298168498168497
6.007372083004157,0.8332600732600732,0.8566300366300367,2.8003663003663
6.009160990004602,0.8332600732600732,0.8566300366300367,2.8003663003663
6.011543438005901,0.8332600732600732,0.8566300366300367,2.8003663003663
6.011849075999635,0.8332600732600732,0.8566300366300367,2.8003663003663
6.017131970002083,0.8332600732600732,0.8566300366300367,2.8003663003663
6.021231732003798,0.5165567765567766,0.3497435897435897,2.5787545787545785
6.025335970000015,0.0,0.1402197802197802,3.3
6.027536486006284,0.0,0.1402197802197802,3.3
6.027793099005066,0.8703296703296703,0.5987545787545787,2.577142857142857
6.032889554000576,0.8703296703296703,0.5987545787545787,2.577142857142857
6.036869064002531,0.7647619047619048,1.062930402930403,2.56989010989011
6.0418517970028915,0.07494505494505493,0.17487179487179486,3.3
6.046647371003928,0.07494505494505493,0.17487179487179486,3.3
6.0543455770020955,0.07494505494505493,0.17487179487179486,3.3
6.059938360005617,0.07494505494505493,0.17487179487179486,3.3
6.060137956999824,0.07494505494505493,0.17487179487179486,3.3
6.065379380001104,0.07494505494505493,0.17487179487179486,3.3
6.068742002004001,0.07494505494505493,0.17487179487179486,3.3
6.069024732001708,0.07494505494505493,0.17487179487179486,3.3
6.07694737300335,0.0,0.3223443223443223,3.3
6.0817674530044314,0.0,0.3223443223443223,3.3
6.082058879001124,0.2111355311355311,0.726080586080586,2.5626373626373624
6.086110307005583,0.2111355311355311,0.726080586080586,2.5626373626373624
6.093347123001877,0.2111355311355311,0.726080586080586,2.5626373626373624
6.097657111000444,0.2111355311355311,0.726080586080586,2.5626373626373624
6.098906555002031,0.2111355311355311,0.726080586080586,2.5626373626373624
6.109373033999873,0.2111355311355311,0.726080586080586,2.5626373626373624
6.1172732440027175,0.2111355311355311,0.726080586080586,2.5626373626373624
6.12286492199928,0.2111355311355311,0.726080586080586,2.5626373626373624
6.124598549002258,0.2111355311355311,0.726080586080586,2.5626373626373624
6.128843541999231,0.2111355311355311,0.726080586080586,2.5626373626373624
6.129786363002495,0.2111355311355311,0.726080586080586,2.5626373626373624
6.131437956006266,0.2111355311355311,0.726080586080586,2.5626373626373624
6.135427784000058,0.2111355311355311,0.726080586080586,2.5626373626373624
6.141355495004973,0.2111355311355311,0.726080586080586,2.5626373626373624
6.146764591001556,0.2111355311355311,0.726080586080586,2.5626373626373624
6.14764126999944,0.2111355311355311,0.726080586080586,2.5626373626373624
6.149453250000079,0.2111355311355311,0.726080586080586,2.5626373626373624
6.152557166002225,0.2111355311355311,0.726080586080586,2.5626373626373624
6.156612089005648,0.2111355311355311,0.726080586080586,2.5626373626373624
6.159441969000909,0.2111355311355311,0.726080586080586,2.5626373626373624
6.162027151003713,0.2111355311355311,0.726080586080586,2.5626373626373624
6.168263040999591,0.747032967032967,0.7647619047619048,2.297509157509157
6.1768072030026815,0.0,0.16036630036630037,3.3
6.182723333004105,0.0,0.16036630036630037,3.3
6.187355620000744,0.15956043956043955,0.17809523809523808,2.5747252747252745
6.187718004999624,0.15956043956043955,0.17809523809523808,2.5747252747252745
6.19396921700536,0.007252747252747252,0.39809523809523806,2.581172161172161
6.19742005700391,0.0,0.4432234432234432,2.565860805860806
6.197658862001845,0.0,0.4432234432234432,2.565860805860806
6.204102296003839,0.0,0.4432234432234432,2.565860805860806
6.209782099002041,0.0,0.4432234432234432,2.565860805860806
6.220254751002358,0.0,0.4432234432234432,2.565860805860806
6.228165867003554,0.0,0.4432234432234432,2.565860805860806
6.232884039003693,0.8493772893772893,1.0323076923076921,2.5505494505494504
6.233047248002549,0.8493772893772893,1.0323076923076921,2.5505494505494504
6.2405143920041155,0.8493772893772893,1.0323076923076921,2.5505494505494504
6.245315781001409,0.8493772893772893,1.0323076923076921,2.5505494505494504
6.249631136000971,0.8493772893772893,1.0323076923076921,2.5505494505494504
6.251326871999481,0.8493772893772893,1.0323076923076921,2.5505494505494504
6.255366889003199,0.8493772893772893,1.0323076923076921,2.5505494505494504
6.258922758002882,0.8493772893772893,1.0323076923076921,2.5505494505494504
6.263942712001153,0.051575091575091575,0.1249084249084249,2.7342857142857144
6.268004072000622,0.051575091575091575,0.1249084249084249,2.7342857142857144
6.2744182080059545,0.8654945054945055,0.6358241758241758,2.5755311355311354
6.278257312005735,0.8654945054945055,0.6358241758241758,2.5755311355311354
6.281767398999364,0.08139194139194139,0.22886446886446887,2.54974358974359
6.281952055003785,0.0,0.14827838827838827,2.1846886446886447
6.288690494002367,0.0,0.14827838827838827,2.1846886446886447
6.294034893006028,0.0,0.14827838827838827,2.1846886446886447
6.295727468001132,0.0,0.14827838827838827,2.1846886446886447
6.299853691001772,0.0,0.14827838827838827,2.1846886446886447
6.302304476004792,0.0,0.14827838827838827,2.1846886446886447
6.312707549004699,0.0,0.14827838827838827,2.1846886446886447
6.317825513004209,0.03223443223443223,0.4214652014652014,2.5787545787545785
6.323113143000228,0.05882783882783882,0.13538461538461538,2.5545787545787544
6.323533454000426,0.05882783882783882,0.13538461538461538,2.5545787545787544
6.328971720002301,0.05882783882783882,0.13538461538461538,2.5545787545787544
6.330691318005847,0.05882783882783882,0.13538461538461538,2.5545787545787544
6.333901723999588,0.05882783882783882,0.13538461538461538,2.5545787545787544
6.335551032003423,0.05882783882783882,0.13538461538461538,2.5545787545787544
6.343258561006223,0.05882783882783882,0.13538461538461538,2.5545787545787544
6.3475713660009205,0.0,0.14344322344322344,2.386153846153846
6.349305000003369,0.0,0.14344322344322344,2.386153846153846
6.353557198002818,0.0,0.14344322344322344,2.386153846153846
6.357041091003339,0.909010989010989,0.5407326007326007,2.5795604395604395
6.36368580400449,0.017728937728937726,0.16117216117216115,2.5602197802197804
6.367750683006307,0.017728937728937726,0.16117216117216115,2.5602197802197804
6.372076557003311,0.017728937728937726,0.16117216117216115,2.5602197802197804
6.374110642005689,0.017728937728937726,0.16117216117216115,2.5602197802197804
6.3745632490026765,0.017728937728937726,0.16117216117216115,2.5602197802197804
6.379051882002386,0.017728937728937726,0.16117216117216115,2.5602197802197804
6.379329662006057,0.017728937728937726,0.16117216117216115,2.5602197802197804
6.385803860001033,0.017728937728937726,0.16117216117216115,2.5602197802197804
6.393159970000852,0.017728937728937726,0.16117216117216115,2.5602197802197804
6.397889457002748,0.017728937728937726,0.16117216117216115,2.5602197802197804
6.398052917000314,0.017728937728937726,0.16117216117216115,2.5602197802197804
6.404828871003701,0.017728937728937726,0.16117216117216115,2.5602197802197804
6.411259144006181,0.017728937728937726,0.16117216117216115,2.5602197802197804
6.416151062003337,0.9557509157509158,0.7131868131868132,2.573113553113553
6.420275185999344,0.4126007326007326,0.28930402930402926,2.5755311355311354
6.423880484006077,0.4126007326007326,0.28930402930402926,2.5755311355311354
6.428915019001579,0.6954578754578754,1.046007326007326,3.3
6.4334596500048065,0.6954578754578754,1.046007326007326,3.3
6.433589288004441,0.6954578754578754,1.046007326007326,3.3
6.440016878004826,0.6954578754578754,1.046007326007326,3.3
6.4438527490056,0.6954578754578754,1.046007326007326,3.3
6.44847157500044,0.6954578754578754,1.046007326007326,3.3
6.455846574004681,0.6954578754578754,1.046007326007326,3.3
6.460693127999548,0.4174358974358974,0.3578021978021978,2.5747252747252745
6.464126326005498,0.4174358974358974,0.3578021978021978,2.5747252747252745
6.46440359200642,0.4174358974358974,0.3578021978021978,2.5747252747252745
6.470632185002614,0.4174358974358974,0.3578021978021978,2.5747252747252745
6.478855343004398,0.4174358974358974,0.3578021978021978,2.5747252747252745
6.482980168002541,0.4174358974358974,0.3578021978021978,2.5747252747252745
6.487444095000683,0.4174358974358974,0.3578021978021978,2.5747252747252745
6.487862714006042,0.4174358974358974,0.3578021978021978,2.5747252747252745
6.493390905001434,0.12329670329670328,0.3843956043956044,2.5787545787545785
6.49360091300332,0.12329670329670328,0.3843956043956044,2.5787545787545785
6.498725311001181,0.12329670329670328,0.3843956043956044,2.5787545787545785
6.502663196006324,0.12329670329670328,0.3843956043956044,2.5787545787545785
6.510360029002186,0.12329670329670328,0.3843956043956044,2.5787545787545785
6.514883332005411,0.12329670329670328,0.3843956043956044,2.5787545787545785
6.515156313005718,0.12329670329670328,0.3843956043956044,2.5787545787545785
6.5202881549994345,0.12329670329670328,0.3843956043956044,2.5787545787545785
6.52752250800404,0.12329670329670328,0.3843956043956044,2.5787545787545785
6.532127589001902,0.0,0.16842490842490843,3.3
6.538651349001157,0.0,0.16842490842490843,3.3
6.542875750004896,0.0,0.16842490842490843,3.3
6.543901376004214,0.0,0.16842490842490843,3.3
6.545554074000393,0.0,0.16842490842490843,3.3
6.551179787005822,0.0,0.16842490842490843,3.3
6.559074163000332,0.0,0.16842490842490843,3.3
6.563093983000726,0.0,0.16842490842490843,3.3
6.566288444999373,0.0,0.16842490842490843,3.3
6.56795641300414,0.0,0.21597069597069596,3.3
6.573739178005781,0.0,0.21597069597069596,3.3
6.57983813300234,0.6422710622710622,0.4464468864468864,2.577948717948718
6.583946212005685,0.6422710622710622,0.4464468864468864,2.577948717948718
6.5881857850035885,0.0,0.1926007326007326,3.3
6.591578313003993,0.19743589743589743,0.29816849816849816,2.569084249084249
6.591846257004363,0.0,0.31509157509157504,3.3
6.600457518004987,0.6253479853479853,0.5778021978021978,2.5674725274725274
6.609002405006322,0.6253479853479853,0.5778021978021978,2.5674725274725274
6.616342065004574,0.6253479853479853,0.5778021978021978,2.5674725274725274
6.62339841100038,0.6253479853479853,0.5778021978021978,2.5674725274725274
6.627560129003541,0.6253479853479853,0.5778021978021978,2.5674725274725274
6.631300209002802,0.6253479853479853,0.5778021978021978,2.5674725274725274
6.635413809999591,0.6253479853479853,0.5778021978021978,2.5674725274725274
6.639650069999334,0.6253479853479853,0.5778021978021978,2.5674725274725274
6.641424184002972,0.0,0.28769230769230764,2.643223443223443
6.6453234790024,0.5778021978021978,0.8622710622710623,2.414358974358974
6.649363714001083,0.3964835164835165,0.31186813186813184,2.5545787545787544
6.652319198001351,0.3964835164835165,0.31186813186813184,2.5545787545787544
6.655578060999687,0.3964835164835165,0.31186813186813184,2.5545787545787544
6.655923773003451,1.0637362637362637,0.2804395604395604,2.577948717948718
6.662075605003338,1.0637362637362637,0.2804395604395604,2.577948717948718
6.6658881140028825,1.0637362637362637,0.2804395604395604,2.577948717948718
6.672805246002099,0.20307692307692307,0.5286446886446886,1.5843223443223442
6.6772108180011855,0.20307692307692307,0.5286446886446886,1.5843223443223442
6.6774534130017855,0.20307692307692307,0.5286446886446886,1.5843223443223442
6.682896158003132,0.20307692307692307,0.5286446886446886,1.5843223443223442
6.684418367003673,1.3353113553113554,1.415091575091575,3.3
6.691820480002207,1.3353113553113554,1.415091575091575,3.3
6.695770385005744,0.9065934065934066,0.8703296703296703,2.5787545787545785
6.7004221720053465,0.9065934065934066,0.8703296703296703,2.5787545787545785
6.700603996003338,0.9065934065934066,0.8703296703296703,2.5787545787545785
6.708071318003931,0.9065934065934066,0.8703296703296703,2.5787545787545785
6.711302972005797,0.9065934065934066,0.8703296703296703,2.5787545787545785
6.713016676003463,0.9065934065934066,0.8703296703296703,2.5787545787545785
6.716850264005188,0.9065934065934066,0.8703296703296703,2.5787545787545785
6.723019239005225,1.2079853479853477,1.0903296703296703,2.5755311355311354
6.726460950005276,1.2079853479853477,1.0903296703296703,2.5755311355311354
6.726736923999852,1.2079853479853477,1.0903296703296703,2.5755311355311354
6.7312898189993575,1.2079853479853477,1.0903296703296703,2.5755311355311354
6.7316022900049575,1.2079853479853477,1.0903296703296703,2.5755311355311354
6.736261337005999,1.2079853479853477,1.0903296703296703,2.5755311355311354
6.736574939001002,1.2079853479853477,1.0903296703296703,2.5755311355311354
6.741181744000642,1.2079853479853477,1.0903296703296703,2.5755311355311354
6.741378164006164,1.2079853479853477,1.0903296703296703,2.5755311355311354
6.74682266000309,1.2079853479853477,1.0903296703296703,2.5755311355311354
6.748382552003022,1.2079853479853477,1.0903296703296703,2.5755311355311354
6.753133367004921,1.2079853479853477,1.0903296703296703,2.5755311355311354
6.7585798560030526,1.2079853479853477,1.0903296703296703,2.5755311355311354
6.76014942600159,0.024175824175824173,0.8526007326007327,3.3
6.764063590999285,0.024175824175824173,0.8526007326007327,3.3
6.767896637000376,0.2635164835164835,0.7430036630036629,2.552967032967033
6.772464376001153,0.8243956043956043,0.614065934065934,2.5787545787545785
6.773323736000748,0.5238095238095237,0.6189010989010989,2.552967032967033
6.775042924004083,0.5238095238095237,0.6189010989010989,2.552967032967033
6.778260983002838,0.5238095238095237,0.6189010989010989,2.552967032967033
6.7798913170045125,0.25868131868131866,0.0709157509157509,3.3
6.784446923003998,0.25868131868131866,0.0709157509157509,3.3
6.785338570000022,0.25868131868131866,0.0709157509157509,3.3
6.787107904005097,0.25868131868131866,0.0709157509157509,3.3
6.789527335000457,0.25868131868131866,0.0709157509157509,3.3
6.789797638004529,0.25868131868131866,0.0709157509157509,3.3
6.795187269999587,0.25868131868131866,0.0709157509157509,3.3
6.79672343400307,0.25868131868131866,0.0709157509157509,3.3
6.8013230270007625,0.25868131868131866,0.0709157509157509,3.3
6.802184252002917,1.2885714285714285,1.2539194139194139,3.3
6.803759807000461,1.2885714285714285,1.2539194139194139,3.3
6.807661926999572,1.2885714285714285,1.2539194139194139,3.3
6.811380247003399,1.2885714285714285,1.2539194139194139,3.3
6.817019574002188,1.2885714285714285,1.2539194139194139,3.3
6.817271947002155,0.47706959706959706,0.18534798534798536,2.581172161172161
6.8221653460059315,0.47706959706959706,0.18534798534798536,2.581172161172161
6.826946658002271,0.47706959706959706,0.18534798534798536,2.581172161172161
6.832277891000558,0.47706959706959706,0.18534798534798536,2.581172161172161
6.834681861000718,0.47706959706959706,0.18534798534798536,2.581172161172161
6.83490386500489,0.47706959706959706,0.18534798534798536,2.581172161172161
6.840293307999673,0.47706959706959706,0.18534798534798536,2.581172161172161
6.8429331130028,0.6132600732600733,0.5068864468864469,1.8752380952380951
6.846846509004536,0.6132600732600733,0.5068864468864469,1.8752380952380951
6.850886377003917,0.7792673992673992,0.6761172161172161,2.5787545787545785
6.854123295001045,0.7792673992673992,0.6761172161172161,2.5787545787545785
6.855858132999856,0.7792673992673992,0.6761172161172161,2.5787545787545785
6.8589427130064,0.7792673992673992,0.6761172161172161,2.5787545787545785
6.860538584005553,0.7792673992673992,0.6761172161172161,2.5787545787545785
6.86520247500448,0.7792673992673992,0.6761172161172161,2.5787545787545785
6.865316789000644,0.7792673992673992,0.6761172161172161,2.5787545787545785
