time,emg1,emg2,emg3
0.006692866998491809,1.6004395604395603,0.4698168498168498,2.573113553113553
0.012848875994677655,1.6004395604395603,0.4698168498168498,2.573113553113553
0.018102148998877965,1.6004395604395603,0.4698168498168498,2.573113553113553
0.020735863996378612,1.6004395604395603,0.4698168498168498,2.573113553113553
0.02520738299790537,1.6004395604395603,0.4698168498168498,2.573113553113553
0.025496139998722356,1.6004395604395603,0.4698168498168498,2.573113553113553
0.03174914899864234,1.6004395604395603,0.4698168498168498,2.573113553113553
0.03883461799705401,1.6004395604395603,0.4698168498168498,2.573113553113553
0.04239619899453828,1.6004395604395603,0.4698168498168498,2.573113553113553
0.042631664997315966,1.6004395604395603,0.4698168498168498,2.573113553113553
0.04791275699972175,1.6004395604395603,0.4698168498168498,2.573113553113553
0.04998023999360157,1.1177289377289377,0.31186813186813184,2.702857142857143
0.05097887199372053,1.1177289377289377,0.31186813186813184,2.702857142857143
0.0513102569966577,1.1177289377289377,0.31186813186813184,2.702857142857143
0.05642124799487647,1.1177289377289377,0.31186813186813184,2.702857142857143
0.060605959995882586,1.1177289377289377,0.31186813186813184,2.702857142857143
0.06323405500006629,1.1177289377289377,0.31186813186813184,2.702857142857143
0.06903582099766936,1.1177289377289377,0.31186813186813184,2.702857142857143
0.07458809499803465,1.1177289377289377,0.31186813186813184,2.702857142857143
0.07547642799909227,0.9605860805860806,0.9186813186813186,0.9775091575091575
0.07713228499778779,0.9605860805860806,0.9186813186813186,0.9775091575091575
0.08022618399991188,0.9605860805860806,0.9186813186813186,0.9775091575091575
0.08256314299796941,0.9605860805860806,0.9186813186813186,0.9775091575091575
0.08269605600071372,0.0,0.30542124542124544,1.5416117216117216
0.08798985799512593,0.0,0.30542124542124544,1.5416117216117216
0.08957675699639367,0.0,0.30542124542124544,1.5416117216117216
0.09467293399939081,0.0,0.30542124542124544,1.5416117216117216
0.09828972299874295,0.0,0.30542124542124544,1.5416117216117216
0.0983759619994089,0.0,0.30542124542124544,1.5416117216117216
0.10365049899701262,0.0,0.30542124542124544,1.5416117216117216
0.10664561399607919,0.0,0.30542124542124544,1.5416117216117216
0.10958478300017305,0.0,0.30542124542124544,1.5416117216117216
0.11264785999810556,0.0,0.30542124542124544,1.5416117216117216
0.11546913699567085,0.0,0.30542124542124544,1.5416117216117216
0.11981961299898103,0.0,0.30542124542124544,1.5416117216117216
0.1200776319965371,0.0,0.30542124542124544,1.5416117216117216
0.1252307920003659,0.0,0.30542124542124544,1.5416117216117216
0.12894201999733923,0.08058608058608058,0.39003663003663,0.9057875457875458
0.1340254559981986,0.12813186813186814,0.17245421245421244,1.099194139194139
0.1383421369973803,0.12813186813186814,0.17245421245421244,1.099194139194139
0.13996463600051356,0.12813186813186814,0.17245421245421244,1.099194139194139
0.1442980819992954,0.12813186813186814,0.17245421245421244,1.099194139194139
0.14516191399889067,1.6326739926739926,1.432014652014652,0.9283516483516483
0.14676357499411097,1.6326739926739926,1.432014652014652,0.9283516483516483
0.15115391300059855,1.6326739926739926,1.432014652014652,0.9283516483516483
0.1520489809990977,1.6326739926739926,1.432014652014652,0.9283516483516483
0.1536669470006018,1.6326739926739926,1.432014652014652,0.9283516483516483
0.15740957600064576,1.6326739926739926,1.432014652014652,0.9283516483516483
0.16265028099587653,1.6326739926739926,1.432014652014652,0.9283516483516483
0.16565318799985107,1.6326739926739926,1.432014652014652,0.9283516483516483
0.16817980999621795,1.6326739926739926,1.432014652014652,0.9283516483516483
0.17598499299492687,1.6326739926739926,1.432014652014652,0.9283516483516483
0.18239363299653633,1.6326739926739926,1.432014652014652,0.9283516483516483
0.1901586839958327,0.0709157509157509,0.33282051282051284,2.0267399267399266
0.19441758099856088,0.0,0.12732600732600732,0.8123076923076923
0.19608461199823068,1.8808791208791207,1.2982417582417582,1.0339194139194139
0.19942494099814212,0.0,0.17326007326007326,0.8582417582417583
0.20121209699573228,0.0,0.17326007326007326,0.8582417582417583
0.2043739039945649,0.0,0.17326007326007326,0.8582417582417583
0.20520351999584818,0.0,0.17326007326007326,0.8582417582417583
0.2068339429970365,0.0,0.17326007326007326,0.8582417582417583
0.21088839900039602,0.5447619047619047,0.18776556776556774,1.9856410256410255
0.21475540299434215,0.5447619047619047,0.18776556776556774,1.9856410256410255
0.21976527399965562,1.0983882783882783,0.7953846153846154,0.6777289377289377
0.22357620299590053,1.0983882783882783,0.7953846153846154,0.6777289377289377
0.22885605599731207,1.0983882783882783,0.7953846153846154,0.6777289377289377
0.23203585999726783,1.0983882783882783,0.7953846153846154,0.6777289377289377
0.2348251929943217,1.0983882783882783,0.7953846153846154,0.6777289377289377
0.23982920299749821,1.0983882783882783,0.7953846153846154,0.6777289377289377
0.24288265299401246,1.0983882783882783,0.7953846153846154,0.6777289377289377
0.24533247399813263,1.0983882783882783,0.7953846153846154,0.6777289377289377
0.24557246699987445,1.0983882783882783,0.7953846153846154,0.6777289377289377
0.25114298799599055,1.0983882783882783,0.7953846153846154,0.6777289377289377
0.2523447319981642,1.0983882783882783,0.7953846153846154,0.6777289377289377
0.2524827390006976,1.0983882783882783,0.7953846153846154,0.6777289377289377
0.26238308699976187,1.0983882783882783,0.7953846153846154,0.6777289377289377
0.2684549259938649,1.66007326007326,0.6688644688644688,3.3
0.2731296790007036,1.66007326007326,0.6688644688644688,3.3
0.2788382439975976,1.66007326007326,0.6688644688644688,3.3
0.2791810779963271,1.66007326007326,0.6688644688644688,3.3
0.2839522029971704,1.66007326007326,0.6688644688644688,3.3
0.29026457599684363,1.382051282051282,0.5326739926739926,1.7463003663003662
0.29413962599937804,0.4496703296703296,0.18937728937728937,1.8808791208791207
0.3003701439956785,0.4496703296703296,0.18937728937728937,1.8808791208791207
0.30528543800028274,0.4496703296703296,0.18937728937728937,1.8808791208791207
0.3129927729969495,1.099194139194139,0.3586080586080586,2.473186813186813
0.324964072999137,1.099194139194139,0.3586080586080586,2.473186813186813
0.33967808799934573,1.099194139194139,0.3586080586080586,2.473186813186813
0.3540330499963602,0.8106959706959707,0.21597069597069596,2.456263736263736
0.36851736799872015,0.8106959706959707,0.21597069597069596,2.456263736263736
0.3688885109950206,1.6931135531135528,0.6591941391941392,3.3
0.37805407799896784,1.6931135531135528,0.6591941391941392,3.3
0.3783511509973323,0.49238095238095236,0.17326007326007326,2.2523809523809524
0.3848000459984178,0.49238095238095236,0.17326007326007326,2.2523809523809524
0.3894040870000026,0.004835164835164835,0.3465201465201465,1.8567032967032966
0.3896299169937265,0.004835164835164835,0.3465201465201465,1.8567032967032966
0.3951401729937061,0.004835164835164835,0.3465201465201465,1.8567032967032966
0.3961451559953275,0.004835164835164835,0.3465201465201465,1.8567032967032966
0.3964420189950033,0.004835164835164835,0.3465201465201465,1.8567032967032966
0.4034612439936609,0.004835164835164835,0.3465201465201465,1.8567032967032966
0.41060032599489205,0.004835164835164835,0.3465201465201465,1.8567032967032966
0.41698270999768283,0.004835164835164835,0.3465201465201465,1.8567032967032966
0.42092184299690416,0.0,0.22967032967032966,1.2547252747252746
0.42466781699476996,0.0,0.22967032967032966,1.2547252747252746
0.4311366689944407,0.0,0.22967032967032966,1.2547252747252746
0.4382403549971059,0.0,0.22967032967032966,1.2547252747252746
0.44382486699760193,0.0,0.22967032967032966,1.2547252747252746
0.44402102699677926,0.0,0.22967032967032966,1.2547252747252746
0.45208611999987625,0.0,0.22967032967032966,1.2547252747252746
0.4567145669934689,0.1676190476190476,0.1772893772893773,1.3643223443223442
0.45694340599584393,0.1676190476190476,0.1772893772893773,1.3643223443223442
0.46188184099446516,0.1676190476190476,0.1772893772893773,1.3643223443223442
0.46740249199501704,0.1676190476190476,0.1772893772893773,1.3643223443223442
0.4678545969945844,0.1676190476190476,0.1772893772893773,1.3643223443223442
0.4730051719961921,0.1676190476190476,0.1772893772893773,1.3643223443223442
0.47476885699870763,0.1676190476190476,0.1772893772893773,1.3643223443223442
0.47798874900036026,0.1676190476190476,0.1772893772893773,1.3643223443223442
0.47893115599435987,0.1676190476190476,0.1772893772893773,1.3643223443223442
0.4805794749991037,0.1676190476190476,0.1772893772893773,1.3643223443223442
0.4878016949951416,0.1676190476190476,0.1772893772893773,1.3643223443223442
0.4921762339945417,1.1838095238095236,0.6237362637362637,1.1846153846153846
0.49310861099365866,1.1838095238095236,0.6237362637362637,1.1846153846153846
0.4940438869962236,1.1838095238095236,0.6237362637362637,1.1846153846153846
0.4949718129937537,1.1838095238095236,0.6237362637362637,1.1846153846153846
0.4966970589957782,1.1838095238095236,0.6237362637362637,1.1846153846153846
0.5002928989997599,1.1838095238095236,0.6237362637362637,1.1846153846153846
0.5073317349961144,1.6769963369963368,0.6148717948717949,3.3
0.5121267779977643,0.12571428571428572,0.09347985347985348,1.3296703296703296
0.5122475389944157,0.12571428571428572,0.09347985347985348,1.3296703296703296
0.5187957769958302,0.12571428571428572,0.09347985347985348,1.3296703296703296
0.5229957249975996,0.12571428571428572,0.09347985347985348,1.3296703296703296
0.5247073079954134,0.12571428571428572,0.09347985347985348,1.3296703296703296
0.528627620995394,0.12571428571428572,0.09347985347985348,1.3296703296703296
0.531835173998843,0.12571428571428572,0.09347985347985348,1.3296703296703296
0.5340771899936954,0.12571428571428572,0.09347985347985348,1.3296703296703296
0.5342377279957873,0.12571428571428572,0.09347985347985348,1.3296703296703296
0.5400639559957199,0.12571428571428572,0.09347985347985348,1.3296703296703296
0.5469936539957416,1.614139194139194,0.6269597069597069,3.3
0.5538058139936766,1.2805128205128204,0.4391941391941392,2.1355311355311355
0.5598041639968869,1.8236630036630037,1.2047619047619047,0.8268131868131867
0.5655905029998394,1.8236630036630037,1.2047619047619047,0.8268131868131867
0.5717952389968559,1.8236630036630037,1.2047619047619047,0.8268131868131867
0.5771233109990135,1.8236630036630037,1.2047619047619047,0.8268131868131867
0.5787038709968328,0.9557509157509158,0.909010989010989,0.9259340659340659
0.5845151009998517,0.9557509157509158,0.909010989010989,0.9259340659340659
0.5890351019988884,0.9557509157509158,0.909010989010989,0.9259340659340659
0.589230598998256,0.9557509157509158,0.909010989010989,0.9259340659340659
0.5938622899993788,0.9557509157509158,0.909010989010989,0.9259340659340659
0.5941285179942497,0.9557509157509158,0.909010989010989,0.9259340659340659
0.5990386809935444,0.9557509157509158,0.909010989010989,0.9259340659340659
0.6051144029988791,0.9557509157509158,0.909010989010989,0.9259340659340659
0.6082982679945417,1.0242490842490841,0.34813186813186814,2.6069597069597066
0.6099974049939192,0.846153846153846,0.2232234432234432,2.8205128205128203
0.6143466139983502,0.846153846153846,0.2232234432234432,2.8205128205128203
0.6159757139976136,0.846153846153846,0.2232234432234432,2.8205128205128203
0.6228691059950506,0.846153846153846,0.2232234432234432,2.8205128205128203
0.6261439669979154,0.846153846153846,0.2232234432234432,2.8205128205128203
0.6270907879952574,0.846153846153846,0.2232234432234432,2.8205128205128203
0.6287413030004245,0.846153846153846,0.2232234432234432,2.8205128205128203
0.6327862619946245,0.846153846153846,0.2232234432234432,2.8205128205128203
0.6379928989990731,0.846153846153846,0.2232234432234432,2.8205128205128203
0.6389238779956941,0.846153846153846,0.2232234432234432,2.8205128205128203
0.6405852039970341,0.846153846153846,0.2232234432234432,2.8205128205128203
0.6437974069995107,0.846153846153846,0.2232234432234432,2.8205128205128203
0.6454734159997315,0.0032234432234432234,0.3352380952380952,1.2700366300366301
0.6509165269962978,1.2652014652014651,0.4391941391941392,2.0887912087912084
0.6527296159983962,1.2652014652014651,0.4391941391941392,2.0887912087912084
0.6547279939986765,1.2652014652014651,0.4391941391941392,2.0887912087912084
0.6564064789999975,1.2652014652014651,0.4391941391941392,2.0887912087912084
0.660537755000405,1.2652014652014651,0.4391941391941392,2.0887912087912084
0.6629610429954482,1.2652014652014651,0.4391941391941392,2.0887912087912084
0.6630680769958417,1.2652014652014651,0.4391941391941392,2.0887912087912084
0.6705960179970134,1.2652014652014651,0.4391941391941392,2.0887912087912084
0.6745925259965588,1.2652014652014651,0.4391941391941392,2.0887912087912084
0.678462297997612,1.2652014652014651,0.4391941391941392,2.0887912087912084
0.682251936996181,1.2652014652014651,0.4391941391941392,2.0887912087912084
0.6897010629982105,0.004029304029304029,0.30945054945054945,1.9397069597069596
0.6943203739938326,0.004029304029304029,0.30945054945054945,1.9397069597069596
0.6944427799971891,0.004029304029304029,0.30945054945054945,1.9397069597069596
0.7018628049991094,0.004029304029304029,0.30945054945054945,1.9397069597069596
0.7072574539997731,0.004029304029304029,0.30945054945054945,1.9397069597069596
0.7075527049964876,0.004029304029304029,0.30945054945054945,1.9397069597069596
0.7131263880000915,0.004029304029304029,0.30945054945054945,1.9397069597069596
0.7139206969950465,0.004029304029304029,0.30945054945054945,1.9397069597069596
0.7157462689938257,0.004029304029304029,0.30945054945054945,1.9397069597069596
0.7204317039941088,0.004029304029304029,0.30945054945054945,1.9397069597069596
0.7298420059960335,1.5843223443223442,0.6390476190476191,3.3
0.740110528000514,1.3191941391941393,0.415018315018315,2.598095238095238
0.7457169419940328,1.3191941391941393,0.415018315018315,2.598095238095238
0.7465254130001995,1.3191941391941393,0.415018315018315,2.598095238095238
0.7481661399942823,1.3191941391941393,0.415018315018315,2.598095238095238
0.7548393069955637,1.3191941391941393,0.415018315018315,2.598095238095238
0.7589394729948253,1.6665201465201465,1.058901098901099,0.5931135531135531
0.7629984149971278,1.6665201465201465,1.058901098901099,0.5931135531135531
0.7654660970001714,1.6665201465201465,1.058901098901099,0.5931135531135531
0.7745440839935327,1.6665201465201465,1.058901098901099,0.5931135531135531
0.7829351809996297,1.6665201465201465,1.058901098901099,0.5931135531135531
0.7875621789935394,0.28205128205128205,0.33684981684981685,2.8785347985347984
0.7877098129974911,0.28205128205128205,0.33684981684981685,2.8785347985347984
0.792456195995328,0.28205128205128205,0.33684981684981685,2.8785347985347984
0.792673042997194,0.28205128205128205,0.33684981684981685,2.8785347985347984
0.8009926459999406,0.28205128205128205,0.33684981684981685,2.8785347985347984
0.8089059319972876,0.28205128205128205,0.33684981684981685,2.8785347985347984
0.8148586979950778,0.28205128205128205,0.33684981684981685,2.8785347985347984
0.8241573779960163,0.28205128205128205,0.33684981684981685,2.8785347985347984
0.8324516270004096,0.28205128205128205,0.33684981684981685,2.8785347985347984
0.8392734829976689,0.3586080586080586,0.14827838827838827,2.0444688644688642
0.845764131998294,0.0,0.1571428571428571,0.9202930402930403
0.8514871049992507,0.0,0.1571428571428571,0.9202930402930403
0.8565665309943142,0.0701098901098901,0.34087912087912087,0.7212454212454212
0.8618740460005938,0.0,0.15633699633699633,0.9613919413919414
0.8627194009968662,0.0,0.15633699633699633,0.9613919413919414
0.8643391349978629,0.0,0.15633699633699633,0.9613919413919414
0.8685945729957893,0.0,0.15633699633699633,0.9613919413919414
0.8716486989942496,0.0,0.15633699633699633,0.9613919413919414
0.8732637209977838,0.0,0.15633699633699633,0.9613919413919414
0.8766726510002627,0.0,0.15633699633699633,0.9613919413919414
0.87751386299351,0.0,0.15633699633699633,0.9613919413919414
0.8791194609948434,0.0,0.15633699633699633,0.9613919413919414
0.8859433349934989,0.0,0.15633699633699633,0.9613919413919414
0.8915320949963643,0.0,0.15633699633699633,0.9613919413919414
0.8917063169938046,0.0,0.15633699633699633,0.9613919413919414
0.899664013995789,0.0,0.15633699633699633,0.9613919413919414
0.9068055389943765,0.0,0.1805128205128205,0.9283516483516483
0.910868049999408,0.0,0.1805128205128205,0.9283516483516483
0.9133898000000045,0.0,0.1805128205128205,0.9283516483516483
0.9210362859957968,0.0,0.1805128205128205,0.9283516483516483
0.9256254089996219,0.0,0.1805128205128205,0.9283516483516483
0.9265749189944472,0.0,0.1805128205128205,0.9283516483516483
0.9268584249948617,0.0,0.1805128205128205,0.9283516483516483
0.9329449769938947,0.0,0.1805128205128205,0.9283516483516483
0.939953411994793,0.2683516483516483,0.05882783882783882,1.8365567765567765
0.9445711640000809,0.2683516483516483,0.05882783882783882,1.8365567765567765
0.9454226469970308,0.2683516483516483,0.05882783882783882,1.8365567765567765
0.9477046629981487,0.2683516483516483,0.05882783882783882,1.8365567765567765
0.9479304429987678,0.2683516483516483,0.05882783882783882,1.8365567765567765
0.9555927109977347,0.3424908424908425,0.15472527472527473,1.9147252747252748
0.9603204960003495,0.3424908424908425,0.15472527472527473,1.9147252747252748
0.9656616339998436,0.3424908424908425,0.15472527472527473,1.9147252747252748
0.9717559569980949,0.3424908424908425,0.15472527472527473,1.9147252747252748
0.9752425369952107,0.3424908424908425,0.15472527472527473,1.9147252747252748
0.9753787049994571,0.3424908424908425,0.15472527472527473,1.9147252747252748
0.9800465799999074,0.3424908424908425,0.15472527472527473,1.9147252747252748
0.980267888000526,0.3424908424908425,0.15472527472527473,1.9147252747252748
0.9894056539997109,0.3424908424908425,0.15472527472527473,1.9147252747252748
0.9950386589989648,0.3424908424908425,0.15472527472527473,1.9147252747252748
0.9952763990004314,0.8437362637362636,0.8936996336996336,0.9541391941391941
1.0035714949990506,0.8437362637362636,0.8936996336996336,0.9541391941391941
1.008552184997825,0.8437362637362636,0.8936996336996336,0.9541391941391941
1.0124672269957955,0.8437362637362636,0.8936996336996336,0.9541391941391941
1.0181505599975935,0.0,0.12893772893772892,1.0137728937728938
1.0231480570000713,0.0,0.2216117216117216,0.6857875457875457
1.0271785549994092,1.4787545787545788,1.2934065934065933,0.8292307692307692
1.0296438669975032,1.4787545787545788,1.2934065934065933,0.8292307692307692
1.0297707569989143,1.4787545787545788,1.2934065934065933,0.8292307692307692
1.0366285209966009,1.4787545787545788,1.2934065934065933,0.8292307692307692
1.0412630969949532,0.10315018315018315,0.13699633699633698,1.4860073260073259
1.041379786998732,1.6697435897435895,0.6833699633699634,2.553772893772894
1.045998157998838,0.734139194139194,0.8469597069597068,0.7333333333333333
1.0462158899972565,0.734139194139194,0.8469597069597068,0.7333333333333333
1.055498475994682,0.734139194139194,0.8469597069597068,0.7333333333333333
1.062509028997738,0.734139194139194,0.8469597069597068,0.7333333333333333
1.0675511929948698,0.734139194139194,0.8469597069597068,0.7333333333333333
1.0733652429989888,0.734139194139194,0.8469597069597068,0.7333333333333333
1.080503098994086,0.734139194139194,0.8469597069597068,0.7333333333333333
1.086403708999569,0.734139194139194,0.8469597069597068,0.7333333333333333
1.0926005269939196,0.734139194139194,0.8469597069597068,0.7333333333333333
1.0972375119963544,0.734139194139194,0.8469597069597068,0.7333333333333333
1.1056852139954572,0.734139194139194,0.8469597069597068,0.7333333333333333
1.114298989996314,0.734139194139194,0.8469597069597068,0.7333333333333333
1.1234786059940234,0.25545787545787546,0.14666666666666667,1.6713553113553112
1.1298019829991972,0.0,0.1692307692307692,0.6785347985347985
1.1352570239978377,0.0,0.1692307692307692,0.6785347985347985
1.1355801969984896,0.0,0.1692307692307692,0.6785347985347985
1.1443714249980985,0.0,0.1692307692307692,0.6785347985347985
1.1525376729987329,0.0,0.1692307692307692,0.6785347985347985
1.158015222994436,0.0,0.1692307692307692,0.6785347985347985
1.158957620995352,0.0,0.1692307692307692,0.6785347985347985
1.1601204499966116,0.0,0.1692307692307692,0.6785347985347985
1.1603002449992346,1.4158974358974357,0.6245421245421244,2.5473260073260073
1.1660031669962336,1.4158974358974357,0.6245421245421244,2.5473260073260073
1.166231898998376,1.3465934065934064,1.1854212454212454,0.9227106227106227
1.1715014090004843,1.3465934065934064,1.1854212454212454,0.9227106227106227
1.174836742997286,1.3465934065934064,1.1854212454212454,0.9227106227106227
1.1750480470000184,1.3465934065934064,1.1854212454212454,0.9227106227106227
1.1797955929941963,1.3465934065934064,1.1854212454212454,0.9227106227106227
1.1799025750005967,1.627032967032967,0.6350183150183151,3.3
1.185187525996298,1.627032967032967,0.6350183150183151,3.3
1.1884062709941645,1.627032967032967,0.6350183150183151,3.3
1.1893820659970515,1.627032967032967,0.6350183150183151,3.3
1.1903609939981834,1.627032967032967,0.6350183150183151,3.3
1.1911691339992103,1.627032967032967,0.6350183150183151,3.3
1.1928450999985216,1.627032967032967,0.6350183150183151,3.3
1.1970130079935188,1.627032967032967,0.6350183150183151,3.3
1.1997498879936757,0.0,0.18776556776556774,0.8864468864468864
1.203486354999768,0.0,0.18776556776556774,0.8864468864468864
1.2087704749937984,0.0,0.18776556776556774,0.8864468864468864
1.2115913479938172,0.0,0.18776556776556774,0.8864468864468864
1.215066732998821,0.0,0.18776556776556774,0.8864468864468864
1.2153002269988065,0.0,0.18776556776556774,0.8864468864468864
1.220085980996373,0.0,0.18776556776556774,0.8864468864468864
1.2202474259975133,0.0,0.18776556776556774,0.8864468864468864
1.225099480994686,0.06124542124542124,0.3723076923076923,2.3087912087912086
1.2252275119972182,0.06124542124542124,0.3723076923076923,2.3087912087912086
1.2300593109976035,0.06124542124542124,0.3723076923076923,2.3087912087912086
1.2302527289939462,0.06124542124542124,0.3723076923076923,2.3087912087912086
1.235804523996194,0.06124542124542124,0.3723076923076923,2.3087912087912086
1.2374714670004323,0.06124542124542124,0.3723076923076923,2.3087912087912086
1.2411486499986495,0.06124542124542124,0.3723076923076923,2.3087912087912086
1.2465546099992935,0.06124542124542124,0.3723076923076923,2.3087912087912086
1.249441054998897,0.06124542124542124,0.3723076923076923,2.3087912087912086
1.2523801399947843,0.06124542124542124,0.3723076923076923,2.3087912087912086
1.2554897629961488,0.14827838827838827,0.13216117216117215,1.5698168498168497
1.2585223659989424,0.14827838827838827,0.13216117216117215,1.5698168498168497
1.2601749940004083,0.14827838827838827,0.13216117216117215,1.5698168498168497
1.263849281000148,0.14827838827838827,0.13216117216117215,1.5698168498168497
1.2688140939935693,0.14827838827838827,0.13216117216117215,1.5698168498168497
1.272883682999236,0.14827838827838827,0.13216117216117215,1.5698168498168497
1.2757198209947092,0.14827838827838827,0.13216117216117215,1.5698168498168497
1.279157832999772,0.14827838827838827,0.13216117216117215,1.5698168498168497
1.2799005919951014,0.0,0.1772893772893773,0.8493772893772893
1.2819813129972317,0.0,0.1772893772893773,0.8493772893772893
1.2834565619996283,0.0,0.1772893772893773,0.8493772893772893
1.2881836039960035,0.0,0.1772893772893773,0.8493772893772893
1.2883769139953074,0.0,0.1772893772893773,0.8493772893772893
1.2930809229947045,0.0,0.1772893772893773,0.8493772893772893
1.2932986230007373,0.0,0.1772893772893773,0.8493772893772893
1.2979569289964275,0.0,0.1772893772893773,0.8493772893772893
1.2987208199992892,0.0,0.14989010989010987,0.6962637362637363
1.300425543995516,0.0,0.14989010989010987,0.6962637362637363
1.3035574839959736,0.0,0.14989010989010987,0.6962637362637363
1.3057434619986452,0.0,0.14989010989010987,0.6962637362637363
1.3067385819958872,0.0,0.14989010989010987,0.6962637362637363
1.3070172219959204,0.0,0.14989010989010987,0.6962637362637363
1.31220618399675,0.0,0.14989010989010987,0.6962637362637363
1.3151633169982233,0.0,0.14989010989010987,0.6962637362637363
1.3189466599942534,0.0,0.14989010989010987,0.6962637362637363
1.3243063519985299,0.08783882783882783,0.1772893772893773,1.1676923076923076
1.3267749439983163,0.08783882783882783,0.1772893772893773,1.1676923076923076
1.332053915997676,0.08783882783882783,0.1772893772893773,1.1676923076923076
1.335244898997189,0.8687179487179487,0.6978754578754578,0.4794871794871795
1.3368059579952387,0.8687179487179487,0.6978754578754578,0.4794871794871795
1.341534541999863,0.8687179487179487,0.6978754578754578,0.4794871794871795
1.3469044550001854,0.8687179487179487,0.6978754578754578,0.4794871794871795
1.3494116859947098,0.8687179487179487,0.6978754578754578,0.4794871794871795
1.3550203179984237,0.8687179487179487,0.6978754578754578,0.4794871794871795
1.3567289219936356,0.8687179487179487,0.6978754578754578,0.4794871794871795
1.3605517229952966,0.8687179487179487,0.6978754578754578,0.4794871794871795
1.3646123649959918,0.8687179487179487,0.6978754578754578,0.4794871794871795
1.368696622994321,0.8687179487179487,0.6978754578754578,0.4794871794871795
1.3727677930000937,0.8687179487179487,0.6978754578754578,0.4794871794871795
1.375521187997947,0.8687179487179487,0.6978754578754578,0.4794871794871795
1.379776576999575,0.8687179487179487,0.6978754578754578,0.4794871794871795
1.3818666739971377,0.0,0.14747252747252745,0.6148717948717949
1.3833273130003363,0.14102564102564102,0.46659340659340653,0.942051282051282
1.388003732994548,0.14102564102564102,0.46659340659340653,0.942051282051282
1.3883086040004855,0.14102564102564102,0.46659340659340653,0.942051282051282
1.3930929039997864,0.14102564102564102,0.46659340659340653,0.942051282051282
1.3932264679970103,0.14102564102564102,0.46659340659340653,0.942051282051282
1.3973857069941005,0.14102564102564102,0.46659340659340653,0.942051282051282
1.4009899489974487,0.14102564102564102,0.46659340659340653,0.942051282051282
1.4012094919962692,0.14102564102564102,0.46659340659340653,0.942051282051282
1.4060336429974996,0.0,0.26996336996336995,1.66007326007326
1.4107835489994613,0.8566300366300367,0.26190476190476186,2.7495970695970695
1.4110661469967454,0.0709157509157509,0.1249084249084249,1.3361172161172161
1.415813416999299,0.0709157509157509,0.1249084249084249,1.3361172161172161
1.4160240839992184,0.0709157509157509,0.1249084249084249,1.3361172161172161
1.4207083779983805,0.0709157509157509,0.1249084249084249,1.3361172161172161
1.4214661799996975,1.498095238095238,0.6350183150183151,3.3
1.4235972039969056,1.498095238095238,0.6350183150183151,3.3
1.4244026050000684,1.498095238095238,0.6350183150183151,3.3
1.4265025339991553,1.498095238095238,0.6350183150183151,3.3
1.427923674993508,1.498095238095238,0.6350183150183151,3.3
1.4328185319973272,1.498095238095238,0.6350183150183151,3.3
1.4376548609943711,1.498095238095238,0.6350183150183151,3.3
1.4425053429949912,1.498095238095238,0.6350183150183151,3.3
1.4426328849949641,1.498095238095238,0.6350183150183151,3.3
1.447428712999681,1.498095238095238,0.6350183150183151,3.3
1.4475691359984921,1.2724542124542124,0.4585347985347985,2.0976556776556774
1.4516427309936262,1.2724542124542124,0.4585347985347985,2.0976556776556774
1.4550735279990477,1.2724542124542124,0.4585347985347985,2.0976556776556774
1.4558326359983766,1.2724542124542124,0.4585347985347985,2.0976556776556774
1.4573051289989962,1.2724542124542124,0.4585347985347985,2.0976556776556774
1.4626728049988742,1.2724542124542124,0.4585347985347985,2.0976556776556774
1.4657537349994527,1.2724542124542124,0.4585347985347985,2.0976556776556774
1.4673215609946055,1.2724542124542124,0.4585347985347985,2.0976556776556774
1.4712243769972702,1.2724542124542124,0.4585347985347985,2.0976556776556774
1.475571097995271,1.2724542124542124,0.4585347985347985,2.0976556776556774
1.4788170009996975,0.0,0.27399267399267396,0.8783882783882784
1.4797267519970774,1.4545787545787545,0.6132600732600733,3.2339194139194136
1.4812619959993754,1.4545787545787545,0.6132600732600733,3.2339194139194136
1.4857544939950458,1.4545787545787545,0.6132600732600733,3.2339194139194136
1.4874302349999198,1.4545787545787545,0.6132600732600733,3.2339194139194136
1.4918786679991172,1.4860073260073259,0.38681318681318677,3.3
1.4935163899936015,0.11443223443223444,0.14505494505494507,1.547252747252747
1.4973303739971016,0.11443223443223444,0.14505494505494507,1.547252747252747
1.5025922610002453,0.11443223443223444,0.14505494505494507,1.547252747252747
1.5054703149944544,0.6043956043956044,0.7647619047619048,0.7019047619047618
1.5084393739962252,0.6043956043956044,0.7647619047619048,0.7019047619047618
1.51137344900053,0.6043956043956044,0.7647619047619048,0.7019047619047618
1.5135920399989118,0.6043956043956044,0.7647619047619048,0.7019047619047618
1.5149718449974898,0.6043956043956044,0.7647619047619048,0.7019047619047618
1.5198084399962681,0.6043956043956044,0.7647619047619048,0.7019047619047618
1.5200317899943911,1.3659340659340657,0.5342857142857143,3.3
1.5246595549979247,1.3659340659340657,0.5342857142857143,3.3
1.5262219149954035,1.4537728937728938,1.398168498168498,0.9267399267399267
1.5302952219935833,1.4537728937728938,1.398168498168498,0.9267399267399267
1.533088037998823,1.4537728937728938,1.398168498168498,0.9267399267399267
1.5371394219982903,1.4537728937728938,1.398168498168498,0.9267399267399267
1.5405230329997721,1.4537728937728938,1.398168498168498,0.9267399267399267
1.5415089140005875,1.4537728937728938,1.398168498168498,0.9267399267399267
1.5423589929996524,1.4537728937728938,1.398168498168498,0.9267399267399267
1.5437847099965438,1.4537728937728938,1.398168498168498,0.9267399267399267
1.5485987979991478,1.4537728937728938,1.398168498168498,0.9267399267399267
1.548721751998528,1.2885714285714285,0.423076923076923,2.8898168498168495
1.553583566994348,1.2885714285714285,0.423076923076923,2.8898168498168495
1.5582851419967483,1.2885714285714285,0.423076923076923,2.8898168498168495
1.55846981099603,1.2885714285714285,0.423076923076923,2.8898168498168495
1.5639232289977372,1.2885714285714285,0.423076923076923,2.8898168498168495
1.5647714949955116,1.2885714285714285,0.423076923076923,2.8898168498168495
1.5668654479959514,1.2885714285714285,0.423076923076923,2.8898168498168495
1.5682392939997953,1.2885714285714285,0.423076923076923,2.8898168498168495
1.5729330979957012,1.2885714285714285,0.423076923076923,2.8898168498168495
1.5731583289962145,1.2885714285714285,0.423076923076923,2.8898168498168495
1.577845512998465,1.2885714285714285,0.423076923076923,2.8898168498168495
1.57800109499658,1.2885714285714285,0.423076923076923,2.8898168498168495
1.5827001049983664,1.2885714285714285,0.423076923076923,2.8898168498168495
1.5829319749973365,1.0508424908424907,0.9718681318681318,0.6438827838827839
1.5875815369945485,1.0508424908424907,0.9718681318681318,0.6438827838827839
1.5877762149975752,1.0113553113553113,0.3038095238095238,2.9019047619047615
1.59262679299718,1.0113553113553113,0.3038095238095238,2.9019047619047615
1.5973528499962413,1.0113553113553113,0.3038095238095238,2.9019047619047615
1.597449732995301,1.0113553113553113,0.3038095238095238,2.9019047619047615
1.6020988339951145,1.0113553113553113,0.3038095238095238,2.9019047619047615
1.6023068419963238,1.0113553113553113,0.3038095238095238,2.9019047619047615
1.6069763419945957,1.0113553113553113,0.3038095238095238,2.9019047619047615
1.6072314999983064,1.0113553113553113,0.3038095238095238,2.9019047619047615
1.6118455179966986,1.0113553113553113,0.3038095238095238,2.9019047619047615
1.6126206599947182,0.0,0.12168498168498168,0.6809523809523809
1.614654854995024,0.0,0.12168498168498168,0.6809523809523809
1.6160563609955716,0.0,0.12168498168498168,0.6809523809523809
1.620621554000536,0.0,0.12168498168498168,0.6809523809523809
1.6213758479934768,0.0,0.12168498168498168,0.6809523809523809
1.6235400730001857,0.0,0.12168498168498168,0.6809523809523809
1.6243223099954776,0.0,0.12168498168498168,0.6809523809523809
1.6265628719993401,0.0,0.12168498168498168,0.6809523809523809
1.627276303996041,0.0,0.12168498168498168,0.6809523809523809
1.6293883319958695,0.0,0.12168498168498168,0.6809523809523809
1.6302641199945356,0.0,0.1402197802197802,0.805054945054945
1.63229750499886,0.0,0.1402197802197802,0.805054945054945
1.6336486759973923,0.0,0.1402197802197802,0.805054945054945
1.6337313129988615,0.0,0.1402197802197802,0.805054945054945
1.6384517519982182,0.0,0.1402197802197802,0.805054945054945
1.6385325429946533,0.0,0.1402197802197802,0.805054945054945
1.6432328409937327,0.0,0.1402197802197802,0.805054945054945
1.6433748769995873,0.29010989010989013,0.5842490842490843,0.718021978021978
1.6481858449988067,0.29010989010989013,0.5842490842490843,0.718021978021978
1.6482780089936568,0.29010989010989013,0.5842490842490843,0.718021978021978
1.6529383809975116,0.29010989010989013,0.5842490842490843,0.718021978021978
1.6531692869975814,0.29010989010989013,0.5842490842490843,0.718021978021978
1.6586221149991616,0.29010989010989013,0.5842490842490843,0.718021978021978
1.6611014459995204,0.29010989010989013,0.5842490842490843,0.718021978021978
1.6661623699983465,0.29010989010989013,0.5842490842490843,0.718021978021978
1.6702117039967561,0.29010989010989013,0.5842490842490843,0.718021978021978
1.6736397259955993,0.29010989010989013,0.5842490842490843,0.718021978021978
1.6744593719995464,1.938095238095238,1.3756043956043955,1.016190476190476
1.676599450998765,1.938095238095238,1.3756043956043955,1.016190476190476
1.6774056969952653,1.938095238095238,1.3756043956043955,1.016190476190476
1.6795919029973447,1.938095238095238,1.3756043956043955,1.016190476190476
1.6803513689956162,1.938095238095238,1.3756043956043955,1.016190476190476
1.681834777999029,1.938095238095238,1.3756043956043955,1.016190476190476
1.686548732999654,1.938095238095238,1.3756043956043955,1.016190476190476
1.6867136789951473,1.2474725274725273,0.3884249084249084,2.9704029304029302
1.6913519390000147,1.2474725274725273,0.3884249084249084,2.9704029304029302
1.6916354200002388,1.2474725274725273,0.3884249084249084,2.9704029304029302
1.6962807189993327,1.2474725274725273,0.3884249084249084,2.9704029304029302
1.6964677719952306,1.2474725274725273,0.3884249084249084,2.9704029304029302
1.7012411809992045,1.2474725274725273,0.3884249084249084,2.9704029304029302
1.705988483998226,1.2474725274725273,0.3884249084249084,2.9704029304029302
1.7062436849955702,1.224102564102564,1.095164835164835,1.1427106227106225
1.7109536379939527,1.224102564102564,1.095164835164835,1.1427106227106225
1.711252863999107,1.224102564102564,1.095164835164835,1.1427106227106225
1.7153106789992307,1.224102564102564,1.095164835164835,1.1427106227106225
1.7187759719963651,1.224102564102564,1.095164835164835,1.1427106227106225
1.7190893320002942,1.224102564102564,1.095164835164835,1.1427106227106225
1.7237366359986481,1.224102564102564,1.095164835164835,1.1427106227106225
1.7239612409975962,1.224102564102564,1.095164835164835,1.1427106227106225
1.7286079469995457,1.224102564102564,1.095164835164835,1.1427106227106225
1.7288208059981116,1.224102564102564,1.095164835164835,1.1427106227106225
1.733476861998497,1.224102564102564,1.095164835164835,1.1427106227106225
1.7337942839949392,0.0,0.24417582417582417,0.8654945054945055
1.7384331449939054,0.0,0.24417582417582417,0.8654945054945055
1.7391803239952424,0.0,0.24417582417582417,0.8654945054945055
1.7406137869984377,0.0,0.24417582417582417,0.8654945054945055
1.7457355149963405,0.0,0.24417582417582417,0.8654945054945055
1.749302889998944,0.0,0.24417582417582417,0.8654945054945055
1.7495381769986125,0.0,0.24417582417582417,0.8654945054945055
1.7542571379963192,0.0,0.24417582417582417,0.8654945054945055
1.7543760119951912,0.0,0.24417582417582417,0.8654945054945055
1.7590776669967454,0.0,0.24417582417582417,0.8654945054945055
1.7593378019955708,0.0,0.24417582417582417,0.8654945054945055
1.764989864997915,0.0,0.24417582417582417,0.8654945054945055
1.7652386409972678,0.0,0.24417582417582417,0.8654945054945055
1.7699634679956944,0.0,0.24417582417582417,0.8654945054945055
1.7701466379949125,0.0,0.24417582417582417,0.8654945054945055
1.7747801709992927,0.0,0.24417582417582417,0.8654945054945055
1.7751074229963706,0.0,0.24256410256410255,1.3868864468864468
1.7798026179953013,0.0,0.24256410256410255,1.3868864468864468
1.780043217993807,0.0,0.24256410256410255,1.3868864468864468
1.784632889997738,0.0,0.24256410256410255,1.3868864468864468
1.7853831169995829,0.0,0.24256410256410255,1.3868864468864468
1.7874866450001718,0.0,0.24256410256410255,1.3868864468864468
1.78892210599588,0.0,0.24256410256410255,1.3868864468864468
1.7935450289951405,0.0,0.24256410256410255,1.3868864468864468
1.7942810459935572,0.0,0.24256410256410255,1.3868864468864468
1.796291956998175,0.0,0.24256410256410255,1.3868864468864468
1.7978235519985901,0.0,0.24256410256410255,1.3868864468864468
1.802745622000657,0.10315018315018315,0.14908424908424908,1.2974358974358973
1.8075888530001976,0.43274725274725273,0.6664468864468864,0.6914285714285714
1.8076891419987078,1.3756043956043955,0.5479853479853479,1.9534065934065934
1.8123787279982935,1.3756043956043955,0.5479853479853479,1.9534065934065934
1.8126062279989128,1.3756043956043955,0.5479853479853479,1.9534065934065934
1.8172546989953844,1.3756043956043955,0.5479853479853479,1.9534065934065934
1.8176046689986833,1.3756043956043955,0.5479853479853479,1.9534065934065934
1.8223135149964946,1.3756043956043955,0.5479853479853479,1.9534065934065934
1.82241988399619,1.6431501831501831,0.6664468864468864,2.5505494505494504
1.8272142789937789,1.6431501831501831,0.6664468864468864,2.5505494505494504
1.8319661129935412,1.6431501831501831,0.6664468864468864,2.5505494505494504
1.8321985449947533,0.0,0.13619047619047617,0.8276190476190476
1.8368301959999371,0.0,0.13619047619047617,0.8276190476190476
1.8370685419940855,0.0,0.13619047619047617,0.8276190476190476
1.841735289999633,0.0,0.13619047619047617,0.8276190476190476
1.8420156859938288,0.0,0.13619047619047617,0.8276190476190476
1.8469332629974815,0.0,0.13619047619047617,0.8276190476190476
1.8517441019939724,0.0,0.13619047619047617,0.8276190476190476
1.851918303000275,0.0,0.10153846153846154,0.909010989010989
1.8565671869946527,0.0,0.10153846153846154,0.909010989010989
1.856863353998051,0.0,0.10153846153846154,0.909010989010989
1.8618016759937746,0.0,0.10153846153846154,0.909010989010989
1.8668659600007231,0.0,0.10153846153846154,0.909010989010989
1.871378313000605,1.1040293040293039,0.3312087912087912,2.9019047619047615
1.8715894269989803,0.0,0.22967032967032966,0.7389743589743589
1.8769834519989672,0.0,0.22967032967032966,0.7389743589743589
1.8786154849949526,0.0,0.17648351648351646,1.1676923076923076
1.8830934269935824,0.0,0.17648351648351646,1.1676923076923076
1.8833262309999554,0.04673992673992674,0.3497435897435897,2.3257142857142856
1.8885752360001788,0.04673992673992674,0.3497435897435897,2.3257142857142856
1.8917527419980615,0.04673992673992674,0.3497435897435897,2.3257142857142856
1.893420366999635,0.04673992673992674,0.3497435897435897,2.3257142857142856
1.896465255995281,0.04673992673992674,0.3497435897435897,2.3257142857142856
1.89943172600033,0.02336996336996337,0.2095238095238095,0.8364835164835164
1.9024806179950247,0.02336996336996337,0.2095238095238095,0.8364835164835164
1.90544586499891,0.02336996336996337,0.2095238095238095,0.8364835164835164
1.9085827079979936,0.02336996336996337,0.2095238095238095,0.8364835164835164
1.9109595279951463,0.02336996336996337,0.2095238095238095,0.8364835164835164
1.9111569759988924,0.02336996336996337,0.2095238095238095,0.8364835164835164
1.9180885599998874,0.02336996336996337,0.2095238095238095,0.8364835164835164
1.9236829509973177,0.0,0.14424908424908423,0.7381684981684982
1.9238260719939717,0.0,0.14424908424908423,0.7381684981684982
1.9319368389988085,0.0,0.14424908424908423,0.7381684981684982
1.9388718909976888,0.0,0.14424908424908423,0.7381684981684982
1.9424060289966292,0.0,0.14424908424908423,0.7381684981684982
1.9425729689974105,0.0,0.14424908424908423,0.7381684981684982
1.9477478669941775,0.0,0.14424908424908423,0.7381684981684982
1.9517823889982537,0.0,0.14424908424908423,0.7381684981684982
1.9561444339997252,0.0,0.14424908424908423,0.7381684981684982
1.9563200069969753,0.0,0.14424908424908423,0.7381684981684982
1.9634185139948386,0.0,0.14424908424908423,0.7381684981684982
1.967187397996895,0.20388278388278389,0.3892307692307692,2.808424908424908
1.9745435289951274,0.9243223443223443,0.26593406593406593,2.805201465201465
1.9819186399981845,0.9807326007326007,0.7276923076923076,0.5262271062271061
1.9871224219969008,1.622197802197802,0.5818315018315018,3.3
1.9910022330004722,1.622197802197802,0.5818315018315018,3.3
1.994946599996183,1.622197802197802,0.5818315018315018,3.3
1.9972182139972574,1.622197802197802,0.5818315018315018,3.3
1.9974502599943662,1.622197802197802,0.5818315018315018,3.3
2.0049534419958945,1.622197802197802,0.5818315018315018,3.3
2.0105563219985925,0.0,0.2989743589743589,2.0734798534798533
2.0108698979965993,0.0,0.2989743589743589,2.0734798534798533
2.016855794994626,0.0,0.2989743589743589,2.0734798534798533
2.0238685160002206,0.0,0.2989743589743589,2.0734798534798533
2.0294939249943127,0.0,0.2989743589743589,2.0734798534798533
2.0397404649993405,0.3578021978021978,0.1402197802197802,2.1597069597069596
2.0471638909948524,0.3578021978021978,0.1402197802197802,2.1597069597069596
2.051413197994407,0.3578021978021978,0.1402197802197802,2.1597069597069596
2.053278668994608,0.24498168498168496,0.1571428571428571,1.6624908424908424
2.05574708799395,0.24498168498168496,0.1571428571428571,1.6624908424908424
2.0558891349937767,0.24498168498168496,0.1571428571428571,1.6624908424908424
2.0615469769982155,0.24498168498168496,0.1571428571428571,1.6624908424908424
2.0618233809946105,0.24498168498168496,0.1571428571428571,1.6624908424908424
2.066980979994696,0.3731135531135531,0.5818315018315018,0.6688644688644688
2.070729126993683,0.5915018315018314,0.1958241758241758,2.659340659340659
2.075102139999217,0.5915018315018314,0.1958241758241758,2.659340659340659
2.0766171099967323,0.5915018315018314,0.1958241758241758,2.659340659340659
2.0809102569983224,0.5915018315018314,0.1958241758241758,2.659340659340659
2.082448924993514,0.5915018315018314,0.1958241758241758,2.659340659340659
2.086755470998469,0.5915018315018314,0.1958241758241758,2.659340659340659
2.089025764995313,0.5915018315018314,0.1958241758241758,2.659340659340659
2.0898883970003226,0.006446886446886447,0.13296703296703297,1.166080586080586
2.0913990839981125,0.006446886446886447,0.13296703296703297,1.166080586080586
2.0957590079997317,0.006446886446886447,0.13296703296703297,1.166080586080586
2.098339103999024,0.0,0.224029304029304,1.0242490842490841
2.103219901997363,0.0,0.224029304029304,1.0242490842490841
2.1086918609944405,0.0,0.224029304029304,1.0242490842490841
2.1096853209965047,0.0,0.224029304029304,1.0242490842490841
2.1120430489972932,0.0,0.224029304029304,1.0242490842490841
2.120657506995485,0.0,0.224029304029304,1.0242490842490841
2.1250655189942336,0.0,0.224029304029304,1.0242490842490841
2.1261185229959665,0.0,0.224029304029304,1.0242490842490841
2.1273004859976936,0.0,0.224029304029304,1.0242490842490841
2.127513615996577,0.0,0.224029304029304,1.0242490842490841
2.135802758995851,0.0,0.224029304029304,1.0242490842490841
2.141187364999496,0.0,0.21597069597069596,0.954945054945055
2.1427548459978425,0.0,0.21597069597069596,0.954945054945055
2.150084609995247,0.0,0.21597069597069596,0.954945054945055
2.1544152189962915,0.0,0.21597069597069596,0.954945054945055
2.1558926579964464,0.12168498168498168,0.42388278388278383,0.7865201465201466
2.1630721259934944,0.12168498168498168,0.42388278388278383,0.7865201465201466
2.168393804000516,0.12168498168498168,0.42388278388278383,0.7865201465201466
2.1694936779967975,0.12168498168498168,0.42388278388278383,0.7865201465201466
2.1698496079989127,0.12168498168498168,0.42388278388278383,0.7865201465201466
2.178598285994667,0.12168498168498168,0.42388278388278383,0.7865201465201466
2.185906017999514,0.12168498168498168,0.42388278388278383,0.7865201465201466
2.1934108109999215,1.6447619047619046,1.344981684981685,0.8106959706959707
2.2006439580000006,0.0,0.12087912087912088,0.66
2.207654881000053,1.0298901098901099,0.4432234432234432,2.6303296703296706
2.2112200779956765,1.0298901098901099,0.4432234432234432,2.6303296703296706
2.216334441996878,1.0298901098901099,0.4432234432234432,2.6303296703296706
2.2228819859956275,1.0298901098901099,0.4432234432234432,2.6303296703296706
2.2278019489967846,0.5592673992673992,0.3739194139194139,3.3
2.231856586993672,1.224102564102564,0.3191208791208791,3.3
2.234079417998146,1.224102564102564,0.3191208791208791,3.3
2.2354432360007195,1.224102564102564,0.3191208791208791,3.3
2.242605529994762,0.07655677655677656,0.24175824175824176,0.8147252747252747
2.2470254989966634,0.07655677655677656,0.24175824175824176,0.8147252747252747
2.2482649729936384,0.07655677655677656,0.24175824175824176,0.8147252747252747
2.2484193700001924,0.07655677655677656,0.24175824175824176,0.8147252747252747
2.2554300539995893,0.07655677655677656,0.24175824175824176,0.8147252747252747
2.2612483899938525,0.010476190476190476,0.14263736263736262,1.0178021978021978
2.2662075169937452,0.010476190476190476,0.14263736263736262,1.0178021978021978
2.2702386399978423,0.010476190476190476,0.14263736263736262,1.0178021978021978
2.2742408079939196,0.010476190476190476,0.14263736263736262,1.0178021978021978
2.27760219299671,0.010476190476190476,0.14263736263736262,1.0178021978021978
2.2785573059954913,0.010476190476190476,0.14263736263736262,1.0178021978021978
2.279503860998375,0.010476190476190476,0.14263736263736262,1.0178021978021978
2.2811265739946975,0.010476190476190476,0.14263736263736262,1.0178021978021978
2.284152164000261,0.9646153846153847,0.5141391941391941,3.3
2.286730179999722,0.9646153846153847,0.5141391941391941,3.3
2.2922336099945824,0.9646153846153847,0.5141391941391941,3.3
2.2938754689967027,0.9646153846153847,0.5141391941391941,3.3
2.29747720699379,0.9646153846153847,0.5141391941391941,3.3
2.303064126994286,0.9646153846153847,0.5141391941391941,3.3
2.3047013219984365,0.9646153846153847,0.5141391941391941,3.3
2.307711092995305,0.9646153846153847,0.5141391941391941,3.3
2.3110657349971007,0.9646153846153847,0.5141391941391941,3.3
2.3113438279979164,0.9646153846153847,0.5141391941391941,3.3
2.3163742319957237,0.9646153846153847,0.5141391941391941,3.3
2.3203889629949117,0.0,0.2361172161172161,1.4336263736263737
2.3236803599938867,1.523076923076923,0.5721611721611721,3.3
2.324664688996563,1.523076923076923,0.5721611721611721,3.3
2.3265032889976283,1.523076923076923,0.5721611721611721,3.3
2.3288558119966183,0.8880586080586079,0.28608058608058606,2.7278388278388275
2.329069752995565,0.8880586080586079,0.28608058608058606,2.7278388278388275
2.3337918799952604,0.8880586080586079,0.28608058608058606,2.7278388278388275
2.333994738997717,0.8880586080586079,0.28608058608058606,2.7278388278388275
2.3387229739964823,0.8880586080586079,0.28608058608058606,2.7278388278388275
2.3388602229970274,1.39010989010989,0.6487179487179486,3.3
2.34455365499889,1.39010989010989,0.6487179487179486,3.3
2.3446956599946134,1.39010989010989,0.6487179487179486,3.3
2.349926189999678,1.39010989010989,0.6487179487179486,3.3
2.35321178099548,1.39010989010989,0.6487179487179486,3.3
2.353560531999392,1.39010989010989,0.6487179487179486,3.3
2.3589654169991263,1.39010989010989,0.6487179487179486,3.3
2.3598651430002064,1.39010989010989,0.6487179487179486,3.3
2.3614847649951116,1.39010989010989,0.6487179487179486,3.3
2.3653959369985387,1.39010989010989,0.6487179487179486,3.3
2.3692219269942143,1.39010989010989,0.6487179487179486,3.3
2.3742826149973553,1.39010989010989,0.6487179487179486,3.3
2.378598872994189,1.39010989010989,0.6487179487179486,3.3
2.3801632869945024,1.39010989010989,0.6487179487179486,3.3
2.384434750994842,1.4997069597069597,0.5479853479853479,3.3
2.386778667998442,1.4997069597069597,0.5479853479853479,3.3
2.386925105995033,1.4997069597069597,0.5479853479853479,3.3
2.392694791997201,1.4997069597069597,0.5479853479853479,3.3
2.3928621739978553,1.4997069597069597,0.5479853479853479,3.3
2.3984837669995613,1.5956043956043955,1.1596336996336996,1.1177289377289377
2.3987311349992524,1.5956043956043955,1.1596336996336996,1.1177289377289377
2.4032260899984976,1.5956043956043955,1.1596336996336996,1.1177289377289377
2.4040212289983174,1.5956043956043955,1.1596336996336996,1.1177289377289377
2.406272814994736,1.5956043956043955,1.1596336996336996,1.1177289377289377
2.4065650579941575,1.5956043956043955,1.1596336996336996,1.1177289377289377
2.4116837389956345,1.5956043956043955,1.1596336996336996,1.1177289377289377
2.415386631997535,1.5956043956043955,1.1596336996336996,1.1177289377289377
2.420982654999534,1.5956043956043955,1.1596336996336996,1.1177289377289377
2.421843871998135,0.0,0.13699633699633698,1.025054945054945
2.4241770149965305,0.0,0.13699633699633698,1.025054945054945
2.4242797539991443,0.0,0.13699633699633698,1.025054945054945
2.429331135994289,0.0,0.13699633699633698,1.025054945054945
2.433673037994595,0.0,0.13699633699633698,1.025054945054945
2.43593272799626,0.006446886446886447,0.3642490842490842,1.5786813186813187
2.436198149996926,0.006446886446886447,0.3642490842490842,1.5786813186813187
2.4418415689942776,0.006446886446886447,0.3642490842490842,1.5786813186813187
2.4421209969950723,0.006446886446886447,0.3642490842490842,1.5786813186813187
2.4476861329967505,0.006446886446886447,0.3642490842490842,1.5786813186813187
2.4492961799987825,1.2934065934065933,0.5012454212454212,2.071868131868132
2.4533382589943358,1.2934065934065933,0.5012454212454212,2.071868131868132
2.45591024299938,0.838095238095238,0.6753113553113552,0.46659340659340653
2.4560078879949288,0.0,0.21677655677655677,1.4054212454212454
2.4617924339981982,0.0,0.21677655677655677,1.4054212454212454
2.46192466699722,0.0,0.3231501831501831,2.0557509157509157
2.4670680159979383,0.0,0.3231501831501831,2.0557509157509157
2.4706589130000793,1.1225641025641024,0.35216117216117215,2.876117216117216
2.470787288999418,1.1225641025641024,0.35216117216117215,2.876117216117216
2.475742727998295,1.1225641025641024,0.35216117216117215,2.876117216117216
2.4800466079977923,1.1225641025641024,0.35216117216117215,2.876117216117216
2.4822218519984744,1.627032967032967,0.6043956043956044,3.3
2.4830221829979564,1.627032967032967,0.6043956043956044,3.3
2.4845836690001306,1.627032967032967,0.6043956043956044,3.3
2.4890849309958867,1.627032967032967,0.6043956043956044,3.3
2.490895921997435,1.627032967032967,0.6043956043956044,3.3
2.4932502629962983,1.627032967032967,0.6043956043956044,3.3
2.49350382299599,1.627032967032967,0.6043956043956044,3.3
2.499116779996257,1.627032967032967,0.6043956043956044,3.3
2.4993561249939376,0.05963369963369963,0.16358974358974357,1.1346520146520145
2.504999845994462,0.05963369963369963,0.16358974358974357,1.1346520146520145
2.505294201997458,1.3296703296703296,0.5383150183150183,2.0517216117216117
2.510498922994884,1.3296703296703296,0.5383150183150183,2.0517216117216117
2.5151185449940385,0.5971428571428571,0.20388278388278389,2.402271062271062
2.5244214569975156,0.5971428571428571,0.20388278388278389,2.402271062271062
2.5314578159959638,0.0,0.17809523809523808,0.5769963369963369
2.5369874509997317,0.0,0.17809523809523808,0.5769963369963369
2.5372706439957255,1.9397069597069596,1.4013919413919413,1.0153846153846153
2.544733209993865,1.9397069597069596,1.4013919413919413,1.0153846153846153
2.5513990519975778,1.9397069597069596,1.4013919413919413,1.0153846153846153
2.557290208998893,1.9397069597069596,1.4013919413919413,1.0153846153846153
2.5627384789986536,1.9397069597069596,1.4013919413919413,1.0153846153846153
2.56364585999836,1.9397069597069596,1.4013919413919413,1.0153846153846153
2.564595541000017,1.9397069597069596,1.4013919413919413,1.0153846153846153
2.5663350529939635,1.9397069597069596,1.4013919413919413,1.0153846153846153
2.568988103994343,1.9397069597069596,1.4013919413919413,1.0153846153846153
2.5746506819996284,0.26754578754578756,0.14827838827838827,1.7914285714285711
2.5749360429981607,0.26754578754578756,0.14827838827838827,1.7914285714285711
2.5805659129982814,0.26754578754578756,0.14827838827838827,1.7914285714285711
2.580875934996584,0.26754578754578756,0.14827838827838827,1.7914285714285711
2.586300079994544,0.26754578754578756,0.14827838827838827,1.7914285714285711
2.5879402099963045,1.0049084249084248,0.29413919413919415,2.9035164835164835
2.591627353998774,1.0049084249084248,0.29413919413919415,2.9035164835164835
2.5971157749954727,1.0049084249084248,0.29413919413919415,2.9035164835164835
2.5979951709960005,1.0049084249084248,0.29413919413919415,2.9035164835164835
2.599819437993574,1.0049084249084248,0.29413919413919415,2.9035164835164835
2.6030655590002425,1.0049084249084248,0.29413919413919415,2.9035164835164835
2.6045868569999584,0.5624908424908425,0.39406593406593404,3.3
2.609400064997317,0.5624908424908425,0.39406593406593404,3.3
2.615237348996743,0.5624908424908425,0.39406593406593404,3.3
2.615394076994562,0.5624908424908425,0.39406593406593404,3.3
2.6210050539957592,0.0,0.2095238095238095,0.8566300366300367
2.6212914229981834,0.0,0.2095238095238095,0.8566300366300367
2.6269365929983906,0.0,0.2095238095238095,0.8566300366300367
2.627737660994171,1.0258608058608059,0.27076923076923076,3.1267399267399263
2.629997187999834,1.0258608058608059,0.27076923076923076,3.1267399267399263
2.630344919998606,1.0258608058608059,0.27076923076923076,3.1267399267399263
2.63535214500007,1.0258608058608059,0.27076923076923076,3.1267399267399263
2.638831174997904,1.0258608058608059,0.27076923076923076,3.1267399267399263
2.6396433519985294,0.0,0.1418315018315018,0.8767765567765567
2.641682209999999,1.5641758241758241,0.5649084249084249,2.5465201465201464
2.642539989996294,1.5641758241758241,0.5649084249084249,2.5465201465201464
2.6452973499981454,1.5641758241758241,0.5649084249084249,2.5465201465201464
2.6483527139935177,1.5641758241758241,0.5649084249084249,2.5465201465201464
2.650653336997493,1.5641758241758241,0.5649084249084249,2.5465201465201464
2.6508875009967596,1.5641758241758241,0.5649084249084249,2.5465201465201464
2.6560045029982575,0.0,0.1539194139194139,1.2063736263736262
2.6592146959956153,0.0,0.1539194139194139,1.2063736263736262
2.6601159419951728,0.0,0.1539194139194139,1.2063736263736262
2.6610625849934877,0.0,0.1539194139194139,1.2063736263736262
2.6625965899947914,0.0,0.1539194139194139,1.2063736263736262
2.6671657049955684,0.0,0.1539194139194139,1.2063736263736262
2.6674301689999993,0.0,0.1539194139194139,1.2063736263736262
2.672709415994177,0.0,0.1539194139194139,1.2063736263736262
2.6757038989962894,0.0,0.1539194139194139,1.2063736263736262
2.6786923830004525,0.0,0.27399267399267396,1.5134065934065932
2.681080320995534,0.0,0.27399267399267396,1.5134065934065932
2.6812641079959576,0.0,0.27399267399267396,1.5134065934065932
2.68575622899516,0.0,0.27399267399267396,1.5134065934065932
2.6866367559996434,0.0,0.27399267399267396,1.5134065934065932
2.6881647539994447,1.2144322344322345,0.35216117216117215,3.3
2.692720390994509,1.2144322344322345,0.35216117216117215,3.3
2.693029308000405,1.2144322344322345,0.35216117216117215,3.3
2.698193687996536,1.2144322344322345,0.35216117216117215,3.3
2.70113080599549,1.2144322344322345,0.35216117216117215,3.3
2.704112895000435,1.2144322344322345,0.35216117216117215,3.3
2.7070469269965542,1.5964102564102562,1.4183150183150184,1.0242490842490841
2.7094212509982754,1.3272527472527473,0.3191208791208791,3.3
2.7096725539959152,1.3272527472527473,0.3191208791208791,3.3
2.7149885819962947,1.3272527472527473,0.3191208791208791,3.3
2.7166577509997296,0.3465201465201465,0.5246153846153846,1.324029304029304
2.721004949999042,0.3465201465201465,0.5246153846153846,1.324029304029304
2.722526993995416,0.3465201465201465,0.5246153846153846,1.324029304029304
2.7276228470000206,0.3465201465201465,0.5246153846153846,1.324029304029304
2.7312256660006824,1.3369230769230769,0.5447619047619047,1.9824175824175823
2.735659003999899,1.3369230769230769,0.5447619047619047,1.9824175824175823
2.7372479069963447,1.3369230769230769,0.5447619047619047,1.9824175824175823
2.7417754880007124,1.3369230769230769,0.5447619047619047,1.9824175824175823
2.742047558997001,1.3369230769230769,0.5447619047619047,1.9824175824175823
2.7503460769949015,1.3369230769230769,0.5447619047619047,1.9824175824175823
2.7548845229975996,1.3369230769230769,0.5447619047619047,1.9824175824175823
2.755192487995373,1.3369230769230769,0.5447619047619047,1.9824175824175823
2.760513440996874,0.0,0.18695970695970696,1.41992673992674
2.76376589499705,0.0,0.18695970695970696,1.41992673992674
2.764583694995963,1.4545787545787545,1.216043956043956,0.6172893772893773
2.7663203759948374,1.4545787545787545,1.216043956043956,0.6172893772893773
2.7695029149981565,1.4545787545787545,1.216043956043956,0.6172893772893773
2.7710729419995914,1.4545787545787545,1.216043956043956,0.6172893772893773
2.7749784589977935,1.4545787545787545,1.216043956043956,0.6172893772893773
2.7788386319953133,1.4545787545787545,1.216043956043956,0.6172893772893773
2.7835267150003347,1.4545787545787545,1.216043956043956,0.6172893772893773
2.783706826994603,0.0,0.311062271062271,1.7116483516483516
2.789066933997674,0.0,0.311062271062271,1.7116483516483516
2.7908012209954904,0.0,0.311062271062271,1.7116483516483516
2.7938318029991933,0.0,0.311062271062271,1.7116483516483516
2.7970312369943713,0.0,0.311062271062271,1.7116483516483516
2.79854807099764,0.0,0.311062271062271,1.7116483516483516
2.8037337729983847,0.0,0.311062271062271,1.7116483516483516
2.8071333129992126,1.4352380952380952,0.5673260073260072,2.552967032967033
2.807275731000118,1.4352380952380952,0.5673260073260072,2.552967032967033
2.814285475993529,1.4352380952380952,0.5673260073260072,2.552967032967033
2.820564898996963,1.4352380952380952,0.5673260073260072,2.552967032967033
2.824066839995794,0.967032967032967,0.4827106227106227,3.3
2.8354061859936337,0.967032967032967,0.4827106227106227,3.3
2.8449525350006297,0.5431501831501832,0.19663003663003664,2.501391941391941
2.8510445909996633,0.5431501831501832,0.19663003663003664,2.501391941391941
2.8579085870005656,0.7196336996336996,0.21838827838827837,3.1170695970695967
2.863014115995611,0.7196336996336996,0.21838827838827837,3.1170695970695967
2.867416670997045,1.5762637362637362,1.2917948717948717,0.6865934065934066
2.868532485998003,1.5762637362637362,1.2917948717948717,0.6865934065934066
2.8687647039987496,1.5762637362637362,1.2917948717948717,0.6865934065934066
2.873480173999269,1.5762637362637362,1.2917948717948717,0.6865934065934066
2.873617949997424,1.5762637362637362,1.2917948717948717,0.6865934065934066
2.8782534199999645,1.5762637362637362,1.2917948717948717,0.6865934065934066
2.878480084997136,1.5762637362637362,1.2917948717948717,0.6865934065934066
2.884682558993518,1.5762637362637362,1.2917948717948717,0.6865934065934066
2.8889373849960975,1.5335531135531135,0.5987545787545787,2.5521611721611723
2.8898583269983646,1.5335531135531135,0.5987545787545787,2.5521611721611723
2.89153258499573,1.5335531135531135,0.5987545787545787,2.5521611721611723
2.8952630779967876,1.5335531135531135,0.5987545787545787,2.5521611721611723
2.9010669399940525,1.5335531135531135,0.5987545787545787,2.5521611721611723
2.90138493199629,0.0,0.13941391941391942,1.0613186813186812
2.9071483579973574,0.0,0.13941391941391942,1.0613186813186812
2.9116037610001513,1.3345054945054944,0.5181684981684981,2.092014652014652
2.9125906669942196,0.0,0.12571428571428572,0.7397802197802198
2.9134022799989907,0.0,0.12571428571428572,0.7397802197802198
2.9158363359965733,0.0,0.12571428571428572,0.7397802197802198
2.922953859997506,0.0,0.12571428571428572,0.7397802197802198
2.9275096399942413,0.0,0.12571428571428572,0.7397802197802198
2.928322230996855,0.0,0.12571428571428572,0.7397802197802198
2.929857461997017,0.0,0.12571428571428572,0.7397802197802198
2.9349775059963576,0.0,0.12571428571428572,0.7397802197802198
2.937415004998911,0.0,0.12571428571428572,0.7397802197802198
2.937545140994189,0.0,0.12571428571428572,0.7397802197802198
2.9428785429990967,0.0,0.12571428571428572,0.7397802197802198
2.9444525439976132,0.0,0.12571428571428572,0.7397802197802198
2.9492877289958415,1.2853479853479852,1.195091575091575,1.1362637362637362
2.955349337993539,1.2853479853479852,1.195091575091575,1.1362637362637362
2.959981529995275,1.7358241758241757,1.195091575091575,1.0556776556776555
2.9601456179952947,1.7358241758241757,1.195091575091575,1.0556776556776555
2.965644939999038,1.7358241758241757,1.195091575091575,1.0556776556776555
2.966792410996277,1.7358241758241757,1.195091575091575,1.0556776556776555
2.966997340998205,1.7358241758241757,1.195091575091575,1.0556776556776555
2.973509468996781,1.7358241758241757,1.195091575091575,1.0556776556776555
2.9773232019942952,0.0,0.11846153846153845,0.7978021978021977
2.9837698139963322,0.0,0.29816849816849816,1.5013186813186812
2.9866853069979697,0.1402197802197802,0.3489377289377289,2.585201465201465
2.989819701993838,0.9718681318681318,0.311062271062271,2.880952380952381
2.992361324999365,0.9718681318681318,0.311062271062271,2.880952380952381
2.996922670994536,0.9718681318681318,0.311062271062271,2.880952380952381
2.9978811830005725,0.9718681318681318,0.311062271062271,2.880952380952381
3.00137370799348,0.9718681318681318,0.311062271062271,2.880952380952381
3.0057485189972795,0.9718681318681318,0.311062271062271,2.880952380952381
3.0073053409942077,1.2627838827838826,0.43758241758241756,2.747179487179487
3.011377271999663,1.2627838827838826,0.43758241758241756,2.747179487179487
3.0145277549963794,0.0,0.12974358974358974,0.73010989010989
3.0176867639966076,0.2248351648351648,0.39406593406593404,0.622124542124542
3.019204981996154,0.2248351648351648,0.39406593406593404,0.622124542124542
3.0244839239967405,1.543223443223443,0.66,3.3
3.026833837997401,1.6044688644688643,1.36996336996337,0.805054945054945
3.0270698019958218,1.2515018315018314,0.43758241758241756,2.7979487179487177
3.032139221999387,1.2515018315018314,0.43758241758241756,2.7979487179487177
3.0392611129936995,1.2515018315018314,0.43758241758241756,2.7979487179487177
3.043130564998137,1.2515018315018314,0.43758241758241756,2.7979487179487177
3.0477371089946246,1.2515018315018314,0.43758241758241756,2.7979487179487177
3.04801847699855,0.5745787545787545,0.17809523809523808,2.436117216117216
3.0557907879992854,0.5745787545787545,0.17809523809523808,2.436117216117216
3.0602464089970454,0.0,0.1958241758241758,0.7421978021978022
3.0612466449965723,0.0,0.1958241758241758,0.7421978021978022
3.062102486997901,0.0,0.1958241758241758,0.7421978021978022
3.0638103729943396,0.0,0.1958241758241758,0.7421978021978022
3.068799633998424,0.0,0.1958241758241758,0.7421978021978022
3.0736846209983923,0.0,0.1958241758241758,0.7421978021978022
3.0775032349993126,0.0,0.1958241758241758,0.7421978021978022
3.0834954589954577,0.0,0.1958241758241758,0.7421978021978022
3.088673980993917,0.0,0.1958241758241758,0.7421978021978022
3.0910286250000354,0.0,0.1958241758241758,0.7421978021978022
3.0962550019976334,0.0,0.1958241758241758,0.7421978021978022
3.1011159279951244,0.0,0.28769230769230764,1.6439560439560439
3.105704980000155,0.0,0.28769230769230764,1.6439560439560439
3.106518385997333,0.0,0.28769230769230764,1.6439560439560439
3.1081063249948784,0.0,0.28769230769230764,1.6439560439560439
3.1119056059978902,0.0,0.28769230769230764,1.6439560439560439
3.1177674589998787,0.19904761904761903,0.13377289377289378,1.714065934065934
3.1179481699946336,0.0,0.16278388278388278,0.9186813186813186
3.1227903039980447,0.0,0.16278388278388278,0.9186813186813186
3.1283831099935924,0.0,0.16278388278388278,0.9186813186813186
3.1286762179952348,1.3498168498168497,0.5504029304029303,2.0484981684981682
3.1339647009954206,1.3498168498168497,0.5504029304029303,2.0484981684981682
3.1365206009941176,1.3498168498168497,0.5504029304029303,2.0484981684981682
3.1410704179943423,1.3498168498168497,0.5504029304029303,2.0484981684981682
3.141357408996555,1.4545787545787545,0.5616849816849817,3.3
3.146613311000692,1.4545787545787545,0.5616849816849817,3.3
3.1503280409961008,1.4545787545787545,0.5616849816849817,3.3
3.1546423619947745,0.0,0.12249084249084248,1.1765567765567766
3.1555113759968663,0.0,0.12249084249084248,1.1765567765567766
3.1571638159948634,0.0,0.12249084249084248,1.1765567765567766
3.160904238000512,0.0,0.12249084249084248,1.1765567765567766
3.166857814998366,0.0,0.12249084249084248,1.1765567765567766
3.173892419996264,1.2627838827838826,1.1322344322344322,0.5915018315018314
3.1784580429957714,1.2627838827838826,1.1322344322344322,0.5915018315018314
3.179354224994313,0.0,0.2111355311355311,0.929157509157509
3.180231829996046,1.6028571428571428,0.6608058608058608,3.3
3.183080890994461,1.6028571428571428,0.6608058608058608,3.3
3.186958660997334,1.6028571428571428,0.6608058608058608,3.3
3.1894160119991284,1.6028571428571428,0.6608058608058608,3.3
3.194945297000231,1.6028571428571428,0.6608058608058608,3.3
3.196586092999496,0.20065934065934066,0.42952380952380953,0.684981684981685
3.2031693039971287,0.20065934065934066,0.42952380952380953,0.684981684981685
3.2088283139964915,0.1942124542124542,0.3972893772893773,2.924468864468864
3.2147425029979786,0.6366300366300366,0.2224175824175824,2.56989010989011
3.2225439559988445,0.6366300366300366,0.2224175824175824,2.56989010989011
3.2271724059974076,0.052380952380952375,0.41018315018315016,2.497362637362637
3.227470475998416,0.052380952380952375,0.41018315018315016,2.497362637362637
3.235672943999816,0.052380952380952375,0.41018315018315016,2.497362637362637
3.2396113199938554,0.052380952380952375,0.41018315018315016,2.497362637362637
3.2432484809978632,0.052380952380952375,0.41018315018315016,2.497362637362637
3.250953450995439,0.8324542124542124,0.46175824175824176,3.3
3.254127673993935,1.2144322344322345,0.43355311355311354,2.5046153846153842
3.256404362997273,1.2144322344322345,0.43355311355311354,2.5046153846153842
3.256725291998009,1.2144322344322345,0.43355311355311354,2.5046153846153842
3.262721558996418,1.2144322344322345,0.43355311355311354,2.5046153846153842
3.2700928159974865,0.28205128205128205,0.6261538461538461,0.7583150183150182
3.274805479995848,0.28205128205128205,0.6261538461538461,0.7583150183150182
3.280726669996511,0.28205128205128205,0.6261538461538461,0.7583150183150182
3.2808229189977283,0.28205128205128205,0.6261538461538461,0.7583150183150182
3.286278339997807,0.28205128205128205,0.6261538461538461,0.7583150183150182
3.2871557409962406,0.28205128205128205,0.6261538461538461,0.7583150183150182
3.2880374219967052,0.28205128205128205,0.6261538461538461,0.7583150183150182
3.289660151996941,0.28205128205128205,0.6261538461538461,0.7583150183150182
3.294080893996579,0.28205128205128205,0.6261538461538461,0.7583150183150182
3.2949795280001126,0.28205128205128205,0.6261538461538461,0.7583150183150182
3.2968215660002897,0.28205128205128205,0.6261538461538461,0.7583150183150182
3.3007921719981823,0.28205128205128205,0.6261538461538461,0.7583150183150182
3.303893666998192,0.28205128205128205,0.6261538461538461,0.7583150183150182
3.306338420996326,1.3038827838827838,0.6019780219780219,1.7873992673992671
3.306460665000486,1.3038827838827838,0.6019780219780219,1.7873992673992671
3.3121489089971874,1.3038827838827838,0.6019780219780219,1.7873992673992671
3.3123376759976964,1.3038827838827838,0.6019780219780219,1.7873992673992671
3.317616063999594,1.3038827838827838,0.6019780219780219,1.7873992673992671
3.3209560359973693,0.0,0.1571428571428571,0.7083516483516483
3.3211424029941554,0.0,0.1571428571428571,0.7083516483516483
3.3264144040003885,0.0,0.1571428571428571,0.7083516483516483
3.3286457219946897,0.0,0.1571428571428571,0.7083516483516483
3.328947628993774,0.0,0.1571428571428571,0.7083516483516483
3.336473670999112,0.0,0.1571428571428571,0.7083516483516483
3.3404186769985245,0.0,0.1571428571428571,0.7083516483516483
3.344188413997472,0.0,0.1571428571428571,0.7083516483516483
3.349940025997057,0.0,0.1571428571428571,0.7083516483516483
3.3501085249954485,0.0,0.1571428571428571,0.7083516483516483
3.356832459998259,0.0,0.1571428571428571,0.7083516483516483
3.361772813994321,0.0,0.1571428571428571,0.7083516483516483
3.369995413995639,0.0,0.1571428571428571,0.7083516483516483
3.374810734996572,0.0,0.1571428571428571,0.7083516483516483
3.375012873999367,0.0838095238095238,0.1418315018315018,1.5907692307692307
3.3807583229936427,0.0838095238095238,0.1418315018315018,1.5907692307692307
3.380969591999019,0.61003663003663,0.3497435897435897,1.9058608058608055
3.3879915879952023,0.61003663003663,0.3497435897435897,1.9058608058608055
3.3917925450004986,1.224102564102564,0.47142857142857136,2.266080586080586
3.396263884998916,1.224102564102564,0.47142857142857136,2.266080586080586
3.3966254349943483,1.224102564102564,0.47142857142857136,2.266080586080586
3.4036022899963427,1.224102564102564,0.47142857142857136,2.266080586080586
3.407511789999262,1.224102564102564,0.47142857142857136,2.266080586080586
3.4113180429994827,0.4472527472527472,0.21194139194139192,2.273333333333333
3.4185591459972784,0.4472527472527472,0.21194139194139192,2.273333333333333
3.4231296879952424,1.6858608058608056,1.2224908424908425,1.0766300366300365
3.423242876997392,1.6858608058608056,1.2224908424908425,1.0766300366300365
3.428161361000093,1.6858608058608056,1.2224908424908425,1.0766300366300365
3.4348997579945717,1.6858608058608056,1.2224908424908425,1.0766300366300365
3.438546970995958,1.6858608058608056,1.2224908424908425,1.0766300366300365
3.444020056995214,1.6858608058608056,1.2224908424908425,1.0766300366300365
3.444838740993873,1.6858608058608056,1.2224908424908425,1.0766300366300365
3.4466598629951477,1.6858608058608056,1.2224908424908425,1.0766300366300365
3.4505661910006893,1.6858608058608056,1.2224908424908425,1.0766300366300365
3.4542444749968126,0.29978021978021974,0.15875457875457877,1.876043956043956
3.458814933997928,0.29978021978021974,0.15875457875457877,1.876043956043956
3.4592666839962476,0.29978021978021974,0.15875457875457877,1.876043956043956
3.4624633739949786,0.29978021978021974,0.15875457875457877,1.876043956043956
3.4640231689991197,0.29978021978021974,0.15875457875457877,1.876043956043956
3.4717788199995994,0.29978021978021974,0.15875457875457877,1.876043956043956
3.476485638995655,1.037948717948718,0.39487179487179486,3.050989010989011
3.4864750929991715,1.037948717948718,0.39487179487179486,3.050989010989011
3.491490274995158,0.9493040293040291,0.33282051282051284,2.880952380952381
3.495334286999423,0.9493040293040291,0.33282051282051284,2.880952380952381
3.499447472997417,0.0,0.24498168498168496,1.4432967032967032
3.5031584559983457,0.28769230769230764,0.2361172161172161,1.531135531135531
3.506916051999724,0.28769230769230764,0.2361172161172161,1.531135531135531
3.5124047719946248,0.9605860805860806,0.32073260073260074,2.943003663003663
3.514021924995177,0.11443223443223444,0.43677655677655675,0.7768498168498168
3.5192166849956266,0.43355311355311354,0.7212454212454212,1.1177289377289377
3.521494531996723,0.43355311355311354,0.7212454212454212,1.1177289377289377
3.5223359919982613,0.02901098901098901,0.3449084249084249,2.265274725274725
3.523267657998076,0.02901098901098901,0.3449084249084249,2.265274725274725
3.5248481789967627,0.02901098901098901,0.3449084249084249,2.265274725274725
3.529342634996283,0.02901098901098901,0.3449084249084249,2.265274725274725
3.5309089009970194,0.0,0.14263736263736262,0.751062271062271
3.5353630489989882,0.10073260073260072,0.13135531135531134,1.6230036630036628
3.5362982809965615,0.0,0.2804395604395604,1.5649816849816849
3.537871606000408,0.0,0.21597069597069596,1.0266666666666666
3.542389824993734,0.0,0.21597069597069596,1.0266666666666666
3.5426603710002382,0.0,0.21597069597069596,1.0266666666666666
3.548415761993965,0.0,0.21597069597069596,1.0266666666666666
3.5486868859952665,0.0,0.21597069597069596,1.0266666666666666
3.55717453899706,0.0,0.21597069597069596,1.0266666666666666
3.5630872839974472,0.0,0.21597069597069596,1.0266666666666666
3.569849075996899,0.6164835164835165,0.3231501831501831,1.8953846153846152
3.5754578479973134,0.6164835164835165,0.3231501831501831,1.8953846153846152
3.575693966995459,0.6164835164835165,0.3231501831501831,1.8953846153846152
3.5848080750001827,0.6164835164835165,0.3231501831501831,1.8953846153846152
3.589797972999804,0.6164835164835165,0.3231501831501831,1.8953846153846152
3.5943307359993923,0.1668131868131868,0.12974358974358974,1.8832967032967032
3.5946200719990884,1.6254212454212453,1.3046886446886445,0.8671062271062271
3.600048928994511,1.6254212454212453,1.3046886446886445,0.8671062271062271
3.6023055049954564,1.6254212454212453,1.3046886446886445,0.8671062271062271
3.6024620609969134,1.6254212454212453,1.3046886446886445,0.8671062271062271
3.60813927900017,1.6254212454212453,1.3046886446886445,0.8671062271062271
3.608368661996792,1.5158241758241757,1.207179487179487,1.0008791208791208
3.6165199569950346,1.5158241758241757,1.207179487179487,1.0008791208791208
3.622763777995715,1.5158241758241757,1.207179487179487,1.0008791208791208
3.628236641998228,1.5158241758241757,1.207179487179487,1.0008791208791208
3.628379431000212,1.1539926739926738,0.36344322344322344,3.3
3.639049243996851,1.1539926739926738,0.36344322344322344,3.3
3.6494077069946798,1.1539926739926738,0.36344322344322344,3.3
3.6585426689998712,1.1539926739926738,0.36344322344322344,3.3
3.666738871994312,0.4287179487179487,0.4786813186813187,0.43274725274725273
3.6751034569970216,0.9984615384615383,0.6027838827838827,1.4408791208791207
3.6803888189970166,0.9984615384615383,0.6027838827838827,1.4408791208791207
3.6826108889945317,0.31347985347985347,0.21032967032967032,1.4763369963369963
3.684367892994487,0.31347985347985347,0.21032967032967032,1.4763369963369963
3.687912460998632,1.3893040293040293,1.5005128205128204,0.7728205128205128
3.693622497994511,1.3893040293040293,1.5005128205128204,0.7728205128205128
3.6938706029977766,1.8397802197802198,1.340952380952381,0.850989010989011
3.6996258809958817,1.8397802197802198,1.340952380952381,0.850989010989011
3.6997357629952603,1.411062271062271,0.7059340659340658,3.3
3.7059981809943565,1.411062271062271,0.7059340659340658,3.3
3.7090547869956936,1.411062271062271,0.7059340659340658,3.3
3.711371216995758,1.411062271062271,0.7059340659340658,3.3
3.7116594449980767,1.411062271062271,0.7059340659340658,3.3
3.718011264994857,1.411062271062271,0.7059340659340658,3.3
3.7217858519943547,1.411062271062271,0.7059340659340658,3.3
3.7265690049971454,1.411062271062271,0.7059340659340658,3.3
3.7344119159970433,1.411062271062271,0.7059340659340658,3.3
3.738162913999986,1.411062271062271,0.7059340659340658,3.3
3.741877720996854,1.411062271062271,0.7059340659340658,3.3
3.7471037189970957,0.6116483516483516,0.8372893772893772,0.6535531135531135
3.753355737993843,0.6116483516483516,0.8372893772893772,0.6535531135531135
3.7571574059984414,0.6116483516483516,0.8372893772893772,0.6535531135531135
3.7627969959939946,0.6116483516483516,0.8372893772893772,0.6535531135531135
3.763115164998453,0.6116483516483516,0.8372893772893772,0.6535531135531135
3.771001286993851,0.6116483516483516,0.8372893772893772,0.6535531135531135
3.7754806409939192,0.7196336996336996,0.21677655677655677,3.171868131868132
3.7763901299986173,0.0,0.24175824175824176,1.1588278388278386
3.7780168099998264,0.0,0.24175824175824176,1.1588278388278386
3.7845811730003334,0.0,0.24175824175824176,1.1588278388278386
3.7880919159943005,0.0,0.24175824175824176,1.1588278388278386
3.7881922559972736,0.5874725274725274,0.3739194139194139,3.062271062271062
3.7934616209968226,0.5874725274725274,0.3739194139194139,3.062271062271062
3.796451538997644,0.5874725274725274,0.3739194139194139,3.062271062271062
3.799380078999093,0.0,0.2248351648351648,1.5166300366300365
3.8028704799944535,0.0,0.2248351648351648,1.5166300366300365
3.802973664998717,0.0,0.2248351648351648,1.5166300366300365
3.8082705029955832,0.0,0.2248351648351648,1.5166300366300365
3.80987807999918,0.8115018315018314,0.3594139194139194,3.034065934065934
3.814949297993735,0.09025641025641025,0.14666666666666667,1.4312087912087912
3.8208143309966545,1.9074725274725273,1.3014652014652013,0.9726739926739927
3.8260972110001603,1.9074725274725273,1.3014652014652013,0.9726739926739927
3.8269564749934943,1.9074725274725273,1.3014652014652013,0.9726739926739927
3.8292746049992274,1.9074725274725273,1.3014652014652013,0.9726739926739927
3.8295154199950048,1.9074725274725273,1.3014652014652013,0.9726739926739927
3.8363403369949083,1.9074725274725273,1.3014652014652013,0.9726739926739927
3.8401059549942147,1.8599267399267398,1.2498901098901098,1.0186080586080586
3.845388074994844,1.8599267399267398,1.2498901098901098,1.0186080586080586
3.8490275889998884,1.8599267399267398,1.2498901098901098,1.0186080586080586
3.8559858959997655,1.8599267399267398,1.2498901098901098,1.0186080586080586
3.8597658189974027,0.3545787545787546,0.13216117216117215,2.282197802197802
3.8644740319941775,0.3545787545787546,0.13216117216117215,2.282197802197802
3.8649202919987147,0.3545787545787546,0.13216117216117215,2.282197802197802
3.870086707000155,0.3545787545787546,0.13216117216117215,2.282197802197802
3.872490137000568,0.3545787545787546,0.13216117216117215,2.282197802197802
3.8726532139990013,0.3545787545787546,0.13216117216117215,2.282197802197802
3.8795124779935577,0.3545787545787546,0.13216117216117215,2.282197802197802
3.8837405669983127,0.3545787545787546,0.13216117216117215,2.282197802197802
3.8866183399950387,0.3545787545787546,0.13216117216117215,2.282197802197802
3.889899231995514,0.3545787545787546,0.13216117216117215,2.282197802197802
3.890154121996602,0.3545787545787546,0.13216117216117215,2.282197802197802
3.8946626459946856,0.3545787545787546,0.13216117216117215,2.282197802197802
3.896451876993524,0.3545787545787546,0.13216117216117215,2.282197802197802
3.901394912994874,0.3545787545787546,0.13216117216117215,2.282197802197802
3.904071152996039,0.3545787545787546,0.13216117216117215,2.282197802197802
3.9086498689939617,0.3545787545787546,0.13216117216117215,2.282197802197802
3.9089053360003163,0.3545787545787546,0.13216117216117215,2.282197802197802
3.9134930599975633,0.3545787545787546,0.13216117216117215,2.282197802197802
3.9143654459985555,0.3545787545787546,0.13216117216117215,2.282197802197802
3.917791807994945,0.3545787545787546,0.13216117216117215,2.282197802197802
3.9230844029953005,0.3545787545787546,0.13216117216117215,2.282197802197802
3.9247275710004033,1.4336263736263737,0.614065934065934,3.3
3.928618613994331,1.4336263736263737,0.614065934065934,3.3
3.9341287879942684,1.4336263736263737,0.614065934065934,3.3
3.9345093819938484,1.4336263736263737,0.614065934065934,3.3
3.9437035679948167,0.0,0.2989743589743589,1.6737728937728935
3.950726164999651,1.4497435897435897,0.6358241758241758,2.548937728937729
3.958098800998414,1.4497435897435897,0.6358241758241758,2.548937728937729
3.9630295669994666,1.4497435897435897,0.6358241758241758,2.548937728937729
3.966734422996524,1.4497435897435897,0.6358241758241758,2.548937728937729
3.973433650993684,1.4497435897435897,0.6358241758241758,2.548937728937729
3.9772312629938824,1.4497435897435897,0.6358241758241758,2.548937728937729
3.982344572999864,1.4497435897435897,0.6358241758241758,2.548937728937729
3.986734780999541,1.4497435897435897,0.6358241758241758,2.548937728937729
3.9869781179950223,1.1854212454212454,1.1120879120879121,1.1830036630036629
3.991505927995604,1.1854212454212454,1.1120879120879121,1.1830036630036629
3.993054733997269,0.5205860805860806,0.21355311355311357,2.6464468864468866
3.997399896994466,0.5205860805860806,0.21355311355311357,2.6464468864468866
3.999941737994959,0.5205860805860806,0.21355311355311357,2.6464468864468866
4.006108627996582,0.5205860805860806,0.21355311355311357,2.6464468864468866
4.009831101997406,0.1789010989010989,0.34813186813186814,3.183956043956044
4.016242145000433,0.1789010989010989,0.34813186813186814,3.183956043956044
4.020550399000058,0.1789010989010989,0.34813186813186814,3.183956043956044
4.021444951999001,0.7712087912087912,0.40615384615384614,3.3
4.023066759997164,0.7712087912087912,0.40615384615384614,3.3
4.026853935996769,0.7712087912087912,0.40615384615384614,3.3
4.032977850998577,1.2942124542124542,0.5495970695970696,1.6866666666666665
4.037203879997833,0.07736263736263736,0.15472527472527473,1.6213919413919413
4.038070616996265,0.07736263736263736,0.15472527472527473,1.6213919413919413
4.039697464999335,0.07736263736263736,0.15472527472527473,1.6213919413919413
4.0441230759970495,0.07736263736263736,0.15472527472527473,1.6213919413919413
4.0449762329953955,0.07736263736263736,0.15472527472527473,1.6213919413919413
4.048398640996311,0.07736263736263736,0.15472527472527473,1.6213919413919413
4.048911783997028,0.07736263736263736,0.15472527472527473,1.6213919413919413
4.053271213997505,0.07736263736263736,0.15472527472527473,1.6213919413919413
4.0534622259947355,1.0435897435897434,0.722051282051282,0.5238095238095237
4.059410914000182,1.0435897435897434,0.722051282051282,0.5238095238095237
4.06326120999438,1.0435897435897434,0.722051282051282,0.5238095238095237
4.070956571995339,1.0435897435897434,0.722051282051282,0.5238095238095237
4.076647431997117,1.0435897435897434,0.722051282051282,0.5238095238095237
4.084902989998227,0.0032234432234432234,0.20227106227106226,0.8799999999999999
4.092482132000441,0.0032234432234432234,0.20227106227106226,0.8799999999999999
4.096362020995002,0.16117216117216115,0.14908424908424908,1.6149450549450548
4.102538317994913,0.16117216117216115,0.14908424908424908,1.6149450549450548
4.105806380997819,0.16117216117216115,0.14908424908424908,1.6149450549450548
4.106703928999195,0.16117216117216115,0.14908424908424908,1.6149450549450548
4.1089266869967105,0.16117216117216115,0.14908424908424908,1.6149450549450548
4.109183483997185,0.2796336996336996,0.1692307692307692,2.0807326007326004
4.113693609993788,0.2796336996336996,0.1692307692307692,2.0807326007326004
4.115746921997925,0.2796336996336996,0.1692307692307692,2.0807326007326004
4.117397624999285,0.2796336996336996,0.1692307692307692,2.0807326007326004
4.121404850993713,0.2796336996336996,0.1692307692307692,2.0807326007326004
4.123988772997109,0.2796336996336996,0.1692307692307692,2.0807326007326004
4.1292253299980075,0.2796336996336996,0.1692307692307692,2.0807326007326004
4.135061261993542,0.2796336996336996,0.1692307692307692,2.0807326007326004
4.143443247994583,0.2796336996336996,0.1692307692307692,2.0807326007326004
4.147270891997323,0.2796336996336996,0.1692307692307692,2.0807326007326004
4.15299708499515,0.2796336996336996,0.1692307692307692,2.0807326007326004
4.153275147000386,0.2796336996336996,0.1692307692307692,2.0807326007326004
4.158754637996026,1.7624175824175823,1.2934065934065933,1.0371428571428571
4.159645558000193,1.7624175824175823,1.2934065934065933,1.0371428571428571
4.161182509000355,1.7624175824175823,1.2934065934065933,1.0371428571428571
4.165039708997938,1.7624175824175823,1.2934065934065933,1.0371428571428571
4.17047480999463,1.7624175824175823,1.2934065934065933,1.0371428571428571
4.171329885997693,0.1095970695970696,0.13457875457875457,1.4569963369963368
4.173139138998522,0.1095970695970696,0.13457875457875457,1.4569963369963368
4.175524854996183,0.1095970695970696,0.13457875457875457,1.4569963369963368
4.175868202997663,0.1095970695970696,0.13457875457875457,1.4569963369963368
4.179606193996733,0.1095970695970696,0.13457875457875457,1.4569963369963368
4.186867494994658,0.1095970695970696,0.13457875457875457,1.4569963369963368
4.1907416729955,0.1095970695970696,0.13457875457875457,1.4569963369963368
4.194468855996092,0.1095970695970696,0.13457875457875457,1.4569963369963368
4.202540559999761,0.1095970695970696,0.13457875457875457,1.4569963369963368
4.206728642995586,0.1095970695970696,0.13457875457875457,1.4569963369963368
4.2084599809968495,0.1095970695970696,0.13457875457875457,1.4569963369963368
4.212011402996723,0.5915018315018314,0.21435897435897436,2.501391941391941
4.212268585994025,0.0,0.14666666666666667,0.938021978021978
4.219723165995674,0.0,0.14666666666666667,0.938021978021978
4.223522336993483,0.0,0.14666666666666667,0.938021978021978
4.229419520997908,0.0,0.14666666666666667,0.938021978021978
4.237971962000302,1.3836630036630035,0.43113553113553116,3.3
4.244695665998734,1.3836630036630035,0.43113553113553116,3.3
4.251019118994009,1.3836630036630035,0.43113553113553116,3.3
4.255712763995689,0.49721611721611714,0.1797069597069597,2.605347985347985
4.2615363109944155,0.49721611721611714,0.1797069597069597,2.605347985347985
4.2661762019997695,0.49721611721611714,0.1797069597069597,2.605347985347985
4.2664305819998845,0.49721611721611714,0.1797069597069597,2.605347985347985
4.275609286996769,0.49721611721611714,0.1797069597069597,2.605347985347985
4.283083889997215,0.49721611721611714,0.1797069597069597,2.605347985347985
4.2893508359993575,0.49721611721611714,0.1797069597069597,2.605347985347985
4.292699495999841,0.49721611721611714,0.1797069597069597,2.605347985347985
4.294459905999247,0.1692307692307692,0.14908424908424908,1.7809523809523808
4.298369598996942,0.1692307692307692,0.14908424908424908,1.7809523809523808
4.302501595993817,0.1692307692307692,0.14908424908424908,1.7809523809523808
4.305223068993655,0.1692307692307692,0.14908424908424908,1.7809523809523808
4.308999417997256,1.2652014652014651,0.49882783882783877,2.246739926739927
4.314751111000078,1.2652014652014651,0.49882783882783877,2.246739926739927
4.315076435996161,1.2652014652014651,0.49882783882783877,2.246739926739927
4.320319013997505,1.2652014652014651,0.49882783882783877,2.246739926739927
4.322582180997415,1.2652014652014651,0.49882783882783877,2.246739926739927
4.32286203699914,1.2652014652014651,0.49882783882783877,2.246739926739927
4.328288640994288,0.9194871794871795,1.1435164835164835,0.7446153846153846
4.329808131995378,0.9194871794871795,1.1435164835164835,0.7446153846153846
4.3362121829995885,0.9194871794871795,1.1435164835164835,0.7446153846153846
4.339264797999931,0.9194871794871795,1.1435164835164835,0.7446153846153846
4.342218672994932,0.0,0.19340659340659339,0.9315750915750916
4.345929736999096,0.5254212454212454,0.7051282051282051,0.7357509157509158
4.354855968995253,0.5254212454212454,0.7051282051282051,0.7357509157509158
4.3590338899957715,0.0,0.12974358974358974,0.7002930402930403
4.361402874994383,0.0,0.12974358974358974,0.7002930402930403
4.361683909999556,0.0,0.12974358974358974,0.7002930402930403
4.369850735994987,0.0,0.12974358974358974,0.7002930402930403
4.373633754999901,0.0,0.1668131868131868,0.7849084249084248
4.378150281998387,0.0,0.1668131868131868,0.7849084249084248
4.378388818993699,0.0,0.14586080586080585,1.1547985347985346
4.385985146000166,0.0,0.14586080586080585,1.1547985347985346
4.390882497995335,0.0,0.27802197802197803,1.9066666666666663
4.397035497997422,0.0,0.27802197802197803,1.9066666666666663
4.404757901997073,0.9767032967032967,0.7712087912087912,0.5769963369963369
4.409642205995624,0.9767032967032967,0.7712087912087912,0.5769963369963369
4.414294817994232,0.9767032967032967,0.7712087912087912,0.5769963369963369
4.424156954999489,0.9767032967032967,0.7712087912087912,0.5769963369963369
4.43013362599595,0.0,0.2063003663003663,0.7567032967032966
4.430302684995695,0.0,0.2063003663003663,0.7567032967032966
4.440267726000457,0.0,0.2063003663003663,0.7567032967032966
4.448957774999144,0.0,0.2063003663003663,0.7567032967032966
4.456863445993804,1.0476190476190474,0.33926739926739924,2.9099633699633696
4.464348975998291,1.0476190476190474,0.33926739926739924,2.9099633699633696
4.469240159996843,1.0476190476190474,0.33926739926739924,2.9099633699633696
4.473276779994194,1.0476190476190474,0.33926739926739924,2.9099633699633696
4.476342766000016,1.0476190476190474,0.33926739926739924,2.9099633699633696
4.4786055969962035,1.0476190476190474,0.33926739926739924,2.9099633699633696
4.4788992009998765,1.0476190476190474,0.33926739926739924,2.9099633699633696
4.485285839000426,1.0476190476190474,0.33926739926739924,2.9099633699633696
4.488925459998427,1.0476190476190474,0.33926739926739924,2.9099633699633696
4.494178410997847,1.0476190476190474,0.33926739926739924,2.9099633699633696
4.497270325999125,1.224102564102564,0.9347985347985347,0.693040293040293
4.499136215999897,1.224102564102564,0.9347985347985347,0.693040293040293
4.502120666998962,1.224102564102564,0.9347985347985347,0.693040293040293
4.503786535999097,1.224102564102564,0.9347985347985347,0.693040293040293
4.507008467997366,1.224102564102564,0.9347985347985347,0.693040293040293
4.507879837998189,1.1193406593406594,0.365054945054945,3.0235897435897434
4.5095528479942,1.1193406593406594,0.365054945054945,3.0235897435897434
4.513305954998941,1.1193406593406594,0.365054945054945,3.0235897435897434
4.520319985997048,1.1193406593406594,0.365054945054945,3.0235897435897434
4.5242398259943,1.1193406593406594,0.365054945054945,3.0235897435897434
4.528697265996016,1.1942857142857142,0.6245421245421244,1.3852747252747253
4.529598433997307,1.1942857142857142,0.6245421245421244,1.3852747252747253
4.531535791000351,1.1942857142857142,0.6245421245421244,1.3852747252747253
4.53361154099548,1.1942857142857142,0.6245421245421244,1.3852747252747253
4.534916169999633,1.959047619047619,1.4078388278388276,1.05003663003663
4.540963700994325,0.0,0.2772161172161172,1.0613186813186812
4.545678342998144,0.0,0.2772161172161172,1.0613186813186812
4.5458247429996845,0.0,0.2772161172161172,1.0613186813186812
4.553329119000409,0.0,0.2772161172161172,1.0613186813186812
4.5590480729952105,0.0,0.2772161172161172,1.0613186813186812
4.559212226995442,0.0,0.2772161172161172,1.0613186813186812
4.565658233994327,0.0,0.2772161172161172,1.0613186813186812
4.571086792995629,0.0,0.2772161172161172,1.0613186813186812
4.571311413994408,0.0,0.2772161172161172,1.0613186813186812
4.5767452779982705,0.0,0.2772161172161172,1.0613186813186812
4.578327791998163,0.0,0.2772161172161172,1.0613186813186812
4.585226514995156,0.0,0.18857142857142856,0.6285714285714284
4.588491652997618,0.0,0.18857142857142856,0.6285714285714284
4.590111945995886,0.0,0.18857142857142856,0.6285714285714284
4.593889643998409,0.0,0.18857142857142856,0.6285714285714284
4.600653051995323,1.6552380952380952,1.4094505494505494,1.1636630036630036
4.604639965997194,1.7164835164835166,0.6519413919413919,2.5465201465201464
4.60719847099972,1.7164835164835166,0.6519413919413919,2.5465201465201464
4.611630652994791,1.7164835164835166,0.6519413919413919,2.5465201465201464
4.614575571999012,0.11604395604395604,0.1692307692307692,1.36996336996337
4.6191884569998365,0.11604395604395604,0.1692307692307692,1.36996336996337
4.624539303993515,0.0,0.1668131868131868,0.9984615384615383
4.626847278996138,0.0,0.1668131868131868,0.9984615384615383
4.627077880999423,0.0,0.1668131868131868,0.9984615384615383
4.633306396994158,0.0,0.1668131868131868,0.9984615384615383
4.638507243995264,0.0,0.1668131868131868,0.9984615384615383
4.639395392994629,0.0,0.1668131868131868,0.9984615384615383
4.64098634099355,0.0,0.1668131868131868,0.9984615384615383
4.6449449339997955,0.0,0.1668131868131868,0.9984615384615383
4.650503843993647,0.5592673992673992,0.7961904761904761,0.7518681318681318
4.652148338995175,0.5592673992673992,0.7961904761904761,0.7518681318681318
4.656587565994414,0.5592673992673992,0.7961904761904761,0.7518681318681318
4.656822258999455,0.0,0.1805128205128205,1.4650549450549448
4.662699561995396,0.0,0.1805128205128205,1.4650549450549448
4.662912595995294,0.8767765567765567,0.4432234432234432,3.3
4.672954997993656,0.8767765567765567,0.4432234432234432,3.3
4.679210386995692,0.8767765567765567,0.4432234432234432,3.3
4.683410517995071,0.8767765567765567,0.4432234432234432,3.3
4.686499056995672,0.8767765567765567,0.4432234432234432,3.3
4.688222389995644,0.8767765567765567,0.4432234432234432,3.3
4.691388772000209,0.8767765567765567,0.4432234432234432,3.3
4.693023840998649,0.8767765567765567,0.4432234432234432,3.3
4.69720161499572,0.8767765567765567,0.4432234432234432,3.3
4.702321491000475,0.0,0.29736263736263735,1.4295970695970697
4.703960143000586,0.0,0.29736263736263735,1.4295970695970697
4.707767501997296,0.7986080586080586,0.917069597069597,0.6809523809523809
4.7123568059978425,1.3304761904761904,0.5584615384615385,2.0823443223443223
4.712717640999472,1.3304761904761904,0.5584615384615385,2.0823443223443223
4.718411606998416,1.3304761904761904,0.5584615384615385,2.0823443223443223
4.718559215994901,0.0,0.22805860805860806,1.4191208791208791
4.723972043997492,0.0,0.22805860805860806,1.4191208791208791
4.7254964859967,0.0,0.22805860805860806,1.4191208791208791
4.73232263099635,0.0,0.22805860805860806,1.4191208791208791
4.737113154995313,0.0,0.22805860805860806,1.4191208791208791
4.742504322995956,0.0,0.22805860805860806,1.4191208791208791
4.744846105997567,1.2047619047619047,0.5181684981684981,3.0268131868131865
4.745019576999766,1.2047619047619047,0.5181684981684981,3.0268131868131865
4.753451054995821,1.2047619047619047,0.5181684981684981,3.0268131868131865
4.760398111997347,1.2047619047619047,0.5181684981684981,3.0268131868131865
4.766283541997836,0.0,0.18615384615384614,1.224102564102564
4.77485061599873,0.0,0.18615384615384614,1.224102564102564
4.782897142998991,0.0,0.18615384615384614,1.224102564102564
4.788889054994797,0.0,0.18615384615384614,1.224102564102564
4.792829451995203,0.0,0.18615384615384614,1.224102564102564
4.795926566999697,0.0,0.18615384615384614,1.224102564102564
4.799624926999968,0.0,0.18615384615384614,1.224102564102564
4.807539559995348,1.5972161172161172,0.614065934065934,3.3
4.812932866996562,1.5972161172161172,0.614065934065934,3.3
4.816197186999489,1.5972161172161172,0.614065934065934,3.3
4.816465921998315,1.5972161172161172,0.614065934065934,3.3
4.823624283999379,1.5972161172161172,0.614065934065934,3.3
4.827559656994708,1.5972161172161172,0.614065934065934,3.3
4.832679573999485,1.5972161172161172,0.614065934065934,3.3
4.836767216998851,0.15311355311355312,0.15069597069597068,1.4030036630036629
4.838355457999569,0.15311355311355312,0.15069597069597068,1.4030036630036629
4.841558591993817,0.15311355311355312,0.15069597069597068,1.4030036630036629
4.843258089997107,0.15311355311355312,0.15069597069597068,1.4030036630036629
4.84629455999675,0.15311355311355312,0.15069597069597068,1.4030036630036629
4.851643120993685,0.15311355311355312,0.15069597069597068,1.4030036630036629
4.851870231999783,0.5133333333333333,0.1926007326007326,2.6005128205128205
4.858591675998468,0.5133333333333333,0.1926007326007326,2.6005128205128205
4.8625296329992125,0.0,0.16197802197802197,1.1838095238095236
4.869165216994588,0.0,0.16197802197802197,1.1838095238095236
4.872782624996034,0.0,0.16197802197802197,1.1838095238095236
4.873001648993522,0.20065934065934066,0.17487179487179486,1.6246153846153846
4.877585402995464,0.20065934065934066,0.17487179487179486,1.6246153846153846
4.877879310995922,0.06769230769230769,0.23128205128205126,1.3731868131868132
4.886448183999164,0.007252747252747252,0.166007326007326,0.7534798534798535
4.894155879999744,0.007252747252747252,0.166007326007326,0.7534798534798535
4.901243395994243,0.007252747252747252,0.166007326007326,0.7534798534798535
4.904664519999642,1.2450549450549449,0.5415384615384615,3.1605860805860804
4.904977763995703,1.2450549450549449,0.5415384615384615,3.1605860805860804
4.909606527995493,1.2450549450549449,0.5415384615384615,3.1605860805860804
4.910461391998979,1.2353846153846153,0.40534798534798533,3.046153846153846
4.912014793997514,0.5334798534798535,0.19743589743589743,2.5473260073260073
4.917413253999257,0.5334798534798535,0.19743589743589743,2.5473260073260073
4.91851573799795,0.5334798534798535,0.19743589743589743,2.5473260073260073
4.918691640996258,0.5334798534798535,0.19743589743589743,2.5473260073260073
4.9233278059982695,0.5334798534798535,0.19743589743589743,2.5473260073260073
4.92351265400066,0.5334798534798535,0.19743589743589743,2.5473260073260073
4.928901701998257,0.5334798534798535,0.19743589743589743,2.5473260073260073
4.931195529999968,0.5334798534798535,0.19743589743589743,2.5473260073260073
4.93157623699517,0.5334798534798535,0.19743589743589743,2.5473260073260073
4.937024392995227,0.5334798534798535,0.19743589743589743,2.5473260073260073
4.937856560994987,0.5334798534798535,0.19743589743589743,2.5473260073260073
4.9395805959939025,0.5334798534798535,0.19743589743589743,2.5473260073260073
4.943397852999624,0.5334798534798535,0.19743589743589743,2.5473260073260073
4.949871527998766,0.5334798534798535,0.19743589743589743,2.5473260073260073
4.953565265997895,0.5334798534798535,0.19743589743589743,2.5473260073260073
4.95814392399916,0.5334798534798535,0.19743589743589743,2.5473260073260073
4.958419185997627,0.5334798534798535,0.19743589743589743,2.5473260073260073
4.963588369995705,0.5334798534798535,0.19743589743589743,2.5473260073260073
4.969078078996972,0.5334798534798535,0.19743589743589743,2.5473260073260073
4.970618671999546,1.2861538461538462,0.3021978021978022,3.1613919413919414
4.975124673997925,1.2861538461538462,0.3021978021978022,3.1613919413919414
4.975327424996067,1.2861538461538462,0.3021978021978022,3.1613919413919414
4.979924757994013,1.2861538461538462,0.3021978021978022,3.1613919413919414
4.980231390996778,1.2861538461538462,0.3021978021978022,3.1613919413919414
4.985026285998174,1.2861538461538462,0.3021978021978022,3.1613919413919414
4.985225455995533,0.9839560439560439,0.9678388278388278,0.5641025641025641
4.989835119995405,0.9839560439560439,0.9678388278388278,0.5641025641025641
4.990071378997527,0.9839560439560439,0.9678388278388278,0.5641025641025641
4.99524378899514,0.9839560439560439,0.9678388278388278,0.5641025641025641
4.997600925998995,0.9839560439560439,0.9678388278388278,0.5641025641025641
4.997881080998923,0.9839560439560439,0.9678388278388278,0.5641025641025641
5.00233214799664,0.9839560439560439,0.9678388278388278,0.5641025641025641
5.00385163899773,0.9839560439560439,0.9678388278388278,0.5641025641025641
5.007661005998671,0.9839560439560439,0.9678388278388278,0.5641025641025641
5.013153328000044,0.9839560439560439,0.9678388278388278,0.5641025641025641
5.014117976999842,0.9839560439560439,0.9678388278388278,0.5641025641025641
5.015026827997644,0.9839560439560439,0.9678388278388278,0.5641025641025641
5.016702412998711,0.9839560439560439,0.9678388278388278,0.5641025641025641
5.0211177289966145,0.9839560439560439,0.9678388278388278,0.5641025641025641
5.022033326997189,1.5464468864468863,0.6519413919413919,3.3
5.023099293997802,1.5464468864468863,0.6519413919413919,3.3
5.023397293000016,1.5464468864468863,0.6519413919413919,3.3
5.0292069200004335,1.5464468864468863,0.6519413919413919,3.3
5.029311153994058,1.1854212454212454,0.32073260073260074,3.3
5.034168508995208,1.1854212454212454,0.32073260073260074,3.3
5.03993027999968,1.1854212454212454,0.32073260073260074,3.3
5.040750016996753,1.1854212454212454,0.32073260073260074,3.3
5.042352363998361,1.1854212454212454,0.32073260073260074,3.3
5.046242055999755,1.1854212454212454,0.32073260073260074,3.3
5.050650610995945,1.1854212454212454,0.32073260073260074,3.3
5.051538777996029,1.1854212454212454,0.32073260073260074,3.3
5.053329997994297,1.1854212454212454,0.32073260073260074,3.3
5.055734775000019,0.0,0.20146520146520144,1.0153846153846153
5.055928501999006,0.0,0.20146520146520144,1.0153846153846153
5.064082615994266,0.0,0.20146520146520144,1.0153846153846153
5.071552855995833,0.0,0.20146520146520144,1.0153846153846153
5.077808155998355,0.0,0.20146520146520144,1.0153846153846153
5.086475235999387,1.7043956043956046,1.1684981684981686,0.8598534798534798
5.093148899999505,1.7043956043956046,1.1684981684981686,0.8598534798534798
5.096440402994631,1.7156776556776556,1.3127472527472526,0.9219047619047619
5.098785903996031,0.09509157509157509,0.23208791208791207,0.6994871794871794
5.105283905999386,0.09509157509157509,0.23208791208791207,0.6994871794871794
5.10952402199473,0.09509157509157509,0.23208791208791207,0.6994871794871794
5.112139337994449,0.09509157509157509,0.23208791208791207,0.6994871794871794
5.116381811996689,0.09509157509157509,0.23208791208791207,0.6994871794871794
5.117442511000263,0.09509157509157509,0.23208791208791207,0.6994871794871794
5.11882110699662,0.09509157509157509,0.23208791208791207,0.6994871794871794
5.12646974499512,0.09509157509157509,0.23208791208791207,0.6994871794871794
5.131824583993875,0.09509157509157509,0.23208791208791207,0.6994871794871794
5.133306526993692,0.3755311355311355,0.17326007326007326,2.3917948717948714
5.139411687996471,0.7268864468864469,0.6962637362637363,0.5657142857142857
5.1452700899972115,0.0,0.18373626373626373,1.220879120879121
5.152129188994877,0.0,0.18373626373626373,1.220879120879121
5.157742876996053,0.0,0.18373626373626373,1.220879120879121
5.16894573099853,0.0,0.18373626373626373,1.220879120879121
5.178018310994958,0.7695970695970695,0.4827106227106227,3.3
5.186042197994539,0.7695970695970695,0.4827106227106227,3.3
5.191145822995168,0.47142857142857136,0.36747252747252745,3.3
5.193778040993493,0.47142857142857136,0.36747252747252745,3.3
5.198165382993466,0.47142857142857136,0.36747252747252745,3.3
5.1999277340000845,0.01934065934065934,0.1813186813186813,0.7526739926739926
5.204057216993533,0.01934065934065934,0.1813186813186813,0.7526739926739926
5.206596449999779,0.01934065934065934,0.1813186813186813,0.7526739926739926
5.212800960995082,0.01934065934065934,0.1813186813186813,0.7526739926739926
5.216830985998968,0.01934065934065934,0.1813186813186813,0.7526739926739926
5.221664402997703,0.01934065934065934,0.1813186813186813,0.7526739926739926
5.229027509994921,0.01934065934065934,0.1813186813186813,0.7526739926739926
5.234110580000561,0.01934065934065934,0.1813186813186813,0.7526739926739926
5.237000578999869,0.01934065934065934,0.1813186813186813,0.7526739926739926
5.240427254997485,0.01934065934065934,0.1813186813186813,0.7526739926739926
5.241199109994341,0.01934065934065934,0.1813186813186813,0.7526739926739926
5.243342854999355,0.01934065934065934,0.1813186813186813,0.7526739926739926
5.244083278994367,0.01934065934065934,0.1813186813186813,0.7526739926739926
5.24619332599832,0.01934065934065934,0.1813186813186813,0.7526739926739926
5.24759838499449,0.01934065934065934,0.1813186813186813,0.7526739926739926
5.247692616998393,0.9807326007326007,0.3046153846153846,2.996996336996337
5.2525364969988,0.9807326007326007,0.3046153846153846,2.996996336996337
5.252738981995208,0.15472527472527473,0.19340659340659339,1.6447619047619046
5.258077045997197,0.15472527472527473,0.19340659340659339,1.6447619047619046
5.260545978999289,0.15472527472527473,0.19340659340659339,1.6447619047619046
5.26613584900042,0.15472527472527473,0.19340659340659339,1.6447619047619046
5.267748018995917,0.15472527472527473,0.19340659340659339,1.6447619047619046
5.27524536299461,0.15472527472527473,0.19340659340659339,1.6447619047619046
5.278374403998896,0.051575091575091575,0.23934065934065935,1.24021978021978
5.28068679900025,0.0,0.19663003663003664,0.6398534798534798
5.280999766000605,0.0,0.19663003663003664,0.6398534798534798
5.289321771000687,0.0,0.19663003663003664,0.6398534798534798
5.295789060997777,0.0,0.19663003663003664,0.6398534798534798
5.301390019994869,0.0,0.19663003663003664,0.6398534798534798
5.311052044999087,0.0,0.22564102564102564,1.1177289377289377
5.319941019995895,1.3304761904761904,0.5221978021978021,2.327326007326007
5.325941087998217,1.3304761904761904,0.5221978021978021,2.327326007326007
5.332601510999666,1.4706959706959708,1.3191941391941393,0.9082051282051282
5.338232252994203,0.15069597069597068,0.1402197802197802,1.7237362637362637
5.34534264299873,0.15069597069597068,0.1402197802197802,1.7237362637362637
5.352982201999112,0.15069597069597068,0.1402197802197802,1.7237362637362637
5.359912522995728,0.26996336996336995,0.1523076923076923,1.9356776556776556
5.366370288000326,0.0,0.16036630036630037,1.0927472527472526
5.3705697169934865,0.0,0.16036630036630037,1.0927472527472526
5.37286834599945,0.0,0.16036630036630037,1.0927472527472526
5.373056025993719,0.0,0.16036630036630037,1.0927472527472526
5.3775362339947606,0.0,0.16036630036630037,1.0927472527472526
5.379161758995906,0.0,0.25384615384615383,1.415091575091575
5.384802644999581,1.1725274725274726,0.5834432234432234,2.947032967032967
5.385098396000103,1.1725274725274726,0.5834432234432234,2.947032967032967
5.389534771995386,1.290989010989011,0.46820512820512816,2.7858608058608056
5.390414144996612,0.713992673992674,0.2361172161172161,2.9744322344322343
5.392082679994928,0.713992673992674,0.2361172161172161,2.9744322344322343
5.39503811999748,0.713992673992674,0.2361172161172161,2.9744322344322343
5.399112472994602,0.0,0.23128205128205126,1.3997802197802196
5.402903271999094,0.0,0.23128205128205126,1.3997802197802196
5.406655646998843,0.0,0.23128205128205126,1.3997802197802196
5.411081090998778,0.0,0.23128205128205126,1.3997802197802196
5.411976912997488,0.0,0.23128205128205126,1.3997802197802196
5.413825437994092,0.0,0.23128205128205126,1.3997802197802196
5.418650344996422,1.7736996336996336,1.3304761904761904,1.0572893772893772
5.423380820997409,0.8775824175824175,0.5818315018315018,2.4820512820512817
5.429287791994284,1.5013186813186812,0.7019047619047618,3.3
5.429449735995149,1.5013186813186812,0.7019047619047618,3.3
5.437201701999584,1.5013186813186812,0.7019047619047618,3.3
5.441821641994466,1.5013186813186812,0.7019047619047618,3.3
5.442149393995351,1.5013186813186812,0.7019047619047618,3.3
5.448098616994685,1.5013186813186812,0.7019047619047618,3.3
5.455939094994392,1.091135531135531,1.0693772893772893,1.2724542124542124
5.460317714998382,1.091135531135531,1.0693772893772893,1.2724542124542124
5.461175899996306,0.0,0.19743589743589743,1.083076923076923
5.46279973199853,0.0,0.19743589743589743,1.083076923076923
5.47200112399878,0.0,0.19743589743589743,1.083076923076923
5.478265644997009,0.45772893772893775,0.21274725274725276,2.299120879120879
5.48538015599479,0.45772893772893775,0.21274725274725276,2.299120879120879
5.4915016739978455,0.45772893772893775,0.21274725274725276,2.299120879120879
5.496738990994345,0.45772893772893775,0.21274725274725276,2.299120879120879
5.4986803339998005,0.45772893772893775,0.21274725274725276,2.299120879120879
5.500548942000023,0.0,0.19743589743589743,0.8372893772893772
5.503831137997622,0.0,0.19743589743589743,0.8372893772893772
5.504075990000274,0.7276923076923076,0.9646153846153847,0.6785347985347985
5.508988159999717,0.7276923076923076,0.9646153846153847,0.6785347985347985
5.515894172000117,0.7276923076923076,0.9646153846153847,0.6785347985347985
5.520911794999847,0.2756043956043956,0.5584615384615385,0.7695970695970695
5.5248444589960855,0.2756043956043956,0.5584615384615385,0.7695970695970695
5.5288687639986165,0.8574358974358974,0.925128205128205,0.6027838827838827
5.534346943997662,0.8574358974358974,0.925128205128205,0.6027838827838827
5.54224867499579,0.08542124542124542,0.1692307692307692,1.4013919413919413
5.550371739998809,0.048351648351648346,0.26673992673992675,1.1136996336996337
5.556027317994449,0.048351648351648346,0.26673992673992675,1.1136996336996337
5.566589775997272,0.0,0.166007326007326,1.3933333333333333
5.572698419993685,0.0,0.166007326007326,1.3933333333333333
5.576493814995047,0.0,0.166007326007326,1.3933333333333333
5.5828576239946415,0.0,0.166007326007326,1.3933333333333333
5.586666928997147,0.0,0.166007326007326,1.3933333333333333
5.589791753998725,0.0,0.166007326007326,1.3933333333333333
5.5939239549989,0.0,0.166007326007326,1.3933333333333333
5.594883599995228,0.0,0.166007326007326,1.3933333333333333
5.596045157995832,0.0,0.166007326007326,1.3933333333333333
5.596310761000495,0.0,0.166007326007326,1.3933333333333333
5.604761893999239,0.0,0.166007326007326,1.3933333333333333
5.609500146994833,0.0,0.166007326007326,1.3933333333333333
5.609599904993956,0.0,0.166007326007326,1.3933333333333333
5.6171935699967435,0.0,0.166007326007326,1.3933333333333333
5.622661770998093,0.0,0.166007326007326,1.3933333333333333
5.622946241994214,0.0,0.166007326007326,1.3933333333333333
5.632272145994648,0.0,0.166007326007326,1.3933333333333333
5.6381484379962785,0.0,0.166007326007326,1.3933333333333333
5.644275323000329,0.0,0.27882783882783885,1.1556043956043955
5.650785461999476,0.0,0.27882783882783885,1.1556043956043955
5.654600442998344,0.0,0.27882783882783885,1.1556043956043955
5.658544339996297,0.0,0.27882783882783885,1.1556043956043955
5.662390433994005,0.0,0.27882783882783885,1.1556043956043955
5.669856476997666,0.0,0.27882783882783885,1.1556043956043955
5.673852513995371,0.0,0.27882783882783885,1.1556043956043955
5.6801430829946185,0.0,0.27882783882783885,1.1556043956043955
5.687122586998157,0.0,0.27882783882783885,1.1556043956043955
5.693211762998544,1.5464468864468863,1.3659340659340657,0.9364102564102563
5.697720999996818,0.4762637362637362,0.18695970695970696,2.3418315018315017
5.698007554994547,0.4762637362637362,0.18695970695970696,2.3418315018315017
5.705435108997335,0.4762637362637362,0.18695970695970696,2.3418315018315017
5.710617180993722,0.19824175824175824,0.36344322344322344,2.967179487179487
5.715483960993879,1.0387545787545787,0.3167032967032967,3.1323809523809523
5.721758301995578,0.0,0.3158974358974359,1.4932600732600732
5.725704486998438,0.0,0.1643956043956044,0.7792673992673992
5.730850184998417,1.357069597069597,0.5657142857142857,2.012234432234432
5.735991274996195,1.357069597069597,0.5657142857142857,2.012234432234432
5.7368747719956446,1.357069597069597,0.5657142857142857,2.012234432234432
5.738505143999646,1.357069597069597,0.5657142857142857,2.012234432234432
5.742397849993722,1.357069597069597,0.5657142857142857,2.012234432234432
5.7483989510001265,1.357069597069597,0.5657142857142857,2.012234432234432
5.7546943749985076,1.357069597069597,0.5657142857142857,2.012234432234432
5.7581909309956245,1.357069597069597,0.5657142857142857,2.012234432234432
5.758345366994035,1.357069597069597,0.5657142857142857,2.012234432234432
5.7636918789939955,1.357069597069597,0.5657142857142857,2.012234432234432
5.768812653994246,1.357069597069597,0.5657142857142857,2.012234432234432
5.769724206998944,0.8453479853479853,0.27318681318681315,3.2097435897435895
5.771349561000534,0.8453479853479853,0.27318681318681315,3.2097435897435895
5.775124199994025,0.8453479853479853,0.27318681318681315,3.2097435897435895
5.779686406996916,0.0,0.30058608058608055,1.1241758241758242
5.781399419000081,0.0,0.30058608058608055,1.1241758241758242
5.785525961997337,0.0,0.30058608058608055,1.1241758241758242
5.786571669996192,0.0,0.30058608058608055,1.1241758241758242
5.787468694994459,0.0,0.30058608058608055,1.1241758241758242
5.789065324999683,0.0,0.30058608058608055,1.1241758241758242
5.792914051999105,0.0,0.30058608058608055,1.1241758241758242
5.7983580059953965,0.0,0.30058608058608055,1.1241758241758242
5.7996007229958195,0.0,0.30058608058608055,1.1241758241758242
5.799759195993829,0.0,0.30058608058608055,1.1241758241758242
5.805302958993707,0.0,0.30058608058608055,1.1241758241758242
5.806175972997153,0.0,0.28608058608058606,1.7463003663003662
5.807847765994666,0.0,0.28608058608058606,1.7463003663003662
5.81163483599812,0.0,0.28608058608058606,1.7463003663003662
5.82023467199906,0.0,0.28608058608058606,1.7463003663003662
5.8249631479993695,0.0,0.28608058608058606,1.7463003663003662
5.830752169000334,0.0,0.28608058608058606,1.7463003663003662
5.8328221249976195,0.0,0.28608058608058606,1.7463003663003662
5.832985188993916,0.0,0.28608058608058606,1.7463003663003662
5.841299940999306,0.0,0.28608058608058606,1.7463003663003662
5.848641015996691,1.805934065934066,1.4803663003663003,1.0774358974358973
5.852359438998974,1.1765567765567766,0.38036630036630037,3.249230769230769
5.857049907994224,1.1765567765567766,0.38036630036630037,3.249230769230769
5.857195699994918,1.1765567765567766,0.38036630036630037,3.249230769230769
5.861731171993597,1.1765567765567766,0.38036630036630037,3.249230769230769
5.862701220998133,1.1765567765567766,0.38036630036630037,3.249230769230769
5.864413569994213,1.1765567765567766,0.38036630036630037,3.249230769230769
5.869366787999752,1.1765567765567766,0.38036630036630037,3.249230769230769
5.873176118999254,1.1765567765567766,0.38036630036630037,3.249230769230769
5.877682569996978,1.3852747252747253,1.1725274725274726,0.8477655677655677
5.878530730995408,1.3852747252747253,1.1725274725274726,0.8477655677655677
5.881118451994553,1.3852747252747253,1.1725274725274726,0.8477655677655677
5.886169073994097,1.3852747252747253,1.1725274725274726,0.8477655677655677
5.890010338000138,1.3852747252747253,1.1725274725274726,0.8477655677655677
5.894198391993996,0.7212454212454212,0.2328937728937729,2.7906959706959706
5.896903134998865,0.7212454212454212,0.2328937728937729,2.7906959706959706
5.904716572993493,0.7212454212454212,0.2328937728937729,2.7906959706959706
5.91189280499384,0.7212454212454212,0.2328937728937729,2.7906959706959706
5.917708532993856,0.7212454212454212,0.2328937728937729,2.7906959706959706
5.922103484997933,0.7212454212454212,0.2328937728937729,2.7906959706959706
5.922962063996238,0.7212454212454212,0.2328937728937729,2.7906959706959706
5.924576771998545,0.7212454212454212,0.2328937728937729,2.7906959706959706
5.929028692000429,0.7212454212454212,0.2328937728937729,2.7906959706959706
5.930982470999879,0.7212454212454212,0.2328937728937729,2.7906959706959706
5.93224232999637,0.7212454212454212,0.2328937728937729,2.7906959706959706
5.932466026999464,0.7212454212454212,0.2328937728937729,2.7906959706959706
5.940540179995878,0.7212454212454212,0.2328937728937729,2.7906959706959706
5.945246696996037,0.7212454212454212,0.2328937728937729,2.7906959706959706
5.945598632999463,0.7212454212454212,0.2328937728937729,2.7906959706959706
5.952897461997054,0.7212454212454212,0.2328937728937729,2.7906959706959706
5.956654889996571,0.2715750915750916,0.1402197802197802,1.9324542124542123
5.961045219999505,0.2715750915750916,0.1402197802197802,1.9324542124542123
5.961924324998108,0.2715750915750916,0.1402197802197802,1.9324542124542123
5.965410382996197,0.2715750915750916,0.1402197802197802,1.9324542124542123
5.9727124469936825,0.2715750915750916,0.1402197802197802,1.9324542124542123
5.977344607999839,0.2715750915750916,0.1402197802197802,1.9324542124542123
5.977610736998031,0.2715750915750916,0.1402197802197802,1.9324542124542123
5.984773027994379,0.2715750915750916,0.1402197802197802,1.9324542124542123
5.988539451995166,0.2715750915750916,0.1402197802197802,1.9324542124542123
5.992870312999003,0.2715750915750916,0.1402197802197802,1.9324542124542123
5.9944331089936895,0.2715750915750916,0.1402197802197802,1.9324542124542123
5.9998498749991995,0.2715750915750916,0.1402197802197802,1.9324542124542123
6.0014274479981395,0.0,0.15633699633699633,1.2313553113553113
6.005924623997998,0.0,0.15633699633699633,1.2313553113553113
6.006779188996006,0.0,0.15633699633699633,1.2313553113553113
6.007755340993754,0.0,0.15633699633699633,1.2313553113553113
6.0092948870005785,0.0,0.15633699633699633,1.2313553113553113
6.0131357699938235,0.28608058608058606,0.1772893772893773,1.8824908424908422
6.018830196000636,0.1241025641025641,0.1539194139194139,1.6125274725274723
6.018969063996337,0.0,0.17406593406593407,1.22007326007326
6.024257803997898,0.0,0.17406593406593407,1.22007326007326
6.0266771289971075,0.0,0.17406593406593407,1.22007326007326
6.026871390000451,0.0,0.17406593406593407,1.22007326007326
6.033690480995574,0.0,0.17406593406593407,1.22007326007326
6.038453387998743,0.4182417582417582,0.13216117216117215,2.457069597069597
6.043913919995248,0.4182417582417582,0.13216117216117215,2.457069597069597
6.045608627995534,0.4182417582417582,0.13216117216117215,2.457069597069597
6.052405830996577,1.3248351648351648,1.1983150183150182,1.1652747252747253
6.056603519995406,1.3248351648351648,1.1983150183150182,1.1652747252747253
6.059752583998488,1.3248351648351648,1.1983150183150182,1.1652747252747253
6.061336291997577,1.3248351648351648,1.1983150183150182,1.1652747252747253
6.068757078995986,1.3248351648351648,1.1983150183150182,1.1652747252747253
6.071934362997126,1.3248351648351648,1.1983150183150182,1.1652747252747253
6.073605304998637,1.3248351648351648,1.1983150183150182,1.1652747252747253
6.07729357000062,1.3248351648351648,1.1983150183150182,1.1652747252747253
6.084229710999352,0.0,0.29978021978021974,1.5682051282051281
6.088784936997399,0.0,0.29978021978021974,1.5682051282051281
6.089149076993635,0.0,0.29978021978021974,1.5682051282051281
6.093709957996907,0.0,0.29978021978021974,1.5682051282051281
6.09392823199596,0.0,0.29978021978021974,1.5682051282051281
6.1014938929947675,0.0,0.29978021978021974,1.5682051282051281
6.105300830000488,0.0,0.15794871794871795,0.9815384615384615
6.109746435999114,0.0,0.15794871794871795,0.9815384615384615
6.110532921993581,0.0,0.15794871794871795,0.9815384615384615
6.112903451998136,0.0,0.15794871794871795,0.9815384615384615
6.113065334997373,0.0,0.15794871794871795,0.9815384615384615
6.120140499995614,0.0,0.15794871794871795,0.9815384615384615
6.124363628994615,0.0,0.15794871794871795,0.9815384615384615
6.127346668996324,0.0,0.15794871794871795,0.9815384615384615
6.129865115995926,0.0,0.15794871794871795,0.9815384615384615
6.136799524996604,0.0,0.15794871794871795,0.9815384615384615
6.141174699994735,0.3602197802197802,0.15633699633699633,2.141978021978022
6.142640185993514,0.3602197802197802,0.15633699633699633,2.141978021978022
6.147045808000257,0.3602197802197802,0.15633699633699633,2.141978021978022
6.148782457996276,0.3602197802197802,0.15633699633699633,2.141978021978022
6.152171093999641,0.15794871794871795,0.2095238095238095,1.4698901098901098
6.15244450699538,0.15794871794871795,0.2095238095238095,1.4698901098901098
6.15734883499681,0.15794871794871795,0.2095238095238095,1.4698901098901098
6.162094273997354,0.15794871794871795,0.2095238095238095,1.4698901098901098
6.162310913998226,1.2104029304029302,0.6793406593406592,3.3
6.166559965997294,1.2104029304029302,0.6793406593406592,3.3
6.169300835994363,1.2104029304029302,0.6793406593406592,3.3
6.173402524997073,1.2104029304029302,0.6793406593406592,3.3
6.176237842999399,1.2104029304029302,0.6793406593406592,3.3
6.179698489999282,0.0,0.3432967032967033,1.3643223443223442
6.180466753998189,0.0,0.3432967032967033,1.3643223443223442
6.182592505996581,0.0,0.3432967032967033,1.3643223443223442
6.183981693000533,0.0,0.3432967032967033,1.3643223443223442
6.188665498993942,0.0,0.3432967032967033,1.3643223443223442
6.18940529399697,0.0,0.3432967032967033,1.3643223443223442
6.190896651998628,0.0,0.3432967032967033,1.3643223443223442
6.195709701998567,0.0,0.3432967032967033,1.3643223443223442
6.195890111994231,0.0,0.3432967032967033,1.3643223443223442
6.203336569000385,0.0,0.3432967032967033,1.3643223443223442
6.208280063998245,0.0,0.2248351648351648,0.6720879120879121
6.2120326069998555,0.0,0.2248351648351648,0.6720879120879121
6.219067054000334,0.0,0.2248351648351648,0.6720879120879121
6.2229355279996525,0.0,0.2248351648351648,0.6720879120879121
6.227495388993702,0.0,0.2248351648351648,0.6720879120879121
6.228302510993672,0.0,0.2248351648351648,0.6720879120879121
6.229947492996871,0.0,0.2248351648351648,0.6720879120879121
6.235146705999796,0.0,0.2248351648351648,0.6720879120879121
6.236799312995572,0.0,0.2248351648351648,0.6720879120879121
6.239717054995708,0.0,0.2248351648351648,0.6720879120879121
6.24270753699966,0.0,0.2248351648351648,0.6720879120879121
6.245649967000645,0.0,0.3747252747252747,1.6786080586080585
6.248824477996095,0.0,0.3747252747252747,1.6786080586080585
6.249861050993786,0.0,0.3747252747252747,1.6786080586080585
6.250741485993785,0.0,0.3747252747252747,1.6786080586080585
