time,emg1,emg2,emg3
0.04243819499970414,0.0,0.004835164835164835,0.9428571428571427
0.042816892000701046,0.0,0.004835164835164835,0.9428571428571427
0.05011691899926518,0.0,0.004835164835164835,0.9428571428571427
0.054477994999615476,0.0,0.004029304029304029,2.822124542124542
0.05554872799984878,0.0,0.004029304029304029,2.822124542124542
0.055746781999914674,0.0,0.004029304029304029,2.822124542124542
0.06238318400210119,0.0,0.004029304029304029,2.822124542124542
0.06696310000188532,0.0,0.0,0.04351648351648352
0.07323529700079234,0.0,0.012893772893772894,0.008058608058608058
0.07685466000111774,0.0,0.012893772893772894,0.008058608058608058
0.08302156400168315,0.0,0.012893772893772894,0.008058608058608058
0.08650459500131547,0.0,0.012893772893772894,0.008058608058608058
0.08746194000195828,0.0,0.012893772893772894,0.008058608058608058
0.0884339030017145,0.0,0.012893772893772894,0.008058608058608058
0.08944903700103168,0.0,0.012893772893772894,0.008058608058608058
0.09039961099915672,0.0,0.012893772893772894,0.008058608058608058
0.09135944900117465,0.0,0.012893772893772894,0.008058608058608058
0.0931810959991708,0.0,0.012893772893772894,0.008058608058608058
0.09580002599977888,0.0,0.012893772893772894,0.008058608058608058
0.10128376899956493,0.0,0.0,2.063003663003663
0.10215793400129769,0.0,0.0,0.3183150183150183
0.10319528900072328,0.0,0.0,0.3183150183150183
0.10411195699998643,0.0,0.0,0.3183150183150183
0.10579121699993266,0.0,0.0,0.3183150183150183
0.1100520959989808,0.0,0.0,0.3183150183150183
0.11170962599862833,0.0,0.0,0.3183150183150183
0.11571435299993027,0.0,0.008058608058608058,2.552967032967033
0.11889909399906173,0.0,0.008058608058608058,2.552967032967033
0.12057412200010731,0.0,0.008058608058608058,2.552967032967033
0.12430148800194729,0.0,0.00967032967032967,0.20065934065934066
0.12887150399910752,0.0,0.00967032967032967,0.20065934065934066
0.1297551530005876,0.0,0.00967032967032967,0.20065934065934066
0.13200940699971397,0.0,0.00967032967032967,0.20065934065934066
0.13225155899999663,0.0,0.00967032967032967,0.20065934065934066
0.13759189100164804,0.0,0.00967032967032967,0.20065934065934066
0.13983313599965186,0.0,0.005641025641025641,2.5666666666666664
0.13998260900189052,0.0,0.005641025641025641,2.5666666666666664
0.14549681300195516,0.0,0.005641025641025641,2.5666666666666664
0.14847651300078724,0.0,0.005641025641025641,2.5666666666666664
0.15007189300013124,0.0,0.005641025641025641,2.5666666666666664
0.15752519099987694,0.0,0.006446886446886447,0.01531135531135531
0.1649101110015181,0.0,0.010476190476190476,2.5747252747252745
0.1702817440018407,0.0,0.010476190476190476,2.5747252747252745
0.171438212000794,0.0,0.010476190476190476,2.5747252747252745
0.1716631019990018,0.0,0.010476190476190476,2.5747252747252745
0.181203052001365,0.0,0.010476190476190476,2.5747252747252745
0.19074982299935073,0.0,0.0016117216117216117,0.9138461538461539
0.1993123390020628,0.0,0.0016117216117216117,0.9138461538461539
0.20686239199858392,0.0,0.0016117216117216117,0.9138461538461539
0.21303803200135008,0.0,0.0016117216117216117,0.9138461538461539
0.22098086899859481,0.0,0.007252747252747252,2.5763369963369964
0.22749385999850347,0.0,0.007252747252747252,2.5763369963369964
0.23552481400110992,0.0,0.007252747252747252,2.5763369963369964
0.23899095199885778,0.0,0.007252747252747252,2.5763369963369964
0.2391332209990651,0.0,0.0,1.153186813186813
0.24474036399988108,0.0,0.0,1.153186813186813
0.24484625500190305,0.0,0.0032234432234432234,0.01934065934065934
0.2504147319996264,0.0,0.0032234432234432234,0.01934065934065934
0.2512220890021126,0.0,0.007252747252747252,0.01934065934065934
0.2528469099997892,0.0,0.007252747252747252,0.01934065934065934
0.2567130419993191,0.0,0.007252747252747252,0.01934065934065934
0.26124246600011247,0.0,0.012893772893772894,1.8986080586080583
0.26210526100112475,0.0,0.0,0.5181684981684981
0.26376824700128054,0.0,0.0,0.5181684981684981
0.26947352400020463,0.0,0.0,0.5181684981684981
0.2748526050017972,0.0,0.0,0.012087912087912087
0.27649500999905285,0.0,0.0,0.012087912087912087
0.2817554659995949,0.0,0.0,0.012087912087912087
0.28278903599857586,0.0,0.004029304029304029,0.10073260073260072
0.283029237001756,0.0,0.004029304029304029,0.10073260073260072
0.28832564700132934,0.0,0.004029304029304029,0.10073260073260072
0.2907565759996942,0.0,0.004029304029304029,0.10073260073260072
0.29086860900133615,0.0,0.004029304029304029,0.10073260073260072
0.296173523998732,0.0,0.004029304029304029,0.10073260073260072
0.3013427869991574,0.0,0.004029304029304029,0.10073260073260072
0.30375101000026916,0.0,0.004029304029304029,0.10073260073260072
0.312661289000971,0.0,0.004029304029304029,0.10073260073260072
0.31905523499881383,0.0,0.004029304029304029,0.10073260073260072
0.32413129300039145,0.0,0.0,0.4214652014652014
0.3279274060005264,0.0,0.0,0.4214652014652014
0.33410314499997185,0.0,0.0,0.4214652014652014
0.33737771099913516,0.0,0.0,0.4214652014652014
0.3389610910016927,0.0,0.0,0.4214652014652014
0.34221301000070525,0.0,0.0,0.4214652014652014
0.34317704000204685,0.0,0.0,0.03868131868131868
0.3448061779999989,0.0,0.0,0.03868131868131868
0.34859052799947676,0.0,0.0,0.03868131868131868
0.3536943130020518,0.0,0.0,0.03868131868131868
0.356187396999303,0.0,0.0,0.03868131868131868
0.36173705400142353,0.0,0.0,0.03868131868131868
0.36251790200185496,0.0,0.0,0.03868131868131868
0.36701667300076224,0.0,0.0,0.03868131868131868
0.3730498590011848,0.0,0.0,0.03868131868131868
0.37707249600134674,0.0,0.0,0.03868131868131868
0.3819341250018624,0.0,0.0,0.03868131868131868
0.3874541320001299,0.0,0.022564102564102562,0.051575091575091575
0.3876164149987744,0.0,0.022564102564102562,0.051575091575091575
0.39452768100090907,0.0,0.022564102564102562,0.051575091575091575
0.399974881001981,0.0,0.022564102564102562,0.051575091575091575
0.4060517260004417,0.0,0.022564102564102562,0.051575091575091575
0.4099896020015876,0.0,0.022564102564102562,0.051575091575091575
0.4135827550016984,0.0,0.006446886446886447,2.5755311355311354
0.42058899800031213,0.0,0.008058608058608058,2.565860805860806
0.42490214300050866,0.0,0.0032234432234432234,0.8711355311355311
0.42662862300130655,0.0,0.0032234432234432234,0.8711355311355311
0.43017139799849247,0.0,0.0024175824175824176,0.03465201465201465
0.43046951799988165,0.0,0.0024175824175824176,0.03465201465201465
0.4359313380009553,0.0,0.0024175824175824176,0.03465201465201465
0.43626828099877457,0.0,0.004029304029304029,2.8076190476190472
0.44224418900193996,0.0,0.004029304029304029,2.8076190476190472
0.446582237000257,0.0,0.004029304029304029,2.8076190476190472
0.4501126850009314,0.0,0.004029304029304029,2.8076190476190472
0.45445707099861465,0.0,0.004029304029304029,2.8076190476190472
0.4562059460004093,0.0,0.004029304029304029,2.8076190476190472
0.46046983300038846,0.0,0.004029304029304029,2.8076190476190472
0.4613077540016093,0.0,0.014505494505494505,0.26915750915750913
0.46314752900070744,0.0,0.014505494505494505,0.26915750915750913
0.4673930429999018,0.0,0.014505494505494505,0.26915750915750913
0.4683553739996569,0.0,0.014505494505494505,0.26915750915750913
0.46927887100173393,0.0,0.0,0.008058608058608058
0.47029687800022657,0.0,0.0,0.008058608058608058
0.47122729500188143,0.0,0.0,0.008058608058608058
0.47220684900094057,0.0,0.0,0.008058608058608058
0.47323882799901185,0.0,0.0,0.008058608058608058
0.47416821799924946,0.0,0.0,0.008058608058608058
0.47516324800017173,0.0,0.0,0.008058608058608058
0.4760871690014028,0.0,0.0,0.008058608058608058
0.4771029110015661,0.0,0.0,0.855018315018315
0.478013572999771,0.0,0.0,0.855018315018315
0.4797516229991743,0.0,0.0,0.855018315018315
0.4865558380006405,0.0,0.0,0.855018315018315
0.4907607730019663,0.0,0.0,0.855018315018315
0.49378669100042316,0.0,0.0,0.855018315018315
0.4964927040018665,0.0,0.0,0.855018315018315
0.5034937849995913,0.0,0.0,0.855018315018315
0.5095431560002908,0.0,0.0,0.855018315018315
0.5152408030007791,0.0,0.004029304029304029,0.0
0.5224957040009031,0.0,0.004029304029304029,0.0
0.5274525989989343,0.0,0.0,0.4698168498168498
0.5344618290000653,0.0,0.0,0.024175824175824173
0.5385931929995422,0.0,0.0,0.010476190476190476
0.5418233460004558,0.0,0.0,0.010476190476190476
0.5420706549994065,0.0,0.0,0.010476190476190476
0.5487559329994838,0.0,0.0,0.010476190476190476
0.5523802460011211,0.0,0.0,0.010476190476190476
0.5580500500000198,0.0,0.0,0.010476190476190476
0.5581394569999247,0.0,0.0,0.010476190476190476
0.5644710790002136,0.0,0.0,0.010476190476190476
0.570558808001806,0.0,0.004029304029304029,0.22644688644688646
0.575473045999388,0.0,0.005641025641025641,2.5747252747252745
0.5828904689988121,0.0,0.005641025641025641,2.5747252747252745
0.5862910020005074,0.0,0.012893772893772894,0.7534798534798535
0.5865521260020614,0.0,0.012893772893772894,0.7534798534798535
0.5922487739990174,0.0,0.012893772893772894,0.7534798534798535
0.5923899020017416,0.0,0.0024175824175824176,0.0
0.600736312000663,0.0,0.0024175824175824176,0.0
0.6055959520017495,0.0,0.0024175824175824176,0.0
0.6104569829985849,0.0,0.0024175824175824176,0.0
0.6177714110017405,0.0,0.0024175824175824176,0.0
0.6236111360012728,0.0,0.0024175824175824176,0.0
0.6315357050007151,0.0,0.0,0.5971428571428571
0.6370685219990264,0.0,0.0,0.5971428571428571
0.6420335100010561,0.0,0.0016117216117216117,1.515018315018315
0.6480052549995889,0.0,0.0016117216117216117,1.515018315018315
0.6544492159991933,0.0,0.0016117216117216117,1.515018315018315
0.6584236070011684,0.0,0.0016117216117216117,1.515018315018315
0.6616351459997531,0.0,0.0,0.7373626373626374
0.6645302409997385,0.0,0.0,0.7373626373626374
0.6681368019999354,0.0,0.0,0.7373626373626374
0.6731108339990897,0.0,0.0,0.7373626373626374
0.6771347950016207,0.0,0.0,0.7373626373626374
0.6815989019996778,0.0,0.0,0.7373626373626374
0.6817968010000186,0.0,0.0,0.7373626373626374
0.6886543159998837,0.0,0.0,0.7373626373626374
0.6934976459997415,0.0,0.0,0.007252747252747252
0.7001393169994117,0.0,0.0,0.007252747252747252
0.7044641780012171,0.0,0.0,0.007252747252747252
0.7061432150003384,0.0,0.0,0.007252747252747252
0.7101269330014475,0.0,0.0,0.007252747252747252
0.7125336970020726,0.0,0.0,0.007252747252747252
0.7193800770000962,0.0,0.0,0.007252747252747252
0.723556411001482,0.0,0.0,0.007252747252747252
0.7274174340018362,0.0,0.00967032967032967,0.02175824175824176
0.7319210210007441,0.0,0.006446886446886447,0.01934065934065934
0.7321483779996925,0.0,0.006446886446886447,0.01934065934065934
0.7375307959991915,0.0,0.006446886446886447,0.01934065934065934
0.7399943169984908,0.0,0.006446886446886447,0.01934065934065934
0.7455918090017803,0.0,0.006446886446886447,0.01934065934065934
0.7474251890016603,0.0,0.004029304029304029,0.06769230769230769
0.7506925470006536,0.0,0.004029304029304029,0.06769230769230769
0.7565181579993805,0.0,0.004029304029304029,0.06769230769230769
0.7620449569985794,0.0,0.0,1.4569963369963368
0.7622367320000194,0.0,0.0,1.4569963369963368
0.76923766300024,0.0,0.0,1.4569963369963368
0.7733578400002443,0.0,0.0,1.4569963369963368
0.7766004400000384,0.0,0.0,1.4569963369963368
0.7775102480009082,0.0,0.0,2.5747252747252745
0.7784114230016712,0.0,0.0,2.5747252747252745
0.7816435439999623,0.0,0.0,2.5747252747252745
0.7820421130018076,0.0,0.008864468864468863,0.3046153846153846
0.7877405700019153,0.0,0.008864468864468863,0.3046153846153846
0.7879184640005406,0.0,0.008864468864468863,0.3046153846153846
0.7934494510009245,0.0,0.008864468864468863,0.3046153846153846
0.7942776279996906,0.0,0.0,0.029816849816849816
0.7959656029997859,0.0,0.0,0.029816849816849816
0.8015893369993137,0.0,0.0,0.029816849816849816
0.8056119749999198,0.0,0.0,0.029816849816849816
0.8088287720020162,0.0,0.0,0.029816849816849816
0.8096592639994924,0.0,0.0,0.029816849816849816
0.8111975950014312,0.0,0.0,0.029816849816849816
0.8172615399998904,0.0,0.0,0.029816849816849816
0.820481701000972,0.0,0.0,0.029816849816849816
0.8223019750003004,0.0,0.0,0.029816849816849816
0.8248384069993335,0.0,0.0,0.029816849816849816
0.8299552489988855,0.0,0.0,0.029816849816849816
0.8350572009985626,0.0,0.0,0.029816849816849816
0.8365728880016832,0.0,0.0,0.029816849816849816
0.8442818020012055,0.0,0.0,0.029816849816849816
0.8511525440007972,0.0,0.0,0.029816849816849816
0.8553389260014228,0.0,0.004835164835164835,0.008058608058608058
0.8576860690009198,0.0,0.004835164835164835,0.008058608058608058
0.8646005779992265,0.0,0.004835164835164835,0.008058608058608058
0.8697988050007552,0.0,0.004835164835164835,0.008058608058608058
0.8734214639989659,0.0,0.004835164835164835,0.008058608058608058
0.8820147350015759,0.0,0.004835164835164835,0.008058608058608058
0.8874270140004228,0.0,0.004835164835164835,0.008058608058608058
0.889917364998837,0.0,0.004029304029304029,0.0
0.8946453499993368,0.0,0.004029304029304029,0.0
0.8947801690010238,0.0,0.004029304029304029,0.0
0.902994995998597,0.0,0.004029304029304029,0.0
0.9085095760019612,0.0,0.0,0.9073992673992675
0.9093925050001417,0.0,0.0,0.9073992673992675
0.9110073369993188,0.0,0.0,0.9073992673992675
0.918698935998691,0.0,0.0,0.9073992673992675
0.924175053001818,0.0,0.0,0.9073992673992675
0.9354272109994781,0.0,0.0,0.9073992673992675
0.9412278390009305,0.0,0.0,0.9073992673992675
0.9484601240001211,0.0,0.0,0.8848351648351648
0.9537979769993399,0.0,0.0,0.8848351648351648
0.9539101840018702,0.0,0.0,0.8848351648351648
0.9594430370016198,0.0,0.0,0.8848351648351648
0.9611069040001894,0.0,0.0,0.8848351648351648
0.966423436999321,0.0,0.012087912087912087,0.14505494505494507
0.9676542640008847,0.0,0.012087912087912087,0.14505494505494507
0.9772243699990213,0.0,0.005641025641025641,0.025787545787545788
0.986933907999628,0.0,0.005641025641025641,0.025787545787545788
0.9948560599987104,0.0,0.005641025641025641,0.025787545787545788
1.0013457349996315,0.0,0.005641025641025641,0.025787545787545788
1.0067866610006604,0.0,0.005641025641025641,0.025787545787545788
1.0068984899990028,0.0,0.005641025641025641,0.025787545787545788
1.012508693998825,0.0,0.005641025641025641,0.025787545787545788
1.0129673470000853,0.0,0.005641025641025641,0.025787545787545788
1.0186403270017763,0.0,0.005641025641025641,0.025787545787545788
1.0243730900001538,0.0,0.0,3.223443223443223
1.0244713659994886,0.0,0.0,3.223443223443223
1.0310086870013038,0.0,0.0,3.223443223443223
1.035419758001808,0.0,0.0,3.223443223443223
1.0356303500011563,0.0,0.0,3.223443223443223
1.0418677519992343,0.0,0.0,3.223443223443223
1.0473663480006508,0.0,0.004029304029304029,0.14505494505494507
1.058695567000541,0.0,0.004029304029304029,0.14505494505494507
1.0707244610021007,0.0,0.004029304029304029,0.14505494505494507
1.0801504379996913,0.0,0.03868131868131868,0.04029304029304029
1.0883250459992269,0.0,0.03868131868131868,0.04029304029304029
1.0939974790017004,0.0,0.004835164835164835,0.006446886446886447
1.1020235840005626,0.0,0.004835164835164835,0.006446886446886447
1.108541305999097,0.0,0.004835164835164835,0.006446886446886447
1.1140494540013606,0.0,0.006446886446886447,0.0
1.1142372850008542,0.0,0.0032234432234432234,2.573113553113553
1.1235431189998053,0.0,0.0032234432234432234,2.573113553113553
1.1280440590016951,0.0,0.0032234432234432234,2.573113553113553
1.1289365970005747,0.0,0.0032234432234432234,2.573113553113553
1.1312617420007882,0.0,0.0032234432234432234,2.573113553113553
1.1313998459991126,0.0,0.0032234432234432234,2.573113553113553
1.1370512489993416,0.0,0.0032234432234432234,2.573113553113553
1.1372333930012246,0.0,0.00967032967032967,2.215311355311355
1.1453116459997545,0.0,0.00967032967032967,2.215311355311355
1.152101062998554,0.0,0.00967032967032967,2.215311355311355
1.1579911119988537,0.0,0.00967032967032967,2.215311355311355
1.1627134939990356,0.0,0.00967032967032967,2.215311355311355
1.1713676809995377,0.0,0.00967032967032967,2.215311355311355
1.1764198189994204,0.0,0.00967032967032967,2.215311355311355
1.1822643480008992,0.0,0.004029304029304029,3.3
1.1867535060009686,0.0,0.004029304029304029,3.3
1.1868537420014036,0.0,0.004029304029304029,3.3
1.1922797270017327,0.0,0.004029304029304029,3.3
1.1940559050017328,0.0,0.0,0.025787545787545788
1.1964114610018441,0.0,0.0,0.025787545787545788
1.1966264479997335,0.0,0.0,0.025787545787545788
1.201987928001472,0.0,0.0,0.025787545787545788
1.203831684000761,0.0,0.0,0.025787545787545788
1.2062264090018289,0.0,0.0,0.025787545787545788
1.2063478950003628,0.0,0.0,0.025787545787545788
1.2120652580015303,0.0,0.0,0.025787545787545788
1.216547226998955,0.0,0.0,0.025787545787545788
1.2167948370006343,0.0,0.0,0.025787545787545788
1.222006053001678,0.0,0.0,0.025787545787545788
1.2247883550007828,0.0,0.0,0.025787545787545788
1.2286974720009312,0.0,0.0,0.025787545787545788
1.2325558490010735,0.0,0.004029304029304029,0.008864468864468863
1.2366678229991521,0.0,0.004029304029304029,0.008864468864468863
1.239310585999192,0.0,0.004029304029304029,0.008864468864468863
1.2437087250000332,0.0,0.004029304029304029,0.008864468864468863
1.2445820040011313,0.0,0.0,0.045128205128205125
1.2464007599992328,0.0,0.0,0.045128205128205125
1.2490037429997756,0.0,0.0,0.03304029304029304
1.253147983999952,0.0,0.0,0.02095238095238095
1.255756336999184,0.0,0.0,0.02095238095238095
1.2608326910012693,0.0,0.0,2.3087912087912086
1.2650471679990005,0.0,0.0,2.3087912087912086
1.2666409100020246,0.0,0.0,2.3087912087912086
1.2705184799997369,0.0,0.0,2.3087912087912086
1.2745428950001951,0.0,0.0,2.3087912087912086
1.277570158999879,0.0,0.0,2.3087912087912086
1.2806725449991063,0.0,0.0,2.3087912087912086
1.2822770490020048,0.0,0.0,2.3087912087912086
1.2864924499990593,0.0,0.0,2.3087912087912086
1.2879820679991099,0.0,0.0,0.0
1.292220842999086,0.0,0.0,0.0
1.2939976919988112,0.0,0.0,0.02095238095238095
1.2963930400001118,0.0,0.0,0.02095238095238095
1.2966462549993594,0.0,0.0008058608058608059,2.273333333333333
1.3019010470015928,0.0,0.0008058608058608059,2.273333333333333
1.304333411000698,0.0,0.0008058608058608059,2.273333333333333
1.3097742300014943,0.0,0.0008058608058608059,2.273333333333333
1.3120824260004156,0.0,0.0008058608058608059,2.273333333333333
1.3122590169987234,0.0,0.0008058608058608059,2.273333333333333
1.3172602880003978,0.0,0.0008058608058608059,2.273333333333333
1.3214393470007053,0.0,0.0008058608058608059,2.273333333333333
1.3230300569994142,0.0,0.0008058608058608059,2.273333333333333
1.3278274570002395,0.0,0.0008058608058608059,2.273333333333333
1.3333962579999934,0.0,0.0,0.010476190476190476
1.333561038998596,0.0,0.0,0.010476190476190476
1.3392625490014325,0.0,0.0,0.010476190476190476
1.3393871449989092,0.0,0.0,0.010476190476190476
1.344313528999919,0.0,0.0,0.010476190476190476
1.3497545460013498,0.0,0.0032234432234432234,0.018534798534798533
1.3513209109987656,0.0,0.0032234432234432234,0.018534798534798533
1.3550728209993395,0.0,0.0032234432234432234,0.018534798534798533
1.3586108310009877,0.0,0.0024175824175824176,2.573919413919414
1.3593772579988581,0.0,0.0024175824175824176,2.573919413919414
1.361493000000337,0.0,0.0024175824175824176,2.573919413919414
1.3622690490010427,0.0,0.0024175824175824176,2.573919413919414
1.3643905839999206,0.0,0.0024175824175824176,2.573919413919414
1.3652193080015422,0.0,0.0024175824175824176,2.573919413919414
1.3668086469988339,0.0,0.0024175824175824176,2.573919413919414
1.370328466000501,0.0,0.0,0.03223443223443223
1.3704414490021009,0.0,0.0,0.03223443223443223
1.3752470250001352,0.0,0.0,0.03223443223443223
1.3753314540008432,0.0,0.0,0.03223443223443223
1.3805607930007682,0.0,0.0,0.03223443223443223
1.3836858630020288,0.0,0.0,0.1555311355311355
1.385263322001265,0.0,0.0,0.1555311355311355
1.3901190930009761,0.0,0.005641025641025641,0.006446886446886447
1.3958994570020877,0.0,0.0,0.0
1.3960990000014135,0.0,0.0,0.0
1.4011676330010232,0.0,0.0,0.0
1.406024828000227,0.0,0.0,0.18776556776556774
1.4105849170009606,0.0,0.0032234432234432234,0.008058608058608058
1.4108821800000442,0.0,0.0,0.0
1.4158222660007596,0.0,0.0,0.0
1.4198638380003104,0.0,0.0,0.0
1.4222066610018373,0.0,0.0,0.0
1.4223938649993215,0.0,0.0,0.0
1.4279797990020597,0.0,0.0,0.0
1.428828757001611,0.0,0.0,0.0
1.4304098569991766,0.0,0.0,0.0
1.4341520769994531,0.0,0.0,0.0
1.4386795760001405,0.0,0.0,0.0
1.4388815599995723,0.0,0.0,0.0
1.4445272119992296,0.0,0.0,0.0
1.4446005350000632,0.0,0.0,0.0
1.4494782399997348,0.0,0.0,0.0
1.4543738169995777,0.0,0.0,0.0
1.4593052390009689,0.0,0.0,0.0
1.4642483669995272,0.0,0.02095238095238095,3.3
1.4683356759996968,0.0,0.0032234432234432234,0.09912087912087912
1.4713755029988533,0.0,0.008864468864468863,0.02336996336996337
1.4738135510015127,0.0,0.008864468864468863,0.02336996336996337
1.479168657999253,0.0,0.008864468864468863,0.02336996336996337
1.482185032000416,0.0,0.008864468864468863,0.02336996336996337
1.4837690310014295,0.0,0.0,0.1095970695970696
1.4879669410001952,0.0,0.0,0.1095970695970696
1.4894803649985988,0.0,0.0,0.1095970695970696
1.4943926060004742,0.0,0.0,0.1095970695970696
1.498537032999593,0.0,0.0,0.1095970695970696
1.5013712729996769,0.0,0.0,0.1095970695970696
1.5048827700011316,0.0,0.0,0.1095970695970696
1.5050099149993912,0.0,0.0,0.1095970695970696
1.5099530640000012,0.0,0.0,0.1095970695970696
1.5141361850000976,0.0,0.0,0.1095970695970696
1.5169822339994425,0.0,0.0,0.1095970695970696
1.5205957789985405,0.0,0.0024175824175824176,2.8366300366300368
1.52075064300152,0.0,0.0024175824175824176,2.8366300366300368
1.5262995080011024,0.0,0.0024175824175824176,2.8366300366300368
1.527150319001521,0.0,0.0024175824175824176,2.8366300366300368
1.5287774540011014,0.0,0.0024175824175824176,2.8366300366300368
1.5327771990014298,0.0,0.0024175824175824176,2.8366300366300368
1.535988596999232,0.0,0.008864468864468863,1.3345054945054944
1.5369788809985039,0.0,0.008864468864468863,1.3345054945054944
1.537817233001988,0.0,0.008864468864468863,1.3345054945054944
1.5394330230010382,0.0,0.008864468864468863,1.3345054945054944
1.543459193999297,0.0,0.008864468864468863,1.3345054945054944
1.5466252270016412,0.0,0.008864468864468863,1.3345054945054944
1.5482972569989215,0.0,0.0,0.0136996336996337
1.5520630110004277,0.0,0.0,0.0136996336996337
1.555706094000925,0.0,0.0,0.0136996336996337
1.5610530039994046,0.0,0.0,0.0136996336996337
1.5626389749995724,0.0,0.0,0.0136996336996337
1.567138108999643,0.0,0.0,0.0136996336996337
1.5673862129988265,0.0,0.0,0.0136996336996337
1.5728195500014408,0.0,0.0,0.0136996336996337
1.5736667189994478,0.0,0.0,0.0136996336996337
1.575896342001215,0.0,0.0,0.0136996336996337
1.5760945459987852,0.0,0.0,0.0136996336996337
1.5814507409995713,0.0,0.0,0.0136996336996337
1.5829132549988572,0.0,0.0,0.0136996336996337
1.586978007999278,0.0,0.0,0.0136996336996337
1.5903960169998754,0.0,0.008864468864468863,0.0
1.590605952002079,0.0,0.008864468864468863,0.0
1.5953665880006156,0.0,0.008864468864468863,0.0
1.5954909520005458,0.0,0.008864468864468863,0.0
1.600283670999488,0.0,0.008864468864468863,0.0
1.600342672001716,0.0,0.008864468864468863,0.0
1.605898073001299,0.0,0.008864468864468863,0.0
1.6067229840009531,0.0,0.0032234432234432234,0.0
1.608273525002005,0.0,0.0032234432234432234,0.0
1.6128178069993737,0.0,0.0032234432234432234,0.0
1.6128930140002922,0.0,0.0,0.01531135531135531
1.618445698000869,0.0,0.0,0.01531135531135531
1.6186603930000274,0.0,0.0,0.01531135531135531
1.623961394001526,0.0,0.0,0.42630036630036633
1.6270400089997565,0.0,0.004029304029304029,0.15875457875457877
1.6286301940017438,0.0,0.004029304029304029,0.15875457875457877
1.6331285150008625,0.0,0.004029304029304029,0.15875457875457877
1.6340239429991925,0.0,0.004029304029304029,0.15875457875457877
1.634903177000524,0.0,0.0,2.5787545787545785
1.6364454870017653,0.0,0.0,2.5787545787545785
1.6410283559998788,0.0,0.0,2.5787545787545785
1.641251696000836,0.0,0.006446886446886447,0.1249084249084249
1.6467440310007078,0.0,0.006446886446886447,0.1249084249084249
1.648375873999612,0.0,0.006446886446886447,0.1249084249084249
1.6529472219990566,0.0,0.006446886446886447,0.1249084249084249
1.6531329019999248,0.0,0.006446886446886447,0.1249084249084249
1.6579256299992267,0.0,0.006446886446886447,0.1249084249084249
1.657994729001075,0.0,0.006446886446886447,0.1249084249084249
1.663536979998753,0.0,0.006446886446886447,0.1249084249084249
1.6643237130010675,0.0,0.0,0.02095238095238095
1.666432767000515,0.0,0.0,0.02095238095238095
1.6666823910018138,0.0,0.0,0.02095238095238095
1.6715065460011829,0.0,0.0,0.02095238095238095
1.6715745799992874,0.0,0.0,0.02095238095238095
1.6764689000010549,0.0,0.0,0.02095238095238095
1.6806087209988618,0.0,0.0,0.02095238095238095
1.6834493560018018,0.0,0.0,0.02095238095238095
1.6869703769989428,0.0,0.0,0.02095238095238095
1.6870854580010928,0.0,0.0,0.02095238095238095
1.6919105269989814,0.0,0.0,0.02095238095238095
1.6920344950012804,0.0,0.0,0.02095238095238095
1.6970396130018344,0.0,0.0,0.02095238095238095
1.7011635080016276,0.0,0.0,0.02095238095238095
1.7036373029986862,0.0,0.0,0.02095238095238095
1.708889450001152,0.0,0.0,0.02095238095238095
1.7120361519992002,0.0,0.0,0.02095238095238095
1.7137031530000968,0.0,0.004835164835164835,2.5763369963369964
1.7181353260020842,0.0,0.004835164835164835,2.5763369963369964
1.7185084550001193,0.0,0.0,2.553772893772894
1.7238996990017768,0.0,0.0,2.553772893772894
1.7254099169986148,0.0,0.004835164835164835,0.0419047619047619
1.729152673000499,0.0,0.004835164835164835,0.0419047619047619
1.7335549170020386,0.0,0.004835164835164835,0.0419047619047619
1.734316491001664,0.0,0.010476190476190476,1.7317948717948717
1.7364744689984946,0.0,0.010476190476190476,1.7317948717948717
1.737270523000916,0.0,0.010476190476190476,1.7317948717948717
1.7395015030015202,0.0,0.010476190476190476,1.7317948717948717
1.7396924530003162,0.0,0.005641025641025641,0.6567765567765567
1.7445055070020317,0.0,0.005641025641025641,0.6567765567765567
1.7493740429999889,0.0,0.004835164835164835,0.012893772893772894
1.7543217620004725,0.0,0.014505494505494505,0.025787545787545788
1.7592203540007176,0.0,0.0,3.3
1.7634766869996383,0.0,0.0,3.3
1.7656282390016713,0.0,0.0,3.3
1.7670821419997083,0.0,0.0,3.3
1.77133458499884,0.0,0.0,3.3
1.7728738639998483,0.0,0.0,3.3
1.777011742000468,0.0,0.0,3.3
1.7798518880008487,0.0,0.0,3.3
1.783434198001487,0.0,0.0,3.3
1.783584978998988,0.0,0.0,3.3
1.7885094170014781,0.0,0.0,3.3
1.7934766489997855,0.0,0.0,3.3
1.7969461780012352,0.0,0.0,3.3
1.7971544339998218,0.0,0.0,3.3
1.8022591609988012,0.0,0.0,3.3
1.8062362909986405,0.0,0.0,3.3
1.809426831001474,0.0,0.0,3.3
1.811879904998932,0.0,0.0,3.3
1.8172268929993152,0.0,0.0,3.3
1.8190322199989168,0.0,0.0,3.3
1.8215358500019647,0.0,0.0,3.3
1.8268921730013972,0.0,0.0,3.3
1.8293532919997233,0.0,0.0,3.3
1.8294611540004553,0.0,0.0,3.3
1.8349304820003454,0.0,0.0,3.3
1.8358305059991835,0.0,0.0,3.3
1.8375724120014638,0.0,0.0,3.3
1.8407445910015667,0.0,0.0,3.3
1.8416418910019274,0.0,0.0,3.3
1.8433837049997237,0.0,0.0,3.3
1.8471533020019706,0.0,0.017728937728937726,0.03545787545787545
1.8509400430011738,0.0,0.017728937728937726,0.03545787545787545
1.855409158000839,0.0,0.017728937728937726,0.03545787545787545
1.8570161950010515,0.0,0.017728937728937726,0.03545787545787545
1.8609977939995588,0.0,0.017728937728937726,0.03545787545787545
1.8656125060006161,0.0,0.017728937728937726,0.03545787545787545
1.865801863001252,0.0,0.017728937728937726,0.03545787545787545
1.8713947229989571,0.0,0.017728937728937726,0.03545787545787545
1.8715851420020044,0.0,0.017728937728937726,0.03545787545787545
1.8771633559990732,0.0,0.017728937728937726,0.03545787545787545
1.8773929189992486,0.0,0.017728937728937726,0.03545787545787545
1.8827014800008328,0.0,0.017728937728937726,0.03545787545787545
1.8850679159986612,0.0,0.017728937728937726,0.03545787545787545
1.8852436570014106,0.0,0.017728937728937726,0.03545787545787545
1.8906688919996668,0.0,0.0,0.02095238095238095
1.8930789350015402,0.0,0.0,0.02095238095238095
1.8984587480008486,0.0,0.0,0.02095238095238095
1.899323394998646,0.0,0.0,0.02095238095238095
1.9015712210020865,0.0,0.0,0.02095238095238095
1.9017393569993146,0.0,0.0008058608058608059,0.051575091575091575
1.9070748429985542,0.0,0.0008058608058608059,0.051575091575091575
1.9079479899992293,0.0,0.007252747252747252,0.02901098901098901
1.91031888499856,0.0,0.007252747252747252,0.02901098901098901
1.91038780999952,0.0,0.007252747252747252,0.02901098901098901
1.9158600990012928,0.0,0.007252747252747252,0.02901098901098901
1.9168054180008767,0.0,0.004835164835164835,2.5755311355311354
1.917690833000961,0.0,0.004835164835164835,2.5755311355311354
1.9193148849990394,0.0,0.004835164835164835,2.5755311355311354
1.9231646219996037,0.0,0.004835164835164835,2.5755311355311354
1.9269142500015732,0.0,0.004835164835164835,2.5755311355311354
1.932608885999798,0.0,0.0016117216117216117,0.022564102564102562
1.9335731999999552,0.0,0.0016117216117216117,0.022564102564102562
1.9344275789990206,0.0,0.0016117216117216117,0.022564102564102562
1.9360059760001604,0.0,0.0016117216117216117,0.022564102564102562
1.9408384580019629,0.0,0.008058608058608058,1.9969230769230766
1.9463386489987897,0.0,0.008058608058608058,1.9969230769230766
1.9479939510019904,0.0,0.008058608058608058,1.9969230769230766
1.951003378999303,0.0,0.03142857142857143,0.0
1.9534004500019364,0.0,0.03142857142857143,0.0
1.9535723750013858,0.0,0.03142857142857143,0.0
1.9587703610013705,0.0,0.03142857142857143,0.0
1.961796775001858,0.0,0.025787545787545788,3.3
1.9634596329997294,0.0,0.025787545787545788,3.3
1.9671472359987092,0.0,0.025787545787545788,3.3
1.972689217000152,0.0,0.025787545787545788,3.3
1.9737102370017965,0.0,0.0273992673992674,2.573919413919414
1.9745418970014725,0.0,0.0273992673992674,2.573919413919414
1.9762148510017141,0.0,0.0273992673992674,2.573919413919414
1.9794536990011693,0.0,0.0,2.0057875457875456
1.9810026849991118,0.0,0.0,2.0057875457875456
1.9849251769992406,0.0,0.0,2.0057875457875456
1.9887741470010951,0.0,0.0,2.0057875457875456
1.9925131519994466,0.0,0.00967032967032967,0.008058608058608058
1.9978217870011576,0.0,0.00967032967032967,0.008058608058608058
2.0010213909990853,0.0,0.00967032967032967,0.008058608058608058
2.0018549900014477,0.0,0.00967032967032967,0.008058608058608058
2.0035109450000164,0.0,0.00967032967032967,0.008058608058608058
2.0072897460013337,0.0,0.004029304029304029,0.004835164835164835
2.010998132001987,0.0,0.004029304029304029,0.004835164835164835
2.0155936449991714,0.0,0.004029304029304029,0.004835164835164835
2.0210577760008164,0.0,0.004029304029304029,0.004835164835164835
2.023640603001695,0.0,0.004029304029304029,0.004835164835164835
2.028938481998921,0.0,0.004029304029304029,0.004835164835164835
2.0312893859991163,0.0,0.004029304029304029,0.004835164835164835
2.03138099699936,0.0,0.004029304029304029,0.004835164835164835
2.036864641999273,0.0,0.004029304029304029,0.004835164835164835
2.0378198649996193,0.0,0.008058608058608058,3.3
2.039577505001944,0.0,0.008058608058608058,3.3
2.0427148410017253,0.0,0.008058608058608058,3.3
2.0444646690011723,0.0,0.008058608058608058,3.3
2.0474588350007252,0.0,0.008058608058608058,3.3
2.04992623599901,0.0,0.008058608058608058,3.3
2.05445815100029,0.0,0.008058608058608058,3.3
2.0560275960015133,0.0,0.008058608058608058,3.3
2.0599989440015634,0.0,0.004029304029304029,2.1274725274725275
2.064713189000031,0.0,0.10073260073260072,0.190989010989011
2.0647950759994274,0.0,0.10073260073260072,0.190989010989011
2.070382439000241,0.0,0.10073260073260072,0.190989010989011
2.071189932001289,0.0,0.018534798534798533,0.033846153846153845
2.0728210660017794,0.0,0.018534798534798533,0.033846153846153845
2.0773092310009815,0.0,0.018534798534798533,0.033846153846153845
2.0781378009996843,0.0,0.018534798534798533,0.033846153846153845
2.079715150000993,0.0,0.018534798534798533,0.033846153846153845
2.0840052050007216,0.0,0.018534798534798533,0.033846153846153845
2.086179207999521,0.0,0.018534798534798533,0.033846153846153845
2.0870120719991974,0.0,0.018534798534798533,0.033846153846153845
2.089123269000993,0.0,0.018534798534798533,0.033846153846153845
2.0905719680013135,0.0,0.018534798534798533,0.033846153846153845
2.095459115000267,0.0,0.018534798534798533,0.033846153846153845
2.1004756610018376,0.0,0.018534798534798533,0.033846153846153845
2.1046889040007954,0.0,0.018534798534798533,0.033846153846153845
2.1069143019994954,0.0,0.018534798534798533,0.033846153846153845
2.107727178001369,0.0,0.018534798534798533,0.033846153846153845
2.1098103410004114,0.0,0.018534798534798533,0.033846153846153845
2.1112366990018927,0.0,0.018534798534798533,0.033846153846153845
2.1161764419994142,0.0,0.018534798534798533,0.033846153846153845
2.1210536309990857,0.0,0.018534798534798533,0.033846153846153845
2.1211190879985224,0.0,0.018534798534798533,0.033846153846153845
2.125932640999963,0.0,0.018534798534798533,0.033846153846153845
2.1261467120020825,0.0,0.0,0.02095238095238095
2.13183411999853,0.0,0.0,0.02095238095238095
2.131899058000272,0.0,0.0,0.02095238095238095
2.1374759589998575,0.0,0.0,0.02095238095238095
2.1382740720000584,0.0,0.0,0.02095238095238095
2.139854679000564,0.0,0.0,0.02095238095238095
2.1435847370012198,0.0,0.0,0.02095238095238095
2.1483149560008314,0.0,0.0,0.02095238095238095
2.148387023000396,0.0,0.0,0.02095238095238095
2.1537747379989014,0.0,0.0,0.02095238095238095
2.1545820829996956,0.0,0.0,0.02095238095238095
2.1561564750008984,0.0,0.0,0.02095238095238095
2.1599734769988572,0.0,0.0,0.02095238095238095
2.16397851900183,0.0,0.0,0.02095238095238095
2.1670974580010807,0.0,0.0,0.02095238095238095
2.1694243519996235,0.0,0.0,0.02095238095238095
2.1695801970017783,0.0,0.0,0.02095238095238095
2.174976335998508,0.0,0.0,0.02095238095238095
2.175835949001339,0.0,0.0,0.02095238095238095
2.1780965409998316,0.0,0.0,0.02095238095238095
2.178336354001658,0.0,0.0,0.02095238095238095
2.1838003279990517,0.0,0.0,0.02095238095238095
2.1846355839988973,0.0,0.006446886446886447,0.15794871794871795
2.1863028010011476,0.0,0.006446886446886447,0.15794871794871795
2.190395507001085,0.0,0.006446886446886447,0.15794871794871795
2.192754439001874,0.0,0.006446886446886447,0.15794871794871795
2.1929303430006257,0.0,0.006446886446886447,0.15794871794871795
2.198293317000207,0.0,0.006446886446886447,0.15794871794871795
2.2006419880017347,0.0,0.006446886446886447,0.15794871794871795
2.200842886999453,0.0,0.006446886446886447,0.15794871794871795
2.2061597450010595,0.0,0.006446886446886447,0.15794871794871795
2.2084120260005875,0.0,0.006446886446886447,0.15794871794871795
2.208596618998854,0.0,0.006446886446886447,0.15794871794871795
2.21387040099944,0.0,0.006446886446886447,0.15794871794871795
2.216366349999589,0.0,0.006446886446886447,0.15794871794871795
2.221901748998789,0.0,0.006446886446886447,0.15794871794871795
2.2220927630005463,0.0,0.0,0.06446886446886446
2.227788074000273,0.0,0.0032234432234432234,0.05399267399267399
2.2280160629998136,0.0,0.0032234432234432234,0.05399267399267399
2.2333060980017763,0.0,0.0032234432234432234,0.05399267399267399
2.2363533079987974,0.0,0.028205128205128206,2.5561904761904763
2.2388248999995994,0.0,0.0,3.046153846153846
2.2389295140019385,0.0,0.0,3.046153846153846
2.2444059929985087,0.0,0.0,3.046153846153846
2.2469820639998943,0.0,0.0032234432234432234,0.06688644688644689
2.2507671659986954,0.0,0.004835164835164835,0.008058608058608058
2.2546999500009406,0.0,0.0,0.01531135531135531
2.258517333000782,0.0,0.0,0.01531135531135531
2.2631744840000465,0.0,0.0,0.01531135531135531
2.2688922060006007,0.0,0.005641025641025641,0.011282051282051281
2.2742737219996343,0.0,0.005641025641025641,0.011282051282051281
2.276733314000012,0.0,0.008058608058608058,2.5755311355311354
2.2824016390004545,0.0,0.008058608058608058,2.5755311355311354
2.2827068910009984,0.0,0.008058608058608058,2.5755311355311354
2.2880462399989483,0.0,0.008058608058608058,2.5755311355311354
2.289579498999956,0.0,0.004835164835164835,0.0024175824175824176
2.2934376330013038,0.0,0.0,0.02095238095238095
2.2982757030003995,0.0,0.0,0.02095238095238095
2.30204071299886,0.0,0.0,0.02095238095238095
2.3059481460004463,0.0,0.0,0.02095238095238095
2.3091168610008026,0.0,0.0,0.02095238095238095
2.3099615659994015,0.0,0.0,0.02095238095238095
2.311553826999443,0.0,0.0,0.02095238095238095
2.315561164999963,0.0,0.0,0.02095238095238095
2.318644424001832,0.0,0.0,0.02095238095238095
2.3204548339999747,0.0,0.0,0.02095238095238095
2.3237457600007474,0.0,0.0,0.02095238095238095
2.325310593001632,0.0,0.004835164835164835,0.03868131868131868
2.329916654001863,0.0,0.004835164835164835,0.03868131868131868
2.335486149000644,0.0,0.004835164835164835,0.03868131868131868
2.335588222998922,0.0,0.004835164835164835,0.03868131868131868
2.3408606560005865,0.0,0.004835164835164835,0.03868131868131868
2.3424704870012647,0.0,0.004835164835164835,0.03868131868131868
2.346939721999661,0.0,0.004835164835164835,0.03868131868131868
2.3477313820003474,0.0,0.004835164835164835,0.03868131868131868
2.3499684060006985,0.0,0.004835164835164835,0.03868131868131868
2.350145116000931,0.0,0.004835164835164835,0.03868131868131868
2.3554188279995287,0.0,0.004835164835164835,0.03868131868131868
2.3583853130003263,0.0,0.004835164835164835,0.03868131868131868
2.3614362090011127,0.0,0.004835164835164835,0.03868131868131868
2.363661855000828,0.0,0.004835164835164835,0.03868131868131868
2.363887922001595,0.0,0.004835164835164835,0.03868131868131868
2.3688280819987995,0.0,0.004835164835164835,0.03868131868131868
2.3737672040006146,0.0,0.004835164835164835,0.03868131868131868
2.377338875001442,0.0,0.004835164835164835,2.5763369963369964
2.377580472999398,0.0,0.0,3.3
2.3827899970019644,0.0,0.0,3.3
2.3859711270015396,0.0,0.0,3.3
2.3875976060007815,0.0,0.0,3.3
2.391550205000385,0.0,0.0,3.3
2.3954710370016983,0.0,0.0,3.3
2.399290305998875,0.0,0.0,3.3
2.4043173159989237,0.0,0.0,0.6962637362637363
2.408316494002065,0.0,0.0,0.0
2.4119901660014875,0.0,0.0,0.0
2.4167931100018905,0.0,0.0,0.0
2.41696100199988,0.0,0.0,1.8494505494505493
2.422368595998705,0.0,0.0,1.8494505494505493
2.4238774350014864,0.0,0.0016117216117216117,0.03948717948717949
2.430518665998534,0.0,0.0016117216117216117,0.03948717948717949
2.435673467000015,0.0,0.0016117216117216117,0.03948717948717949
2.4380778209997516,0.0,0.0,3.3
2.447737695998512,0.0,0.0,3.3
2.4569440449995454,0.0,0.0,3.3
2.4660110709992296,0.0,0.0,3.3
2.4739117530007206,0.0,0.008864468864468863,0.10798534798534798
2.4813486480015854,0.0,0.0,2.577948717948718
2.4873618060009903,0.0,0.0,2.577948717948718
2.490504905999842,0.0,0.0,0.05882783882783882
2.493328720000136,0.0,0.005641025641025641,2.5747252747252745
2.497017199999391,0.0,0.005641025641025641,2.5747252747252745
2.50631476000126,0.0,0.0032234432234432234,2.2765567765567765
2.5134001430014905,0.0,0.012893772893772894,0.1378021978021978
2.520036493999214,0.0,0.012893772893772894,0.1378021978021978
2.5246103259996744,0.0,0.012893772893772894,0.1378021978021978
2.524778678001894,0.0,0.012893772893772894,0.1378021978021978
2.53422674399917,0.0,0.012893772893772894,0.1378021978021978
2.5417692369992437,0.0,0.005641025641025641,0.007252747252747252
2.5478493299997353,0.0,0.0,0.5689377289377289
2.552527776999341,0.0,0.0,0.5689377289377289
2.5597936490012216,0.0,0.0,0.5689377289377289
2.563781346001633,0.0,0.0,0.5689377289377289
2.567577675999928,0.0,0.0,0.5689377289377289
2.572207011999126,0.0,0.0,0.5689377289377289
2.5723957379996136,0.0,0.0,0.5689377289377289
2.5795383240001684,0.0,0.0,0.5689377289377289
2.5839907199988374,0.0,0.0,0.5689377289377289
2.58412675100044,0.0,0.0,0.5689377289377289
2.5933866929990472,0.0,0.0,0.5689377289377289
2.599954011999216,0.0,0.0,0.5689377289377289
2.6045311970010516,0.0,0.008058608058608058,0.7808791208791208
2.6046479739998176,0.0,0.008058608058608058,0.7808791208791208
2.6101180170007865,0.0,0.008058608058608058,0.7808791208791208
2.610402312999213,0.0,0.0032234432234432234,1.8792673992673992
2.6156075649996637,0.0,0.0032234432234432234,1.8792673992673992
2.6186125230015023,0.0,0.0032234432234432234,1.8792673992673992
2.62094106099903,0.0,0.0032234432234432234,1.8792673992673992
2.6212099340009445,0.0,0.0032234432234432234,1.8792673992673992
2.62652215900016,0.0,0.0032234432234432234,1.8792673992673992
2.6288359230020433,0.0,0.0032234432234432234,1.8792673992673992
2.629057369998918,0.0,0.0032234432234432234,1.8792673992673992
2.6343398630015145,0.0,0.0032234432234432234,1.8792673992673992
2.636918650001462,0.0,0.0032234432234432234,1.8792673992673992
2.64145235199976,0.0,0.0032234432234432234,1.8792673992673992
2.6417509080019954,0.0,0.0032234432234432234,1.8792673992673992
2.6471851880014583,0.0,0.0032234432234432234,1.8792673992673992
2.6482239340002707,0.0,0.0032234432234432234,1.8792673992673992
2.648513632000686,0.0,0.0032234432234432234,1.8792673992673992
2.6539095160005672,0.0,0.0032234432234432234,1.8792673992673992
2.65550106199953,0.0,0.011282051282051281,2.5787545787545785
2.660069352001301,0.0,0.011282051282051281,2.5787545787545785
2.660355427000468,0.0,0.011282051282051281,2.5787545787545785
2.6657268749986542,0.0,0.011282051282051281,2.5787545787545785
2.667344254001364,0.0,0.0016117216117216117,0.07413919413919413
2.671204119000322,0.0,0.0016117216117216117,0.07413919413919413
2.6758059419989877,0.0,0.0016117216117216117,0.07413919413919413
2.676103878999129,0.0,0.0016117216117216117,0.07413919413919413
2.6813655410005595,0.0,0.0016117216117216117,0.07413919413919413
2.6845070269991993,0.0,0.0016117216117216117,0.07413919413919413
2.686834534000809,0.0,0.0016117216117216117,0.07413919413919413
2.6870678150007734,0.0,0.004029304029304029,0.0
2.6924038590004784,0.0,0.004029304029304029,0.0
2.6954508039998473,0.0,0.0032234432234432234,3.3
2.697804976000043,0.0,0.0032234432234432234,3.3
2.697906780998892,0.0,0.0032234432234432234,3.3
2.703300675999344,0.0,0.0032234432234432234,3.3
2.7049387539991585,0.0,0.0032234432234432234,3.3
2.7095151639987307,0.0,0.0032234432234432234,3.3
2.709685546000401,0.0,0.004835164835164835,0.0032234432234432234
2.7150688000001537,0.0,0.004835164835164835,0.0032234432234432234
2.7159506829993916,0.0,0.004835164835164835,0.0032234432234432234
2.7176585369998065,0.0,0.004835164835164835,0.0032234432234432234
2.7208899990000646,0.0,0.004835164835164835,0.0032234432234432234
2.7230321819988603,0.0,0.004835164835164835,0.0032234432234432234
2.723306011001114,0.0,0.004835164835164835,0.0032234432234432234
2.7285412570017797,0.0,0.004835164835164835,0.0032234432234432234
2.7322313910008234,0.0,0.0,0.0016117216117216117
2.736019241001486,0.0,0.0,0.0016117216117216117
2.740599959000974,0.0,0.004835164835164835,1.4070329670329669
2.7408384129994374,0.0,0.004835164835164835,1.4070329670329669
2.7454128409990517,0.0,0.004835164835164835,1.4070329670329669
2.7456503770008567,0.0,0.004835164835164835,1.4070329670329669
2.750959952001722,0.0,0.004835164835164835,1.4070329670329669
2.7532203939990723,0.0,0.004835164835164835,1.2418315018315018
2.753399372999411,0.0,0.0016117216117216117,2.5723076923076924
2.758662008000101,0.0,0.0016117216117216117,2.5723076923076924
2.7609954690015,0.0,0.0016117216117216117,2.5723076923076924
2.76112891700177,0.0,0.0016117216117216117,2.5723076923076924
2.7666242949999287,0.0,0.0016117216117216117,2.5723076923076924
2.7692051800004265,0.0,0.012893772893772894,0.028205128205128206
2.7774421380017884,0.0,0.012893772893772894,0.028205128205128206
2.7813265080003475,0.0,0.012893772893772894,0.028205128205128206
2.7869038850003562,0.0,0.012893772893772894,0.028205128205128206
2.7877194120010245,0.0,0.012893772893772894,0.028205128205128206
2.789373663999868,0.0,0.012893772893772894,0.028205128205128206
2.7937828700014506,0.0,0.012893772893772894,0.028205128205128206
2.794588147000468,0.0,0.012893772893772894,0.028205128205128206
2.7962283410015516,0.0,0.012893772893772894,0.028205128205128206
2.8000604129993008,0.0,0.012893772893772894,0.028205128205128206
2.803856310998526,0.0,0.012893772893772894,0.028205128205128206
2.8083648100000573,0.0,0.012893772893772894,0.028205128205128206
2.8085661139994045,0.0,0.012893772893772894,0.028205128205128206
2.814044561000628,0.0,0.012893772893772894,0.028205128205128206
2.81632362000164,0.0,0.0,2.5763369963369964
2.8166240640020987,0.0,0.0,2.5763369963369964
2.8240208919996803,0.0,0.0,2.5763369963369964
2.8314581679987896,0.0,0.0,2.5763369963369964
2.836751809998532,0.0,0.0,2.5763369963369964
2.8377735200010648,0.0,0.0,3.1307692307692303
2.838062742001057,0.0,0.0,3.1307692307692303
2.848454989001766,0.0,0.0,3.1307692307692303
2.8596880750010314,0.0,0.0,3.1307692307692303
2.8723786270020355,0.0,0.0,3.1307692307692303
2.8820108879990585,0.0,0.0,3.1307692307692303
2.887089542000467,0.0,0.0,3.1307692307692303
2.890277374001016,0.0,0.006446886446886447,0.0
2.891871510000783,0.0,0.007252747252747252,2.5747252747252745
2.8968427820000215,0.0,0.007252747252747252,2.5747252747252745
2.9018152210010157,0.0,0.007252747252747252,2.5747252747252745
2.9059036010003183,0.0,0.007252747252747252,2.5747252747252745
2.9075750219999463,0.0,0.007252747252747252,2.5747252747252745
2.911878662998788,0.0,0.007252747252747252,2.5747252747252745
2.9130024010009947,0.0,0.007252747252747252,2.5747252747252745
2.9134314120019553,0.0,0.007252747252747252,2.5747252747252745
2.919927891001862,0.0,0.007252747252747252,2.5747252747252745
2.92403063600068,0.0,0.006446886446886447,1.9389010989010989
2.929700945998775,0.0,0.006446886446886447,1.9389010989010989
2.9407204410017584,0.0,0.006446886446886447,1.9389010989010989
2.9489367169990146,0.0,0.006446886446886447,1.9389010989010989
2.9557014189995243,0.0,0.0,0.06124542124542124
2.9620700369996484,0.0,0.0,0.06124542124542124
2.9696048619989597,0.0,0.0,0.06124542124542124
2.973530257000675,0.0,0.0,0.06124542124542124
2.977304700998502,0.0,0.010476190476190476,2.5747252747252745
2.9838903630006826,0.0,0.010476190476190476,2.5747252747252745
2.987409434001165,0.0,0.0,0.08139194139194139
2.987501986001007,0.0,0.0016117216117216117,0.025787545787545788
2.9928475099986827,0.0,0.0016117216117216117,0.025787545787545788
2.9972265729993524,0.0,0.0016117216117216117,0.025787545787545788
3.004463814999326,0.0,0.0,2.54974358974359
3.0161205059994245,0.0,0.0,2.54974358974359
3.019528750999598,0.0,0.0,0.07333333333333333
3.025704380001116,0.0,0.0,0.07333333333333333
3.034974730999238,0.0,0.011282051282051281,0.008058608058608058
3.0409906140012026,0.0,0.011282051282051281,0.008058608058608058
3.0473096999994596,0.0,0.006446886446886447,0.17245421245421244
3.056143891000829,0.0,0.006446886446886447,0.17245421245421244
3.0659747540012177,0.0,0.017728937728937726,2.125054945054945
3.0758826730016153,0.0,0.017728937728937726,2.125054945054945
3.0862678949997644,0.0,0.0016117216117216117,0.03062271062271062
3.0942283510012203,0.0,0.006446886446886447,0.03868131868131868
3.0999012800020864,0.0,0.006446886446886447,0.03868131868131868
3.1051344129991776,0.0,0.006446886446886447,0.03868131868131868
3.10785142000168,0.0,0.0,0.0556043956043956
3.112500182000076,0.0,0.0,0.0556043956043956
3.1126658950015553,0.0,0.0,0.0556043956043956
3.1187473030004185,0.0,0.0,0.0556043956043956
3.122090567001578,0.0,0.0,0.0556043956043956
3.1230840720018023,0.0,0.0,0.0556043956043956
3.1234358600013366,0.0,0.0,0.0556043956043956
3.128618786999141,0.0,0.0,0.0556043956043956
3.1339390499997535,0.0,0.0,0.0556043956043956
3.1397399109991966,0.0,0.0032234432234432234,2.553772893772894
3.1398429200016835,0.0,0.0032234432234432234,2.553772893772894
3.1457649750009296,0.0,0.0032234432234432234,2.553772893772894
3.1522689330013236,0.0,0.0032234432234432234,2.553772893772894
3.1564306100008253,0.0,0.0032234432234432234,2.553772893772894
3.1595988310000394,0.0,0.0,3.3
3.161350935999508,0.0,0.0,3.3
3.165797116002068,0.0,0.0,0.15472527472527473
3.171540258001187,0.0,0.0,0.15472527472527473
3.1716953750001267,0.0,0.0,0.15472527472527473
3.1772510660011903,0.0,0.007252747252747252,2.5763369963369964
3.1775630400006776,0.0,0.006446886446886447,2.8817582417582415
3.184676713000954,0.0,0.006446886446886447,2.8817582417582415
3.188745128998562,0.0,0.0032234432234432234,0.3449084249084249
3.191101788001106,0.0,0.0032234432234432234,0.3449084249084249
3.1912088110002514,0.0,0.0032234432234432234,0.3449084249084249
3.198246634001407,0.0,0.0032234432234432234,0.3449084249084249
3.2018914860018413,0.0,0.007252747252747252,2.5723076923076924
3.2076698710006895,0.0,0.00967032967032967,0.16358974358974357
3.207897055999638,0.0,0.006446886446886447,0.020146520146520144
3.216676922998886,0.0,0.006446886446886447,0.020146520146520144
3.2213434719997167,0.0,0.004029304029304029,3.3
3.2215701220011397,0.0,0.004029304029304029,3.3
3.2262704390013823,0.0,0.004029304029304029,3.3
3.2263997529989865,0.0,0.004029304029304029,3.3
3.2348041650002415,0.0,0.004029304029304029,3.3
3.2394381359990803,0.0,0.004029304029304029,3.3
3.239751641998737,0.0,0.004029304029304029,3.3
3.2438370759991813,0.0,0.004029304029304029,3.3
3.2489786709993496,0.0,0.004835164835164835,0.016117216117216115
3.2503535870018823,0.0,0.004835164835164835,0.016117216117216115
3.255819539001095,0.0,0.004835164835164835,0.016117216117216115
3.257434846000251,0.0,0.004835164835164835,0.016117216117216115
3.2605159230006393,0.0,0.004835164835164835,0.016117216117216115
3.2643648750017746,0.0,0.004835164835164835,0.016117216117216115
3.2678475440006878,0.0,0.004835164835164835,0.016117216117216115
3.27336784200088,0.0,0.004835164835164835,0.016117216117216115
3.27578657399863,0.0,0.004835164835164835,0.016117216117216115
3.2758931620010117,0.0,0.004835164835164835,0.016117216117216115
3.2830849140009377,0.0,0.004835164835164835,0.016117216117216115
3.2869031640002504,0.0,0.004835164835164835,0.016117216117216115
3.29260128900205,0.0,0.004835164835164835,0.016117216117216115
3.292845110001508,0.0,0.004835164835164835,0.016117216117216115
3.2997148309987097,0.0,0.004835164835164835,0.016117216117216115
3.302989506999438,0.0,0.01934065934065934,3.3
3.303801279998879,0.0,0.01934065934065934,3.3
3.305504762000055,0.0,0.01934065934065934,3.3
3.3097774289999506,0.0,0.01934065934065934,3.3
3.3115741270012222,0.0,0.006446886446886447,0.0
3.3166472039993096,0.0,0.006446886446886447,0.0
3.3182142240002577,0.0,0.006446886446886447,0.0
3.323059510999883,0.0,0.006446886446886447,0.0
3.327925943001901,0.0,0.006446886446886447,0.0
3.333631105000677,0.0,0.006446886446886447,0.0
3.3374700310014305,0.0,0.006446886446886447,0.0
3.3419208839986823,0.0,0.006446886446886447,0.0
3.3422003330015286,0.0,0.0,0.020146520146520144
3.349272635001398,0.0,0.0,0.020146520146520144
3.3548279339993314,0.0,0.0,0.020146520146520144
3.3655231119992095,0.0,0.0,0.020146520146520144
3.3707240459989407,0.0,0.011282051282051281,0.0024175824175824176
3.3723410599995987,0.0,0.012087912087912087,2.5747252747252745
3.376420879001671,0.0,0.012087912087912087,2.5747252747252745
3.380108699999255,0.0,0.012087912087912087,2.5747252747252745
3.3858030090013926,0.0,0.012893772893772894,0.6237362637362637
3.3912349329984863,0.0,0.012893772893772894,0.6237362637362637
3.3921332099998835,0.0,0.012893772893772894,0.6237362637362637
3.3939406009994855,0.0,0.012893772893772894,0.6237362637362637
3.3985143979989516,0.0,0.012893772893772894,0.6237362637362637
3.404910706998635,0.0,0.0,0.5221978021978021
3.4086715869998443,0.0,0.0,0.5221978021978021
3.4147397429987905,0.0,0.0,0.0
3.4199174669993226,0.0,0.0,0.0
3.422487601001194,0.0,0.0,0.0
3.4285478909987432,0.0,0.0008058608058608059,0.03304029304029304
3.4344108149998647,0.0,0.0008058608058608059,0.03304029304029304
3.437513739001588,0.0,0.0008058608058608059,0.03304029304029304
3.4397640169991064,0.0,0.0008058608058608059,0.03304029304029304
3.4400337410006614,0.0,0.0008058608058608059,0.03304029304029304
3.4455228250008076,0.0,0.0008058608058608059,0.03304029304029304
3.4468038529994374,0.0,0.004029304029304029,0.04996336996336996
3.4551443710006424,0.0,0.004029304029304029,0.04996336996336996
3.461054860999866,0.0,0.004029304029304029,0.04996336996336996
3.4717622269999993,0.0,0.004029304029304029,0.04996336996336996
3.4802622600000177,0.0,0.004029304029304029,0.04996336996336996
3.4858618950020173,0.0,0.0016117216117216117,1.9767765567765565
3.4860771860003297,0.0,0.0016117216117216117,1.9767765567765565
3.491887903001043,0.0,0.0016117216117216117,1.9767765567765565
3.5026070380008605,0.0,0.008058608058608058,2.5747252747252745
3.5113278300013917,0.0,0.004029304029304029,0.954945054945055
3.518922573999589,0.0,0.004029304029304029,0.954945054945055
3.5250219640001887,0.0,0.0024175824175824176,0.2643223443223443
3.529155529999116,0.0,0.0024175824175824176,0.2643223443223443
3.533016946999851,0.0,0.0,0.010476190476190476
3.536808625998674,0.0,0.0,0.010476190476190476
3.5421628760013846,0.0,0.0,0.010476190476190476
3.5423917600019195,0.0,0.0,0.010476190476190476
3.55335283200111,0.0,0.004029304029304029,0.00967032967032967
3.561793453998689,0.0,0.004029304029304029,0.00967032967032967
3.570195774998865,0.0,0.004835164835164835,0.6164835164835165
3.575811041999259,0.0,0.004835164835164835,0.6164835164835165
3.576013313999283,0.0,0.0016117216117216117,2.577948717948718
3.5845591979996243,0.0,0.0016117216117216117,2.577948717948718
3.588449627000955,0.0,0.011282051282051281,0.3167032967032967
3.5933793030017114,0.0,0.011282051282051281,0.3167032967032967
3.6019413149988395,0.0,0.011282051282051281,0.3167032967032967
3.6071681280009216,0.0,0.004835164835164835,0.5036630036630036
3.609944630999962,0.0,0.004835164835164835,0.5036630036630036
3.615461156001402,0.0,0.004835164835164835,0.5036630036630036
3.6156070870019903,0.0,0.004835164835164835,0.5036630036630036
3.622815457001707,0.0,0.004835164835164835,0.5036630036630036
3.630561171001318,0.0,0.004835164835164835,0.5036630036630036
3.635575363001408,0.0,0.004835164835164835,0.5036630036630036
3.6380701800007955,0.0,0.004835164835164835,0.5036630036630036
3.644462623000436,0.0,0.004835164835164835,0.5036630036630036
3.6510591869991913,0.0,0.004835164835164835,0.5036630036630036
3.654144586998882,0.0,0.0008058608058608059,0.05641025641025641
3.6558249670015357,0.0,0.005641025641025641,2.5747252747252745
3.6596332260014606,0.0,0.005641025641025641,2.5747252747252745
3.6668686709999747,0.0,0.005641025641025641,2.5747252747252745
3.670987169,0.0,0.005641025641025641,2.5747252747252745
3.674836656999105,0.0,0.005641025641025641,2.5747252747252745
3.6796731739996176,0.0,0.005641025641025641,2.5747252747252745
3.685720894998667,0.0,0.0032234432234432234,1.2547252747252746
3.690114048000396,0.0,0.0032234432234432234,1.2547252747252746
3.6904016740008956,0.0,0.0032234432234432234,1.2547252747252746
3.696798969001975,0.0,0.0032234432234432234,1.2547252747252746
3.7012370720003673,0.0,0.0032234432234432234,1.2547252747252746
3.7030038310003874,0.0,0.0032234432234432234,1.2547252747252746
3.7061921509994136,0.0,0.0032234432234432234,1.2547252747252746
3.7072075690011843,0.0,0.0032234432234432234,1.2547252747252746
3.7074842840011115,0.0,0.0032234432234432234,1.2547252747252746
3.713949289998709,0.0,0.0032234432234432234,1.2547252747252746
3.719824771000276,0.0,0.00967032967032967,2.5747252747252745
3.7232071360012924,0.0,0.00967032967032967,2.5747252747252745
3.723460237000836,0.0,0.004835164835164835,0.04029304029304029
3.7307057389989495,0.0,0.004835164835164835,0.04029304029304029
3.7346183260015096,0.0,0.004835164835164835,0.04029304029304029
3.7383940889994847,0.0,0.004835164835164835,0.04029304029304029
3.742222828001104,0.0,0.004835164835164835,0.04029304029304029
3.7456960810013697,0.0,0.004835164835164835,0.04029304029304029
3.7457686710004054,0.0,0.004835164835164835,0.04029304029304029
3.753567496998585,0.0,0.004835164835164835,0.04029304029304029
3.759530645002087,0.0,0.004835164835164835,0.04029304029304029
3.764297637000709,0.0,0.004835164835164835,0.04029304029304029
3.7682019989988476,0.0,0.004835164835164835,0.04029304029304029
3.771264537001116,0.0,0.0016117216117216117,0.051575091575091575
3.7728565690013056,0.0,0.0016117216117216117,0.051575091575091575
3.777906952000194,0.0,0.0016117216117216117,0.051575091575091575
3.782905836000282,0.0,0.0008058608058608059,3.3
3.7852047929991386,0.0,0.012893772893772894,0.09428571428571428
3.7854014430013194,0.0,0.012893772893772894,0.09428571428571428
3.792236397999659,0.0,0.012893772893772894,0.09428571428571428
3.7976887770018948,0.0,0.0,0.0
3.798584561001917,0.0,0.0,0.0
3.800186473999929,0.0,0.0,0.0
3.8039591109991306,0.0,0.0,0.0
3.8078183680008806,0.0,0.0,0.008864468864468863
3.8108967039988784,0.0,0.007252747252747252,0.012087912087912087
3.813743359001819,0.0,0.008058608058608058,0.04593406593406593
3.819452750001801,0.0,0.008058608058608058,0.04593406593406593
3.8289107810014684,0.0,0.008058608058608058,0.04593406593406593
3.8380342250020476,0.0,0.008058608058608058,0.04593406593406593
3.8449688180007797,0.0,0.008058608058608058,0.04593406593406593
3.8510096380014147,0.0,0.008058608058608058,0.04593406593406593
3.856667700001708,0.0,0.008058608058608058,0.04593406593406593
3.867586594999011,0.0,0.008058608058608058,0.04593406593406593
3.875821788999019,0.0,0.008058608058608058,0.04593406593406593
3.882980788999703,0.0,0.008058608058608058,0.04593406593406593
3.887111054998968,0.0,0.008058608058608058,0.04593406593406593
3.889437033998547,0.0,0.008058608058608058,0.04593406593406593
3.8896581750013866,0.0,0.008058608058608058,0.04593406593406593
3.897620994001045,0.0,0.008058608058608058,0.04593406593406593
3.903127276000305,0.0,0.0,3.3
3.9032077510019008,0.0,0.0,3.3
3.909620767000888,0.0,0.0,3.3
3.9164507480018074,0.0,0.0,3.3
3.920304033999855,0.0,0.0016117216117216117,2.5706959706959704
3.9256837670000095,0.0,0.004029304029304029,0.0838095238095238
3.925926301999425,0.0,0.0,0.01934065934065934
3.933785192999494,0.0,0.0,0.01934065934065934
3.9409610549992067,0.0,0.0,0.01934065934065934
3.945094947001053,0.0,0.0,0.01934065934065934
3.9497678939987964,0.0,0.0,0.01934065934065934
3.954347102000611,0.0,0.0,0.01934065934065934
3.954449011001998,0.0,0.0,0.01934065934065934
3.9598132710016216,0.0,0.0,0.01934065934065934
3.961564755998552,0.0,0.0,0.01934065934065934
3.9660363820003113,0.0,0.0,0.01934065934065934
3.972075481000502,0.0,0.0,0.01934065934065934
3.9759185440016154,0.0,0.0016117216117216117,0.0
3.9837325699991197,0.0,0.0016117216117216117,0.0
3.9884399510010553,0.0,0.0016117216117216117,0.0
3.9947116559997085,0.0,0.0008058608058608059,0.007252747252747252
4.000089665001724,0.0,0.0008058608058608059,0.007252747252747252
4.0002936759992735,0.0,0.0024175824175824176,2.3805128205128203
4.005933266998909,0.0,0.0024175824175824176,2.3805128205128203
4.006137737000245,0.0,0.0024175824175824176,2.3805128205128203
4.013190703000873,0.0,0.0024175824175824176,2.3805128205128203
4.0178779999987455,0.0,0.0024175824175824176,2.3805128205128203
4.023304572001507,0.0,0.0,0.9573626373626374
4.02511100600168,0.0,0.0,0.9573626373626374
4.028500872002041,0.0,0.0,0.9573626373626374
4.029971872001624,0.0,0.0,0.9573626373626374
4.035297960999742,0.0,0.00967032967032967,2.5755311355311354
4.036482159001025,0.0,0.00967032967032967,2.5755311355311354
4.0366866610020224,0.0,0.0,1.896190476190476
4.0442782520003675,0.0,0.0,0.90014652014652
4.0518306880003365,0.0,0.0,0.90014652014652
4.0576291590004985,0.0,0.0,0.90014652014652
4.07054237400007,0.0,0.0,0.90014652014652
4.080152809001447,0.0,0.0,0.90014652014652
4.086039976999018,0.0,0.0,0.90014652014652
4.091228880999552,0.0,0.0,0.90014652014652
4.093817356999352,0.0,0.0,0.90014652014652
4.102671366999857,0.0,0.0,0.90014652014652
4.109444556001108,0.0,0.0,0.90014652014652
4.115434106999601,0.0,0.0,0.90014652014652
4.121837349000998,0.0,0.0,0.90014652014652
4.1274542290011595,0.0,0.012893772893772894,0.40776556776556777
4.127597236998554,0.0,0.012893772893772894,0.40776556776556777
4.136022023001715,0.0,0.012893772893772894,0.40776556776556777
4.142702146000374,0.0,0.012893772893772894,0.40776556776556777
4.147631883999566,0.0,0.010476190476190476,0.3223443223443223
4.151974627999152,0.0,0.004029304029304029,0.0
4.152158182001585,0.0,0.004029304029304029,0.0
4.157392339999205,0.0,0.004029304029304029,0.0
4.1596576039992215,0.0,0.004029304029304029,0.0
4.159788092998497,0.0,0.004029304029304029,0.0
4.166197826998541,0.0,0.004029304029304029,0.0
4.1700591090011585,0.0,0.004835164835164835,0.0
4.174569950999285,0.0,0.004835164835164835,0.0
4.174850233001052,0.0,0.005641025641025641,2.5747252747252745
4.18152907500189,0.0,0.005641025641025641,2.5747252747252745
4.187164112001483,0.0,0.005641025641025641,2.5747252747252745
4.193609353998909,0.0,0.0,0.0
4.199157956998533,0.0,0.004029304029304029,2.5747252747252745
4.204759790998651,0.0,0.004029304029304029,2.5747252747252745
4.2055935749995115,0.0,0.004029304029304029,2.5747252747252745
4.207196907002071,0.0,0.004029304029304029,2.5747252747252745
4.210417608999705,0.0,0.004029304029304029,2.5747252747252745
4.213806112999009,0.0,0.004029304029304029,2.5747252747252745
4.22042250999948,0.0,0.004029304029304029,2.5747252747252745
4.224314438000874,0.0,0.004029304029304029,2.5747252747252745
4.230845246998797,0.0,0.004029304029304029,2.5747252747252745
4.234293573001196,0.0,0.004029304029304029,2.5747252747252745
4.234491650000564,0.0,0.004029304029304029,2.5747252747252745
4.239891199998965,0.0,0.004029304029304029,2.5747252747252745
4.241781267999613,0.0,0.004029304029304029,0.12007326007326008
4.244111990999954,0.0,0.004029304029304029,0.12007326007326008
4.24426308799957,0.0,0.004029304029304029,0.12007326007326008
4.251168716000393,0.0,0.004029304029304029,0.12007326007326008
4.254978597000445,0.0,0.004029304029304029,0.12007326007326008
4.259537152000121,0.0,0.004029304029304029,0.12007326007326008
4.261598604000028,0.0,0.004029304029304029,0.12007326007326008
4.262579030000779,0.0,0.004029304029304029,0.12007326007326008
4.262860663999163,0.0,0.004029304029304029,0.12007326007326008
4.271868701001949,0.0,0.004029304029304029,0.12007326007326008
4.279419202001009,0.0,0.004029304029304029,0.12007326007326008
4.284630926998943,0.0,0.004029304029304029,0.12007326007326008
4.286279224001191,0.0,0.012087912087912087,0.0701098901098901
4.290115121999406,0.0,0.012087912087912087,0.0701098901098901
4.29390707100174,0.0,0.006446886446886447,2.613406593406593
4.301877121000871,0.0,0.006446886446886447,2.613406593406593
4.312903046000429,0.0,0.0,0.21597069597069596
4.3212880169994605,0.0,0.0,2.565860805860806
4.329230601000745,0.0,0.0,2.565860805860806
4.337147841000842,0.0,0.0,2.565860805860806
4.342005799000617,0.0,0.004835164835164835,3.075164835164835
4.350542951000534,0.0,0.004835164835164835,3.075164835164835
4.354388956999173,0.0,0.0,0.026593406593406595
4.358882603999518,0.0,0.0,0.026593406593406595
4.359127580999484,0.0,0.0,0.026593406593406595
4.366700712002057,0.0,0.0,0.026593406593406595
4.37131299199973,0.0,0.0,0.026593406593406595
4.372129163999489,0.0,0.045128205128205125,0.03062271062271062
4.373853327000688,0.0,0.045128205128205125,0.03062271062271062
4.379160257998592,0.0,0.008058608058608058,3.2008791208791205
4.381798270002037,0.0,0.008058608058608058,3.2008791208791205
4.386458584998763,0.0,0.008058608058608058,3.2008791208791205
4.392265744001634,0.0,0.008058608058608058,3.2008791208791205
4.392345117001241,0.0,0.0,0.008058608058608058
4.401914150999801,0.0,0.0,0.008058608058608058
4.4087856690021,0.0,0.0,0.008058608058608058
4.414981516998523,0.0,0.0,0.008058608058608058
4.420314757000597,0.0,0.0,0.008058608058608058
4.42118204000144,0.0,0.018534798534798533,0.13538461538461538
4.422187686999678,0.0,0.018534798534798533,0.13538461538461538
4.424061189998611,0.0,0.018534798534798533,0.13538461538461538
4.425696914000582,0.0,0.018534798534798533,0.13538461538461538
4.432240070000262,0.0,0.018534798534798533,0.13538461538461538
4.439149191999604,0.0,0.018534798534798533,0.13538461538461538
4.445381927002018,0.0,0.018534798534798533,0.13538461538461538
4.452171961002023,0.0,0.018534798534798533,0.13538461538461538
4.458569771999464,0.0,0.018534798534798533,0.13538461538461538
4.466433034998772,0.0,0.018534798534798533,0.13538461538461538
4.471191271000862,0.0,0.016117216117216115,0.00967032967032967
4.4751714060003,0.0,0.016117216117216115,0.00967032967032967
4.477665001999412,0.0,0.0016117216117216117,2.1057142857142854
4.477939336000418,0.0,0.0,0.6793406593406592
4.4848441450012615,0.0,0.0,0.6793406593406592
4.4891176509991055,0.0,0.0,0.03142857142857143
4.489979391000816,0.0,0.0,0.03142857142857143
4.4916217739992135,0.0,0.0,0.03142857142857143
4.496356757001195,0.0,0.006446886446886447,2.54974358974359
4.502968313001475,0.0,0.006446886446886447,2.54974358974359
4.507542892999481,0.0,0.006446886446886447,2.54974358974359
4.5077877059993625,0.0,0.008058608058608058,0.02175824175824176
4.516297861999192,0.0,0.008058608058608058,0.02175824175824176
4.521676282001863,0.0,0.008058608058608058,0.02175824175824176
4.523277599000721,0.0,0.008058608058608058,0.02175824175824176
4.527514833000168,0.0,0.008058608058608058,0.02175824175824176
4.52976874900196,0.0,0.008058608058608058,0.02175824175824176
4.529973595999763,0.0,0.008058608058608058,0.02175824175824176
4.537358592999226,0.0,0.008058608058608058,0.02175824175824176
4.541473524001049,0.0,0.008058608058608058,0.02175824175824176
4.544140649999463,0.0,0.008058608058608058,0.02175824175824176
4.550173007999547,0.0,0.008058608058608058,0.02175824175824176
4.553989275002095,0.0,0.008058608058608058,0.02175824175824176
4.558470015999774,0.0,0.008058608058608058,0.02175824175824176
4.560024188998796,0.0,0.008058608058608058,0.02175824175824176
4.568557015998522,0.0,0.008058608058608058,0.02175824175824176
4.5748842590001,0.0,0.0,0.0
4.580872922000708,0.0,0.0,0.0
4.586604649000947,0.0,0.0,0.08945054945054945
4.593885469999805,0.0,0.0,0.08945054945054945
4.5982441140004084,0.0,0.0,0.08945054945054945
4.599988666999707,0.0,0.0,0.08945054945054945
4.6031070460012415,0.0,0.0,0.08945054945054945
4.606290192001325,0.0,0.0,0.08945054945054945
4.607154147000983,0.0,0.0,0.08945054945054945
4.608922530998825,0.0,0.0,0.08945054945054945
4.612319709001895,0.0,0.0,0.08945054945054945
4.613414854000439,0.0,0.0,0.08945054945054945
4.613590390999889,0.0,0.0,0.08945054945054945
4.621567915000924,0.0,0.0,0.08945054945054945
4.628268650998507,0.0,0.0,0.08945054945054945
4.635174371000176,0.0,0.0016117216117216117,0.0419047619047619
4.640820515000087,0.0,0.0016117216117216117,0.0419047619047619
4.640970191001543,0.0,0.0016117216117216117,0.0419047619047619
4.647935529999813,0.0,0.0016117216117216117,0.0419047619047619
4.651642786000593,0.0,0.0016117216117216117,0.0419047619047619
4.65705140800128,0.0,0.0016117216117216117,0.0419047619047619
4.657927864001977,0.0,0.0016117216117216117,0.0419047619047619
4.659476939999877,0.0,0.0016117216117216117,0.0419047619047619
4.667093015999853,0.0,0.0016117216117216117,0.0419047619047619
4.671236648999184,0.0,0.0016117216117216117,0.0419047619047619
4.674297157998808,0.0,0.0016117216117216117,0.0419047619047619
4.677311207000457,0.0,0.0016117216117216117,0.0419047619047619
4.679682085999957,0.0,0.0016117216117216117,0.0419047619047619
4.685979377001786,0.0,0.0032234432234432234,0.09992673992673992
4.689882913000474,0.0,0.011282051282051281,0.012893772893772894
4.693664705999254,0.0,0.011282051282051281,0.012893772893772894
4.693743497999094,0.0,0.011282051282051281,0.012893772893772894
4.7016024440017645,0.0,0.011282051282051281,0.012893772893772894
4.706189340999117,0.0,0.011282051282051281,0.012893772893772894
4.70646064399989,0.0,0.010476190476190476,0.02336996336996337
4.7115734740000335,0.0,0.010476190476190476,0.02336996336996337
4.718412105001335,0.0,0.010476190476190476,0.02336996336996337
4.722453794001922,0.0,0.010476190476190476,0.02336996336996337
4.725537133999751,0.0,0.010476190476190476,0.02336996336996337
4.72724763700171,0.0,0.010476190476190476,0.02336996336996337
4.733536751999054,0.0,0.010476190476190476,0.02336996336996337
4.7367960609990405,0.0,0.010476190476190476,0.02336996336996337
4.738390694001282,0.0,0.010476190476190476,0.02336996336996337
4.742376554000657,0.0,0.010476190476190476,0.02336996336996337
4.747144707002008,0.0,0.010476190476190476,0.02336996336996337
4.751870464999229,0.0,0.010476190476190476,0.02336996336996337
4.757344517001911,0.0,0.010476190476190476,0.02336996336996337
4.758255002001533,0.0,0.010476190476190476,0.02336996336996337
4.759980571001506,0.0,0.010476190476190476,0.02336996336996337
4.764194472998497,0.0,0.010476190476190476,0.02336996336996337
4.766664991999278,0.0,0.010476190476190476,0.02336996336996337
4.771494650998648,0.0,0.00967032967032967,0.03304029304029304
4.776806572001078,0.0,0.00967032967032967,0.03304029304029304
4.778951894000784,0.0,0.00967032967032967,0.03304029304029304
4.779215384001873,0.0,0.00967032967032967,0.03304029304029304
4.785958663000201,0.0,0.00967032967032967,0.03304029304029304
4.790296383998793,0.0,0.0,0.028205128205128206
4.791934575001505,0.0,0.0,0.028205128205128206
4.796708347999811,0.0,0.0,0.028205128205128206
4.802423559998715,0.0,0.0,0.8074725274725274
4.808027245999256,0.0,0.0,0.8074725274725274
4.808169517000351,0.0,0.0,0.8074725274725274
4.815390413001296,0.0,0.0,0.8074725274725274
4.819346188000054,0.0,0.0,0.8074725274725274
4.823180879000574,0.0,0.0,0.8074725274725274
4.8263259880004625,0.0,0.0,0.8074725274725274
4.8288069929985795,0.0,0.0,0.8074725274725274
4.828983865001646,0.0,0.0016117216117216117,0.004029304029304029
4.835393691999343,0.0,0.0016117216117216117,0.004029304029304029
4.839187931000197,0.0,0.0,2.56989010989011
4.843421613000828,0.0,0.0,2.56989010989011
4.848439575001976,0.0,0.0,2.56989010989011
4.85346676500194,0.0,0.0,2.56989010989011
4.855749120000837,0.0,0.0,2.56989010989011
4.855894004002039,0.0,0.0,2.56989010989011
4.86050307700134,0.0,0.0,2.56989010989011
4.86080152499926,0.0,0.0,2.56989010989011
4.868328484000813,0.0,0.0,2.56989010989011
4.8728882130017155,0.0,0.004835164835164835,0.020146520146520144
4.8737637140002334,0.0,0.004835164835164835,0.020146520146520144
4.875342762999935,0.0,0.004835164835164835,0.020146520146520144
4.883331174001796,0.0,0.004835164835164835,0.020146520146520144
4.88914101300179,0.0,0.004835164835164835,0.020146520146520144
4.8984652389990515,0.0,0.0008058608058608059,0.012893772893772894
4.905078128998866,0.0,0.0008058608058608059,0.012893772893772894
4.909279186998901,0.0,0.006446886446886447,0.0
4.912970188001054,0.0,0.004835164835164835,2.5763369963369964
4.918399464000686,0.0,0.006446886446886447,2.573919413919414
4.919330609001918,0.0,0.006446886446886447,2.573919413919414
4.920933040000818,0.0,0.006446886446886447,2.573919413919414
4.925434643999324,0.0,0.0016117216117216117,0.052380952380952375
4.925686354999925,0.0,0.0016117216117216117,0.052380952380952375
4.932529123001586,0.0,0.0016117216117216117,0.052380952380952375
4.936462121000659,0.0,0.0016117216117216117,0.052380952380952375
4.940535031000763,0.0,0.0016117216117216117,0.052380952380952375
4.942341516001761,0.0,0.0016117216117216117,0.052380952380952375
4.945931004000158,0.0,0.0016117216117216117,0.052380952380952375
4.953522175001126,0.0,0.0016117216117216117,0.052380952380952375
4.962740005001251,0.0,0.0,2.5747252747252745
4.968333029999485,0.0,0.0,0.47706959706959706
4.968583132002095,0.0,0.0,0.03706959706959707
4.974035795999953,0.0,0.0,0.03706959706959707
4.974920161999762,0.0,0.03626373626373627,3.3
4.976526040001772,0.0,0.03626373626373627,3.3
4.983114187998581,0.0,0.03626373626373627,3.3
4.9864060649997555,0.0,0.0,0.12813186813186814
4.987979210000049,0.0,0.0008058608058608059,0.06366300366300366
4.99111360200186,0.0,0.0008058608058608059,0.06366300366300366
4.99348724399897,0.0,0.0008058608058608059,0.06366300366300366
4.993642905999877,0.0,0.0008058608058608059,0.06366300366300366
5.0022483020002255,0.0,0.0008058608058608059,0.06366300366300366
5.006297168001765,0.0,0.00967032967032967,0.3416849816849817
5.010105109999131,0.0,0.00967032967032967,0.3416849816849817
5.017844450001576,0.0,0.00967032967032967,0.3416849816849817
5.0245798629985075,0.0,0.00967032967032967,0.3416849816849817
5.028999995000049,0.0,0.00967032967032967,0.3416849816849817
5.029162434999307,0.0,0.00967032967032967,0.3416849816849817
5.034696875001828,0.0,0.00967032967032967,0.3416849816849817
5.035580466999818,0.0,0.00967032967032967,0.3416849816849817
5.036507896998955,0.0,0.00967032967032967,0.3416849816849817
5.037379722001788,0.0,0.00967032967032967,0.3416849816849817
5.0389805490012805,0.0,0.00967032967032967,0.3416849816849817
5.043959015998553,0.0,0.00967032967032967,0.3416849816849817
5.0479292679992795,0.0,0.007252747252747252,0.004029304029304029
5.051808227999572,0.0,0.007252747252747252,0.004029304029304029
5.056418023999868,0.0,0.0024175824175824176,2.573919413919414
5.0566920199999,0.0,0.0024175824175824176,2.573919413919414
5.06144988899905,0.0,0.0024175824175824176,2.573919413919414
5.067023423998762,0.0,0.0024175824175824176,2.573919413919414
5.067217959000118,0.0,0.0,0.04029304029304029
5.072917093999422,0.0,0.0,0.04029304029304029
5.0730481350001355,0.0,0.0,0.04029304029304029
5.078622168999573,0.0,0.0,0.04029304029304029
5.078898308001953,0.0,0.00967032967032967,2.561831501831502
5.088261772001715,0.0,0.00967032967032967,2.561831501831502
5.093730030999723,0.0,0.00967032967032967,0.010476190476190476
5.093993106998823,0.0,0.00967032967032967,0.010476190476190476
5.105016743000306,0.0,0.00967032967032967,0.010476190476190476
5.114901611999812,0.0,0.00967032967032967,1.4835897435897436
5.120611780999752,0.0,0.00967032967032967,1.4835897435897436
5.120850931998575,0.0,0.0032234432234432234,1.6318681318681318
5.126156858001195,0.0,0.0032234432234432234,1.6318681318681318
5.1278219029991305,0.0,0.0,0.06608058608058608
5.131576466999832,0.0,0.0,0.06608058608058608
5.136085432000982,0.0,0.0,0.06608058608058608
5.136392366999644,0.0,0.0,0.06608058608058608
5.141291861000354,0.0,0.0,0.06608058608058608
5.145644873999117,0.0,0.0,0.06608058608058608
5.147792551000748,0.0,0.0,0.06608058608058608
5.148044300000038,0.0,0.0,0.06608058608058608
5.152958685001067,0.0,0.0,0.06608058608058608
5.156497389998549,0.0,0.0,0.06608058608058608
5.156646671999624,0.0,0.0,0.06608058608058608
5.161541264998959,0.0,0.0,0.06608058608058608
5.167014228998596,0.0,0.0,0.06608058608058608
5.168648939001287,0.0,0.0,0.06608058608058608
5.17209523999918,0.0,0.0,0.06608058608058608
5.172248728998966,0.0,0.0,0.06608058608058608
5.177931116999389,0.0,0.0,0.06608058608058608
5.178060666999954,0.0,0.010476190476190476,0.9541391941391941
5.183651835999626,0.0,0.010476190476190476,0.9541391941391941
5.183885369999189,0.0,0.010476190476190476,0.9541391941391941
5.1903307089996815,0.0,0.010476190476190476,0.9541391941391941
5.1933810640002775,0.0,0.006446886446886447,2.5763369963369964
5.1949871920005535,0.0,0.006446886446886447,2.5763369963369964
5.198703787998966,0.0,0.006446886446886447,2.5763369963369964
5.203927640999609,0.0,0.006446886446886447,2.5763369963369964
5.206941366999672,0.0,0.006446886446886447,2.5763369963369964
5.2091663729988795,0.0,0.006446886446886447,2.5763369963369964
5.209407673999522,0.0,0.006446886446886447,2.5763369963369964
5.214641059999849,0.0,0.006446886446886447,2.5763369963369964
5.217587089999142,0.0,0.006446886446886447,2.5763369963369964
5.219917713999166,0.0,0.006446886446886447,2.5763369963369964
5.220055047000642,0.0,0.0032234432234432234,0.224029304029304
5.22525653699995,0.0,0.0032234432234432234,0.224029304029304
5.228223500998865,0.0,0.0032234432234432234,0.224029304029304
5.230514366001444,0.0,0.0032234432234432234,0.224029304029304
5.230774592000671,0.0,0.0032234432234432234,0.224029304029304
5.236315452999406,0.0,0.0032234432234432234,0.224029304029304
5.237923534001311,0.0,0.007252747252747252,2.5513553113553114
5.2421206580002035,0.0,0.007252747252747252,2.5513553113553114
5.2444226640000124,0.0,0.0016117216117216117,0.2111355311355311
5.244619900000544,0.0,0.0016117216117216117,0.2111355311355311
5.249893099000474,0.0,0.0016117216117216117,0.2111355311355311
5.252175517998694,0.0,0.0016117216117216117,0.2111355311355311
5.252408552998531,0.0,0.008058608058608058,2.2515750915750914
5.25760905900097,0.0,0.008058608058608058,2.2515750915750914
5.259908676998748,0.0,0.008058608058608058,2.2515750915750914
5.260189250999247,0.0,0.008058608058608058,2.2515750915750914
5.265485481999349,0.0,0.008058608058608058,2.2515750915750914
5.268460711999069,0.0,0.008058608058608058,2.2515750915750914
5.2714602000014565,0.0,0.008058608058608058,2.2515750915750914
5.273768243001541,0.0,0.008058608058608058,2.2515750915750914
5.274010845001612,0.0,0.008058608058608058,2.2515750915750914
5.279250022002088,0.0,0.006446886446886447,2.54974358974359
5.28157766699951,0.0,0.006446886446886447,2.54974358974359
5.2817275039997185,0.0,0.006446886446886447,2.54974358974359
5.288434427999164,0.0,0.006446886446886447,2.54974358974359
5.294300913999905,0.0,0.006446886446886447,2.54974358974359
5.29812521599888,0.0,0.006446886446886447,2.54974358974359
5.3026768199997605,0.0,0.004835164835164835,0.25787545787545785
5.302955107999878,0.0,0.004835164835164835,0.25787545787545785
5.308165026999632,0.0,0.004835164835164835,0.25787545787545785
5.311286746000405,0.0,0.004835164835164835,0.25787545787545785
5.313737978998688,0.0,0.004835164835164835,0.25787545787545785
5.313851040998998,0.0,0.004835164835164835,0.25787545787545785
5.319339716999821,0.0,0.004835164835164835,0.25787545787545785
5.320290448999003,0.0,0.004835164835164835,0.25787545787545785
5.321198049001396,0.0,0.004835164835164835,0.25787545787545785
5.322131035998609,0.0,0.004835164835164835,0.25787545787545785
5.323878449999029,0.0,0.004835164835164835,0.25787545787545785
5.326903933000722,0.0,0.004835164835164835,0.007252747252747252
5.329158462001942,0.0,0.004835164835164835,0.007252747252747252
5.329385982000531,0.0,0.004835164835164835,0.007252747252747252
5.335195226001815,0.0,0.004835164835164835,0.007252747252747252
5.335334670999146,0.0,0.004835164835164835,0.007252747252747252
5.340899647999322,0.0,0.005641025641025641,1.5593406593406591
5.341711217999546,0.0,0.005641025641025641,1.5593406593406591
5.343323229000816,0.0,0.005641025641025641,1.5593406593406591
5.350945352001872,0.0,0.005641025641025641,1.5593406593406591
5.357900725000945,0.0,0.0,0.02336996336996337
5.365986609001993,0.0,0.0,0.02336996336996337
5.370398138999008,0.0,0.0,0.02336996336996337
5.371292943000299,0.0,0.0,0.02336996336996337
5.372905549000279,0.0,0.0,0.02336996336996337
5.376236844000232,0.0,0.0,0.02336996336996337
5.379920842999127,0.0,0.1402197802197802,1.9542124542124542
5.383062731001701,0.0,0.0,0.4319413919413919
5.383349364001333,0.0,0.0,0.4319413919413919
5.393554753998615,0.0,0.0,0.4319413919413919
5.401804226999957,0.0,0.008058608058608058,0.029816849816849816
5.406953740999597,0.0,0.0,2.3845421245421243
5.409661328001675,0.0,0.0,0.051575091575091575
5.41682801099887,0.0,0.0,0.051575091575091575
5.420877082000516,0.0,0.00967032967032967,3.3
5.424013994001143,0.0,0.00967032967032967,3.3
5.42633589199977,0.0,0.0,0.018534798534798533
5.426532425000914,0.0,0.0,0.018534798534798533
5.434978099001455,0.0,0.0,0.018534798534798533
5.4392380739991495,0.0,0.0,0.018534798534798533
5.440875950000191,0.0,0.0,0.018534798534798533
5.446232557998883,0.0,0.0,0.018534798534798533
5.447429735999322,0.0,0.0,0.018534798534798533
5.447558591000416,0.0,0.0,0.018534798534798533
5.453283672999532,0.0,0.0,0.018534798534798533
5.453458175001288,0.0,0.0,0.018534798534798533
5.458737609998934,0.0,0.0,0.018534798534798533
5.462398543000745,0.0,0.0,0.018534798534798533
5.466312549000577,0.0,0.0,0.018534798534798533
5.468635960998654,0.0,0.0,0.004029304029304029
5.468738109000697,0.0,0.0,0.004029304029304029
5.474241586001881,0.0,0.00967032967032967,2.5553846153846154
5.475073575998977,0.0,0.00967032967032967,2.5553846153846154
5.4767382870013535,0.0,0.00967032967032967,2.5553846153846154
5.483883707001951,0.0,0.00967032967032967,2.5553846153846154
5.489478889001475,0.0,0.0016117216117216117,0.25787545787545785
5.500661507001496,0.0,0.0016117216117216117,0.25787545787545785
5.506781781001337,0.0,0.0016117216117216117,2.544908424908425
5.512804607998987,0.0,0.0016117216117216117,2.544908424908425
5.51846778700201,0.0,0.037875457875457874,2.146007326007326
5.523112822000257,0.0,0.006446886446886447,3.3
5.523196266000014,0.0,0.004835164835164835,0.02095238095238095
5.529693085001782,0.0,0.005641025641025641,0.0016117216117216117
5.535316167999554,0.0,0.005641025641025641,0.0016117216117216117
5.540055045999907,0.0,0.005641025641025641,0.0016117216117216117
5.545739362001768,0.0,0.005641025641025641,0.0016117216117216117
5.545963729000505,0.0,0.005641025641025641,0.0016117216117216117
5.552647366999736,0.0,0.005641025641025641,0.0016117216117216117
5.556651276001503,0.0,0.005641025641025641,0.0016117216117216117
5.560657801001071,0.0,0.0016117216117216117,2.6037362637362635
5.564130007998756,0.0,0.0032234432234432234,0.10073260073260072
5.5710036370001035,0.0,0.004029304029304029,0.03223443223443223
5.575546978001512,0.0,0.0,2.5755311355311354
5.575825056999747,0.0,0.0,2.5755311355311354
5.585522933000902,0.0,0.0,2.5755311355311354
5.595179683001334,0.0,0.0,2.5755311355311354
5.603807822000817,0.0,0.0032234432234432234,1.0266666666666666
5.61166615899856,0.0,0.0032234432234432234,1.0266666666666666
5.619605840998702,0.0,0.0032234432234432234,1.0266666666666666
5.626561352000863,0.0,0.0032234432234432234,1.0266666666666666
5.633817547000945,0.0,0.0032234432234432234,1.0266666666666666
5.637884646999737,0.0,0.0032234432234432234,1.0266666666666666
5.640936257001158,0.0,0.012087912087912087,0.39487179487179486
5.642579880000994,0.0,0.012087912087912087,0.39487179487179486
5.651425914998981,0.0,0.012087912087912087,0.39487179487179486
5.657555698999204,0.0,0.012087912087912087,0.39487179487179486
5.663813201001176,0.0,0.012087912087912087,0.39487179487179486
5.667663152999012,0.0,0.012087912087912087,0.39487179487179486
5.671444370000245,0.0,0.012087912087912087,0.39487179487179486
5.676211669000622,0.0,0.012087912087912087,0.39487179487179486
5.676351401001739,0.0,0.012087912087912087,0.39487179487179486
5.68368440300037,0.0,0.012087912087912087,0.39487179487179486
5.687743394999416,0.0,0.012087912087912087,0.39487179487179486
5.690801740998722,0.0,0.012087912087912087,0.39487179487179486
5.693379671000002,0.0,0.012087912087912087,0.39487179487179486
5.6990091879997635,0.0,0.012087912087912087,0.39487179487179486
5.6991116239987605,0.0,0.012087912087912087,0.39487179487179486
5.704523991000315,0.0,0.012087912087912087,0.39487179487179486
5.706078303999675,0.0,0.012087912087912087,0.39487179487179486
5.709934899001382,0.0,0.012087912087912087,0.39487179487179486
5.715289570998721,0.0,0.012087912087912087,0.39487179487179486
5.7168689140016795,0.0,0.012087912087912087,0.39487179487179486
5.721032187000674,0.0,0.012087912087912087,0.39487179487179486
5.723996677999821,0.0,0.012087912087912087,0.39487179487179486
5.726260978000937,0.0,0.012087912087912087,0.39487179487179486
5.727260658000887,0.0,0.012087912087912087,0.39487179487179486
5.727515010999923,0.0,0.012087912087912087,0.39487179487179486
5.737152955000056,0.0,0.012087912087912087,0.39487179487179486
5.743972763000784,0.0,0.012087912087912087,0.39487179487179486
5.752278007999848,0.0,0.004029304029304029,0.007252747252747252
5.756094317999668,0.0,0.004029304029304029,0.007252747252747252
5.761029895998945,0.0,0.004029304029304029,0.007252747252747252
5.765793675000168,0.0,0.004029304029304029,0.007252747252747252
5.770240279001882,0.0,0.004029304029304029,0.007252747252747252
5.770492756000749,0.0,0.004029304029304029,0.007252747252747252
5.7759329000000434,0.0,0.004029304029304029,0.007252747252747252
5.777550094000617,0.0,0.004029304029304029,0.007252747252747252
5.783401668999431,0.0,0.004029304029304029,0.007252747252747252
5.787194904001808,0.0,0.004029304029304029,0.007252747252747252
5.791056076999666,0.0,0.004029304029304029,0.007252747252747252
5.797500540000328,0.0,0.0,2.5561904761904763
5.803279005998775,0.0,0.0,2.5561904761904763
5.811666491001233,0.0,0.0,0.0
5.817283514999872,0.0,0.0,0.0
5.8174528859999555,0.0,0.0,0.0
5.822987961000763,0.0,0.0,0.0
5.824512360999506,0.0,0.0,0.0
5.828579631001048,0.0,0.0,0.0
5.8345257619985205,0.0,0.0,0.0
5.838725206001982,0.0,0.0,0.0
5.840440632000536,0.0,0.0,0.0
5.842895597001188,0.0,0.0,0.0
5.84306854299939,0.0,0.0,0.0
5.850344632999622,0.0,0.0,0.0
5.8548349759985285,0.0,0.016923076923076923,0.09670329670329669
5.855070132001856,0.0,0.006446886446886447,2.5747252747252745
5.860309124000196,0.0,0.006446886446886447,2.5747252747252745
5.863933429001918,0.0,0.0008058608058608059,0.09670329670329669
5.870090607000748,0.0,0.0008058608058608059,0.09670329670329669
5.8756219259994396,0.0,0.005641025641025641,0.045128205128205125
5.875787323999248,0.0,0.005641025641025641,0.045128205128205125
5.8846814739990805,0.0,0.005641025641025641,0.045128205128205125
5.8893513240000175,0.0,0.005641025641025641,0.045128205128205125
5.889533664001647,0.0,0.008058608058608058,3.3
5.896186664002016,0.0,0.008058608058608058,3.3
5.902874939998583,0.0,0.008058608058608058,3.3
5.907157433000975,0.0,0.008058608058608058,3.3
5.90867900000012,0.0,0.008058608058608058,3.3
5.916351648000273,0.0,0.008058608058608058,3.3
5.920205997001176,0.0,0.008058608058608058,3.3
5.924924308001209,0.0,0.004029304029304029,0.13538461538461538
5.925049736000801,0.0,0.004029304029304029,0.13538461538461538
5.935311686000205,0.0,0.004029304029304029,0.13538461538461538
5.940260101000604,0.0,0.004029304029304029,0.13538461538461538
5.948202805000619,0.0,0.0,0.5632967032967032
5.952059175000613,0.0,0.0,0.5632967032967032
5.957799239000451,0.0,0.006446886446886447,2.5755311355311354
5.965559629999916,0.0,0.006446886446886447,2.5755311355311354
5.969579438999062,0.0,0.006446886446886447,2.5755311355311354
5.973370693998731,0.0,0.006446886446886447,2.5755311355311354
5.978725080000004,0.0,0.011282051282051281,2.5755311355311354
5.981680819000758,0.0,0.005641025641025641,2.1435897435897435
5.983026567999332,0.0,0.005641025641025641,2.1435897435897435
5.990883663998829,0.0,0.005641025641025641,2.1435897435897435
5.998453066000366,0.0,0.005641025641025641,2.1435897435897435
6.004015196998807,0.0,0.0024175824175824176,3.3
6.004144758000621,0.0,0.0032234432234432234,0.1249084249084249
6.013760968999122,0.0,0.0032234432234432234,0.1249084249084249
6.022172312001203,0.0,0.004835164835164835,0.0032234432234432234
6.026631077002094,0.0,0.029816849816849816,0.26754578754578756
6.026861720001762,0.0,0.029816849816849816,0.26754578754578756
6.036065929001779,0.0,0.029816849816849816,0.26754578754578756
6.04620438100028,0.0,0.0,2.573919413919414
6.053049579000799,0.0,0.0,2.573919413919414
6.05785246600135,0.0,0.0,2.573919413919414
6.065886131000298,0.0,0.005641025641025641,0.2111355311355311
6.068967317001807,0.0,0.005641025641025641,0.2111355311355311
6.071255383998505,0.0,0.005641025641025641,0.2111355311355311
6.071456288002082,0.0,0.005641025641025641,0.2111355311355311
6.076939757000218,0.0,0.005641025641025641,0.2111355311355311
6.078645966001204,0.0,0.005641025641025641,0.2111355311355311
6.08323601200027,0.0,0.005641025641025641,0.2111355311355311
6.087793796999904,0.0,0.0008058608058608059,0.0
6.087935539999307,0.0,0.0008058608058608059,0.0
6.0936586070019985,0.0,0.0008058608058608059,0.0
6.101678260998597,0.0,0.0,2.9905494505494503
6.107007335998787,0.0,0.0016117216117216117,0.6632234432234432
6.108889061000809,0.0,0.0016117216117216117,0.6632234432234432
6.112410325000383,0.0,0.0016117216117216117,0.6632234432234432
6.119926821000263,0.0,0.0016117216117216117,0.6632234432234432
6.124577321999823,0.0,0.0016117216117216117,0.6632234432234432
6.124741489998996,0.0,0.0016117216117216117,0.6632234432234432
6.132252906001668,0.0,0.0016117216117216117,0.6632234432234432
6.1367391900021175,0.0,0.0016117216117216117,0.6632234432234432
6.13699036899925,0.0,0.0016117216117216117,0.6632234432234432
6.141644641000312,0.0,0.0,0.6495238095238095
6.141831932000059,0.0,0.0016117216117216117,0.06769230769230769
6.147762058000808,0.0,0.0016117216117216117,0.06769230769230769
6.151775510999869,0.0,0.004835164835164835,0.010476190476190476
6.154841119001503,0.0,0.004835164835164835,0.010476190476190476
6.157230562999757,0.0,0.004835164835164835,0.010476190476190476
6.157339262001187,0.0,0.004835164835164835,0.010476190476190476
6.162864955000259,0.0,0.004835164835164835,0.010476190476190476
6.163121006000438,0.0,0.004835164835164835,0.010476190476190476
6.168765103000624,0.0,0.004835164835164835,0.010476190476190476
6.1688918370018655,0.0,0.004835164835164835,0.010476190476190476
6.174076860999776,0.0,0.0024175824175824176,2.573113553113553
6.17746932099908,0.0,0.0024175824175824176,2.573113553113553
6.1777290150021145,0.0,0.0024175824175824176,2.573113553113553
6.183253881001292,0.0,0.0024175824175824176,2.573113553113553
6.1842694980005035,0.0,0.0024175824175824176,2.573113553113553
6.185076571000536,0.0,0.0024175824175824176,2.573113553113553
6.18661071599854,0.0,0.0024175824175824176,2.573113553113553
6.190521263000846,0.0,0.0024175824175824176,2.573113553113553
6.195123065001098,0.0,0.0024175824175824176,2.573113553113553
6.1954024719998415,0.0,0.0024175824175824176,2.573113553113553
6.20098185399911,0.0,0.0024175824175824176,2.573113553113553
6.201205366000067,0.0,0.0024175824175824176,2.573113553113553
6.206958541999484,0.0,0.0024175824175824176,2.573113553113553
6.207186452000315,0.0,0.07575091575091575,0.00967032967032967
6.21403630200075,0.0,0.07575091575091575,0.00967032967032967
6.21927368300021,0.0,0.07575091575091575,0.00967032967032967
6.220716241001355,0.0,0.07575091575091575,0.00967032967032967
6.229660815999523,0.0,0.0,0.12813186813186814
6.238599202999467,0.0,0.0,0.12813186813186814
6.246325351999985,0.0,0.0032234432234432234,2.5150915750915748
6.2529098380000505,0.0,0.0024175824175824176,0.01531135531135531
6.2593069190006645,0.0,0.0024175824175824176,0.01531135531135531
6.2641218509998,0.0,0.0024175824175824176,0.01531135531135531
6.268649051999091,0.0,0.022564102564102562,0.0
6.268794716001139,0.0,0.022564102564102562,0.0
6.274399854999501,0.0,0.022564102564102562,0.0
6.2745680779989925,0.0,0.007252747252747252,3.2169963369963366
6.2800104070011,0.0,0.007252747252747252,3.2169963369963366
6.28153864900014,0.0,0.00967032967032967,0.10315018315018315
6.285348828001588,0.0,0.00967032967032967,0.10315018315018315
6.291061946001719,0.0,0.00967032967032967,0.10315018315018315
6.291159872998833,0.0,0.00967032967032967,0.10315018315018315
6.296647634000692,0.0,0.00967032967032967,0.10315018315018315
6.298649706001015,0.0,0.00967032967032967,0.10315018315018315
6.298986459001753,0.0,0.00967032967032967,0.10315018315018315
6.305955861000257,0.0,0.0024175824175824176,0.2079120879120879
6.309821466998983,0.0,0.0024175824175824176,0.2079120879120879
6.315397522001149,0.0,0.0024175824175824176,0.2079120879120879
6.315662908000377,0.0,0.0024175824175824176,0.2079120879120879
6.3231894109994755,0.0,0.0024175824175824176,0.2079120879120879
6.33078524099983,0.0,0.0024175824175824176,0.2079120879120879
6.337032632000046,0.0,0.004835164835164835,0.0
6.3427528950014676,0.0,0.004835164835164835,0.0
6.349843879001128,0.0,0.004835164835164835,0.0
6.355698876999668,0.0,0.004835164835164835,0.0
6.3597979490004946,0.0,0.004835164835164835,0.0
6.362111263999395,0.0,0.004835164835164835,0.0
6.3622433400014415,0.0,0.004835164835164835,0.0
6.368023315000755,0.0,0.004835164835164835,0.0
6.37443998299932,0.0,0.004835164835164835,0.0
6.379248037999787,0.0,0.004835164835164835,0.0
6.3876442490000045,0.0,0.004835164835164835,0.0
6.394581403001212,0.0,0.004835164835164835,0.0
6.398392273000354,0.0,0.004835164835164835,0.0
6.403098727001634,0.0,0.004835164835164835,0.0
6.409360473000561,0.0,0.004835164835164835,0.0
6.415285530998517,0.0,0.004835164835164835,0.0
6.421505295998941,0.0,0.004835164835164835,0.0
6.42722420300197,0.0,0.004835164835164835,0.0
6.434173718000238,0.0,0.004835164835164835,0.0
6.439582579001581,0.0,0.012087912087912087,0.03626373626373627
6.441872219998913,0.0,0.012087912087912087,0.03626373626373627
6.442069388998789,0.0,0.012087912087912087,0.03626373626373627
6.450861794000957,0.0,0.012087912087912087,0.03626373626373627
6.459713852000277,0.0,0.0,0.08542124542124542
6.468720214001223,0.0,0.0,0.08542124542124542
6.475433135001367,0.0,0.0,0.08542124542124542
6.480108493000444,0.0,0.0,0.08542124542124542
6.480350832000113,0.0,0.0,0.08542124542124542
6.485703703001491,0.0,0.004029304029304029,0.04673992673992674
6.4873030630005815,0.0,0.004029304029304029,0.04673992673992674
6.491321657998924,0.0,0.004029304029304029,0.04673992673992674
6.493653366000217,0.0,0.0024175824175824176,2.5723076923076924
6.493818208000448,0.0,0.4391941391941392,2.5755311355311354
6.49921367099887,0.0,0.4391941391941392,2.5755311355311354
6.50169611399906,0.0,0.0,2.9188278388278386
6.5063114750009845,0.0,0.0,2.9188278388278386
6.507157814001403,0.0,0.0032234432234432234,0.02336996336996337
6.50868101100059,0.0,0.0032234432234432234,0.02336996336996337
6.513126587000443,0.0,0.0032234432234432234,0.02336996336996337
6.514016354001797,0.0,0.0032234432234432234,0.02336996336996337
6.515574783999909,0.0,0.0032234432234432234,0.02336996336996337
6.5201696080002876,0.0,0.0032234432234432234,0.02336996336996337
6.520356728000479,0.0,0.012893772893772894,0.8799999999999999
6.525791234998906,0.0,0.012893772893772894,0.8799999999999999
6.526765974002046,0.0,0.012893772893772894,0.8799999999999999
6.527597418000369,0.0,0.012893772893772894,0.8799999999999999
6.52924416300084,0.0,0.012893772893772894,0.8799999999999999
6.5331228930008365,0.0,0.0016117216117216117,2.5747252747252745
6.537222861999908,0.0,0.0,2.573113553113553
6.539589862000867,0.0,0.0,2.573113553113553
6.539733236000757,0.0,0.0,2.573113553113553
6.545290496000234,0.0,0.0,2.573113553113553
6.54681924200122,0.0,0.0032234432234432234,0.0419047619047619
6.550593537001987,0.0,0.0032234432234432234,0.0419047619047619
6.555116756000643,0.0,0.0032234432234432234,0.0419047619047619
6.555390673001966,0.0,0.0032234432234432234,0.0419047619047619
6.560763958001189,0.0,0.0032234432234432234,0.0419047619047619
6.5623115910020715,0.0,0.0032234432234432234,0.0419047619047619
6.566072812998755,0.0,0.0032234432234432234,0.0419047619047619
6.569872585001576,0.0,0.0032234432234432234,0.0419047619047619
6.573678954999195,0.0,0.0032234432234432234,0.0419047619047619
6.57762660699882,0.0,0.047545787545787546,2.5747252747252745
6.580667875001382,0.0,0.047545787545787546,2.5747252747252745
6.583089779000147,0.0,0.047545787545787546,2.5747252747252745
6.583220505999634,0.0,0.047545787545787546,2.5747252747252745
6.588795386000129,0.0,0.047545787545787546,2.5747252747252745
6.589046381999651,0.0,0.047545787545787546,2.5747252747252745
6.5946025810007995,0.0,0.047545787545787546,2.5747252747252745
6.595587355001044,0.0,0.047545787545787546,2.5747252747252745
6.595885964001354,0.0,0.047545787545787546,2.5747252747252745
6.60149875299976,0.0,0.047545787545787546,2.5747252747252745
6.602515441998548,0.0,0.004029304029304029,0.033846153846153845
6.603392372999224,0.0,0.004029304029304029,0.033846153846153845
6.605020931001491,0.0,0.004029304029304029,0.033846153846153845
6.6089962309997645,0.0,0.004029304029304029,0.033846153846153845
6.613262120001309,0.0,0.004029304029304029,0.033846153846153845
6.614856938998855,0.0,0.004029304029304029,0.033846153846153845
6.618801098000404,0.0,0.00967032967032967,2.553772893772894
6.622520017001079,0.0,0.004835164835164835,0.5842490842490843
6.627034001001448,0.0,0.008864468864468863,0.07816849816849816
6.627829909000866,0.0,0.005641025641025641,0.012893772893772894
6.630070320999948,0.0,0.005641025641025641,0.012893772893772894
6.6302536059993145,0.0,0.005641025641025641,0.012893772893772894
6.635700945000281,0.0,0.005641025641025641,0.012893772893772894
6.637313291001192,0.0,0.004029304029304029,2.573919413919414
6.640358971999376,0.0,0.004029304029304029,2.573919413919414
6.642655980998825,0.0,0.004029304029304029,2.573919413919414
6.642818696000177,0.0,0.004029304029304029,2.573919413919414
6.648381753999274,0.0,0.004029304029304029,2.573919413919414
6.648692883998592,0.0,0.004029304029304029,2.573919413919414
6.653454055998736,0.0,0.004029304029304029,2.573919413919414
6.658821064000222,0.0,0.006446886446886447,2.5747252747252745
6.660460997998598,0.0,0.006446886446886447,2.5747252747252745
6.664469348001148,0.0,0.006446886446886447,2.5747252747252745
6.667631452000933,0.0,0.006446886446886447,2.5747252747252745
6.669191889999638,0.0,0.006446886446886447,2.5747252747252745
6.672950526000932,0.0,0.006446886446886447,2.5747252747252745
6.678340684000432,0.0,0.007252747252747252,2.573919413919414
6.680723853001837,0.0,0.007252747252747252,2.573919413919414
6.680830664001405,0.0,0.007252747252747252,2.573919413919414
6.6862271889986005,0.0,0.007252747252747252,2.573919413919414
6.687822805000906,0.0,0.007252747252747252,2.573919413919414
6.6917789399994945,0.0,0.007252747252747252,2.573919413919414
6.695576277001237,0.0,0.007252747252747252,2.573919413919414
6.7002185880010074,0.0,0.007252747252747252,2.573919413919414
6.705920470001729,0.0,0.007252747252747252,2.573919413919414
6.706232343000011,0.0,0.007252747252747252,2.573919413919414
6.711033515999588,0.0,0.007252747252747252,2.573919413919414
6.716297109000152,0.0,0.007252747252747252,2.573919413919414
6.719996711999556,0.0,0.0,0.5560439560439561
6.724541452000267,0.0,0.0,0.5560439560439561
6.72485267799857,0.0,0.0,0.5560439560439561
6.73022073500033,0.0,0.0,0.5560439560439561
6.733433530000184,0.0,0.0,0.025787545787545788
6.734324266999465,0.0,0.0,2.573919413919414
6.73656017599933,0.0,0.0,3.3
6.736811099999613,0.0,0.0,3.3
6.742007965000084,0.0,0.0,3.3
6.74511794800128,0.0,0.0,3.3
6.746653824000532,0.0,0.0008058608058608059,0.024175824175824173
6.751128881001932,0.0,0.0008058608058608059,0.024175824175824173
6.751937963999808,0.0,0.0008058608058608059,0.024175824175824173
6.753516767999827,0.0,0.005641025641025641,2.5763369963369964
6.757967108998855,0.0,0.005641025641025641,2.5763369963369964
6.758786436999799,0.0,0.005641025641025641,2.5763369963369964
6.761213942001632,0.0,0.005641025641025641,2.5763369963369964
6.761350112999935,0.0,0.005641025641025641,2.5763369963369964
6.766806386000098,0.0,0.005641025641025641,2.5763369963369964
6.767631509999774,0.0,0.005641025641025641,2.5763369963369964
6.7691788420015655,0.0,0.005641025641025641,2.5763369963369964
6.773620570002095,0.0,0.005641025641025641,2.5763369963369964
6.773856607000198,0.0,0.0,2.561831501831502
6.779052940000838,0.0,0.012893772893772894,2.540879120879121
6.782047528999101,0.0,0.006446886446886447,0.7607326007326007
6.784314262000407,0.0,0.004835164835164835,0.008058608058608058
6.784568606999528,0.0,0.004835164835164835,0.008058608058608058
6.7897921959993255,0.0,0.004835164835164835,0.008058608058608058
6.792790865001734,0.0,0.004835164835164835,0.008058608058608058
6.795242676998896,0.0,0.0,2.5787545787545785
6.800686515001871,0.0,0.0,2.5787545787545785
6.8024119660003635,0.0,0.0,2.5787545787545785
6.806263922000653,0.0,0.0,2.5787545787545785
6.810954740998568,0.0,0.0,2.5787545787545785
6.811070683001162,0.0,0.0008058608058608059,1.4650549450549448
6.816560115999891,0.0,0.0008058608058608059,1.4650549450549448
6.81738974900145,0.0,0.004835164835164835,1.1483516483516483
6.818960005999543,0.0,0.004835164835164835,1.1483516483516483
6.823700975000975,0.0,0.0016117216117216117,0.14344322344322344
6.823800842001219,0.0,0.0016117216117216117,0.14344322344322344
6.829368047001481,0.0,0.0016117216117216117,0.14344322344322344
6.8310018709998985,0.0,0.0016117216117216117,0.14344322344322344
6.834822893000819,0.0,0.033846153846153845,2.573113553113553
6.83882492200064,0.0,0.033846153846153845,2.573113553113553
6.84262695399957,0.0,0.0008058608058608059,0.10556776556776555
6.847213005999947,0.0,0.008058608058608058,0.08864468864468865
6.8473972659994615,0.0,0.008058608058608058,0.012893772893772894
6.852698367998528,0.0,0.008058608058608058,0.012893772893772894
6.855673125999601,0.0,0.008058608058608058,0.012893772893772894
6.8578219519986305,0.0,0.008058608058608058,0.012893772893772894
6.858632120001857,0.0,0.008058608058608058,0.012893772893772894
6.860863439000241,0.0,0.008058608058608058,0.012893772893772894
6.861599044001196,0.0,0.008058608058608058,0.012893772893772894
6.8631212399996,0.0,0.008058608058608058,0.012893772893772894
6.867286395001429,0.0,0.008058608058608058,0.012893772893772894
6.869365482998546,0.0,0.008058608058608058,0.008864468864468863
6.871517649000452,0.0,0.008058608058608058,0.008864468864468863
6.872321172999364,0.0,0.0,2.5763369963369964
6.874433035001857,0.0,0.0,2.5763369963369964
6.875275629001408,0.0,0.0,2.5763369963369964
6.877386101001321,0.0,0.0,2.5763369963369964
6.87816972300061,0.0,0.0,2.5763369963369964
6.879764853001689,0.0,0.0,2.5763369963369964
6.883895404000214,0.0,0.0,2.5763369963369964
6.886048598000343,0.0,0.0016117216117216117,0.029816849816849816
6.887452621998818,0.0,0.0016117216117216117,0.029816849816849816
6.892308512000454,0.0,0.004029304029304029,0.03142857142857143
6.8970701250000275,0.0,0.0016117216117216117,3.3
6.897218206999241,0.0,0.012893772893772894,2.744761904761905
6.902313695001794,0.0,0.012893772893772894,2.744761904761905
6.905767890999414,0.0,0.012893772893772894,2.744761904761905
6.905958662999183,0.0,0.012893772893772894,2.744761904761905
6.9107834870010265,0.0,0.012893772893772894,2.744761904761905
6.910899722999602,0.0,0.012893772893772894,2.744761904761905
6.9158797029995185,0.0,0.010476190476190476,2.573919413919414
6.92013521500121,0.0,0.010476190476190476,2.573919413919414
6.92168370500076,0.0,0.004029304029304029,0.17245421245421244
6.925936302999617,0.0,0.004029304029304029,0.17245421245421244
6.928064337000251,0.0,0.004029304029304029,0.17245421245421244
6.928839184001845,0.0,0.004029304029304029,0.17245421245421244
6.930939464000403,0.0,0.004029304029304029,0.17245421245421244
6.931722720000835,0.0,0.004029304029304029,0.17245421245421244
6.9338379350010655,0.0,0.004029304029304029,0.17245421245421244
6.935339075000229,0.0,0.004029304029304029,0.17245421245421244
6.939816319998499,0.0,0.004029304029304029,0.17245421245421244
6.941247161001229,0.0,0.004029304029304029,0.17245421245421244
6.94613823599866,0.0,0.012893772893772894,0.005641025641025641
6.951085535998573,0.0,0.012893772893772894,0.005641025641025641
6.9560345230020175,0.0,0.012893772893772894,0.005641025641025641
6.960019595000631,0.0,0.012893772893772894,0.005641025641025641
6.96389986199938,0.0,0.0024175824175824176,0.0821978021978022
6.96762437399957,0.0,0.0024175824175824176,0.0821978021978022
6.972141515001567,0.0,0.0024175824175824176,0.0821978021978022
6.972402538001916,0.0,0.0032234432234432234,2.5747252747252745
6.977751204001834,0.0,0.0032234432234432234,2.5747252747252745
6.979985369998758,0.0,0.0032234432234432234,2.5747252747252745
6.980184812000516,0.0,0.0032234432234432234,2.5747252747252745
6.985462579999876,0.0,0.0032234432234432234,2.5747252747252745
6.98806379799862,0.0,0.0,0.01934065934065934
6.9920272050003405,0.0,0.0,3.3
6.9956749320008385,0.0,0.0,3.3
7.0009151630001725,0.0,0.0,3.3
7.003485481000098,0.0,0.0,3.3
7.008942716001911,0.0,0.0,3.3
7.010470606001036,0.0,0.0,0.022564102564102562
7.015005220000603,0.0,0.0,0.022564102564102562
7.0151971640007105,0.0,0.0,0.022564102564102562
7.021005922000768,0.0,0.0,0.022564102564102562
7.02109478499915,0.0,0.0,0.022564102564102562
7.026571366001008,0.0,0.0,0.022564102564102562
7.026784325000335,0.0,0.0,0.0
7.031849400998908,0.0,0.0,0.0
7.034918620000099,0.0,0.0,0.0
7.0372441340005025,0.0,0.0,0.0
7.037407611001981,0.0,0.008864468864468863,0.4182417582417582
7.0430102969985455,0.0,0.008864468864468863,0.4182417582417582
7.043213401000685,0.0,0.008864468864468863,0.4182417582417582
7.0487620220010285,0.0,0.008864468864468863,0.4182417582417582
7.049055452000175,0.0,0.020146520146520144,0.010476190476190476
7.054782184000942,0.0,0.020146520146520144,0.010476190476190476
7.054928245001065,0.0,0.020146520146520144,0.010476190476190476
7.0600845939989085,0.0,0.020146520146520144,0.010476190476190476
7.064161328999035,0.0,0.004029304029304029,0.13538461538461538
7.067134695000277,0.0,0.004029304029304029,0.0136996336996337
7.069444037999347,0.0,0.004029304029304029,0.0136996336996337
7.069583501001034,0.0,0.004029304029304029,0.0136996336996337
7.075045714998851,0.0,0.004029304029304029,0.0136996336996337
7.075925902001472,0.0,0.0008058608058608059,2.6488644688644687
7.077437313000701,0.0,0.0008058608058608059,2.6488644688644687
7.081922306999331,0.0,0.0008058608058608059,2.6488644688644687
7.083518722000008,0.0,0.0,0.0
7.087305475000903,0.0,0.0,0.0
7.092675800999132,0.0,0.0,0.0
7.095028695999645,0.0,0.0,0.0
7.095191745000193,0.0,0.0,0.0
7.100396081001236,0.0,0.0,0.0
7.102700775001722,0.0,0.0,0.0
7.102888666999206,0.0,0.0,0.0
7.108353611001803,0.0,0.0,0.0
7.1085843600012595,0.0,0.0,0.0
7.114083925000159,0.0,0.0,0.0
7.114830318001623,0.0,0.0,0.0
7.1169542979987455,0.0,0.0,0.0
7.117758357999264,0.0,0.0,0.0
7.1198822900005325,0.0,0.0,0.0
7.121323366998695,0.0,0.0,0.0
7.126222550999955,0.0,0.008864468864468863,0.06366300366300366
7.131698196000798,0.0,0.008864468864468863,0.06366300366300366
7.131890086999192,0.0,0.0024175824175824176,0.0
7.137415961999068,0.0,0.0024175824175824176,0.0
7.137582702001964,0.0,0.0024175824175824176,0.0
7.142801394998969,0.0,0.0024175824175824176,0.0
7.145130536999204,0.0,0.08864468864468865,0.0701098901098901
7.145267541000067,0.0,0.08864468864468865,0.0701098901098901
7.1505710359997465,0.0,0.08864468864468865,0.0701098901098901
7.152924567999435,0.0,0.08864468864468865,0.0701098901098901
7.153067720999388,0.0,0.08864468864468865,0.0701098901098901
7.158344475999911,0.0,0.08864468864468865,0.0701098901098901
7.160664782000822,0.0,0.08864468864468865,0.0701098901098901
7.160780322999926,0.0,0.08864468864468865,0.0701098901098901
7.16619180500129,0.0,0.08864468864468865,0.0701098901098901
7.167899373002001,0.0,0.08864468864468865,0.0701098901098901
7.17112057200211,0.0,0.006446886446886447,0.012893772893772894
7.172688581998955,0.0,0.008864468864468863,2.573113553113553
7.177134047000436,0.0,0.008864468864468863,2.573113553113553
7.1779603120012325,0.0,0.008864468864468863,2.573113553113553
7.1795315540002775,0.0,0.008864468864468863,2.573113553113553
7.184234653999738,0.0,0.008864468864468863,2.573113553113553
7.189562185001705,0.0,0.0024175824175824176,0.008058608058608058
7.191313072999037,0.0,0.025787545787545788,0.020146520146520144
7.195135549001861,0.0,0.025787545787545788,0.020146520146520144
7.199047097001312,0.0,0.025787545787545788,0.020146520146520144
7.202844103001553,0.0,0.025787545787545788,0.020146520146520144
7.208344761002081,0.0,0.025787545787545788,0.020146520146520144
7.210832075001235,0.0,0.025787545787545788,0.020146520146520144
7.216274999998859,0.0,0.025787545787545788,0.020146520146520144
7.218523898001877,0.0,0.025787545787545788,0.020146520146520144
7.218797919998906,0.0,0.025787545787545788,0.020146520146520144
7.224178165000922,0.0,0.025787545787545788,0.020146520146520144
7.225791641001706,0.0,0.0032234432234432234,0.011282051282051281
7.229526849001559,0.0,0.0032234432234432234,0.011282051282051281
7.234783268999308,0.0,0.0032234432234432234,0.011282051282051281
7.237363240001287,0.0,0.0,3.3
7.242085062000115,0.0,0.0,3.3
7.247679692001839,0.0,0.0,3.3
7.249343641000451,0.0,0.0,3.3
7.252445591999276,0.0,0.0,3.3
7.254056795998622,0.0,0.0,3.3
7.25793453499864,0.0,0.0,3.3
7.261728010998922,0.0,0.0,3.3
7.266422344000603,0.0,0.0032234432234432234,0.0693040293040293
7.266524713999388,0.0,0.0032234432234432234,0.0693040293040293
7.271910734998528,0.0,0.0032234432234432234,0.0693040293040293
7.2735703340003965,0.0,0.0032234432234432234,0.0693040293040293
7.277300615001877,0.0,0.0032234432234432234,0.0693040293040293
7.281870044000243,0.0,0.0032234432234432234,0.0693040293040293
7.281946858001902,0.0,0.0032234432234432234,0.0693040293040293
7.287386250998679,0.0,0.0032234432234432234,0.0693040293040293
7.288946099000896,0.0,0.0032234432234432234,0.0693040293040293
7.292710833000456,0.0,0.0032234432234432234,0.0693040293040293
7.297999892998632,0.0,0.0032234432234432234,0.0693040293040293
7.300272708998818,0.0,0.004835164835164835,1.1016117216117214
7.30049146500096,0.0,0.004835164835164835,1.1016117216117214
7.305815359999542,0.0,0.004835164835164835,1.1016117216117214
7.308334738001577,0.0,0.004835164835164835,1.1016117216117214
7.313238279999496,0.0,0.004835164835164835,1.1016117216117214
7.318043385999772,0.0,0.00967032967032967,3.3
7.3232269899999665,0.0,0.00967032967032967,3.3
7.3258570059988415,0.0,0.00967032967032967,3.3
7.331133384999703,0.0,0.00967032967032967,3.3
7.334340371999133,0.0,0.00967032967032967,3.3
7.335330441001133,0.0,0.00967032967032967,3.3
7.336348281001847,0.0,0.00967032967032967,3.3
7.3373556199985615,0.0,0.00967032967032967,3.3
7.338271675002034,0.0,0.00967032967032967,3.3
7.339259125001263,0.0,0.00967032967032967,3.3
7.340267480001785,0.0,0.00967032967032967,3.3
7.341224521998811,0.0,0.00967032967032967,3.3
7.342169138999452,0.0,0.00967032967032967,3.3
7.343072506999306,0.0,0.00967032967032967,3.3
7.344610441999976,0.0,0.00967032967032967,3.3
7.349472337999032,0.0,0.00967032967032967,3.3
7.354604800999368,0.0,0.00967032967032967,3.3
7.357792939001229,0.0,0.00967032967032967,2.797142857142857
7.359386762000213,0.0,0.00967032967032967,2.797142857142857
7.36399734600127,0.0,0.00967032967032967,2.797142857142857
7.364096045999759,0.0,0.025787545787545788,0.006446886446886447
7.369507366001926,0.0,0.025787545787545788,0.006446886446886447
7.371092868001142,0.0,0.025787545787545788,0.006446886446886447
7.374825812999916,0.0,0.025787545787545788,0.006446886446886447
7.380042934000812,0.0,0.025787545787545788,0.006446886446886447
7.382474884001567,0.0,0.0032234432234432234,0.10717948717948718
7.38267202499992,0.0,0.0032234432234432234,0.10717948717948718
7.388149612001143,0.0,0.0032234432234432234,0.10717948717948718
7.389713055999891,0.0,0.0032234432234432234,0.10717948717948718
7.393488800000341,0.0,0.0032234432234432234,0.10717948717948718
7.397861175999424,0.0,0.0032234432234432234,0.10717948717948718
7.398719070999505,0.0,0.0032234432234432234,0.10717948717948718
7.400298270000349,0.0,0.0032234432234432234,0.10717948717948718
7.404748052998912,0.0,0.0,0.0419047619047619
7.404999577000126,0.0,0.0,0.0419047619047619
7.410223258000769,0.0,0.0,0.0419047619047619
7.412673234000977,0.0,0.0,0.0419047619047619
7.412792727001943,0.0,0.0,0.0419047619047619
7.418338297000446,0.0,0.0,0.0419047619047619
7.419126704000519,0.0,0.0,1.2458608058608058
7.4206533239994314,0.0,0.0,1.2458608058608058
7.425036469001498,0.0,0.0,1.2458608058608058
7.4259060510012205,0.0,0.0,1.2458608058608058
7.427481673999864,0.0,0.0,1.2458608058608058
7.431836914998712,0.0,0.004835164835164835,0.008864468864468863
7.432625784000265,0.0,0.004835164835164835,2.5763369963369964
7.43485856299958,0.0,0.004835164835164835,2.5763369963369964
7.435010994999175,0.0,0.004835164835164835,2.5763369963369964
7.440589941001235,0.0,0.004835164835164835,2.5763369963369964
7.440815787998872,0.0,0.004835164835164835,2.5763369963369964
7.446406913000828,0.0,0.004835164835164835,2.5763369963369964
7.447327188001509,0.0,0.004835164835164835,2.5763369963369964
7.448837584001012,0.0,0.004835164835164835,2.5763369963369964
7.453563512000983,0.0,0.0016117216117216117,0.028205128205128206
7.453642409000167,0.0,0.0,2.5755311355311354
7.459108183000353,0.0,0.0,2.5755311355311354
7.459957866998593,0.0,0.0,2.5755311355311354
7.461565336001513,0.0,0.0,2.5755311355311354
7.465317103000416,0.0,0.0,2.5755311355311354
7.4704256810000516,0.0,0.0,2.5755311355311354
7.47368298299989,0.0,0.0,2.5755311355311354
7.474532847998489,0.0,0.0,2.5755311355311354
7.476776603001781,0.0,0.0,2.5755311355311354
7.476956761998736,0.0,0.0,2.5755311355311354
7.482443101001991,0.0,0.0,2.5755311355311354
7.484108114000264,0.0,0.0,2.5755311355311354
7.487968681998609,0.0,0.0,2.5755311355311354
7.49320238799919,0.0,0.0,2.5755311355311354
7.495667131999653,0.0,0.0024175824175824176,2.577948717948718
7.501109134998842,0.0,0.0024175824175824176,2.577948717948718
7.501925952001329,0.0,0.0,0.2063003663003663
7.504189824001514,0.0,0.0,0.2063003663003663
7.5044022600013705,0.0,0.0,0.2063003663003663
7.509827148998738,0.0,0.0,0.2063003663003663
7.5107049780017405,0.0,0.0,0.2063003663003663
7.512301850001677,0.0,0.0,0.2063003663003663
7.516942869999184,0.0,0.0,0.2063003663003663
7.517057084001863,0.0,0.0,0.2063003663003663
7.522688869001286,0.0,0.0,0.2063003663003663
7.522903893001057,0.0,0.0,0.2063003663003663
7.528223354001966,0.0,0.0,0.2063003663003663
7.531539186998998,0.0,0.0,0.2063003663003663
7.531824121000682,0.0,0.0,0.2063003663003663
7.537216913999146,0.0,0.0,0.2063003663003663
7.539822020000429,0.0,0.0,0.2063003663003663
7.544634539000981,0.0,0.0,0.2063003663003663
7.549315224001475,0.0,0.0,0.2063003663003663
7.549447956000222,0.0,0.0032234432234432234,0.0032234432234432234
7.5550063680020685,0.0,0.0032234432234432234,0.0032234432234432234
7.555827307001891,0.0,0.0032234432234432234,0.0032234432234432234
7.558115167001233,0.0,0.0032234432234432234,0.0032234432234432234
7.5581988699996145,0.0,0.0032234432234432234,0.0032234432234432234
7.5635662419990695,0.0,0.0016117216117216117,0.12974358974358974
7.566546602000017,0.0,0.0016117216117216117,0.0016117216117216117
7.568161383002007,0.0,0.0016117216117216117,0.0016117216117216117
7.572039904000121,0.0,0.0016117216117216117,0.0016117216117216117
7.575772815998789,0.0,0.0016117216117216117,0.0016117216117216117
7.580271972001356,0.0,0.0016117216117216117,0.0016117216117216117
7.581110851999256,0.0,0.0016117216117216117,0.0016117216117216117
7.5826340970015735,0.0,0.0016117216117216117,0.0016117216117216117
7.586433230000694,0.0,0.004029304029304029,0.0008058608058608059
7.59103107899864,0.0,0.00967032967032967,0.0
7.591255408999132,0.0,0.00967032967032967,0.0
7.596693412000604,0.0,0.00967032967032967,0.0
7.597562226001173,0.0,0.0,0.4126007326007326
7.5985061780011165,0.0,0.0,0.4126007326007326
7.600258862999908,0.0,0.0,0.4126007326007326
7.603473003000545,0.0,0.0024175824175824176,0.045128205128205125
7.604280341001868,0.0,0.0024175824175824176,0.045128205128205125
7.605847827999241,0.0,0.004835164835164835,0.0
7.610425432001648,0.0,0.004835164835164835,0.0
7.610578387000714,0.0,0.004835164835164835,0.0
7.61609045500154,0.0,0.006446886446886447,2.573919413919414
7.6177406669994525,0.0,0.0024175824175824176,0.9283516483516483
7.620947552000871,0.0,0.0024175824175824176,0.9283516483516483
7.623315262000688,0.0,0.0024175824175824176,0.9283516483516483
7.62346279600024,0.0,0.0024175824175824176,0.9283516483516483
7.6279687310016016,0.0,0.0024175824175824176,0.9283516483516483
7.6282406889986305,0.0,0.0024175824175824176,0.9283516483516483
7.633488329000102,0.0,0.0024175824175824176,0.9283516483516483
7.636595297000895,0.0,0.004835164835164835,2.5755311355311354
7.638210305998655,0.0,0.004835164835164835,2.5755311355311354
7.642018721999193,0.0,0.004835164835164835,2.5755311355311354
7.646542914000747,0.0,0.004835164835164835,2.5755311355311354
7.64680918600061,0.0,0.004835164835164835,2.5755311355311354
7.65138312199997,0.0,0.004835164835164835,2.5755311355311354
7.651607501000399,0.0,0.03868131868131868,2.573113553113553
7.657005223001761,0.0,0.03868131868131868,2.573113553113553
7.658510444998683,0.0,0.03868131868131868,2.573113553113553
7.662973356000293,0.0,0.03868131868131868,2.573113553113553
7.663252877999184,0.0,0.03868131868131868,2.573113553113553
7.668800024999655,0.0,0.03868131868131868,2.573113553113553
7.669658351998805,0.0,0.0,0.2095238095238095
7.671244596000179,0.0,0.0,0.2095238095238095
7.675709461000224,0.0,0.0,0.2095238095238095
7.676578059999883,0.0,0.0,0.2095238095238095
7.678815006998775,0.0,0.0,0.2095238095238095
7.679049524998845,0.0,0.0,0.2095238095238095
7.684487220001756,0.0,0.005641025641025641,0.048351648351648346
7.685455267001089,0.0,0.005641025641025641,0.048351648351648346
7.686314990998653,0.0,0.005641025641025641,0.048351648351648346
7.687944002998847,0.0,0.005641025641025641,0.048351648351648346
7.6918132020000485,0.0,0.005641025641025641,0.048351648351648346
7.6956439899986435,0.0,0.005641025641025641,0.048351648351648346
7.699522228002024,0.0,0.005641025641025641,0.048351648351648346
7.703640595002071,0.0,0.00967032967032967,0.3739194139194139
7.706591156002105,0.0,0.00967032967032967,0.3739194139194139
7.708361953998974,0.0,0.00967032967032967,0.3739194139194139
7.71166035799979,0.0,0.00967032967032967,0.3739194139194139
7.711935102001007,0.0,0.00967032967032967,0.3739194139194139
7.7168835410011525,0.0,0.00967032967032967,0.3739194139194139
7.722094246000779,0.0,0.00967032967032967,0.3739194139194139
7.724288923000131,0.0,0.0,0.029816849816849816
7.72454109300088,0.0,0.0,0.029816849816849816
7.729692609998892,0.0,0.0,0.029816849816849816
7.733170920000703,0.0,0.0,0.029816849816849816
7.733495878001122,0.0,0.0,0.029816849816849816
7.7385673169992515,0.0,0.0,0.029816849816849816
7.742444991999946,0.0,0.014505494505494505,0.6076190476190476
7.746480835001421,0.0,0.014505494505494505,0.6076190476190476
7.750624085001618,0.0,0.014505494505494505,0.6076190476190476
7.753215578999516,0.0,0.014505494505494505,0.6076190476190476
7.75817379900036,0.0,0.014505494505494505,0.6076190476190476
7.761710665999999,0.0,0.014505494505494505,0.6076190476190476
7.761852381001518,0.0,0.014505494505494505,0.6076190476190476
7.766689108000719,0.0,0.014505494505494505,0.6076190476190476
7.766850702999363,0.0,0.014505494505494505,0.6076190476190476
7.771630196999467,0.0,0.014505494505494505,0.6076190476190476
7.776574527000776,0.0,0.014505494505494505,0.6076190476190476
7.781364812999527,0.0,0.014505494505494505,0.6076190476190476
7.781501731999015,0.0,0.045128205128205125,0.007252747252747252
7.78637964399968,0.0,0.045128205128205125,0.007252747252747252
7.791234988999349,0.0,0.012087912087912087,0.0
7.79616354099926,0.0,0.012087912087912087,0.0
7.801131257001543,0.0,0.012087912087912087,0.0
7.80606366199936,0.0,0.004029304029304029,0.026593406593406595
7.8100837230012985,0.0,0.0,0.03545787545787545
7.812528908998502,0.0,0.0,0.03545787545787545
7.812678467998921,0.0,0.0,0.03545787545787545
7.8184043879991805,0.0,0.0,0.03545787545787545
7.818468808000034,0.0,0.0,0.03545787545787545
7.824198610000167,0.0,0.0,0.03545787545787545
7.824258319000364,0.0,0.0,0.03545787545787545
7.829067900001974,0.0,0.0,0.03545787545787545
7.8292130310001085,0.0,0.0,0.03545787545787545
7.8342402080015745,0.0,0.0,0.03545787545787545
7.838984301000892,0.0,0.0,0.03545787545787545
7.844007753999904,0.0,0.0,0.03545787545787545
7.847276279000653,0.0,0.0024175824175824176,0.0
7.848782698998548,0.0,0.0008058608058608059,0.0016117216117216117
7.852493526999751,0.0,0.0008058608058608059,0.0016117216117216117
7.858783053001389,0.0,0.0024175824175824176,2.5279853479853482
7.862852605001535,0.0,0.0024175824175824176,2.5279853479853482
7.865989502999582,0.0,0.0024175824175824176,2.5279853479853482
7.867705386001035,0.0,0.0024175824175824176,2.5279853479853482
7.870997525998973,0.0,0.0024175824175824176,2.5279853479853482
7.871916329000669,0.0,0.008058608058608058,2.5763369963369964
7.872834761001286,0.0,0.008058608058608058,2.5763369963369964
7.874588423001114,0.0,0.008058608058608058,2.5763369963369964
7.877685649000341,0.0,0.008058608058608058,2.5763369963369964
7.880146935000084,0.0,0.008058608058608058,2.5763369963369964
7.880233345000306,0.0,0.008058608058608058,2.5763369963369964
7.886102247000963,0.0,0.008058608058608058,2.5763369963369964
7.886195684000995,0.0,0.008058608058608058,2.5763369963369964
7.892131775999587,0.0,0.0032234432234432234,0.0024175824175824176
7.897242979001021,0.0,0.0032234432234432234,0.0024175824175824176
7.900067859998671,0.0,0.0032234432234432234,0.0024175824175824176
7.903500528998848,0.0,0.0032234432234432234,0.0024175824175824176
7.903630329001317,0.0,0.0032234432234432234,0.0024175824175824176
