time,emg1,emg2,emg3
0.026015046998509206,0.0,0.004835164835164835,0.0
0.04320510399702471,0.0,0.004835164835164835,0.0
0.04339797099964926,0.0,0.004835164835164835,0.0
0.05230062500049826,0.0,0.004835164835164835,0.0
0.05842548500004341,0.0,0.0008058608058608059,2.963150183150183
0.06285156999729224,0.0,0.06124542124542124,0.09025641025641025
0.06295953999870108,0.0,0.006446886446886447,0.0
0.06927518299926305,0.0,0.006446886446886447,0.0
0.07269793399973423,0.0,0.006446886446886447,0.0
0.07295104399963748,0.0,0.0008058608058608059,0.1958241758241758
0.07810144299946842,0.0,0.0008058608058608059,0.1958241758241758
0.08146389399917098,0.0,0.008058608058608058,0.0
0.08155534300021827,0.0,0.0,0.0
0.08759501999884378,0.0,0.0,0.0
0.09098692599945934,0.0,0.004835164835164835,0.0
0.09129072900032043,0.0,0.004835164835164835,0.0
0.09740861200043582,0.0,0.004835164835164835,0.0
0.10146316999816918,0.0,0.004835164835164835,0.0
0.10396460199990543,0.0,0.004835164835164835,0.0
0.10944432099859114,0.0,0.004835164835164835,0.0
0.11028869899746496,0.0,0.004835164835164835,0.0
0.11195740499897511,0.0,0.004835164835164835,0.0
0.11579457499829005,0.0,0.004835164835164835,0.0
0.12026373299886473,0.0,0.004835164835164835,0.0
0.12043335599810234,0.0,0.0,0.0
0.1257289610002772,0.0,0.0,0.0
0.12795399399692542,0.0,0.0,0.0
0.12812258399935672,0.0,0.0,0.0
0.13325472799988347,0.0,0.0,0.0
0.13695563500004937,0.0,0.004835164835164835,0.12732600732600732
0.142192557999806,0.0,0.004835164835164835,0.12732600732600732
0.14536107499952777,0.0,0.004835164835164835,0.12732600732600732
0.14626580299955094,0.0,0.004835164835164835,0.12732600732600732
0.14817886599848862,0.0,0.004835164835164835,0.12732600732600732
0.1525562919996446,0.0,0.004835164835164835,0.12732600732600732
0.16457889099910972,0.0,0.004835164835164835,0.12732600732600732
0.17420671599757043,0.0,0.004835164835164835,0.12732600732600732
0.18250909699781914,0.0,0.004835164835164835,0.12732600732600732
0.18989571899874136,0.0,0.0,0.007252747252747252
0.19420613599868375,0.0,0.00967032967032967,0.004029304029304029
0.19505547099834075,0.0,0.0136996336996337,0.0016117216117216117
0.19661756300047273,0.0,0.0136996336996337,0.0016117216117216117
0.20075742199696833,0.0,0.0136996336996337,0.0016117216117216117
0.20370822699987912,0.0,0.0136996336996337,0.0016117216117216117
0.2059670089984138,0.0,0.0136996336996337,0.0016117216117216117
0.20616044599955785,0.0,0.01531135531135531,0.014505494505494505
0.21137229899977683,0.0,0.01531135531135531,0.014505494505494505
0.21470822899937048,0.0,0.004029304029304029,0.022564102564102562
0.2148973389994353,0.0,0.004029304029304029,0.022564102564102562
0.22037092699974892,0.0,0.004029304029304029,0.022564102564102562
0.2218784679971577,0.0,0.004029304029304029,0.022564102564102562
0.22770467699956498,0.0,0.004029304029304029,0.022564102564102562
0.23437031299908995,0.0,0.004029304029304029,0.022564102564102562
0.24045207299786853,0.0,0.004029304029304029,0.022564102564102562
0.24709033299950534,0.0,0.004029304029304029,0.022564102564102562
0.25310688899844536,0.0,0.0008058608058608059,0.0136996336996337
0.25654487700012396,0.0,0.0008058608058608059,0.0136996336996337
0.2621244609981659,0.0,0.0008058608058608059,0.0136996336996337
0.2622763529980148,0.0,0.006446886446886447,0.0
0.2684745429978648,0.0,0.006446886446886447,0.0
0.27218266499767196,0.0,0.006446886446886447,0.0
0.27230814900030964,0.0,0.006446886446886447,0.0
0.27762066799914464,0.0,0.006446886446886447,0.0
0.28119023899853346,0.0,0.0,0.0
0.2868286299999454,0.0,0.0,0.0
0.2869892679991608,0.0,0.0,0.0
0.2924761599970225,0.0,0.0,0.0
0.2927757349971216,0.0,0.0,0.0
0.2991867309974623,0.0,0.0,0.0
0.30257220400017104,0.0,0.0,0.0
0.30284320799910347,0.0,0.0,0.0
0.3080334749975009,0.0,0.0,0.0
0.31094372299776296,0.0,0.011282051282051281,0.02336996336996337
0.31564029499713797,0.0,0.011282051282051281,0.02336996336996337
0.32237886499933666,0.0,0.0,0.0
0.3265391599998111,0.0,0.0016117216117216117,0.005641025641025641
0.32937223499902757,0.0,0.0016117216117216117,0.005641025641025641
0.3324230340003851,0.0,0.0016117216117216117,0.005641025641025641
0.334245326997916,0.0,0.0016117216117216117,0.005641025641025641
0.3367575209995266,0.0,0.0016117216117216117,0.005641025641025641
0.3422531459982565,0.0,0.0016117216117216117,0.005641025641025641
0.3430958999997529,0.0,0.0016117216117216117,0.005641025641025641
0.34581063599762274,0.0,0.0016117216117216117,0.005641025641025641
0.35071242800040636,0.0,0.0016117216117216117,0.005641025641025641
0.35537281399956555,0.0,0.0016117216117216117,0.005641025641025641
0.35997068699725787,0.0,0.0016117216117216117,0.005641025641025641
0.36978083699796116,0.0,0.0,0.0
0.3789394949999405,0.0,0.0,0.0
0.38678086399886524,0.0,0.0,0.0
0.39136327599771903,0.0,0.004835164835164835,0.006446886446886447
0.3915675289972569,0.0,0.006446886446886447,0.0
0.39778202699744725,0.0,0.006446886446886447,0.0
0.4014812770001299,0.0,0.006446886446886447,0.0
0.4063589539982786,0.0,0.006446886446886447,0.0
0.4110048149996146,0.0,0.006446886446886447,0.0
0.4111316729977261,0.0,0.006446886446886447,0.0
0.4197354079988145,0.0,0.006446886446886447,0.0
0.4253500839986373,0.0,0.006446886446886447,0.0
0.4268928329984192,0.0,0.006446886446886447,0.0
0.4331884989987884,0.0,0.006446886446886447,0.0
0.43811438599732355,0.0,0.004835164835164835,0.007252747252747252
0.4411528999989969,0.0,0.004835164835164835,0.007252747252747252
0.44363369699931354,0.0,0.004835164835164835,0.007252747252747252
0.45196346399825416,0.0,0.0,0.03948717948717949
0.4565246179990936,0.0,0.0,0.03948717948717949
0.45673900099791354,0.0,0.008864468864468863,0.01934065934065934
0.46237943999949493,0.0,0.008864468864468863,0.01934065934065934
0.4627228249992186,0.0,0.011282051282051281,0.006446886446886447
0.46903628799918806,0.0,0.011282051282051281,0.006446886446886447
0.47313813399887295,0.0,0.0008058608058608059,0.763956043956044
0.47618153499934124,0.0,0.0008058608058608059,0.763956043956044
0.4779176039992308,0.0,0.0008058608058608059,0.763956043956044
0.486033948000113,0.0,0.0008058608058608059,0.763956043956044
0.49027857599867275,0.0,0.0008058608058608059,0.763956043956044
0.49442383799760137,0.0,0.0008058608058608059,0.763956043956044
0.4946109609991254,0.0,0.0008058608058608059,0.763956043956044
0.5020838789969275,0.0,0.0008058608058608059,0.763956043956044
0.506771000000299,0.0,0.0008058608058608059,0.763956043956044
0.5068871909970767,0.0,0.0008058608058608059,0.763956043956044
0.5128433629979554,0.0,0.0008058608058608059,0.763956043956044
0.5196852949993627,0.0,0.0008058608058608059,0.763956043956044
0.5242227710004954,0.0,0.0008058608058608059,0.763956043956044
0.5244178359971556,0.0,0.0008058608058608059,0.763956043956044
0.5327823929983424,0.0,0.0008058608058608059,0.763956043956044
0.5370355550003296,0.0,0.0,0.018534798534798533
0.5386627449988737,0.0,0.0,0.018534798534798533
0.5424618420001934,0.0,0.0,0.018534798534798533
0.5473222849977901,0.0,0.0,0.018534798534798533
0.5519006399990758,0.0,0.0,0.018534798534798533
0.5572838709995267,0.0,0.004029304029304029,0.004029304029304029
0.5596099549984501,0.0,0.004029304029304029,0.004029304029304029
0.5597780759999296,0.0,0.004029304029304029,0.004029304029304029
0.5671448599969153,0.0,0.004029304029304029,0.004029304029304029
0.5710426579971681,0.0,0.004029304029304029,0.004029304029304029
0.5754584429996612,0.0,0.004029304029304029,0.004029304029304029
0.575807437999174,0.0,0.004029304029304029,0.004029304029304029
0.5838436220001313,0.0,0.004029304029304029,0.004029304029304029
0.5876944049996382,0.0,0.006446886446886447,0.0
0.5932740999996895,0.0,0.006446886446886447,0.0
0.593440232998546,0.0,0.006446886446886447,0.0
0.6011026159976609,0.0,0.006446886446886447,0.0
0.6049317129982228,0.0,0.006446886446886447,0.0
0.6086208309970971,0.0,0.006446886446886447,0.0
0.6158257789975323,0.0,0.006446886446886447,0.0
0.620037228000001,0.0,0.006446886446886447,0.0
0.6224065209971741,0.0,0.006446886446886447,0.0
0.6278924839971296,0.0,0.006446886446886447,0.0
0.6318944249978813,0.0,0.006446886446886447,0.0
0.6338161219973699,0.0,0.004835164835164835,0.8042490842490841
0.6354519429987704,0.0,0.004835164835164835,0.8042490842490841
0.6393175729972427,0.0,0.004835164835164835,0.8042490842490841
0.6440009429970814,0.0,0.004835164835164835,0.8042490842490841
0.6440917669970077,0.0,0.004835164835164835,0.8042490842490841
0.6512114309989556,0.0,0.004835164835164835,0.8042490842490841
0.655443457999354,0.0,0.004835164835164835,0.8042490842490841
0.6570954629969492,0.0,0.0,0.0273992673992674
0.6632747109979391,0.0,0.0,0.0273992673992674
0.6689725029973488,0.0,0.0,0.0273992673992674
0.6750707899991539,0.0,0.0,0.0273992673992674
0.6781952370001818,0.0,0.0,0.0273992673992674
0.6814152079969062,0.0,0.0,0.0273992673992674
0.6816304579988355,0.0,0.0,0.0273992673992674
0.6883468129999528,0.0,0.0,0.0273992673992674
0.69214429099884,0.0,0.00967032967032967,0.0
0.7001660280002397,0.0,0.00967032967032967,0.0
0.704934235996916,0.0,0.00967032967032967,0.0
0.7050407429996994,0.0,0.00967032967032967,0.0
0.7105401489970973,0.0,0.00967032967032967,0.0
0.7107857709997916,0.0,0.00967032967032967,0.0
0.7182842949987389,0.0,0.00967032967032967,0.0
0.7229248229996301,0.0,0.00967032967032967,0.0
0.7231638459998067,0.0,0.00967032967032967,0.0
0.729260403997614,0.0,0.00967032967032967,0.0
0.7376913439984492,0.0,0.00967032967032967,0.0
0.7419276829969021,0.0,0.00967032967032967,0.0
0.7442356009996729,0.0,0.00967032967032967,0.0
0.7443428779988608,0.0,0.00967032967032967,0.0
0.7519860639986291,0.0,0.00967032967032967,0.0
0.7566161809991172,0.0,0.00967032967032967,0.0
0.7567831679989467,0.0,0.00967032967032967,0.0
0.7626822219972382,0.0,0.00967032967032967,0.0
0.7674140759991133,0.0,0.00967032967032967,0.0
0.7720931629992265,0.0,0.00967032967032967,0.0
0.7774253399984445,0.0,0.00967032967032967,0.0
0.7806467829977919,0.0,0.00967032967032967,0.0
0.781957439998223,0.0,0.00967032967032967,0.0
0.7875910139991902,0.0,0.0,0.008058608058608058
0.7877840669971192,0.0,0.0,0.008058608058608058
0.792882567999186,0.0,0.0,0.008058608058608058
0.7969225029992231,0.0,0.0,0.008058608058608058
0.7988756569975521,0.0,0.0,0.008058608058608058
0.7998849100004009,0.0,0.0,0.008058608058608058
0.8001593539993337,0.0,0.0,0.008058608058608058
0.8056490939998184,0.0,0.0,0.008058608058608058
0.8065036039988627,0.0,0.0,0.008058608058608058
0.8080491949986026,0.0,0.0,0.008058608058608058
0.8121651929977816,0.0,0.0,0.008058608058608058
0.8154846409997845,0.0,0.0,0.008058608058608058
0.8157470009973622,0.0,0.0,0.008058608058608058
0.8217599489980785,0.0,0.0,0.008058608058608058
0.8255405969975982,0.0,0.004835164835164835,0.0
0.8346968329969968,0.0,0.004835164835164835,0.0
0.839648801000294,0.0,0.0,2.6545054945054947
0.8433304270001827,0.0,0.0,2.6545054945054947
0.8434596189981676,0.0,0.0,2.6545054945054947
0.8515727559970401,0.0,0.0,2.6545054945054947
0.856973736998043,0.0,0.012893772893772894,2.556996336996337
0.8598570249996556,0.0,0.005641025641025641,0.0136996336996337
0.8669790829990234,0.0,0.005641025641025641,0.0136996336996337
0.8700343719974626,0.0,0.005641025641025641,0.0136996336996337
0.8716338859994721,0.0,0.005641025641025641,0.0136996336996337
0.8753196979996574,0.0,0.005641025641025641,0.0136996336996337
0.8835513960002572,0.0,0.005641025641025641,0.0136996336996337
0.887563238000439,0.0,0.005641025641025641,0.0136996336996337
0.8912400029985292,0.0,0.005641025641025641,0.0136996336996337
0.8966095079995284,0.0,0.004835164835164835,0.024175824175824173
0.8981251039986091,0.0,0.004835164835164835,0.024175824175824173
0.9030284179971204,0.0,0.004029304029304029,0.0
0.907500440000149,0.0,0.0032234432234432234,0.0
0.9077782319982362,0.0,0.0032234432234432234,0.0
0.9135679219980375,0.0,0.0032234432234432234,0.0
0.9137552789979964,0.0,0.0008058608058608059,0.016117216117216115
0.9193948920001276,0.0,0.0008058608058608059,0.016117216117216115
0.9194867249971139,0.0,0.0008058608058608059,0.016117216117216115
0.9248265389978769,0.0,0.0008058608058608059,0.016117216117216115
0.9263155619992176,0.0,0.004835164835164835,0.03223443223443223
0.9338988449999306,0.0,0.004835164835164835,0.03223443223443223
0.9376509779976914,0.0,0.004835164835164835,0.03223443223443223
0.9419263939998928,0.0,0.004835164835164835,0.03223443223443223
0.9427393400001165,0.0,0.004835164835164835,0.03223443223443223
0.9451575549974223,0.0,0.004835164835164835,0.03223443223443223
0.9455075759979081,0.0,0.004835164835164835,0.03223443223443223
0.9517067489978217,0.0,0.004835164835164835,0.03223443223443223
0.9549437509995187,0.0,0.012087912087912087,0.018534798534798533
0.9564798459978192,0.0,0.004029304029304029,0.0136996336996337
0.960239266998542,0.0,0.004029304029304029,0.0136996336996337
0.9695575179976004,0.0,0.004029304029304029,0.0136996336996337
0.9735729409985652,0.0,0.004029304029304029,0.0136996336996337
0.9766916659973504,0.0,0.006446886446886447,0.02336996336996337
0.9785677729996678,0.0,0.006446886446886447,0.02336996336996337
0.9816479269975389,0.0,0.006446886446886447,0.02336996336996337
0.9827723189991957,0.0,0.005641025641025641,0.0
0.9829535609969753,0.0,0.005641025641025641,0.0
0.9884787049995793,0.0,0.005641025641025641,0.0
0.9893239599987282,0.0,0.005641025641025641,0.0
0.9917692919989349,0.0,0.005641025641025641,0.0
0.9992056880000746,0.0,0.005641025641025641,0.0
1.0035505349987943,0.0,0.005641025641025641,0.0
1.0043157669970242,0.0,0.005641025641025641,0.0
1.0065158549987245,0.0,0.005641025641025641,0.0
1.0067766249994747,0.0,0.005641025641025641,0.0
1.0130291959976603,0.0,0.005641025641025641,0.0
1.016934991999733,0.0,0.005641025641025641,0.0
1.0185668989979604,0.0,0.005641025641025641,0.0
1.0222896470004343,0.0,0.005641025641025641,0.0
1.0267168319987832,0.0,0.005641025641025641,0.0
1.0269148949992086,0.0,0.005641025641025641,0.0
1.03450502099804,0.0,0.005641025641025641,0.0
1.0391054849969805,0.0,0.0,0.09992673992673992
1.039947358000063,0.0,0.0,0.09992673992673992
1.041666698998597,0.0,0.0,0.09992673992673992
1.0460940589982783,0.0,0.0,0.09992673992673992
1.0462800040004367,0.0,0.0,0.09992673992673992
1.0525820719994954,0.0,0.0,0.018534798534798533
1.0563847299999907,0.0,0.005641025641025641,0.5157509157509157
1.06112414800009,0.0,0.005641025641025641,0.5157509157509157
1.0613907739971182,0.0,0.005641025641025641,0.5157509157509157
1.0685001450001437,0.0,0.005641025641025641,0.5157509157509157
1.0723697219982569,0.0,0.0008058608058608059,0.007252747252747252
1.0761273899988737,0.0,0.0008058608058608059,0.007252747252747252
1.0825458910003363,0.0,0.0008058608058608059,0.007252747252747252
1.0866561969996837,0.0,0.010476190476190476,0.0
1.0882629079969774,0.0,0.010476190476190476,0.0
1.0928078919969266,0.0,0.010476190476190476,0.0
1.0929694099977496,0.0,0.010476190476190476,0.0
1.1005726669973228,0.0,0.010476190476190476,0.0
1.105259608997585,0.0,0.0008058608058608059,0.0
1.105410383999697,0.0,0.0008058608058608059,0.0
1.1105903669995314,0.0,0.0008058608058608059,0.0
1.1157493219980097,0.0,0.007252747252747252,0.025787545787545788
1.118936887000018,0.0,0.0024175824175824176,0.0024175824175824176
1.1192046889991616,0.0,0.0024175824175824176,0.0024175824175824176
1.1244118619979417,0.0,0.0024175824175824176,0.0024175824175824176
1.1267895399978443,0.0,0.0024175824175824176,0.0024175824175824176
1.12686612899779,0.0,0.0024175824175824176,0.0024175824175824176
1.1319977659986762,0.0,0.0024175824175824176,0.0024175824175824176
1.1355626999975357,0.0,0.0024175824175824176,0.0024175824175824176
1.1357248259992048,0.0,0.0024175824175824176,0.0024175824175824176
1.1408448339971073,0.0,0.0024175824175824176,0.0024175824175824176
1.1437074179993942,0.0,0.0024175824175824176,0.0024175824175824176
1.146976113999699,0.0,0.0024175824175824176,0.0024175824175824176
1.1484130030003143,0.0,0.0024175824175824176,0.0024175824175824176
1.1524156149971532,0.0,0.0024175824175824176,0.0024175824175824176
1.155837704998703,0.0,0.0024175824175824176,0.0024175824175824176
1.155970781997894,0.0,0.0024175824175824176,0.0024175824175824176
1.1607165209970844,0.0,0.0024175824175824176,0.0024175824175824176
1.1608614619981381,0.0,0.0,0.004835164835164835
1.1655602119972173,0.0,0.0,0.004835164835164835
1.1657713899985538,0.0,0.0,0.004835164835164835
1.1704790889998549,0.0,0.0,0.004835164835164835
1.1705361690001155,0.0,0.0,0.004835164835164835
1.177618640998844,0.0,0.0,0.004835164835164835
1.1846049960004166,0.0,0.0,0.004835164835164835
1.1905382820004888,0.0,0.0,0.0
1.1962599159996898,0.0,0.0,0.0
1.2027218509974773,0.0,0.0,0.0
1.2063920519976818,0.0,0.0,0.0
1.2109453999983089,0.0,0.0,0.0
1.2111734569989494,0.0,0.0,0.0
1.2182113399976515,0.0,0.0,0.0
1.223326969997288,0.0,0.0,0.004029304029304029
1.2255320209987985,0.0,0.0024175824175824176,0.008864468864468863
1.2264685079971969,0.0,0.0024175824175824176,0.008864468864468863
1.227441867999005,0.0,0.0024175824175824176,0.008864468864468863
1.2282832429991686,0.0,0.0024175824175824176,0.008864468864468863
1.2307978499993624,0.0,0.0024175824175824176,0.008864468864468863
1.2360926099972858,0.0,0.0024175824175824176,0.008864468864468863
1.2383075959987764,0.0,0.0024175824175824176,0.008864468864468863
1.2384879019991786,0.0,0.0024175824175824176,0.008864468864468863
1.2436888209995232,0.0,0.0024175824175824176,0.008864468864468863
1.2459659389969602,0.0,0.0024175824175824176,0.008864468864468863
1.2460836799982644,0.0,0.0024175824175824176,0.008864468864468863
1.251170944997284,0.0,0.0024175824175824176,0.008864468864468863
1.2540689719971851,0.0,0.0024175824175824176,0.008864468864468863
1.2570298069986166,0.0,0.0024175824175824176,0.008864468864468863
1.2595168070001819,0.0,0.0024175824175824176,0.008864468864468863
1.2647122019989183,0.0,0.0024175824175824176,0.008864468864468863
1.2677223829996365,0.0,0.014505494505494505,0.005641025641025641
1.2699372459974256,0.0,0.014505494505494505,0.005641025641025641
1.2701334209996276,0.0,0.014505494505494505,0.005641025641025641
1.2754472289998375,0.0,0.014505494505494505,0.005641025641025641
1.278012929000397,0.0,0.014505494505494505,0.005641025641025641
1.2818767030003073,0.0,0.014505494505494505,0.005641025641025641
1.286187185000017,0.0,0.014505494505494505,0.005641025641025641
1.2878632699976151,0.0,0.014505494505494505,0.005641025641025641
1.2909309979986574,0.0,0.004029304029304029,0.004835164835164835
1.292432660000486,0.0,0.004029304029304029,0.004835164835164835
1.296117695997964,0.0,0.004029304029304029,0.004835164835164835
1.3018043989977741,0.0,0.004029304029304029,0.004835164835164835
1.3020131419980316,0.0,0.004029304029304029,0.004835164835164835
1.30721276499753,0.0,0.004029304029304029,0.004835164835164835
1.310160826997162,0.0,0.012893772893772894,0.0016117216117216117
1.3131788969985791,0.0,0.012893772893772894,0.0016117216117216117
1.3154552909982158,0.0,0.012893772893772894,0.0016117216117216117
1.3157309790003637,0.0,0.012893772893772894,0.0016117216117216117
1.3214931539987447,0.0,0.012893772893772894,0.0016117216117216117
1.3266720209976484,0.0,0.012893772893772894,0.0016117216117216117
1.3288925259985263,0.0,0.012893772893772894,0.0
1.329690517999552,0.0,0.012893772893772894,0.0
1.331246720998024,0.0,0.012893772893772894,0.0
1.3349240259994986,0.0,0.004835164835164835,0.0
1.3393095689971233,0.0,0.004835164835164835,0.0
1.3408097389983595,0.0,0.004835164835164835,0.0
1.3458753220002109,0.0,0.004835164835164835,0.0
1.3489453099973616,0.0,0.011282051282051281,0.00967032967032967
1.3512478789998568,0.0,0.011282051282051281,0.00967032967032967
1.3514156309975078,0.0,0.011282051282051281,0.00967032967032967
1.3564519439969445,0.0,0.011282051282051281,0.00967032967032967
1.361624278997624,0.0,0.011282051282051281,0.00967032967032967
1.36558616199909,0.0,0.00967032967032967,0.0
1.367835576998914,0.0,0.00967032967032967,0.0
1.3680292909994023,0.0,0.00967032967032967,0.0
1.373255585996958,0.0,0.00967032967032967,0.0
1.3756283869988692,0.0,0.00967032967032967,0.0
1.3757816039978934,0.0,0.00967032967032967,0.0
1.3809147929969185,0.0,0.00967032967032967,0.0
1.384009117999085,0.0,0.0,0.0
1.385495460999664,0.0,0.0,0.0
1.389821603999735,0.0,0.0,0.0
1.3907532779994654,0.0,0.0,0.0
1.3916559239987691,0.0,0.0,0.0
1.3931281410004885,0.0,0.0016117216117216117,0.007252747252747252
1.3974710509974102,0.0,0.0,0.0024175824175824176
1.3983112709975103,0.0,0.0,0.0024175824175824176
1.3998617679972085,0.0,0.0,0.0024175824175824176
1.4041989959987404,0.0,0.0,0.0024175824175824176
1.4057344769971678,0.0,0.0,0.0024175824175824176
1.4102287459973013,0.0,0.004835164835164835,0.004835164835164835
1.4104743499992765,0.0,0.004835164835164835,0.004835164835164835
1.4156135499979428,0.0,0.004835164835164835,0.004835164835164835
1.4192387299990514,0.0,0.004835164835164835,0.0
1.424364277998393,0.0,0.004835164835164835,0.0
1.4268146379981772,0.0,0.0032234432234432234,0.0008058608058608059
1.426956565999717,0.0,0.0032234432234432234,0.0008058608058608059
1.4323365329983062,0.0,0.0032234432234432234,0.0008058608058608059
1.4345318949999637,0.0,0.0032234432234432234,0.0008058608058608059
1.4347764489975816,0.0,0.0032234432234432234,0.0008058608058608059
1.439958865998051,0.0,0.0032234432234432234,0.0008058608058608059
1.4435720869987563,0.0,0.0032234432234432234,0.0008058608058608059
1.4481100369994238,0.0,0.0032234432234432234,0.0008058608058608059
1.4482821479978156,0.0,0.0032234432234432234,0.0008058608058608059
1.4536962319980375,0.0,0.0032234432234432234,0.0008058608058608059
1.4554104620001453,0.0,0.008058608058608058,1.095164835164835
1.4590040869989025,0.0,0.008058608058608058,1.095164835164835
1.4640233459977026,0.0,0.0,0.0
1.4677405309994356,0.0,0.0,0.0
1.4731583969987696,0.0,0.0,0.0
1.4746904469975561,0.0,0.0,0.0
1.478518116997293,0.0,0.0,0.0
1.4822334579985181,0.0,0.0,0.0
1.4860591029973875,0.0,0.0,0.0
1.4905484939990856,0.0,0.0016117216117216117,0.0016117216117216117
1.4913978389995464,0.0,0.0,0.1378021978021978
1.4928929849993438,0.0,0.0,0.1378021978021978
1.4979829330004577,0.0,0.0,0.1378021978021978
1.50173695400008,0.0,0.0,0.0032234432234432234
1.5017982309982472,0.0,0.0,0.0032234432234432234
1.5068865949979227,0.0,0.0,0.0032234432234432234
1.5097933109973383,0.0,0.0,0.0032234432234432234
1.5120514310001454,0.0,0.0,0.0032234432234432234
1.5122261619981145,0.0,0.0,0.0032234432234432234
1.517319091999525,0.0,0.0,0.0032234432234432234
1.521923798998614,0.0,0.0008058608058608059,0.0
1.5220262949987955,0.0,0.004029304029304029,0.0
1.5274165099981474,0.0,0.004029304029304029,0.0
1.5289504889988166,0.0,0.004029304029304029,0.0
1.5325586819999444,0.0,0.004029304029304029,0.0
1.5327241689992661,0.0,0.004029304029304029,0.0
1.5378661709983135,0.0,0.004029304029304029,0.0
1.541736248000234,0.0,0.004029304029304029,0.0
1.5455135359989072,0.0,0.004029304029304029,0.0
1.5496243739980855,0.0,0.004029304029304029,0.0
1.5517691829991236,0.0,0.004029304029304029,0.0
1.5525226529971405,0.0,0.004029304029304029,0.0
1.55459484399762,0.0,0.004029304029304029,0.0
1.555367215998558,0.0,0.004029304029304029,0.0
1.5574831859994447,0.0,0.004029304029304029,0.0
1.5582652809971478,0.0,0.004029304029304029,0.0
1.560412582999561,0.0,0.004029304029304029,0.0
1.5618018280001706,0.0,0.004029304029304029,0.0
1.561887525000202,0.0,0.004029304029304029,0.0
1.566540724998049,0.0,0.004029304029304029,0.0
1.566773448997992,0.0,0.004029304029304029,0.0
1.571563753997907,0.0,0.004029304029304029,0.0
1.5716373619980004,0.0,0.004029304029304029,0.0
1.5763540539992391,0.0,0.004029304029304029,0.0
1.5764258799972595,0.0,0.004029304029304029,0.0
1.581244347999018,0.0,0.004029304029304029,0.0
1.5813033300000825,0.0,0.004029304029304029,0.0
1.5861016779999773,0.0,0.004029304029304029,0.0
1.5861797189973004,0.0,0.004029304029304029,0.0
1.590927555997041,0.0,0.004029304029304029,0.0
1.5956694849992346,0.0,0.004029304029304029,0.0
1.5957723749997967,0.0,0.004029304029304029,0.0
1.600484194997989,0.0,0.004029304029304029,0.0
1.6007259969992447,0.0,0.004029304029304029,0.0
1.6054733040000428,0.0,0.004029304029304029,0.0
1.6101700359977258,0.0,0.004029304029304029,0.0
1.6102975489993696,0.0,0.004029304029304029,0.0
1.6149832119990606,0.0,0.004029304029304029,0.0
1.6197228130004078,0.0,0.004029304029304029,0.0
1.6199694779970741,0.0,0.004029304029304029,0.0
1.6247134709992679,0.0,0.004029304029304029,0.0
1.6248314069998742,0.0,0.004029304029304029,0.0
1.6295801109990862,0.0,0.0024175824175824176,0.0
1.6297722039998916,0.0,0.0024175824175824176,0.0
1.6345043219989748,0.0,0.0024175824175824176,0.0
1.6345953950003604,0.0,0.0024175824175824176,0.0
1.639233924997825,0.0,0.0024175824175824176,0.0
1.6393746529975033,0.0,0.0024175824175824176,0.0
1.6441302339990216,0.0,0.0024175824175824176,0.0
1.6442651969991857,0.0,0.0024175824175824176,0.0
1.6494086099992273,0.0,0.0024175824175824176,0.0
1.6524084599986963,0.0,0.0024175824175824176,0.0
1.654628883999976,0.0,0.0024175824175824176,0.0
1.6548717999976361,0.0,0.012087912087912087,0.006446886446886447
1.6599278789981327,0.0,0.012087912087912087,0.006446886446886447
1.6642347899978631,0.0,0.012087912087912087,0.006446886446886447
1.6650407439992705,0.0,0.004029304029304029,0.028205128205128206
1.6666761209999095,0.0,0.004029304029304029,0.028205128205128206
1.6712217269996472,0.0,0.004029304029304029,0.028205128205128206
1.6713839219992224,0.0,0.004029304029304029,0.028205128205128206
1.6766752309995354,0.0,0.004029304029304029,0.028205128205128206
1.6783355929983372,0.0,0.004029304029304029,0.028205128205128206
1.6812577009986853,0.0,0.004029304029304029,0.028205128205128206
1.683486317997449,0.0,0.018534798534798533,0.0
1.6842764249995525,0.0,0.018534798534798533,0.0
1.6857920289985486,0.0,0.018534798534798533,0.0
1.6908965820002777,0.0,0.018534798534798533,0.0
1.694018441998196,0.0,0.018534798534798533,0.0
1.6948448410003039,0.0,0.018534798534798533,0.0
1.6963971859986486,0.0,0.018534798534798533,0.0
1.700062217998493,0.0,0.018534798534798533,0.0
1.7053199629990559,0.0,0.0032234432234432234,0.0
1.706756357998529,0.0,0.0032234432234432234,0.0
1.7117198439991625,0.0,0.0032234432234432234,0.0
1.7165583179994428,0.0,0.0032234432234432234,0.0
1.7166536719996657,0.0,0.0032234432234432234,0.0
1.721997310000006,0.0,0.0032234432234432234,0.0
1.723598985998251,0.0,0.0032234432234432234,0.0
1.7273708829998213,0.0,0.0032234432234432234,0.0
1.7314871460002905,0.0,0.0032234432234432234,0.0
1.7342579219985055,0.0,0.0032234432234432234,0.3618315018315018
1.7385984559987264,0.0,0.0,0.09509157509157509
1.7395921269999235,0.0,0.004835164835164835,0.0
1.7406386279981234,0.0,0.004835164835164835,0.0
1.7415192349981226,0.0,0.004835164835164835,0.0
1.7430352549999952,0.0,0.004835164835164835,0.0
1.7473506399983307,0.0,0.004835164835164835,0.0
1.7482710459989903,0.0,0.004835164835164835,0.007252747252747252
1.749798032000399,0.0,0.004835164835164835,0.007252747252747252
1.7548333369995817,0.0,0.004835164835164835,0.007252747252747252
1.7584298999972816,0.0,0.004835164835164835,0.007252747252747252
1.7635017489992606,0.0,0.004835164835164835,0.007252747252747252
1.7672215620004863,0.0,0.004835164835164835,0.0
1.7673002919982537,0.0,0.004835164835164835,0.0
1.7725751729994954,0.0,0.004835164835164835,0.0
1.7749847710001632,0.0,0.007252747252747252,0.9646153846153847
1.780099273997621,0.0,0.007252747252747252,0.9646153846153847
1.7845706789994438,0.0,0.0008058608058608059,0.0
1.7848402009985875,0.0,0.004835164835164835,0.004029304029304029
1.7902149949986779,0.0,0.004835164835164835,0.004029304029304029
1.7924003089974576,0.0,0.004835164835164835,0.004029304029304029
1.7926407839986496,0.0,0.004835164835164835,0.004029304029304029
1.7977848579976126,0.0,0.004835164835164835,0.004029304029304029
1.800735855998937,0.0,0.008058608058608058,0.022564102564102562
1.8036965649989725,0.0,0.008058608058608058,0.022564102564102562
1.8073016249982174,0.0,0.008058608058608058,0.022564102564102562
1.8116581729991594,0.0,0.0,0.014505494505494505
1.8138557769998442,0.0,0.0,2.07992673992674
1.8146474249988387,0.0,0.0,2.07992673992674
1.816196787996887,0.0,0.0,2.07992673992674
1.8199983339982282,0.0,0.0,2.07992673992674
1.8245004979980877,0.0,0.008058608058608058,0.0
1.824789313999645,0.0,0.008058608058608058,0.0
1.8323531099995307,0.0,0.008058608058608058,0.0
1.8393614489978063,0.0,0.0,2.253992673992674
1.84476082999754,0.0,0.0,2.253992673992674
1.8450489259994356,0.0,0.008864468864468863,0.0
1.8534058019977238,0.0,0.008864468864468863,0.0
1.8605686689988943,0.0,0.006446886446886447,2.5723076923076924
1.8663347029978468,0.0,0.005641025641025641,0.38358974358974357
1.8719639679984539,0.0,0.0,0.0016117216117216117
1.8810853639988636,0.0,0.0,0.4996336996336996
1.887769725999533,0.0,0.006446886446886447,0.2627106227106227
1.8924029669979063,0.0,0.0016117216117216117,0.03545787545787545
1.8925820749973354,0.0,0.0016117216117216117,0.03545787545787545
1.8984756399986509,0.0,0.0016117216117216117,0.03545787545787545
1.9022356669993314,0.0,0.0,0.051575091575091575
1.90981402000034,0.0,0.0,0.051575091575091575
1.916129383000225,0.0,0.0,0.008058608058608058
1.9207378889987012,0.0,0.0,0.008058608058608058
1.9306347889978497,0.0,0.008058608058608058,0.0024175824175824176
1.9373377279989654,0.0,0.008058608058608058,0.0024175824175824176
1.9423988749986165,0.0,0.008058608058608058,0.0024175824175824176
1.9450590790002025,0.0,0.004029304029304029,0.0
1.9514285149998614,0.0,0.004029304029304029,0.0
1.9564669849969505,0.0,0.0032234432234432234,1.606080586080586
1.9601406309993763,0.0,0.00967032967032967,0.033846153846153845
1.965134156998829,0.0,0.0032234432234432234,0.0008058608058608059
1.969765985999402,0.0,0.0032234432234432234,0.0008058608058608059
1.9759669739978563,0.0,0.0032234432234432234,0.0008058608058608059
1.9809424710001622,0.0,0.0032234432234432234,0.0008058608058608059
1.9841638269972464,0.0,0.0008058608058608059,0.0024175824175824176
1.98441782199734,0.0,0.0008058608058608059,0.0024175824175824176
1.9934106179971423,0.0,0.0008058608058608059,0.0024175824175824176
2.001260798999283,0.0,0.006446886446886447,2.693992673992674
2.0072344740001427,0.0,0.006446886446886447,2.693992673992674
2.0125902429972484,0.0,0.0,0.0
2.0135714869975345,0.0,0.0,0.0
2.0148928389971843,0.0,0.0008058608058608059,0.0
2.024663830998179,0.0,0.0008058608058608059,0.0
2.031815332997212,0.0,0.0008058608058608059,0.0
2.0354507289994217,0.0,0.0008058608058608059,0.0
2.0438702609972097,0.0,0.0024175824175824176,0.04593406593406593
2.048218337000435,0.0,0.0032234432234432234,0.0
2.049345393999829,0.0,0.0032234432234432234,0.0
2.0495235759990464,0.0,0.0032234432234432234,0.0
2.059267507996992,0.0,0.0032234432234432234,0.0
2.0663970739988144,0.0,0.0032234432234432234,0.0
2.073103689999698,0.0,0.0,0.00967032967032967
2.0781742999970447,0.0,0.006446886446886447,0.6011721611721611
2.080190741999104,0.0,0.006446886446886447,0.6011721611721611
2.0812080389987386,0.0,0.006446886446886447,0.6011721611721611
2.0814939470001264,0.0,0.006446886446886447,0.6011721611721611
2.089796154999931,0.0,0.006446886446886447,0.6011721611721611
2.0950511839982937,0.0,0.006446886446886447,0.6011721611721611
2.09683054999914,0.0,0.004835164835164835,0.06124542124542124
2.1014675609985716,0.0,0.004835164835164835,0.06124542124542124
2.109419775999413,0.0,0.004835164835164835,0.06124542124542124
2.1135224779973214,0.0,0.004835164835164835,0.004835164835164835
2.118385188998218,0.0,0.004835164835164835,0.004835164835164835
2.1247070239987806,0.0,0.004835164835164835,0.004835164835164835
2.1297723449970363,0.0,0.004029304029304029,0.0
2.132712434999121,0.0,0.004029304029304029,0.0
2.135451510999701,0.0,0.0032234432234432234,0.2482051282051282
2.138899894998758,0.0,0.0032234432234432234,0.2482051282051282
2.1391594929991697,0.0,0.0032234432234432234,0.2482051282051282
2.14398647499911,0.0,0.0032234432234432234,0.2482051282051282
2.148705595998763,0.0,0.0,0.03142857142857143
2.1487771549982426,0.0,0.0,0.03142857142857143
2.153402431998984,0.0,0.0,0.03142857142857143
2.153645982998569,0.0,0.0,0.03142857142857143
2.1583364569996775,0.0,0.0,0.03142857142857143
2.1590419709973503,0.0,0.0,0.03142857142857143
2.1611435449995042,0.0,0.0,0.03142857142857143
2.162592134998704,0.0,0.0,0.0
2.1666975849984738,0.0,0.0,0.0
2.169501181997475,0.0,0.0,0.0
2.172226980997948,0.0,0.0,0.0
2.1762403449974954,0.0,0.0,0.0
2.1789904969991767,0.0,0.0,0.0
2.1829860029974952,0.0,0.0,0.0
2.1863134799968975,0.0,0.0,0.0
2.187095164998027,0.0,0.0,0.0
2.189794953999808,0.0,0.0,0.0
2.1930934579977475,0.0,0.0,0.0
2.193838020997646,0.0,0.0,0.0
2.1958548099973996,0.0,0.0,0.0
2.1972147669985134,0.0,0.0,0.0
2.197278446998098,0.0,0.0,0.0
2.2019916789977287,0.0,0.004029304029304029,0.0
2.206711593000364,0.0,0.004029304029304029,0.0
2.2069698279992735,0.0,0.004029304029304029,0.0
2.2116688449968933,0.0,0.004029304029304029,0.0
2.2118129359987506,0.0,0.006446886446886447,2.5706959706959704
2.2165096110002196,0.0,0.006446886446886447,2.5706959706959704
2.2166473979996226,0.0,0.006446886446886447,2.5706959706959704
2.221423323997442,0.0,0.006446886446886447,2.5706959706959704
2.221496368998487,0.0,0.006446886446886447,2.5706959706959704
2.226185177998559,0.0,0.006446886446886447,2.5706959706959704
2.226318334000098,0.0,0.006446886446886447,2.5706959706959704
2.2311748479987727,0.0,0.006446886446886447,2.5706959706959704
2.2358699689975765,0.0,0.006446886446886447,2.5706959706959704
2.2360393870003463,0.0,0.006446886446886447,2.5706959706959704
2.240773649999028,0.0,0.006446886446886447,2.5706959706959704
2.240970748996915,0.0,0.007252747252747252,0.0
2.245729433998349,0.0,0.007252747252747252,0.0
2.250409745996876,0.0,0.0,0.0
2.2511414229993534,0.0,0.0,0.0
2.253210261998902,0.0,0.0,0.0
2.2539953849991434,0.0,0.0,0.0
2.2561204689991428,0.0,0.0,0.0
2.2568951549983467,0.0,0.0,0.0
2.2589738569986366,0.0,0.0,0.0
2.2603497780000907,0.0,0.005641025641025641,0.0024175824175824176
2.264440091999859,0.0,0.005641025641025641,0.0024175824175824176
2.267144165998616,0.0,0.005641025641025641,0.0024175824175824176
2.2705445309984498,0.0,0.005641025641025641,0.0024175824175824176
2.2712598469988734,0.0,0.005641025641025641,0.0024175824175824176
2.2733578169973043,0.0,0.005641025641025641,0.0024175824175824176
2.2741923929970653,0.0,0.005641025641025641,0.0024175824175824176
2.2762473660004616,0.0,0.005641025641025641,0.0024175824175824176
2.277693066997017,0.0,0.005641025641025641,0.0024175824175824176
2.2824369139998453,0.0,0.005641025641025641,0.0024175824175824176
2.287155537997023,0.0,0.0032234432234432234,0.0
2.287277950999851,0.0,0.0032234432234432234,0.0
2.292031818000396,0.0,0.0032234432234432234,0.0
2.2922044699989783,0.0,0.0024175824175824176,2.5505494505494504
2.298995406999893,0.0,0.0024175824175824176,2.5505494505494504
2.3044838089990662,0.0,0.0024175824175824176,2.5505494505494504
2.314264466996974,0.0,0.0024175824175824176,2.5505494505494504
2.3243763419995958,0.0,0.0024175824175824176,2.5505494505494504
2.335469158999331,0.0,0.0,0.017728937728937726
2.345181130000128,0.0,0.0,0.017728937728937726
2.352880001999438,0.0,0.0,0.0016117216117216117
2.3595059479994234,0.0,0.02175824175824176,2.5755311355311354
2.3637833449975005,0.0,0.02175824175824176,2.5755311355311354
2.364875695999217,0.0,0.0,0.016923076923076923
2.365115106000303,0.0,0.0,0.016923076923076923
2.372847646998707,0.0,0.0,0.016923076923076923
2.380583205998846,0.0,0.0032234432234432234,0.95010989010989
2.387189976998343,0.0,0.0008058608058608059,0.020146520146520144
2.3913907059977646,0.0,0.0008058608058608059,0.020146520146520144
2.3939959879971866,0.0,0.004029304029304029,2.4627106227106226
2.3986560239973187,0.0,0.0032234432234432234,0.23369963369963367
2.40741789599997,0.0,0.004029304029304029,0.0
2.4125562970002647,0.0,0.02336996336996337,0.0
2.414507886998763,0.0,0.03465201465201465,0.4214652014652014
2.417165547998593,0.0,0.03465201465201465,0.4214652014652014
2.4224708980000287,0.0,0.03465201465201465,0.4214652014652014
2.4227107089973288,0.0,0.03465201465201465,0.4214652014652014
2.432861214998411,0.0,0.03465201465201465,0.4214652014652014
2.4415768299986667,0.0,0.03465201465201465,0.4214652014652014
2.448437015998934,0.0,0.03465201465201465,0.4214652014652014
2.4536234609986423,0.0,0.03465201465201465,0.4214652014652014
2.456262247997074,0.0,0.0008058608058608059,0.08058608058608058
2.461368104999565,0.0,0.0008058608058608059,0.08058608058608058
2.462920537996979,0.0,0.10637362637362638,0.0
2.4700225999986287,0.0,0.10637362637362638,0.0
2.474405367996951,0.0,0.007252747252747252,0.4456410256410256
2.475155291998817,0.0,0.007252747252747252,0.4456410256410256
2.477664381000068,0.0,0.007252747252747252,0.4456410256410256
2.4833616849973623,0.0,0.007252747252747252,0.4456410256410256
2.4835438429981878,0.0,0.007252747252747252,0.4456410256410256
2.4890398119969177,0.0,0.007252747252747252,0.4456410256410256
2.489248347999819,0.0,0.0,2.5626373626373624
2.4946058839996113,0.0,0.0,2.5626373626373624
2.497123428998748,0.0,0.006446886446886447,0.11684981684981684
2.502832648999174,0.0,0.006446886446886447,0.11684981684981684
2.5029026060001343,0.0,0.006446886446886447,0.11684981684981684
2.5079562999999325,0.0,0.006446886446886447,0.11684981684981684
2.5119551019997743,0.0,0.006446886446886447,0.11684981684981684
2.514913914998033,0.0,0.006446886446886447,0.11684981684981684
2.518015014997218,0.0,0.0,0.1104029304029304
2.520971808997274,0.0,0.004029304029304029,0.04029304029304029
2.523933460997796,0.0,0.004029304029304029,0.04029304029304029
2.5261864629974298,0.0,0.004029304029304029,0.0008058608058608059
2.526993608000339,0.0,0.004029304029304029,0.0008058608058608059
2.529662691998965,0.0,0.004029304029304029,0.0008058608058608059
2.5356085219973465,0.0,0.004029304029304029,0.0008058608058608059
2.5407916059994022,0.0,0.004029304029304029,1.1588278388278386
2.543419615998573,0.0,0.0008058608058608059,0.0032234432234432234
2.5486102100003336,0.0,0.0008058608058608059,0.0032234432234432234
2.54996990699874,0.0,0.0008058608058608059,0.0032234432234432234
2.5593651790004515,0.0,0.0008058608058608059,0.0032234432234432234
2.5664961029979168,0.0,0.0008058608058608059,0.0032234432234432234
2.5706985169999825,0.0,0.0008058608058608059,0.0032234432234432234
2.572841976998461,0.0,0.0008058608058608059,0.0032234432234432234
2.5731149120001646,0.0,0.0008058608058608059,0.0032234432234432234
2.582123825999588,0.0,0.0008058608058608059,0.0032234432234432234
2.588463754997065,0.0,0.008058608058608058,0.016117216117216115
2.593467681999755,0.0,0.00967032967032967,0.007252747252747252
2.5971835540003667,0.0,0.00967032967032967,0.007252747252747252
2.602857152996876,0.0,0.0032234432234432234,0.01934065934065934
2.6114877319996594,0.0,0.0032234432234432234,0.01934065934065934
2.6190427980000095,0.0,0.0032234432234432234,0.01934065934065934
2.624871992997214,0.0,0.005641025641025641,0.03545787545787545
2.634240575000149,0.0,0.005641025641025641,0.03545787545787545
2.6419909139985975,0.0,0.007252747252747252,2.299120879120879
2.649657945999934,0.0,0.0024175824175824176,0.09831501831501832
2.6570960270000796,0.0,0.010476190476190476,0.0
2.6631518119975226,0.0,0.010476190476190476,0.0
2.668871677997231,0.0,0.010476190476190476,0.0
2.6775647399990703,0.0,0.012893772893772894,0.0032234432234432234
2.6861940269991464,0.0,0.0,1.3538461538461537
2.695096031999128,0.0,0.008864468864468863,0.02336996336996337
2.7044305849995,0.0,0.008864468864468863,0.02336996336996337
2.713374142997054,0.0,0.008864468864468863,0.02336996336996337
2.7204100959970674,0.0,0.008864468864468863,0.02336996336996337
2.7261417699992307,0.0,0.008864468864468863,0.02336996336996337
2.7349051559976942,0.0,0.008864468864468863,0.02336996336996337
2.7438468299988017,0.0,0.0,0.028205128205128206
2.7520832529990003,0.0,0.0,0.028205128205128206
2.75860791499872,0.0,0.0,0.06769230769230769
2.764018603000295,0.0,0.0,0.06769230769230769
2.765448824997293,0.0,0.0,0.06769230769230769
2.7721421509995707,0.0,0.0,0.06769230769230769
2.77755710099882,0.0,0.0,0.06769230769230769
2.777703854997526,0.0,0.0016117216117216117,0.15875457875457877
2.7856465429977106,0.0,0.0016117216117216117,0.15875457875457877
2.790095164000377,0.0,0.0024175824175824176,0.0
2.7924181719972694,0.0,0.0024175824175824176,0.0
2.799904062998394,0.0,0.0024175824175824176,0.0
2.803532808997261,0.0,0.0024175824175824176,0.0
2.8036522239999613,0.0,0.0024175824175824176,0.0
2.808784024997294,0.0,0.0024175824175824176,0.0
2.8117125389981084,0.0,0.0024175824175824176,0.0
2.8139390379983524,0.0,0.0024175824175824176,0.0
2.8141826520004543,0.0,0.0024175824175824176,0.0
2.8194367959986266,0.0,0.0024175824175824176,0.0
2.821635112999502,0.0,0.0024175824175824176,0.0
2.821892014999321,0.0,0.0024175824175824176,0.0
2.8269875519981724,0.0,0.0024175824175824176,0.0
2.8306573049994768,0.0,0.0032234432234432234,0.0
2.8358741129995906,0.0,0.0032234432234432234,0.0
2.839573086999735,0.0,0.0032234432234432234,0.0
2.843991077999817,0.0,0.0,0.02336996336996337
2.8448011789987504,0.0,0.0,0.02336996336996337
2.8470914279969293,0.0,0.0,0.02336996336996337
2.8473132330000226,0.0,0.0,0.02336996336996337
2.85347923199879,0.0,0.0,0.02336996336996337
2.857553955996991,0.0,0.0,0.02336996336996337
2.8637007039978926,0.0,0.0,0.02336996336996337
2.8648796799971024,0.0,0.0,0.02336996336996337
2.8650992490001954,0.0,0.0,0.02336996336996337
2.873501611997199,0.0,0.0,0.02336996336996337
2.879674812000303,0.0,0.0,0.02336996336996337
2.8843462279983214,0.0,0.0016117216117216117,0.016117216117216115
2.8874464109976543,0.0,0.0016117216117216117,0.016117216117216115
2.888510814998881,0.0,0.0016117216117216117,0.016117216117216115
2.889342795999255,0.0,0.0016117216117216117,0.016117216117216115
2.8910096239997074,0.0,0.0016117216117216117,0.016117216117216115
2.895939449997968,0.0,0.0016117216117216117,0.016117216117216115
2.8997438149999653,0.0,0.0016117216117216117,0.016117216117216115
2.903682095999102,0.0,0.0,0.0008058608058608059
2.9061057259968948,0.0,0.0,0.020146520146520144
2.9124093520003953,0.0,0.0,0.020146520146520144
2.9165312820005056,0.0,0.0,0.020146520146520144
2.9188158889992337,0.0,0.0,0.020146520146520144
2.919601352998143,0.0,0.0,0.020146520146520144
2.921226430000388,0.0,0.0,0.020146520146520144
2.9256907749986567,0.0,0.0,0.020146520146520144
2.926022280997131,0.0,0.0,0.020146520146520144
2.934069617997011,0.0,0.0,0.020146520146520144
2.9386370529973647,0.0,0.0016117216117216117,0.7389743589743589
2.9387792229972547,0.0,0.004835164835164835,0.0
2.944380414999614,0.0,0.00967032967032967,0.0
2.945687583000108,0.0,0.00967032967032967,0.0
2.9531034949977766,0.0,0.00967032967032967,0.0
2.95697200900031,0.0,0.00967032967032967,0.0
2.962677999999869,0.0,0.00967032967032967,0.0
2.9628229869995266,0.0,0.00967032967032967,0.0
2.9712432449996413,0.0,0.00967032967032967,0.0
2.9793363030003093,0.0,0.0024175824175824176,0.7413919413919414
2.9851051019977604,0.0,0.006446886446886447,0.33926739926739924
2.9920193660000223,0.0,0.006446886446886447,0.33926739926739924
2.998730264000187,0.0,0.006446886446886447,0.33926739926739924
3.0033516519979457,0.0,0.006446886446886447,0.33926739926739924
3.0114720279998437,0.0,0.006446886446886447,0.33926739926739924
3.016629457997624,0.0,0.006446886446886447,0.012893772893772894
3.018875997997384,0.0,0.0032234432234432234,0.006446886446886447
3.0190769889995863,0.0,0.004029304029304029,0.0008058608058608059
3.024433359998511,0.0,0.004029304029304029,0.0008058608058608059
3.0260370389987656,0.0,0.004029304029304029,0.0008058608058608059
3.031522612000117,0.0,0.004029304029304029,0.0008058608058608059
3.0326177299975825,0.0,0.008058608058608058,0.356996336996337
3.032762496997748,0.0,0.008058608058608058,0.356996336996337
3.038398993998271,0.0,0.008058608058608058,0.356996336996337
3.0385715889970015,0.0,0.008058608058608058,0.356996336996337
3.045600943998579,0.0,0.008058608058608058,0.356996336996337
3.05088940999849,0.0,0.008058608058608058,0.356996336996337
3.0540060459970846,0.0,0.00967032967032967,2.1137728937728935
3.055549056000018,0.0,0.00967032967032967,2.1137728937728935
3.059874474998651,0.0,0.0,0.0838095238095238
3.0624164349974308,0.0,0.0,0.012087912087912087
3.0673955509992084,0.0,0.0,0.012087912087912087
3.070364660998166,0.0,0.0,0.012087912087912087
3.073452319997159,0.0,0.0,0.012087912087912087
3.0749537329975283,0.0,0.0,0.012087912087912087
3.079745836999791,0.0,0.0,0.012087912087912087
3.085151823997876,0.0,0.0,0.0032234432234432234
3.085911923997628,0.0,0.0,0.0032234432234432234
3.0875684860002366,0.0,0.0,0.0032234432234432234
3.0906125549990975,0.0,0.0,0.0032234432234432234
3.092863949997991,0.0,0.0,0.0032234432234432234
3.093026018999808,0.0,0.0,0.0032234432234432234
3.10048110599746,0.0,0.0,0.0032234432234432234
3.1055457109978306,0.0,0.0,0.0032234432234432234
3.1096935629975633,0.0,0.0,0.0032234432234432234
3.1171537329973944,0.0,0.0,0.0032234432234432234
3.1200841479985684,0.0,0.0008058608058608059,0.16842490842490843
3.123073235998163,0.0,0.006446886446886447,0.0032234432234432234
3.1259597549978935,0.0,0.006446886446886447,0.0032234432234432234
3.1318580609986384,0.0,0.006446886446886447,0.0032234432234432234
3.1371346389969403,0.0,0.004835164835164835,0.9758974358974358
3.1388240790001873,0.0,0.004835164835164835,0.9758974358974358
3.141058299999713,0.0,0.0,0.00967032967032967
3.1411877529972116,0.0,0.0,0.00967032967032967
3.150564420997398,0.0,0.0,0.00967032967032967
3.1551259599982586,0.0,0.0,0.00967032967032967
3.1552957949970732,0.0,0.02175824175824176,0.07172161172161172
3.1607855219990597,0.0,0.007252747252747252,0.05399267399267399
3.165570535998995,0.0,0.006446886446886447,0.0032234432234432234
3.167888119998679,0.0,0.0016117216117216117,0.0024175824175824176
3.168121758997586,0.0,0.008864468864468863,0.004835164835164835
3.1735725719991024,0.0,0.008864468864468863,0.004835164835164835
3.1744157209977857,0.0,0.008864468864468863,0.004835164835164835
3.175942869998835,0.0,0.008864468864468863,0.004835164835164835
3.1846878019969154,0.0,0.008864468864468863,0.004835164835164835
3.18920836399775,0.0,0.008864468864468863,0.004835164835164835
3.190004128999135,0.0,0.008864468864468863,0.004835164835164835
3.191550212999573,0.0,0.008864468864468863,0.004835164835164835
3.1993337809981313,0.0,0.005641025641025641,0.1805128205128205
3.2044655489989964,0.0,0.0032234432234432234,0.0
3.2062781079985143,0.0,0.0032234432234432234,0.0
3.2086298169997463,0.0,0.0032234432234432234,0.0
3.2088425069996447,0.0,0.0032234432234432234,0.0
3.21878312699846,0.0,0.0032234432234432234,0.0
3.225601070000266,0.0,0.0032234432234432234,0.0
3.232558159998007,0.0,0.0032234432234432234,0.0
3.2374346379983763,0.0,0.0032234432234432234,0.0
3.2403966279998713,0.0,0.0032234432234432234,0.0
3.2439306729975215,0.0,0.005641025641025641,0.0008058608058608059
3.2440123809974466,0.0,0.005641025641025641,0.0008058608058608059
3.254177639999398,0.0,0.005641025641025641,0.0008058608058608059
3.2601274249973358,0.0,0.0,0.0
3.265911133999907,0.0,0.0,0.0
3.273245397998835,0.0,0.0136996336996337,0.0
3.278454141000111,0.0,0.007252747252747252,2.1008791208791204
3.2815448889996333,0.0,0.007252747252747252,2.1008791208791204
3.2824632529991504,0.0,0.007252747252747252,2.1008791208791204
3.284011763997114,0.0,0.007252747252747252,2.1008791208791204
3.288727363000362,0.0,0.007252747252747252,2.1008791208791204
3.288947596996877,0.0,0.007252747252747252,2.1008791208791204
3.2933563429978676,0.0,0.007252747252747252,2.1008791208791204
3.294822703999671,0.0,0.006446886446886447,0.25787545787545785
3.3042018309970445,0.0,0.006446886446886447,0.25787545787545785
3.3092605439996987,0.0,0.006446886446886447,0.25787545787545785
3.3148051389980537,0.0,0.0,3.3
3.3242109539969533,0.0,0.004835164835164835,0.026593406593406595
3.3325990559969796,0.0,0.004835164835164835,0.016923076923076923
3.3382513019969338,0.0,0.012087912087912087,0.5818315018315018
3.339039108999714,0.0,0.012087912087912087,0.5818315018315018
3.340602724998462,0.0,0.012087912087912087,0.5818315018315018
3.345502038999257,0.0,0.012087912087912087,0.5818315018315018
3.349469411998143,0.0,0.012087912087912087,0.5818315018315018
3.353148030997545,0.0,0.012087912087912087,0.5818315018315018
3.3533292959982646,0.0,0.012087912087912087,0.5818315018315018
3.358403897000244,0.0,0.012087912087912087,0.5818315018315018
3.365521073999844,0.0,0.012087912087912087,0.5818315018315018
3.370770753997931,0.0,0.012087912087912087,0.5818315018315018
3.371586376997584,0.0,0.0,0.855018315018315
3.3737702179969347,0.0,0.00967032967032967,0.303003663003663
3.3740157059983176,0.0,0.00967032967032967,0.303003663003663
3.3814867719993345,0.0,0.00967032967032967,0.303003663003663
3.3856461699979263,0.0,0.00967032967032967,0.303003663003663
3.388966251997772,0.0,0.0,0.022564102564102562
3.38982807299908,0.0,0.0,0.022564102564102562
3.3914168819974293,0.0,0.0,0.022564102564102562
3.397553519997018,0.0,0.0,0.022564102564102562
3.401113653999346,0.0,0.0,0.022564102564102562
3.4063042950001545,0.0,0.0,0.022564102564102562
3.4092076779998024,0.0,0.0,0.022564102564102562
3.412639523998223,0.0,0.0,0.022564102564102562
3.412872034998145,0.0,0.0,0.022564102564102562
3.4187083340002573,0.0,0.0,0.022564102564102562
3.4188131199989584,0.0,0.0,0.022564102564102562
3.4240439610002795,0.0,0.0,0.022564102564102562
3.4255332389984687,0.0,0.0,0.022564102564102562
3.4321467059999122,0.0,0.0,0.022564102564102562
3.435316093997244,0.0,0.0032234432234432234,0.007252747252747252
3.4368729359994177,0.0,0.0032234432234432234,0.007252747252747252
3.441395374997228,0.0,0.0032234432234432234,0.007252747252747252
3.4415316639970115,0.0,0.0032234432234432234,0.007252747252747252
3.45106958299948,0.0,0.0032234432234432234,0.007252747252747252
3.4566815519974625,0.0,0.004029304029304029,1.137069597069597
3.456861119997484,0.0,0.0024175824175824176,0.18373626373626373
3.4631067079972127,0.0,0.0024175824175824176,0.18373626373626373
3.468169488998683,0.0,0.006446886446886447,0.0
3.470388126999751,0.0,0.010476190476190476,0.0032234432234432234
3.4706639619980706,0.0,0.010476190476190476,0.0032234432234432234
3.476323823997518,0.0,0.010476190476190476,0.0032234432234432234
3.4846864600003755,0.0,0.010476190476190476,0.0032234432234432234
3.489950774997851,0.0,0.010476190476190476,0.0032234432234432234
3.492736090996914,0.0,0.010476190476190476,0.0032234432234432234
3.4981664899969473,0.0,0.010476190476190476,0.0032234432234432234
3.4982486789995164,0.0,0.008058608058608058,0.014505494505494505
3.5066433510000934,0.0,0.008058608058608058,0.014505494505494505
3.510950032999972,0.0,0.008058608058608058,0.014505494505494505
3.5131672409988823,0.0,0.008058608058608058,0.014505494505494505
3.5135122059982677,0.0,0.008058608058608058,0.014505494505494505
3.518178534999606,0.0,0.008058608058608058,0.014505494505494505
3.518290599997272,0.0,0.008058608058608058,0.014505494505494505
3.524024192996876,0.0,0.008058608058608058,0.014505494505494505
3.5350599800003693,0.0,0.004835164835164835,0.0
3.5414836339987232,0.0,0.004835164835164835,0.0
3.5475715789980313,0.0,0.0008058608058608059,0.01531135531135531
3.5528285420004977,0.0,0.0008058608058608059,0.01531135531135531
3.554262806999759,0.0,0.012087912087912087,0.8687179487179487
3.562404931999481,0.0,0.012087912087912087,0.8687179487179487
3.5668760249973275,0.0,0.012087912087912087,0.8687179487179487
3.567175011998188,0.0,0.012087912087912087,0.8687179487179487
3.571732926997356,0.0,0.012087912087912087,0.8687179487179487
3.5719793680000294,0.0,0.012087912087912087,0.8687179487179487
3.576406842999859,0.0,0.012087912087912087,0.8687179487179487
3.577252461000171,0.0,0.012087912087912087,0.8687179487179487
3.5796759169970755,0.0,0.012087912087912087,0.8687179487179487
3.5896540359972278,0.0,0.006446886446886447,0.0136996336996337
3.5972100059989316,0.0,0.006446886446886447,0.0136996336996337
3.6008743659986067,0.0,0.006446886446886447,0.0136996336996337
3.606222815997171,0.0,0.006446886446886447,0.0136996336996337
3.6084675099991728,0.0,0.006446886446886447,0.0136996336996337
3.6086174029987887,0.0,0.006446886446886447,0.0136996336996337
3.6164065949997166,0.0,0.006446886446886447,0.0136996336996337
3.620249169998715,0.0,0.006446886446886447,0.0136996336996337
3.6243025419971673,0.0,0.0,0.01531135531135531
3.6278824910004914,0.0,0.004835164835164835,0.0032234432234432234
3.62814161300048,0.0,0.004029304029304029,0.024175824175824173
3.6336455370001204,0.0,0.004029304029304029,0.024175824175824173
3.6337889559981704,0.0,0.004029304029304029,0.024175824175824173
3.638950759999716,0.0,0.004029304029304029,0.024175824175824173
3.6420546539993666,0.0,0.004029304029304029,0.024175824175824173
3.6429024879980716,0.0,0.004029304029304029,0.024175824175824173
3.645746591999341,0.0,0.004029304029304029,0.024175824175824173
3.6480093419995683,0.0,0.004029304029304029,0.024175824175824173
3.648188527000457,0.0,0.004029304029304029,0.024175824175824173
3.654004026997427,0.0,0.004029304029304029,0.024175824175824173
3.658410438998544,0.0,0.004029304029304029,0.024175824175824173
3.659297627000342,0.0,0.004029304029304029,0.024175824175824173
3.6617493399971863,0.0,0.004029304029304029,0.024175824175824173
3.668586626998149,0.0,0.004029304029304029,0.024175824175824173
3.6735611829972186,0.0,0.004029304029304029,0.024175824175824173
3.6779768019987387,0.0,0.004029304029304029,0.024175824175824173
3.679976829997031,0.0,0.004029304029304029,0.024175824175824173
3.6816824919987994,0.0,0.004029304029304029,0.024175824175824173
3.6872487839973473,0.0,0.004029304029304029,0.024175824175824173
3.693368627999007,0.0,0.00967032967032967,0.0
3.700470220999705,0.0,0.004835164835164835,0.0419047619047619
3.704852340997604,0.0,0.004835164835164835,0.0419047619047619
3.7050981519969355,0.0,0.00967032967032967,0.0
3.7112873810001474,0.0,0.00967032967032967,0.0
3.7155673950001074,0.0,0.0,0.6237362637362637
3.7165023630004725,0.0,0.0,0.6237362637362637
3.718092073999287,0.0,0.0,0.6237362637362637
3.722406327000499,0.0,0.0,0.6237362637362637
3.723950805997447,0.0,0.0,0.6237362637362637
3.728925411000091,0.0,0.0,0.6237362637362637
3.7356563359971915,0.0,0.0,0.6237362637362637
3.7393875649977417,0.0,0.004835164835164835,0.0
3.7461346329982916,0.0,0.01531135531135531,0.004029304029304029
3.752034637996985,0.0,0.01531135531135531,0.004029304029304029
3.7573518739991414,0.0,0.01531135531135531,0.004029304029304029
3.7590508189969114,0.0,0.0,0.04673992673992674
3.7642227949982043,0.0,0.0,0.04673992673992674
3.765816690000065,0.0,0.0,0.04673992673992674
3.7690130729970406,0.0,0.0,0.04673992673992674
3.7713071889993444,0.0,0.0,0.04673992673992674
3.771391942998889,0.0,0.0,0.04673992673992674
3.7769348669971805,0.0,0.0,0.04673992673992674
3.7770894759996736,0.0,0.0,0.02901098901098901
3.7852915699986625,0.0,0.0,0.02901098901098901
3.7905635319984867,0.0,0.0,0.02901098901098901
3.7935517169971718,0.0,0.0,0.02901098901098901
3.7990345179969154,0.0,0.0,0.02901098901098901
3.799190000998351,0.0,0.0,0.02901098901098901
3.8046329699973285,0.0,0.0,0.02901098901098901
3.805501159000414,0.0,0.0,0.02901098901098901
3.806986995998159,0.0,0.0,0.02901098901098901
3.813649379997514,0.0,0.0,0.02901098901098901
3.8182737799979805,0.0,0.0,0.02901098901098901
3.825143856000068,0.0,0.0032234432234432234,0.0
3.8318868989990733,0.0,0.0,0.0
3.8375757029971282,0.0,0.0,0.0
3.8462321929982863,0.0,0.0,0.0
3.850591488997452,0.0,0.004029304029304029,0.0
3.8521186129983107,0.0,0.0,0.03062271062271062
3.855901538998296,0.0,0.0,0.03062271062271062
3.8621039539975754,0.0,0.0,0.03062271062271062
3.868547548998322,0.0,0.0,0.03062271062271062
3.8721120549998886,0.0,0.0,0.03062271062271062
3.8721880769990094,0.0,0.0,0.03062271062271062
3.8789389269986714,0.0,0.0,0.03062271062271062
3.884163582999463,0.0,0.0,0.051575091575091575
3.8844671869992453,0.0,0.0,0.026593406593406595
3.890092775996891,0.0,0.0,0.026593406593406595
3.8902067019989772,0.0,0.008058608058608058,3.3
3.899135780000506,0.0,0.008058608058608058,3.3
3.9036529029981466,0.0,0.010476190476190476,0.1789010989010989
3.9039082269991923,0.0,0.010476190476190476,0.1789010989010989
3.9092316619971825,0.0,0.010476190476190476,0.1789010989010989
3.911973162998038,0.0,0.010476190476190476,0.1789010989010989
3.916533095998602,0.0,0.0,2.8027838827838827
3.9210944539991033,0.0,0.0,2.8027838827838827
3.921994446998724,0.0,0.0,2.8027838827838827
3.9235525129988673,0.0,0.0,2.8027838827838827
3.9323916639987146,0.0,0.0,2.8027838827838827
3.932619210998382,0.0,0.0032234432234432234,0.028205128205128206
3.943422404998273,0.0,0.0032234432234432234,0.028205128205128206
3.9558696469975985,0.0,0.0032234432234432234,0.028205128205128206
3.968660431997705,0.0,0.0,0.0008058608058608059
3.9764568879982107,0.0,0.004029304029304029,0.00967032967032967
3.9849703689978924,0.0,0.004029304029304029,0.00967032967032967
3.9931076239990944,0.0,0.004029304029304029,0.00967032967032967
4.0026548959976935,0.0,0.005641025641025641,0.0
4.009171306999633,0.0,0.005641025641025641,0.0
4.014139164999506,0.0,0.0,0.007252747252747252
4.018713004999881,0.0,0.0,0.007252747252747252
4.018788142999256,0.0,0.0,0.007252747252747252
4.0248642029982875,0.0,0.0,0.007252747252747252
4.032164338997973,0.0,0.0,0.007252747252747252
4.038411301000451,0.0,0.006446886446886447,2.764908424908425
4.0443302349995065,0.0,0.006446886446886447,2.764908424908425
4.049456106997241,0.0,0.006446886446886447,2.764908424908425
4.050403773999278,0.0,0.008058608058608058,0.008058608058608058
4.052097714997217,0.0,0.008058608058608058,0.008058608058608058
4.056036695998046,0.0,0.008058608058608058,0.008058608058608058
4.0591563419984595,0.0,0.008058608058608058,0.008058608058608058
4.0619440139998915,0.0,0.008058608058608058,0.008058608058608058
4.066485497998656,0.0,0.008058608058608058,0.008058608058608058
4.0666159669999615,0.0,0.008058608058608058,0.008058608058608058
4.072554620997835,0.0,0.008058608058608058,0.008058608058608058
4.077215768997121,0.0,0.008058608058608058,0.008058608058608058
4.084107388996927,0.0,0.008058608058608058,0.008058608058608058
4.088675169998169,0.0,0.004029304029304029,0.0
4.08953181799734,0.0,0.004029304029304029,0.0
4.091023771998152,0.0,0.004029304029304029,0.0
4.095240169997851,0.0,0.004029304029304029,0.0
4.097761114997411,0.0,0.004029304029304029,0.0
4.102954451998812,0.0,0.004029304029304029,0.0
4.10581505799928,0.0,0.004029304029304029,0.0
4.108729221999965,0.0,0.004029304029304029,0.0
4.112862693997158,0.0,0.004835164835164835,0.006446886446886447
4.114623773999483,0.0,0.004835164835164835,0.006446886446886447
4.117424074000155,0.0,0.004835164835164835,0.006446886446886447
4.121123295997677,0.0,0.004835164835164835,0.006446886446886447
4.126812600999983,0.0,0.004835164835164835,0.006446886446886447
4.127342935997149,0.0,0.0,0.012893772893772894
4.13401855399934,0.0,0.0,0.012893772893772894
4.138454803000059,0.0,0.0,0.012893772893772894
4.144796592998318,0.0,0.008058608058608058,0.03706959706959707
4.149851967998984,0.0,0.008058608058608058,0.03706959706959707
4.150739194999915,0.0,0.008058608058608058,0.03706959706959707
4.152287500997772,0.0,0.008058608058608058,0.03706959706959707
4.156621692000044,0.0,0.0024175824175824176,0.767985347985348
4.15833947200008,0.0,0.00967032967032967,0.06849816849816849
4.162735071997304,0.0,0.007252747252747252,0.004835164835164835
4.162907298999926,0.0,0.007252747252747252,0.004835164835164835
4.174553720000404,0.0,0.007252747252747252,0.004835164835164835
4.1848606649982685,0.0,0.007252747252747252,0.004835164835164835
4.193184484996891,0.0,0.0032234432234432234,0.0
4.200057179998112,0.0,0.004835164835164835,3.3
4.204503115997795,0.0,0.00967032967032967,0.012893772893772894
4.206841810999322,0.0,0.0032234432234432234,0.005641025641025641
4.207276313998591,0.0,0.0032234432234432234,0.005641025641025641
4.21275750699715,0.0,0.0032234432234432234,0.005641025641025641
4.215052810999623,0.0,0.011282051282051281,0.8816117216117215
4.215179684997565,0.0,0.011282051282051281,0.8816117216117215
4.220552052996936,0.0,0.011282051282051281,0.8816117216117215
4.2221723459988425,0.0,0.011282051282051281,0.8816117216117215
4.225908168999013,0.0,0.011282051282051281,0.8816117216117215
4.233506460997887,0.0,0.008864468864468863,0.0
4.2403704059979646,0.0,0.008864468864468863,0.0
4.243401067000377,0.0,0.008864468864468863,0.0
4.246247720999236,0.0,0.008864468864468863,0.0
4.249562371998763,0.0,0.008864468864468863,0.0
4.2498540229971695,0.0,0.008864468864468863,0.0
4.254999996999686,0.0,0.008864468864468863,0.0
4.2580029199998535,0.0,0.008864468864468863,0.0
4.260503235997021,0.0,0.008864468864468863,0.0
4.260594056999253,0.0,0.008864468864468863,0.0
4.2669134179996036,0.0,0.008864468864468863,0.0
4.270744437999383,0.0,0.008864468864468863,0.0
4.275937029997294,0.0,0.008864468864468863,0.0
4.279303856998013,0.0,0.008864468864468863,0.0
4.279398914997728,0.0,0.008864468864468863,0.0
4.285290697000164,0.0,0.008864468864468863,0.0
4.290353099997446,0.0,0.0008058608058608059,0.00967032967032967
4.295909266998933,0.0,0.03062271062271062,3.3
4.296157245000359,0.0,0.03062271062271062,3.3
4.305105811999965,0.0,0.007252747252747252,0.012893772893772894
4.3124918499997875,0.0,0.007252747252747252,0.012893772893772894
4.316096316997573,0.0,0.007252747252747252,0.012893772893772894
4.31628516300043,0.0,0.007252747252747252,0.012893772893772894
4.324632301999372,0.0,0.007252747252747252,0.012893772893772894
4.331537109999772,0.0,0.007252747252747252,0.012893772893772894
4.334884410996892,0.0,0.007252747252747252,0.012893772893772894
4.335739168000146,0.0,0.007252747252747252,0.012893772893772894
4.337355461997504,0.0,0.0,0.0
4.340462710999418,0.0,0.0,0.0
4.343683704999421,0.0,0.004835164835164835,0.03948717948717949
4.343972697999561,0.0,0.004835164835164835,0.03948717948717949
4.3501164029985375,0.0,0.004835164835164835,0.03948717948717949
4.3539489149989095,0.0,0.0,0.01531135531135531
4.358384627998021,0.0,0.0,0.01531135531135531
4.3592401440000685,0.0,0.0,0.01531135531135531
4.361294189999171,0.0,0.0,0.01531135531135531
4.362316479997389,0.0,0.0,0.01531135531135531
4.362546348998876,0.0,0.0,0.01531135531135531
4.369593231996987,0.0,0.0,0.01531135531135531
4.374079990997416,0.0,0.0,0.01531135531135531
4.3749323099982576,0.0,0.0,0.18937728937728937
4.377162412998587,0.0,0.0,0.18937728937728937
4.3775364969988,0.0,0.0,0.18937728937728937
4.384343048997835,0.0,0.011282051282051281,0.020146520146520144
4.3897266239982855,0.0,0.0,0.04351648351648352
4.3899743869988015,0.0,0.0,0.04351648351648352
4.400193983998179,0.0,0.0,0.04351648351648352
4.406690851999883,0.0,0.0,0.04351648351648352
4.412252417998388,0.0,0.004835164835164835,0.0
4.412456816000486,0.0,0.004835164835164835,0.0
4.418373200998758,0.0,0.0,0.05802197802197802
4.422240725998563,0.0,0.0,0.05802197802197802
4.426131821997842,0.0,0.004029304029304029,0.0
4.43389005499921,0.0,0.004029304029304029,0.0
4.438373318000231,0.0,0.004029304029304029,0.0
4.448804458999803,0.0,0.004029304029304029,0.029816849816849816
4.45432049900046,0.0,0.004029304029304029,0.029816849816849816
4.455875899999228,0.0,0.004029304029304029,0.029816849816849816
4.459668510000483,0.0,0.004029304029304029,0.029816849816849816
4.466012578999653,0.0,0.004029304029304029,0.029816849816849816
4.472499841998797,0.0,0.004029304029304029,0.029816849816849816
4.4763222969995695,0.0,0.004029304029304029,0.029816849816849816
4.482383069997013,0.0,0.0024175824175824176,0.03223443223443223
4.486124628998368,0.0,0.0024175824175824176,0.03223443223443223
4.491314581999177,0.0,0.0024175824175824176,0.03223443223443223
4.494794446000014,0.0,0.0032234432234432234,0.23531135531135527
4.504514586998994,0.0,0.0032234432234432234,0.23531135531135527
4.512557884998387,0.0,0.011282051282051281,0.0
4.518148072998883,0.0,0.011282051282051281,0.0
4.518233902999782,0.0,0.0008058608058608059,0.1652014652014652
4.523408349999954,0.0,0.0008058608058608059,0.1652014652014652
4.526661391999369,0.0,0.0,0.004029304029304029
4.5295917479998025,0.0,0.005641025641025641,0.0016117216117216117
4.532129150000401,0.0,0.005641025641025641,0.0016117216117216117
4.537781347997225,0.0,0.005641025641025641,0.0016117216117216117
4.537893578999501,0.0,0.005641025641025641,0.0016117216117216117
4.543221107996942,0.0,0.005641025641025641,0.0016117216117216117
4.54895630199826,0.0,0.005641025641025641,0.0016117216117216117
4.5525131249996775,0.0,0.005641025641025641,0.0016117216117216117
4.55789015299888,0.0,0.005641025641025641,0.0016117216117216117
4.560654902998067,0.0,0.0,0.00967032967032967
4.5659697709998,0.0,0.0,0.004835164835164835
4.567643759997736,0.0,0.0,0.004835164835164835
4.5705458279990125,0.0,0.0,0.004835164835164835
4.572774873999151,0.0,0.0,0.004835164835164835
4.572976472998562,0.0,0.0,0.004835164835164835
4.579115892000118,0.0,0.0,0.004835164835164835
4.58286391999718,0.0,0.004835164835164835,0.0
4.5874126050002815,0.0,0.004835164835164835,0.0
4.5881888269977935,0.0,0.004835164835164835,0.0
4.590651610997156,0.0,0.004835164835164835,0.0
4.590726634000021,0.0,0.004835164835164835,0.0
4.598883678998391,0.0,0.004835164835164835,0.0
4.602573534997646,0.0,0.004835164835164835,0.0
4.602641769997717,0.0,0.004835164835164835,0.0
4.6077100219990825,0.0,0.004835164835164835,0.0
4.613907507999102,0.0,0.004835164835164835,0.0
4.620899417997862,0.0,0.004835164835164835,0.0
4.628434356996877,0.0,0.004835164835164835,0.0
4.635353082998336,0.0,0.008058608058608058,0.0
4.640786419000506,0.0,0.008058608058608058,0.0
4.64095420099693,0.0,0.008058608058608058,0.0
4.650061588999961,0.0,0.008058608058608058,0.0
4.656132664997131,0.0,0.008058608058608058,0.0
4.662924705997284,0.0,0.008058608058608058,0.0
4.667088229998626,0.0,0.0032234432234432234,0.014505494505494505
4.668637604998366,0.0,0.0032234432234432234,0.014505494505494505
4.672382051998284,0.0,0.0032234432234432234,0.014505494505494505
4.677841289998469,0.0,0.006446886446886447,0.9138461538461539
4.678164499997365,0.0,0.006446886446886447,0.9138461538461539
4.688048341999092,0.0,0.006446886446886447,0.9138461538461539
4.694200319998345,0.0,0.004029304029304029,0.0032234432234432234
4.700454734000232,0.0,0.012893772893772894,2.5465201465201464
4.704156812997098,0.0,0.008058608058608058,0.0
4.709220826000092,0.0,0.008058608058608058,0.0
4.71588421299748,0.0,0.008058608058608058,0.0
4.720186851998733,0.0,0.008058608058608058,0.0
4.72235938799713,0.0,0.008058608058608058,0.0
4.7225699159971555,0.0,0.008058608058608058,0.0
4.728979573999823,0.0,0.008058608058608058,0.0
4.733734317000199,0.0,0.008058608058608058,0.0
4.738322476998292,0.0,0.008058608058608058,0.0
4.7445401519980805,0.0,0.008058608058608058,0.0
4.748714220997499,0.0,0.008058608058608058,0.0
4.75041265499749,0.0,0.008058608058608058,0.0
4.753398321998247,0.0,0.0,2.378901098901099
4.756352739997965,0.0,0.00967032967032967,0.4835164835164835
4.759353039000416,0.0,0.00967032967032967,0.4835164835164835
4.764037986999028,0.0,0.0,0.004029304029304029
4.770807657998375,0.0,0.0,0.004029304029304029
4.775127494998742,0.0,0.0032234432234432234,2.3885714285714283
4.77811845999895,0.0,0.004029304029304029,0.18695970695970696
4.780219224998291,0.0,0.004029304029304029,0.18695970695970696
4.780526421000104,0.0,0.004029304029304029,0.18695970695970696
4.7885490150001715,0.0,0.004029304029304029,0.18695970695970696
4.793337974999304,0.0,0.004029304029304029,0.18695970695970696
4.800685420999798,0.0,0.004029304029304029,0.18695970695970696
4.805267837000429,0.0,0.004835164835164835,0.00967032967032967
4.813410594997549,0.0,0.004835164835164835,0.00967032967032967
4.817919376997452,0.0,0.004835164835164835,0.00967032967032967
4.8180320329993265,0.0,0.004835164835164835,0.00967032967032967
4.825044843997603,0.0,0.004835164835164835,0.00967032967032967
4.832245329998841,0.0,0.004835164835164835,0.00967032967032967
4.837378188000002,0.0,0.004835164835164835,0.00967032967032967
4.838881579998997,0.0,0.010476190476190476,0.037875457875457874
4.844578887998068,0.0,0.010476190476190476,0.037875457875457874
4.844755779999105,0.0,0.010476190476190476,0.037875457875457874
4.851643572998,0.0,0.010476190476190476,0.037875457875457874
4.856340909998835,0.0,0.010476190476190476,0.037875457875457874
4.86380488499708,0.0,0.010476190476190476,0.037875457875457874
4.867496327999106,0.0,0.0,0.0
4.871304094998777,0.0,0.0032234432234432234,0.0
4.876148944000306,0.0,0.0032234432234432234,0.0
4.882197393999377,0.0,0.011282051282051281,0.022564102564102562
4.885165130999667,0.0,0.004835164835164835,0.0
4.888044839997747,0.0,0.004835164835164835,0.0
4.891078933997051,0.0,0.004835164835164835,0.0
4.895783715997823,0.0,0.004835164835164835,0.0
4.901341050997871,0.0,0.004835164835164835,0.0
4.901433947998157,0.0,0.004835164835164835,0.0
4.906622827998945,0.0,0.004835164835164835,0.0
4.9101099019972025,0.0,0.0,0.006446886446886447
4.9102049289977,0.0,0.0,0.006446886446886447
4.917191783999442,0.0,0.0,0.006446886446886447
4.921608705997642,0.0,0.0,0.0
4.922458954999456,0.0,0.0,0.0
4.924032491999242,0.0,0.0,0.0
4.928545978000329,0.0,0.0,0.0
4.928827030998946,0.0,0.0,0.0
4.935293624999758,0.0,0.0,0.0
4.939029158998892,0.0,0.0,0.0
4.939181280999037,0.0,0.0,0.006446886446886447
4.945414396999695,0.0,0.0,0.006446886446886447
4.949162467997667,0.0,0.03948717948717949,0.0
4.95362448999731,0.0,0.00967032967032967,0.19663003663003664
4.95457622899994,0.0,0.00967032967032967,0.19663003663003664
4.955479244999879,0.0,0.00967032967032967,0.19663003663003664
4.956411040999228,0.0,0.00967032967032967,0.19663003663003664
4.957284929998423,0.0,0.00967032967032967,0.19663003663003664
4.9587864669993,0.0,0.00967032967032967,0.19663003663003664
4.965989030999481,0.0,0.00967032967032967,0.19663003663003664
4.970438434000243,0.0,0.00967032967032967,0.19663003663003664
4.971961597999325,0.0,0.00967032967032967,0.19663003663003664
4.9755203099994105,0.0,0.00967032967032967,0.19663003663003664
4.975749995999649,0.0,0.00967032967032967,0.19663003663003664
4.983425413000077,0.0,0.00967032967032967,0.19663003663003664
4.98838608799997,0.0,0.00967032967032967,0.19663003663003664
4.99501104799856,0.0,0.0,0.005641025641025641
4.998904370997479,0.0,0.0,0.005641025641025641
5.001853344998381,0.0,0.0,0.005641025641025641
5.005900236999878,0.0,0.0,0.005641025641025641
5.011197955998796,0.0,0.0,0.005641025641025641
5.01148025799921,0.0,0.0,0.005641025641025641
5.016964241000096,0.0,0.0,0.005641025641025641
5.017119459997048,0.0,0.0,0.005641025641025641
5.022489786999358,0.0,0.0,0.005641025641025641
5.023390174999804,0.0,0.0,0.005641025641025641
5.0250669899978675,0.0,0.0,0.005641025641025641
5.029862087998481,0.0,0.0,0.005641025641025641
5.034653443999559,0.0,0.0,0.005641025641025641
5.039767538997694,0.0,0.007252747252747252,0.07494505494505493
5.0447204199990665,0.0,0.007252747252747252,0.07494505494505493
5.049021801998606,0.0,0.007252747252747252,0.07494505494505493
5.049139156999445,0.0,0.0,0.012893772893772894
5.054465754998091,0.0,0.0,0.012893772893772894
5.055926942997758,0.0,0.0,0.06205128205128205
5.0618725969980005,0.0,0.0,0.01934065934065934
5.0665615839971,0.0,0.0,0.0
5.071748465998098,0.0,0.004029304029304029,0.01934065934065934
5.074703578000481,0.0,0.004029304029304029,0.01934065934065934
5.077246450997336,0.0,0.004029304029304029,0.01934065934065934
5.082400824998331,0.0,0.004029304029304029,0.01934065934065934
5.086153995998757,0.0,0.004029304029304029,0.01934065934065934
5.08996143100012,0.0,0.004029304029304029,0.01934065934065934
5.094401123998978,0.0,0.004029304029304029,0.01934065934065934
5.095244451997132,0.0,0.004029304029304029,0.01934065934065934
5.096902105000481,0.0,0.004029304029304029,0.01934065934065934
5.10000056699937,0.0,0.004029304029304029,0.01934065934065934
5.101540804000251,0.0,0.004029304029304029,0.01934065934065934
5.105308570997295,0.0,0.004029304029304029,0.01934065934065934
5.11044930099888,0.0,0.004029304029304029,0.01934065934065934
5.112792034000449,0.0,0.007252747252747252,0.0
5.112913953998941,0.0,0.007252747252747252,0.0
5.119009935999202,0.0,0.007252747252747252,0.0
5.12269006799761,0.0,0.007252747252747252,0.0
5.1294366309994075,0.0,0.007252747252747252,0.0
5.133691431998159,0.0,0.007252747252747252,0.0
5.135305142997822,0.0,0.004835164835164835,0.09347985347985348
5.138312560000486,0.0,0.004835164835164835,0.09347985347985348
5.141247092997219,0.0,0.004835164835164835,0.09347985347985348
5.145348609999928,0.0,0.004835164835164835,0.09347985347985348
5.148840776997531,0.0,0.004835164835164835,0.09347985347985348
5.154453371997079,0.0,0.004835164835164835,0.09347985347985348
5.155279320999398,0.0,0.004835164835164835,0.09347985347985348
5.1568279639977845,0.0,0.004835164835164835,0.09347985347985348
5.161389053999301,0.0,0.004835164835164835,0.09347985347985348
5.161651767997682,0.0,0.004835164835164835,0.09347985347985348
5.166708783999638,0.0,0.004835164835164835,0.09347985347985348
5.170289811998373,0.0,0.004835164835164835,0.09347985347985348
5.1705306169969845,0.0,0.004835164835164835,0.09347985347985348
5.175969436997548,0.0,0.004835164835164835,0.09347985347985348
5.176884066997445,0.0,0.012893772893772894,0.24256410256410255
5.178011609998066,0.0,0.012893772893772894,0.24256410256410255
5.178249516997312,0.0,0.012893772893772894,0.24256410256410255
5.184195206998993,0.0,0.012893772893772894,0.24256410256410255
5.18901293199815,0.0,0.0024175824175824176,0.0
5.193578120997699,0.0,0.0024175824175824176,0.0
5.193810262997431,0.0,0.0024175824175824176,0.0
5.199095042000408,0.0,0.0024175824175824176,0.0
5.201984651997918,0.0,0.0024175824175824176,0.0
5.204699208999955,0.0,0.0024175824175824176,0.0
5.209335354997165,0.0,0.0032234432234432234,0.0
5.209585859996878,0.0,0.004029304029304029,0.020146520146520144
5.215384985000128,0.0,0.004029304029304029,0.020146520146520144
5.215488268997433,0.0,0.004029304029304029,0.020146520146520144
5.2206207899980654,0.0,0.004029304029304029,0.020146520146520144
5.223555253000086,0.0,0.006446886446886447,0.03223443223443223
5.225745523999649,0.0,0.004835164835164835,0.0
5.225976767997054,0.0,0.004835164835164835,0.0
5.231065641997702,0.0,0.004835164835164835,0.0
5.234850675999041,0.0,0.004835164835164835,0.0
5.2400037629995495,0.0,0.004835164835164835,0.0
5.243813496999792,0.0,0.004835164835164835,0.0
5.247566296999139,0.0,0.004835164835164835,0.004029304029304029
5.252017620998231,0.0,0.008864468864468863,0.0
5.25229072699949,0.0,0.008864468864468863,0.0
5.256888355997944,0.0,0.008864468864468863,0.0
5.257088251997629,0.0,0.008864468864468863,0.0
5.262938308998855,0.0,0.008864468864468863,0.0
5.267399592998117,0.0,0.0,0.0273992673992674
5.268213837996882,0.0,0.0,0.0273992673992674
5.269790178997937,0.0,0.0,0.0273992673992674
5.273522769999545,0.0,0.0,0.0273992673992674
5.277850544996909,0.0,0.0,0.0273992673992674
5.278646257000219,0.0,0.0,0.0273992673992674
5.280182896000042,0.0,0.0,0.0273992673992674
5.284071928999765,0.0,0.0,0.0273992673992674
5.287961463996908,0.0,0.0,0.0273992673992674
5.292426321997482,0.0,0.0,0.0273992673992674
5.293217161997745,0.0,0.0,0.0273992673992674
5.29476546099977,0.0,0.0,0.0273992673992674
5.299471667000034,0.0,0.0,0.0273992673992674
5.304038991998823,0.0,0.0,0.0273992673992674
5.304163069999049,0.0,0.0,0.0273992673992674
5.309534594998695,0.0,0.0,0.0273992673992674
5.311314110997046,0.0,0.004835164835164835,0.0
5.313804555997194,0.0,0.004835164835164835,0.0
5.313875387997541,0.0,0.004835164835164835,0.0
5.322677222997299,0.0,0.004835164835164835,0.0
5.327836200998718,0.0,0.004835164835164835,0.0
5.331579061999946,0.0,0.004835164835164835,0.0
5.336094628997671,0.0,0.0,3.3
5.336930835997919,0.0,0.0,1.423956043956044
5.338635293999687,0.0,0.0,1.423956043956044
5.342288528998324,0.0,0.004029304029304029,0.016117216117216115
5.347635529000399,0.0,0.004029304029304029,0.016117216117216115
5.349231796997628,0.0,0.004029304029304029,0.016117216117216115
5.35288403499726,0.0,0.004029304029304029,0.016117216117216115
5.358106460000272,0.0,0.004029304029304029,0.016117216117216115
5.3610604779969435,0.0,0.004029304029304029,0.016117216117216115
5.363302280999051,0.0,0.004029304029304029,0.016117216117216115
5.363488199996937,0.0,0.004029304029304029,0.016117216117216115
5.368865614997048,0.0,0.004029304029304029,0.016117216117216115
5.371379993997834,0.0,0.012893772893772894,0.0016117216117216117
5.376742342999933,0.0,0.012893772893772894,0.0016117216117216117
5.380098092999106,0.0,0.012893772893772894,0.0016117216117216117
5.388731874998484,0.0,0.006446886446886447,0.018534798534798533
5.398934411998198,0.0,0.008864468864468863,0.0
5.4082338029984385,0.0,0.008864468864468863,0.0
5.4175820339987695,0.0,0.008864468864468863,0.0
5.42244854999808,0.0,0.004029304029304029,0.6753113553113552
5.428260874999978,0.0,0.004029304029304029,0.6753113553113552
5.43429697999818,0.0,0.0,0.19340659340659339
5.438813257998845,0.0,0.0,0.19340659340659339
5.439605986997776,0.0,0.0,0.19340659340659339
5.441366805000143,0.0,0.0,0.19340659340659339
5.446847187999083,0.0,0.0,0.19340659340659339
5.447737418999168,0.0,0.0,0.19340659340659339
5.448582531000284,0.0,0.0,0.19340659340659339
5.450459001996933,0.0,0.0,0.19340659340659339
5.452702436999971,0.0,0.0008058608058608059,2.0533333333333332
5.452912458000355,0.0,0.0008058608058608059,2.0533333333333332
5.458105920999515,0.0,0.0008058608058608059,2.0533333333333332
5.461487990000023,0.0,0.0008058608058608059,2.0533333333333332
5.461685073998524,0.0,0.0008058608058608059,2.0533333333333332
5.467261194000457,0.0,0.0008058608058608059,2.0533333333333332
5.467420642999059,0.0,0.0008058608058608059,2.0533333333333332
5.472545130996878,0.0,0.0008058608058608059,2.0533333333333332
5.476571389997844,0.0,0.0008058608058608059,2.0533333333333332
5.481323660998896,0.0,0.0008058608058608059,2.0533333333333332
5.486944583997683,0.0,0.0008058608058608059,2.0533333333333332
5.487032588996954,0.0,0.0,0.005641025641025641
5.492187676998583,0.0,0.0,0.005641025641025641
5.496123059998354,0.0,0.010476190476190476,1.016190476190476
5.499536215000262,0.0,0.010476190476190476,1.016190476190476
5.499699441999837,0.0,0.010476190476190476,1.016190476190476
5.504891481999948,0.0,0.004029304029304029,0.0
5.508608677999291,0.0,0.004029304029304029,0.0
5.516437212998426,0.0,0.004029304029304029,0.0
5.520914444998198,0.0,0.004029304029304029,0.0
5.521188752998569,0.0,0.004029304029304029,0.0
5.526453184997081,0.0,0.004029304029304029,0.0
5.53023153599861,0.0,0.004029304029304029,0.0
5.533465142998466,0.0,0.004029304029304029,0.0
5.534994011999515,0.0,0.004029304029304029,0.0
5.538643746996968,0.0,0.004029304029304029,0.0
5.5388105169986375,0.0,0.004029304029304029,0.0
5.544762132998585,0.0,0.004029304029304029,0.0
5.5496160719994805,0.0,0.004029304029304029,0.0
5.552585153996915,0.0,0.004029304029304029,0.0
5.554170655999769,0.0,0.004029304029304029,0.0
5.557896736998373,0.0,0.004029304029304029,0.0
5.564323175000027,0.0,0.004029304029304029,0.0
5.567374316000496,0.0,0.004029304029304029,0.0
5.569579552000505,0.0,0.004029304029304029,0.0
5.569893083000352,0.0,0.004029304029304029,0.0
5.575253966999298,0.0,0.004029304029304029,0.0
5.578219633000117,0.0,0.004029304029304029,0.0
5.58071964699775,0.0,0.004029304029304029,0.0
5.5855196219999925,0.0,0.004029304029304029,0.0
5.585581678999006,0.0,0.004029304029304029,0.0
5.590963998998632,0.0,0.004029304029304029,0.0
5.591914597000141,0.0,0.004029304029304029,0.0
5.593196845999046,0.0,0.004029304029304029,0.0
5.5933307979976234,0.0,0.0,0.1958241758241758
5.600088453000353,0.0,0.0,0.1958241758241758
5.603962749999482,0.0,0.008058608058608058,0.006446886446886447
5.607691778997832,0.0,0.008058608058608058,0.006446886446886447
5.607802840997465,0.0,0.008058608058608058,0.006446886446886447
5.615550688999065,0.0,0.008058608058608058,0.006446886446886447
5.619374367997807,0.0,0.014505494505494505,0.7486446886446886
5.624823128997377,0.0,0.0,0.022564102564102562
5.6250337149976986,0.0,0.0,0.022564102564102562
5.633182980996935,0.0,0.0,0.022564102564102562
5.6377814739971654,0.0,0.0,0.022564102564102562
5.638041711998085,0.0,0.0,0.022564102564102562
5.643480882998119,0.0,0.0,0.022564102564102562
5.644429766998655,0.0,0.006446886446886447,0.0
5.6457598469969525,0.0,0.006446886446886447,0.0
5.651613745998475,0.0,0.006446886446886447,0.0
5.651730524998129,0.0,0.006446886446886447,0.0
5.657645625997247,0.0,0.006446886446886447,0.0
5.666600147997087,0.0,0.006446886446886447,0.0
5.672977225996874,0.0,0.006446886446886447,0.0
5.676698408999073,0.0,0.006446886446886447,0.0
5.688843211999483,0.0,0.006446886446886447,0.0
5.699783083000511,0.0,0.006446886446886447,0.0
5.704537346999132,0.0,0.006446886446886447,0.0
5.7117589949994,0.0,0.006446886446886447,0.0
5.715494947999105,0.0,0.0,1.8405860805860805
5.720066393998422,0.0,0.007252747252747252,0.12249084249084248
5.720919903000322,0.0,0.007252747252747252,0.12249084249084248
5.722784117999254,0.0,0.007252747252747252,0.12249084249084248
5.726078584997595,0.0,0.007252747252747252,0.12249084249084248
5.728191131998756,0.0,0.007252747252747252,0.12249084249084248
5.728424335997261,0.0,0.007252747252747252,0.12249084249084248
5.734397601998353,0.0,0.007252747252747252,0.12249084249084248
5.738183421999565,0.0,0.0,2.5626373626373624
5.743478110998694,0.0,0.0,2.5626373626373624
5.746164525000495,0.0,0.0,2.5626373626373624
5.7500508169978275,0.0,0.0,2.5626373626373624
5.754008329997305,0.0,0.0,2.5626373626373624
5.757086412999342,0.0,0.0,2.5626373626373624
5.760114437998709,0.0,0.0,2.5626373626373624
5.761155187999975,0.0,0.0,2.5626373626373624
5.761440774000221,0.0,0.0,2.5626373626373624
5.76706969499719,0.0,0.0,2.5626373626373624
5.767940139998245,0.0,0.0,2.5626373626373624
5.769543046997569,0.0,0.0,2.5626373626373624
5.773920567000459,0.0,0.0,2.5626373626373624
5.77552186200046,0.0,0.0,2.5626373626373624
5.779375453999819,0.0,0.0,2.5626373626373624
5.786377656997502,0.0,0.0,2.5626373626373624
5.791432747999352,0.0,0.0,2.5626373626373624
5.7950174389989115,0.0,0.0,2.198388278388278
5.803524134000327,0.0,0.0,2.198388278388278
5.809168017000047,0.0,0.012087912087912087,0.005641025641025641
5.810141603000375,0.0,0.012087912087912087,0.005641025641025641
5.811356644997431,0.0,0.012087912087912087,0.005641025641025641
5.811648184997466,0.0,0.012087912087912087,0.005641025641025641
5.8221949379985745,0.0,0.012087912087912087,0.005641025641025641
5.832640709999396,0.0,0.012087912087912087,0.005641025641025641
5.838188156998513,0.0,0.012087912087912087,0.005641025641025641
5.84026032699694,0.0,0.007252747252747252,0.004835164835164835
5.841215590000502,0.0,0.007252747252747252,0.004835164835164835
5.843825697000284,0.0,0.007252747252747252,0.004835164835164835
5.849936421996972,0.0,0.007252747252747252,0.004835164835164835
5.8537483679974684,0.0,0.004835164835164835,0.0
5.85389646099793,0.0,0.004835164835164835,0.0
5.858273136000207,0.0,0.004835164835164835,0.0
5.860226020999107,0.0,0.004835164835164835,0.0
5.8648511600003985,0.0,0.0,0.0016117216117216117
5.870359427997755,0.0,0.0,0.0016117216117216117
5.870562522999535,0.0,0.0,0.0016117216117216117
5.87589894699704,0.0,0.0,0.0016117216117216117
5.879291400000511,0.0,0.008864468864468863,0.0709157509157509
5.884908205000102,0.0,0.008864468864468863,0.0709157509157509
5.884980929000449,0.0,0.008864468864468863,0.0709157509157509
5.892739229999279,0.0,0.008864468864468863,0.0709157509157509
5.89902974099823,0.0,0.008864468864468863,0.0709157509157509
5.904949567997392,0.0,0.008864468864468863,0.0709157509157509
5.912081353999383,0.0,0.008864468864468863,0.0709157509157509
5.916653997999674,0.0,0.008864468864468863,0.0709157509157509
5.916742558998521,0.0,0.008864468864468863,0.0709157509157509
5.921986229997856,0.0,0.008864468864468863,0.0709157509157509
5.924904588999198,0.0,0.008864468864468863,0.0709157509157509
5.929524808998394,0.0,0.008864468864468863,0.0709157509157509
5.934664681997674,0.0,0.008864468864468863,0.0709157509157509
5.936249534999661,0.0,0.008058608058608058,0.5729670329670329
5.940834515000461,0.0,0.008058608058608058,0.5729670329670329
5.941086433998862,0.0,0.008058608058608058,0.5729670329670329
5.947291876000236,0.0,0.008058608058608058,0.5729670329670329
5.950464882997039,0.0,0.004835164835164835,0.0
5.9526601059988025,0.0,0.0024175824175824176,0.11926739926739927
5.953439483997499,0.0,0.0024175824175824176,0.11926739926739927
5.955382398999063,0.0,0.0024175824175824176,0.11926739926739927
5.957158330998936,0.0,0.0024175824175824176,0.11926739926739927
5.961228651998681,0.0,0.0024175824175824176,0.11926739926739927
5.964325220000319,0.0,0.0024175824175824176,0.11926739926739927
5.965468938997219,0.0,0.0024175824175824176,0.11926739926739927
5.965720113999851,0.0,0.0024175824175824176,0.11926739926739927
5.975130515998899,0.0,0.0024175824175824176,0.11926739926739927
5.983236298998236,0.0,0.0,1.3248351648351648
5.988303874997655,0.0,0.0,0.0032234432234432234
5.993070128999534,0.0,0.010476190476190476,0.0
6.000629816997389,0.0,0.010476190476190476,0.0
6.005559557997913,0.0,0.010476190476190476,0.0
6.011423288997321,0.0,0.010476190476190476,0.0
6.017281970998738,0.0,0.004835164835164835,0.15069597069597068
6.021613480999804,0.0,0.0,0.01531135531135531
6.02253117500004,0.0,0.0032234432234432234,0.0
6.024258737998025,0.0,0.0032234432234432234,0.0
6.029442082999594,0.0,0.0032234432234432234,0.0
6.032370969998738,0.0,0.0032234432234432234,0.0
6.0339986119979585,0.0,0.0032234432234432234,0.0
6.038411108998844,0.0,0.0032234432234432234,0.0
6.03920729499805,0.0,0.0032234432234432234,0.0
6.04145534899726,0.0,0.0032234432234432234,0.0
6.041728601998329,0.0,0.0,0.0
6.047859194997727,0.0,0.0,0.0
6.051562431999628,0.0,0.0,0.0
6.056214833999547,0.0,0.0,0.0
6.05628969999816,0.0,0.0032234432234432234,0.02175824175824176
6.0633883089976734,0.0,0.0032234432234432234,0.02175824175824176
6.0664357479981845,0.0,0.0032234432234432234,0.02175824175824176
6.069168300000456,0.0,0.0032234432234432234,0.02175824175824176
6.073117539999657,0.0,0.0032234432234432234,0.02175824175824176
6.076371227998607,0.0,0.0032234432234432234,0.02175824175824176
6.077321429998847,0.0,0.0032234432234432234,0.02175824175824176
6.078729060998739,0.0,0.0032234432234432234,0.02175824175824176
6.083992809999472,0.0,0.012893772893772894,0.0024175824175824176
6.086917632997938,0.0,0.012893772893772894,0.0024175824175824176
6.089771029997792,0.0,0.0,0.0
6.093303155998001,0.0,0.0,0.0
6.100673904998985,0.0,0.004835164835164835,0.0136996336996337
6.105183435000072,0.0,0.0016117216117216117,0.011282051282051281
6.105439898998156,0.0,0.0016117216117216117,0.011282051282051281
6.112070204999327,0.0,0.0016117216117216117,0.045128205128205125
6.117973276999692,0.0,0.0,0.045128205128205125
6.120977200000198,0.0,0.0,0.045128205128205125
6.1245934660000785,0.0,0.0,0.045128205128205125
6.13101545599784,0.0,0.0,0.045128205128205125
6.134866027998214,0.0,0.0,0.045128205128205125
6.139290038998297,0.0,0.0,0.045128205128205125
6.14010907699776,0.0,0.0,0.045128205128205125
6.141703289998986,0.0,0.0,0.045128205128205125
6.146381755999755,0.0,0.0,0.045128205128205125
6.146451927997987,0.0,0.0,0.045128205128205125
6.15164166699833,0.0,0.0,0.045128205128205125
6.154676346999622,0.0,0.0,0.045128205128205125
6.157612342998618,0.0,0.0,0.045128205128205125
6.16000659799829,0.0,0.0,0.045128205128205125
6.160208286997658,0.0,0.0,0.045128205128205125
6.165378046000114,0.0,0.0,0.045128205128205125
6.168388912999944,0.0,0.0,0.045128205128205125
6.169921572000021,0.0,0.0,0.045128205128205125
6.174312734998239,0.0,0.0024175824175824176,0.04915750915750916
6.175823503999709,0.0,0.0024175824175824176,0.04915750915750916
6.180896330999531,0.0,0.0024175824175824176,0.04915750915750916
6.18461758599733,0.0,0.008058608058608058,0.0
6.189724177998869,0.0,0.008058608058608058,0.0
6.193746695997106,0.0,0.0,0.03545787545787545
6.198178313999961,0.0,0.0,0.03545787545787545
6.198244397997769,0.0,0.0,0.03545787545787545
6.204251352999563,0.0,0.0,0.03545787545787545
6.208294364998437,0.0,0.0,0.03545787545787545
6.210809405998589,0.0,0.0,0.03545787545787545
6.2163036259989894,0.0,0.0,0.03545787545787545
6.217894692999835,0.0,0.0,0.04996336996336996
6.222498265000468,0.0,0.0,0.04996336996336996
6.2282148220001545,0.0,0.0,0.04996336996336996
6.228383433997806,0.0,0.0,0.04996336996336996
6.233978893997119,0.0,0.0,0.04996336996336996
6.234108253000159,0.0,0.007252747252747252,0.011282051282051281
6.239713887996913,0.0,0.007252747252747252,0.011282051282051281
6.240777617997082,0.0,0.007252747252747252,0.011282051282051281
6.241648949999217,0.0,0.007252747252747252,0.011282051282051281
6.243297605000407,0.0,0.007252747252747252,0.011282051282051281
6.2478652379977575,0.0,0.007252747252747252,0.011282051282051281
6.253457957998762,0.0,0.007252747252747252,0.011282051282051281
6.254349101996922,0.0,0.0024175824175824176,0.025787545787545788
6.255148958000063,0.0,0.0024175824175824176,0.025787545787545788
6.256685958000162,0.0,0.0024175824175824176,0.025787545787545788
6.2635493769994355,0.0,0.0024175824175824176,0.025787545787545788
6.267591689997062,0.0,0.0024175824175824176,0.025787545787545788
6.269907868998416,0.0,0.0024175824175824176,0.025787545787545788
6.270110946999921,0.0,0.0024175824175824176,0.025787545787545788
6.275558930999978,0.0,0.0024175824175824176,0.025787545787545788
6.277172496997082,0.0,0.0024175824175824176,0.025787545787545788
6.282490835998033,0.0,0.0024175824175824176,0.025787545787545788
6.282743468997069,0.0,0.0024175824175824176,0.025787545787545788
6.288699495999026,0.0,0.0024175824175824176,0.025787545787545788
6.292405598996993,0.0,0.004835164835164835,0.03062271062271062
6.297946853999747,0.0,0.004029304029304029,0.004835164835164835
6.298188800999924,0.0,0.004029304029304029,0.004835164835164835
6.303740006998851,0.0,0.004029304029304029,0.004835164835164835
6.304584450997936,0.0,0.004029304029304029,0.004835164835164835
6.306128453998099,0.0,0.004029304029304029,0.004835164835164835
6.3097883539994655,0.0,0.004029304029304029,0.004835164835164835
6.309894546997384,0.0,0.004029304029304029,0.004835164835164835
6.315166742999281,0.0,0.004029304029304029,0.004835164835164835
6.317658277999726,0.0,0.004835164835164835,0.0024175824175824176
6.3236891249980545,0.0,0.004835164835164835,0.0024175824175824176
6.327335902999039,0.0,0.004835164835164835,0.0024175824175824176
6.331649629999447,0.0,0.004835164835164835,0.0024175824175824176
6.332664563000435,0.0,0.004835164835164835,0.0024175824175824176
6.333406634999847,0.0,0.004835164835164835,0.0024175824175824176
6.3348697449982865,0.0,0.004835164835164835,0.0024175824175824176
6.339601964999019,0.0,0.004835164835164835,0.0024175824175824176
6.339774791998934,0.0,0.004835164835164835,0.0
6.344547933997092,0.0,0.004835164835164835,0.0
6.34472516799724,0.0,0.004835164835164835,0.0
6.349520560997917,0.0,0.004835164835164835,0.0
6.3495893819999765,0.0,0.004835164835164835,0.0
6.354409486997611,0.0,0.004835164835164835,0.0
6.35927257900039,0.0,0.004835164835164835,0.0
6.359452835000411,0.0,0.0,0.0
6.364113108997117,0.0,0.0,0.0
6.364829906997329,0.0,0.0,0.0
6.36690972499855,0.0,0.0,0.0
6.368929700998706,0.0,0.0,0.0
6.370989261999057,0.0,0.0,0.0
6.371751602997392,0.0,0.0,0.0
6.37380010799825,0.0,0.0,0.0
6.375188321999303,0.0,0.0,0.0
6.379234391999489,0.0,0.0,0.0
6.382609565000166,0.0,0.006446886446886447,0.016923076923076923
6.382870006000303,0.0,0.006446886446886447,0.016923076923076923
6.387588615998538,0.0,0.006446886446886447,0.016923076923076923
6.387781540997821,0.0,0.006446886446886447,0.016923076923076923
6.392565850997926,0.0,0.006446886446886447,0.016923076923076923
6.3972451359986735,0.0,0.006446886446886447,0.016923076923076923
6.403364939000312,0.0,0.006446886446886447,0.016923076923076923
6.407062291997136,0.0,0.006446886446886447,0.016923076923076923
6.407207575997745,0.0,0.006446886446886447,0.016923076923076923
6.412338149999414,0.0,0.006446886446886447,0.016923076923076923
6.4170495420003135,0.0,0.006446886446886447,0.016923076923076923
6.421513547000359,0.0,0.0024175824175824176,0.020146520146520144
6.422314065999672,0.0,0.0008058608058608059,0.033846153846153845
6.42450299399934,0.0,0.0008058608058608059,0.033846153846153845
6.424784863997047,0.0,0.0008058608058608059,0.033846153846153845
6.429910865997954,0.0,0.004835164835164835,0.0
6.433763449997059,0.0,0.004835164835164835,0.0
6.437480707998475,0.0,0.0032234432234432234,0.007252747252747252
6.441848272999778,0.0,0.0032234432234432234,0.007252747252747252
6.443528302999766,0.0,0.0032234432234432234,0.007252747252747252
6.447188877998997,0.0,0.0032234432234432234,0.007252747252747252
6.451529064997885,0.0,0.0032234432234432234,0.007252747252747252
6.452286194999033,0.0,0.0032234432234432234,0.007252747252747252
6.454480272997898,0.0,0.0032234432234432234,0.007252747252747252
6.455212236000079,0.0,0.0032234432234432234,0.007252747252747252
6.457297019998805,0.0,0.0032234432234432234,0.007252747252747252
6.4586858410002606,0.0,0.0032234432234432234,0.007252747252747252
6.463440144998458,0.0,0.0032234432234432234,0.007252747252747252
6.463730998999381,0.0,0.0,0.03706959706959707
6.46839467099926,0.0,0.0,0.03706959706959707
6.468589064999833,0.0,0.0,0.03706959706959707
6.473268115998508,0.0,0.0,0.03706959706959707
6.473450959998445,0.0,0.006446886446886447,1.0355311355311354
6.4781567709978845,0.0,0.006446886446886447,1.0355311355311354
6.478352073998394,0.0,0.006446886446886447,1.0355311355311354
6.483017528000346,0.0,0.006446886446886447,1.0355311355311354
6.483274256999721,0.0,0.0,0.0
6.487949704998755,0.0,0.0,0.0
6.48822399999699,0.0,0.0,0.0
6.493242619999364,0.0,0.0,0.0
6.49702463399808,0.0,0.0,0.0
6.5021863900001335,0.0,0.0,0.0
6.505215347999183,0.0,0.0,0.0
6.507395418997476,0.0,0.0,0.0
6.508197889997973,0.0,0.0,0.0
6.51054656999986,0.0,0.0,0.0
6.510682980999263,0.0,0.0,0.0
6.515884215998085,0.0,0.0,0.0
6.518109722997906,0.0,0.0,0.0
6.518387441999948,0.0,0.0,0.0
6.523496997997427,0.0,0.0,0.0
6.526499163999688,0.0,0.0,0.0
6.5280684069985,0.0,0.0,0.0
6.5323741319989495,0.0,0.0,0.0
6.534001412997895,0.0,0.0,0.0
6.5376479719998315,0.0,0.0,0.0
6.537779397996928,0.0,0.0,0.0
6.543192226999963,0.0,0.0,0.0
6.54397669500031,0.0,0.0,0.0
6.5455097679987375,0.0,0.0,0.0
6.549849203998747,0.0,0.0,0.0
6.550639167999179,0.0,0.0,0.0
6.5528136159991845,0.0,0.0,0.0
6.553529622000497,0.0,0.0032234432234432234,0.0
6.555603649998375,0.0,0.0032234432234432234,0.0
6.556381602000329,0.0,0.0032234432234432234,0.0
6.558402719998412,0.0,0.0032234432234432234,0.0
6.5598249079994275,0.0,0.0032234432234432234,0.0
6.5644832929974655,0.0,0.0032234432234432234,0.0
6.564729499998066,0.0,0.0032234432234432234,0.02095238095238095
6.569442454998352,0.0,0.0032234432234432234,0.02095238095238095
6.574162163997244,0.0,0.0032234432234432234,0.02095238095238095
6.574254914998164,0.0,0.0032234432234432234,0.02095238095238095
6.578960759998154,0.0,0.004029304029304029,0.0016117216117216117
6.579178265998053,0.0,0.004029304029304029,0.0016117216117216117
6.583924925998872,0.0,0.004029304029304029,0.0016117216117216117
6.588616204997379,0.0,0.004029304029304029,0.0016117216117216117
6.5887755369985825,0.0,0.004029304029304029,0.0016117216117216117
6.593447926999943,0.0,0.004029304029304029,0.0016117216117216117
6.594199080998806,0.0,0.004029304029304029,0.0016117216117216117
6.596260246999009,0.0,0.004029304029304029,0.0016117216117216117
6.597059203999379,0.0,0.004029304029304029,0.0016117216117216117
6.599106882000342,0.0,0.004029304029304029,0.0016117216117216117
6.600512624998373,0.0,0.004029304029304029,0.0016117216117216117
6.60457122599837,0.0,0.004029304029304029,0.0016117216117216117
6.607357285000035,0.0,0.004029304029304029,0.0016117216117216117
6.610764536999341,0.0,0.004029304029304029,0.0016117216117216117
6.61102133699751,0.0,0.008864468864468863,0.8445421245421244
6.615822316998674,0.0,0.008864468864468863,0.8445421245421244
6.615938318998815,0.0,0.008864468864468863,0.8445421245421244
6.62069653099752,0.0,0.008864468864468863,0.8445421245421244
6.625470726998174,0.0,0.008864468864468863,0.8445421245421244
6.625635235999653,0.0,0.0,0.0
6.630380418999266,0.0,0.0,0.0
6.630586333998508,0.0,0.0,0.0
6.635646899998392,0.0,0.0,0.0
6.639412435997656,0.0,0.0,0.0
6.643138056999305,0.0,0.004029304029304029,0.0032234432234432234
6.64751461799824,0.0,0.004029304029304029,0.0032234432234432234
6.648357168000075,0.0,0.004029304029304029,0.0032234432234432234
6.6500133739973535,0.0,0.004029304029304029,0.0032234432234432234
6.653687796999293,0.0,0.004029304029304029,0.0032234432234432234
6.653818280999985,0.0,0.004029304029304029,0.0032234432234432234
6.659153814998717,0.0,0.004029304029304029,0.0032234432234432234
6.6600147249992006,0.0,0.004029304029304029,0.0032234432234432234
6.661617680998461,0.0,0.004029304029304029,0.0032234432234432234
6.665539680998336,0.0,0.004029304029304029,0.0032234432234432234
6.669833338997705,0.0,0.004029304029304029,0.0032234432234432234
6.671425366999756,0.0,0.006446886446886447,0.0
6.675047234999511,0.0,0.006446886446886447,0.0
6.6803719050003565,0.0,0.006446886446886447,0.0
6.682556421998015,0.0,0.006446886446886447,0.0
6.682917694997741,0.0,0.006446886446886447,0.0
6.687936890997662,0.0,0.006446886446886447,0.0
6.692375169997831,0.0,0.006446886446886447,0.0
6.692593791998661,0.0,0.006446886446886447,0.0
6.6978621579983155,0.0,0.006446886446886447,0.0
6.700236557997414,0.0,0.006446886446886447,0.0
6.70033143999899,0.0,0.006446886446886447,0.0
6.705259971997293,0.0,0.006446886446886447,0.0
6.708670526997594,0.0,0.0,0.0
6.708873608000431,0.0,0.0,0.0
6.7135654329977115,0.0,0.0,0.0
6.713782893999451,0.0,0.004835164835164835,0.0
6.718402958998922,0.0,0.004835164835164835,0.0
6.7187250569986645,0.0,0.004835164835164835,0.0
6.723433792998549,0.0,0.004835164835164835,0.0
6.728113598997879,0.0,0.004835164835164835,0.0
6.728230128999712,0.0,0.004835164835164835,0.0
6.733235525000055,0.0,0.004835164835164835,0.0
6.736935303997598,0.0,0.0008058608058608059,0.0
6.741879794997658,0.0,0.0008058608058608059,0.0
6.746424936998665,0.0,0.0032234432234432234,0.022564102564102562
6.746491155998228,0.0,0.0032234432234432234,0.022564102564102562
6.75185020400022,0.0,0.0032234432234432234,0.022564102564102562
6.752733438999712,0.0,0.0032234432234432234,0.0136996336996337
6.7543180549982935,0.0,0.0032234432234432234,0.0136996336996337
6.758173000998795,0.0,0.004029304029304029,0.018534798534798533
6.761281226998108,0.0,0.004029304029304029,0.018534798534798533
6.762805749000108,0.0,0.004029304029304029,0.018534798534798533
6.767942762999155,0.0,0.004029304029304029,0.018534798534798533
6.77037614299843,0.0,0.004029304029304029,0.018534798534798533
6.775487787999737,0.0,0.0,0.14908424908424908
6.778660165000474,0.0,0.0,0.044322344322344324
6.77949337300015,0.0,0.008864468864468863,0.0
6.781153774998529,0.0,0.008864468864468863,0.0
6.784799046999979,0.0,0.008864468864468863,0.0
6.7899964099997305,0.0,0.008864468864468863,0.0
6.793151862999366,0.0,0.008864468864468863,0.0
6.7939942849989166,0.0,0.007252747252747252,0.0
6.7955350289994385,0.0,0.007252747252747252,0.0
6.8000539829990885,0.0,0.007252747252747252,0.0
6.800888223999209,0.0,0.007252747252747252,0.0
6.80315150000024,0.0,0.007252747252747252,0.0
6.803944494000461,0.0,0.007252747252747252,0.0
6.80617023800005,0.0,0.007252747252747252,0.0
6.806336474997806,0.0,0.007252747252747252,0.0
6.811610048996954,0.0,0.007252747252747252,0.0
6.813128403999144,0.0,0.007252747252747252,0.0
6.8167853630002355,0.0,0.007252747252747252,0.0
6.816908860997501,0.0,0.0032234432234432234,0.016923076923076923
6.821972407997237,0.0,0.0032234432234432234,0.016923076923076923
6.82556118699722,0.0,0.0032234432234432234,0.016923076923076923
6.830044051999721,0.0,0.0032234432234432234,0.016923076923076923
6.831546891000471,0.0,0.0032234432234432234,0.016923076923076923
6.835979371997382,0.0,0.016117216117216115,0.02336996336996337
6.836749013997178,0.0,0.016117216117216115,0.02336996336996337
6.83880806399975,0.0,0.016117216117216115,0.02336996336996337
6.8402076969978225,0.0,0.016117216117216115,0.02336996336996337
6.844953976997203,0.0,0.016117216117216115,0.02336996336996337
6.84974969799805,0.0,0.016117216117216115,0.02336996336996337
6.850005460997636,0.0,0.016117216117216115,0.02336996336996337
6.8546591169979365,0.0,0.016117216117216115,0.02336996336996337
6.854902816998219,0.0,0.016117216117216115,0.02336996336996337
6.859553630998562,0.0,0.016117216117216115,0.02336996336996337
6.859737167000276,0.0,0.016117216117216115,0.02336996336996337
6.864486553000461,0.0,0.016117216117216115,0.02336996336996337
6.869187888998567,0.0,0.016117216117216115,0.02336996336996337
6.869950388998404,0.0,0.016117216117216115,0.02336996336996337
6.872075478997431,0.0,0.0,0.06124542124542124
6.872801055997115,0.0,0.0,0.06124542124542124
6.874847046998184,0.0,0.0,0.06124542124542124
6.875638940000499,0.0,0.0,0.012893772893772894
6.877674847997696,0.0,0.0,0.012893772893772894
6.879114324998227,0.0,0.0,0.012893772893772894
6.883926995000365,0.0,0.0,0.012893772893772894
6.887972766999155,0.0,0.006446886446886447,0.0
6.891364541999792,0.0,0.006446886446886447,0.0
6.89214181999705,0.0,0.006446886446886447,0.0
6.894281863998913,0.0,0.006446886446886447,0.0
6.895041403000505,0.0,0.006446886446886447,0.0
6.897182206997968,0.0,0.006446886446886447,0.0
6.898558974997286,0.0,0.006446886446886447,0.0
6.903466438998294,0.0,0.006446886446886447,0.0
6.907507952997548,0.0,0.006446886446886447,0.0
6.9102012859984825,0.0,0.006446886446886447,0.0
6.914201969997521,0.0,0.006446886446886447,0.0
6.918190445998334,0.0,0.010476190476190476,0.0
6.920960319999722,0.0,0.0,0.012893772893772894
6.9247321499969985,0.0,0.0,0.012893772893772894
6.9299489240002,0.0,0.0,0.012893772893772894
6.93151604599916,0.0,0.0,0.012893772893772894
6.935913265999261,0.0,0.0,0.012893772893772894
6.938321198998892,0.0,0.0,0.012893772893772894
6.9383951099989645,0.0,0.0,0.012893772893772894
6.943608369998401,0.0,0.0,0.012893772893772894
6.945344761999877,0.0,0.005641025641025641,0.0
6.948397426000156,0.0,0.005641025641025641,0.0
6.949879452997266,0.0,0.005641025641025641,0.0
6.954999425997812,0.0,0.005641025641025641,0.0
6.95887011800005,0.0,0.005641025641025641,0.0
6.963369412998873,0.0,0.005641025641025641,0.0
6.963593540000147,0.0,0.005641025641025641,0.0
6.968923394997546,0.0,0.005641025641025641,0.0
6.971983994997572,0.0,0.005641025641025641,0.0
6.973499948999233,0.0,0.005641025641025641,0.0
6.9779498419993615,0.0,0.005641025641025641,0.0
6.978184862997296,0.0,0.005641025641025641,0.0
6.983346466997318,0.0,0.005641025641025641,0.0
6.987010097000166,0.0,0.005641025641025641,0.0
6.991381222997006,0.0,0.0,0.0
6.9928802430004,0.0,0.006446886446886447,0.13054945054945052
6.997217276999436,0.0,0.006446886446886447,0.13054945054945052
6.998803148999286,0.0,0.006446886446886447,0.13054945054945052
7.0031758149998495,0.0,0.006446886446886447,0.13054945054945052
7.005328502997145,0.0,0.006446886446886447,0.13054945054945052
7.00610895799764,0.0,0.006446886446886447,0.13054945054945052
7.008461728997645,0.0,0.0,0.020146520146520144
7.0085924489976605,0.0,0.0,0.020146520146520144
7.013736609998887,0.0,0.0,0.020146520146520144
7.016673852998792,0.0,0.0,0.020146520146520144
7.019664559997182,0.0,0.0,0.020146520146520144
7.021990328998072,0.0,0.0,0.020146520146520144
7.022098948000348,0.0,0.0,0.020146520146520144
7.02727147800033,0.0,0.0,0.020146520146520144
7.03091352499905,0.0,0.006446886446886447,0.0
7.036331829996925,0.0,0.006446886446886447,0.0
7.037965993000398,0.0,0.006446886446886447,0.0
7.041742235996935,0.0,0.006446886446886447,0.0
7.046064737998677,0.0,0.006446886446886447,0.0
7.0468325479996565,0.0,0.006446886446886447,0.0
7.048383605997515,0.0,0.006446886446886447,0.0
7.052757524998015,0.0,0.006446886446886447,0.0
7.053532983998593,0.0,0.006446886446886447,0.0
7.0550784039987775,0.0,0.006446886446886447,0.0
7.058864857997833,0.0,0.006446886446886447,0.0
7.063912205998349,0.0,0.006446886446886447,0.0
7.068333415998495,0.0,0.006446886446886447,0.0
7.068492482998408,0.0,0.006446886446886447,0.0
7.074246486998163,0.0,0.006446886446886447,0.0
7.079570213998522,0.0,0.0,1.003296703296703
7.0826422440004535,0.0,0.0,1.003296703296703
7.084869021000486,0.0,0.0,1.003296703296703
7.0851355559971125,0.0,0.0,1.003296703296703
7.090401491997909,0.0,0.0,1.003296703296703
7.092746083999373,0.0,0.0,1.003296703296703
7.092994554997858,0.0,0.0,1.003296703296703
7.098262096998951,0.0,0.0,1.003296703296703
7.0998210739999195,0.0,0.0,0.02498168498168498
7.105004457000177,0.0,0.0,0.02498168498168498
7.106717661998118,0.0,0.0,0.02498168498168498
7.109804513998824,0.0,0.0,0.02498168498168498
7.111378107998462,0.0,0.0,0.02498168498168498
7.114989574998617,0.0,0.0,0.05641025641025641
7.120088935997046,0.0,0.0,0.05641025641025641
7.123838178998994,0.0,0.0,0.05641025641025641
7.128212523999537,0.0,0.0,0.05641025641025641
7.129065787998115,0.0,0.022564102564102562,0.018534798534798533
7.130637707999995,0.0,0.022564102564102562,0.018534798534798533
7.135114615997736,0.0,0.022564102564102562,0.018534798534798533
7.136615864998021,0.0,0.022564102564102562,0.018534798534798533
7.140470746999199,0.0,0.022564102564102562,0.018534798534798533
7.144837804997223,0.0,0.0136996336996337,0.004029304029304029
7.146395968000434,0.0,0.0136996336996337,0.004029304029304029
7.150071731997741,0.0,0.0136996336996337,0.004029304029304029
7.155290478000097,0.0,0.0136996336996337,0.004029304029304029
7.157478605000506,0.0,0.007252747252747252,0.0
7.157780007997644,0.0,0.007252747252747252,0.0
7.162999950000085,0.0,0.007252747252747252,0.0
7.16543972799991,0.0,0.007252747252747252,0.0
7.170615373997862,0.0,0.007252747252747252,0.0
7.173592906998238,0.0,0.007252747252747252,0.0
7.175842737000494,0.0,0.007252747252747252,0.0
7.176030100999924,0.0,0.007252747252747252,0.0
7.181103737999365,0.0,0.007252747252747252,0.0
7.184733075999247,0.0,0.007252747252747252,0.0
7.184901679000177,0.0,0.007252747252747252,0.0
7.19003087999954,0.0,0.007252747252747252,0.0
7.1935792439981014,0.0,0.007252747252747252,0.0
7.193647723997856,0.0,0.007252747252747252,0.0
7.198603712000477,0.0,0.007252747252747252,0.0
7.203332899996894,0.0,0.007252747252747252,0.0
7.203386548997514,0.0,0.007252747252747252,0.0
7.208081868997397,0.0,0.007252747252747252,0.0
7.208174762999988,0.0,0.005641025641025641,0.0032234432234432234
7.212894950000191,0.0,0.005641025641025641,0.0032234432234432234
7.217613548000372,0.0,0.005641025641025641,0.0032234432234432234
7.217776451998361,0.0,0.005641025641025641,0.0032234432234432234
7.222429418998217,0.0,0.005641025641025641,0.0032234432234432234
7.223139614998217,0.0,0.005641025641025641,0.0032234432234432234
7.2252393939998,0.0,0.005641025641025641,0.0032234432234432234
7.225991996998346,0.0,0.004029304029304029,0.016923076923076923
7.228111776999867,0.0,0.012893772893772894,0.01934065934065934
7.228918682998483,0.0,0.012893772893772894,0.01934065934065934
7.23095751299843,0.0,0.012893772893772894,0.01934065934065934
7.232387089999975,0.0,0.012893772893772894,0.01934065934065934
7.237435592996917,0.0,0.012893772893772894,0.01934065934065934
7.241482822999387,0.0,0.012893772893772894,0.01934065934065934
7.244938807998551,0.0,0.0419047619047619,0.0016117216117216117
7.245081957997172,0.0,0.01531135531135531,0.0024175824175824176
7.249791996997374,0.0,0.01531135531135531,0.0024175824175824176
7.249980513999617,0.0,0.01531135531135531,0.0024175824175824176
7.254739035997773,0.0,0.01531135531135531,0.0024175824175824176
7.260225505997369,0.0,0.01531135531135531,0.0024175824175824176
7.262058526997862,0.0,0.01531135531135531,0.0024175824175824176
7.264490442998067,0.0,0.01531135531135531,0.0024175824175824176
7.264592551997339,0.0,0.01531135531135531,0.0024175824175824176
7.270393842998601,0.0,0.01531135531135531,0.0024175824175824176
7.275629121999373,0.0,0.0,0.06688644688644689
7.278864676998637,0.0,0.0,0.06688644688644689
7.280538618997525,0.0,0.0032234432234432234,0.0
7.2838445019988285,0.0,0.0,0.007252747252747252
7.284689023999817,0.0,0.0,0.007252747252747252
7.287131908000447,0.0,0.0,0.007252747252747252
7.292801442999917,0.0,0.006446886446886447,0.0024175824175824176
7.293058328999905,0.0,0.006446886446886447,0.0024175824175824176
7.298236397997243,0.0,0.006446886446886447,0.0024175824175824176
7.301247507999506,0.0,0.006446886446886447,0.0024175824175824176
7.304109579999931,0.0,0.006446886446886447,0.0024175824175824176
7.306990567998582,0.0,0.006446886446886447,0.0024175824175824176
7.310057320999476,0.0,0.006446886446886447,0.0024175824175824176
7.313065529997402,0.0,0.006446886446886447,0.0024175824175824176
7.315971758998785,0.0,0.006446886446886447,0.0024175824175824176
7.3198315869994985,0.0,0.006446886446886447,0.0024175824175824176
7.324955092997698,0.0,0.006446886446886447,0.0024175824175824176
7.326564671999222,0.0,0.006446886446886447,0.0024175824175824176
7.329660895000416,0.0,0.006446886446886447,0.0024175824175824176
7.332011919999786,0.0,0.006446886446886447,0.0024175824175824176
7.337968943997112,0.0,0.006446886446886447,0.0024175824175824176
7.341821998998057,0.0,0.011282051282051281,0.0
7.346157959997072,0.0,0.011282051282051281,0.0
7.347795546997077,0.0,0.00967032967032967,0.0008058608058608059
7.351505635997455,0.0,0.00967032967032967,0.0008058608058608059
7.355815664999682,0.0,0.00967032967032967,0.0008058608058608059
7.3571060489994125,0.0,0.00967032967032967,0.0008058608058608059
7.365658988997893,0.0,0.00967032967032967,0.0008058608058608059
7.370902811999258,0.0,0.00967032967032967,0.0008058608058608059
7.3730230090004625,0.0,0.00967032967032967,0.0008058608058608059
7.374386347997643,0.0,0.00967032967032967,0.0008058608058608059
7.37841974299954,0.0,0.00967032967032967,0.0008058608058608059
7.381107522996899,0.0,0.00967032967032967,0.0008058608058608059
7.385751175999758,0.0,0.00967032967032967,0.0008058608058608059
7.385994194999512,0.0,0.00967032967032967,0.0008058608058608059
7.390695835998486,0.0,0.00967032967032967,0.0008058608058608059
7.390882014999079,0.0,0.00967032967032967,0.0008058608058608059
7.396018540999648,0.0,0.00967032967032967,0.0008058608058608059
7.399079474998871,0.0,0.00967032967032967,0.0008058608058608059
7.400590427998395,0.0,0.00967032967032967,0.0008058608058608059
7.404402855998342,0.0,0.00967032967032967,0.0008058608058608059
7.408003862998157,0.0,0.00967032967032967,0.0008058608058608059
7.408111174998339,0.0,0.00967032967032967,0.0008058608058608059
7.413208619997022,0.0,0.00967032967032967,0.0008058608058608059
7.416245341999456,0.0,0.004029304029304029,0.0
7.41910418399857,0.0,0.004029304029304029,0.0
7.421963029999461,0.0,0.007252747252747252,0.0008058608058608059
7.425623868999537,0.0,0.007252747252747252,0.0008058608058608059
7.430700237997371,0.0,0.007252747252747252,0.0008058608058608059
7.433714239999972,0.0,0.007252747252747252,0.0008058608058608059
7.435697995999362,0.0,0.007252747252747252,0.0008058608058608059
7.437143347997335,0.0,0.007252747252747252,0.0008058608058608059
7.441180990997964,0.0,0.012893772893772894,0.0
7.44389728799797,0.0,0.012893772893772894,0.0
7.447932152997964,0.0,0.012893772893772894,0.0
7.45080450399837,0.0,0.004029304029304029,0.0
7.45354593799857,0.0,0.012893772893772894,0.03706959706959707
7.457625250997808,0.0,0.012893772893772894,0.03706959706959707
7.460411292999197,0.0,0.012893772893772894,0.03706959706959707
7.463173731997813,0.0,0.012893772893772894,0.03706959706959707
7.467221924998739,0.0,0.012893772893772894,0.03706959706959707
7.469958595997014,0.0,0.012893772893772894,0.03706959706959707
7.474013851999189,0.0,0.006446886446886447,1.5891575091575092
7.477381708999019,0.0,0.006446886446886447,1.5891575091575092
7.478156396999111,0.0,0.006446886446886447,1.5891575091575092
7.480214043996966,0.0,0.006446886446886447,1.5891575091575092
7.481598927999585,0.0,0.006446886446886447,1.5891575091575092
7.486279662000015,0.0,0.006446886446886447,1.5891575091575092
7.486997218999022,0.0,0.004835164835164835,0.0024175824175824176
7.489078205999249,0.0,0.004835164835164835,0.0024175824175824176
7.4904737529977865,0.0,0.004835164835164835,0.0024175824175824176
7.494459395999002,0.0,0.004835164835164835,0.0024175824175824176
7.497845133999363,0.0,0.004835164835164835,0.0024175824175824176
7.498022314997797,0.0,0.004835164835164835,0.0024175824175824176
7.502789165999275,0.0,0.004835164835164835,0.0024175824175824176
7.502935177999461,0.0,0.004835164835164835,0.0024175824175824176
7.507950027000334,0.0,0.004835164835164835,0.0024175824175824176
7.51173731399831,0.0,0.004835164835164835,0.0024175824175824176
7.516114527999889,0.0,0.004835164835164835,0.0024175824175824176
7.516954943999735,0.0,0.006446886446886447,0.0
7.518504669998947,0.0,0.006446886446886447,0.0
7.522887193998031,0.0,0.006446886446886447,0.0
7.523684814997978,0.0,0.006446886446886447,0.0
7.5260502159981115,0.0,0.006446886446886447,0.0
7.526232563999656,0.0,0.006446886446886447,0.0
7.531485708997934,0.0,0.006446886446886447,0.0
7.5329892659974576,0.0,0.007252747252747252,0.34813186813186814
7.537442630997248,0.0,0.007252747252747252,0.34813186813186814
7.538170023999555,0.0,0.007252747252747252,0.34813186813186814
7.540254924999317,0.0,0.007252747252747252,0.34813186813186814
7.541723886999534,0.0,0.007252747252747252,0.34813186813186814
7.546430504000455,0.0,0.007252747252747252,0.34813186813186814
7.546515321999323,0.0,0.0,0.016923076923076923
7.551249283998914,0.0,0.0,0.016923076923076923
7.551546544997109,0.0,0.0,0.016923076923076923
7.556293035999261,0.0,0.0,0.016923076923076923
7.561011616999167,0.0,0.0,0.016923076923076923
7.561179707998235,0.0,0.0,0.016923076923076923
7.565894290997676,0.0,0.0,0.016923076923076923
7.570616471999529,0.0,0.0,0.016923076923076923
7.570781362999696,0.0,0.0,0.016923076923076923
7.575448740997672,0.0,0.0,0.016923076923076923
7.5755888690000575,0.0,0.0016117216117216117,0.0032234432234432234
7.580306773998018,0.0,0.0016117216117216117,0.0032234432234432234
7.580382848998852,0.0,0.0016117216117216117,0.0032234432234432234
7.585522420999041,0.0,0.0016117216117216117,0.0032234432234432234
7.588532931000373,0.0,0.0016117216117216117,0.0032234432234432234
7.590030095998372,0.0,0.0016117216117216117,0.0032234432234432234
7.594486451998819,0.0,0.0,0.0016117216117216117
7.595252138999058,0.0,0.007252747252747252,0.0
7.596780512998521,0.0,0.007252747252747252,0.0
7.602242717999616,0.0,0.007252747252747252,0.0
7.603825072998006,0.0,0.007252747252747252,0.0
7.608219036999799,0.06446886446886446,0.0,0.0008058608058608059
7.608445309997478,0.0,0.0,0.016117216117216115
7.6135972129995935,0.0,0.0,0.016117216117216115
7.615817686997616,0.0,0.0016117216117216117,0.0
7.616030378998403,0.0,0.0016117216117216117,0.0
7.621083753998391,0.0,0.0016117216117216117,0.0
7.624766177999845,0.0,0.0016117216117216117,0.0
7.629847005999181,0.0,0.0016117216117216117,0.0
7.633565784999519,0.0,0.0016117216117216117,0.0
7.637572591997014,0.0,0.0016117216117216117,0.0
7.640364793998742,0.0,0.0016117216117216117,0.0
7.643758938000246,0.0,0.0016117216117216117,0.0
7.6439627969994035,0.0,0.0016117216117216117,0.0
7.648615060999873,0.0,0.0016117216117216117,0.0
7.648847748998378,0.0,0.0016117216117216117,0.0
7.653584341998794,0.0,0.0016117216117216117,0.0
7.653795498998079,0.0,0.0016117216117216117,0.0
7.658443057000113,0.0,0.0016117216117216117,0.0
7.6585438389993215,0.0,0.007252747252747252,0.02095238095238095
7.663342617997841,0.0,0.007252747252747252,0.02095238095238095
7.66800748300011,0.0,0.0024175824175824176,0.0
7.668285223997373,0.0,0.0,0.016923076923076923
7.673050733999844,0.0,0.0,0.016923076923076923
7.673209632997896,0.0,0.006446886446886447,0.12329670329670328
7.677775486998144,0.0,0.006446886446886447,0.12329670329670328
7.678518005999649,0.0,0.0,0.0032234432234432234
7.680514669998956,0.0,0.0,0.0032234432234432234
7.681864722999308,0.0,0.0,0.0032234432234432234
7.681922621999547,0.0,0.0,0.0032234432234432234
7.686745740000333,0.0,0.0,0.0032234432234432234
7.691441423998185,0.0,0.008058608058608058,0.0
7.691588777997822,0.0,0.008058608058608058,0.0
7.696279460000369,0.0,0.008058608058608058,0.0
7.696337997997034,0.0,0.0016117216117216117,0.008864468864468863
7.701056330999563,0.0,0.0016117216117216117,0.008864468864468863
7.701157769999554,0.0,0.0016117216117216117,0.008864468864468863
7.705898063999484,0.0,0.0016117216117216117,0.008864468864468863
7.705981153998437,0.0,0.0016117216117216117,0.008864468864468863
7.710845620997134,0.0,0.0016117216117216117,0.008864468864468863
7.715670941997814,0.0,0.0016117216117216117,0.008864468864468863
7.715786701999605,0.0,0.0032234432234432234,0.09106227106227105
7.7204598449970945,0.0,0.0032234432234432234,0.09106227106227105
7.7206148429977475,0.0,0.006446886446886447,0.01934065934065934
7.725369503998081,0.0,0.006446886446886447,0.01934065934065934
7.725435681997624,0.0,0.0547985347985348,0.0
7.7301910089991,0.0,0.0547985347985348,0.0
7.730461122999259,0.0,0.0547985347985348,0.0
7.73541349199877,0.0,0.0547985347985348,0.0
7.739492169999721,0.0,0.0,0.0016117216117216117
7.741572103997896,0.0,0.0,0.0016117216117216117
7.742927234998206,0.0,0.0,0.0016117216117216117
7.74764428999697,0.0,0.0024175824175824176,0.012893772893772894
7.747806993997074,0.0,0.0024175824175824176,0.012893772893772894
7.752552743997512,0.0,0.0,0.007252747252747252
7.75264059699839,0.0,0.0,0.007252747252747252
7.757569883997348,0.0,0.0,0.007252747252747252
7.761636606999673,0.0,0.0,0.007252747252747252
7.765561085998343,0.0,0.0,0.007252747252747252
7.768362872997386,0.0,0.0024175824175824176,0.0
7.771748850998847,0.0,0.0024175824175824176,0.0
7.771975640000164,0.0,0.0024175824175824176,0.0
7.776627459999872,0.0,0.0024175824175824176,0.0
7.7768709839983785,0.0,0.008058608058608058,0.0
7.781581791998178,0.0,0.008058608058608058,0.0
7.781782060999831,0.0,0.008058608058608058,0.0
7.78648167099891,0.0,0.008058608058608058,0.0
7.786596451998776,0.0,0.008058608058608058,0.0
7.791333721997944,0.0,0.008058608058608058,0.0
7.791536902997905,0.0,0.008058608058608058,0.0
7.7961668289972295,0.0,0.008058608058608058,0.0
7.7964088799999445,0.0,0.008058608058608058,0.0
7.801136811998731,0.0,0.008058608058608058,0.0
7.801237529998616,0.0,0.008058608058608058,0.0
7.805922055998963,0.0,0.0,0.025787545787545788
7.805980885997997,0.0,0.0,0.025787545787545788
7.810938907998207,0.0,0.0,0.025787545787545788
7.815338791999238,0.0,0.0,0.025787545787545788
7.816148870999314,0.0,0.0,0.025787545787545788
7.817860256996937,0.0,0.0,0.025787545787545788
7.82087534799939,0.0,0.0,0.025787545787545788
7.823056091998296,0.0,0.0,0.025787545787545788
7.823241776997747,0.0,0.0,0.025787545787545788
7.82851816299808,0.0,0.0,0.025787545787545788
7.829896764997102,0.0,0.0,0.025787545787545788
7.835027307999553,0.0,0.0,0.025787545787545788
7.839034251999692,0.0,0.0,0.0
7.843032515000232,0.0,0.008864468864468863,0.0
7.846327470997494,0.0,0.008864468864468863,0.0
7.847084524997626,0.0,0.008864468864468863,0.0
7.8485399989986036,0.0,0.008864468864468863,0.0
7.852655680999305,0.0,0.008864468864468863,0.0
7.856674888000271,0.0,0.008864468864468863,0.0
7.8609428069976275,0.0,0.008864468864468863,0.0
7.862370232000103,0.0,0.008864468864468863,0.0
7.867196248997061,0.0,0.008864468864468863,0.0
7.87192278799921,0.0,0.008864468864468863,0.0
7.8720780669973465,0.0,0.008864468864468863,0.0
7.876864097997895,0.0,0.008864468864468863,0.0
7.876978962998692,0.0,0.008864468864468863,0.0
7.881648627997492,0.0,0.008864468864468863,0.0
7.881846352000139,0.0,0.0008058608058608059,0.0
7.88656629199977,0.0,0.0008058608058608059,0.0
7.8867770269971516,0.0,0.0008058608058608059,0.0
7.89146177099974,0.0,0.0008058608058608059,0.0
7.891534329999558,0.0,0.0008058608058608059,0.0
7.896246139000141,0.0,0.0008058608058608059,0.0
7.896348090998799,0.0,0.0008058608058608059,0.0
7.901449290999153,0.0,0.0008058608058608059,0.0
7.90435611799694,0.0,0.0008058608058608059,0.0
7.906605901000148,0.0,0.0008058608058608059,0.0
