time,emg1,emg2,emg3
0.0022028559978934936,0.0,0.004835164835164835,0.020146520146520144
0.0038224700001592282,0.0,0.004835164835164835,0.020146520146520144
0.022928464000870008,0.0,0.004835164835164835,0.020146520146520144
0.042100735001440626,0.0,0.004835164835164835,0.020146520146520144
0.05542015600076411,0.0,0.004835164835164835,0.020146520146520144
0.06789396399835823,0.0,0.004835164835164835,0.020146520146520144
0.07919203300116351,0.0,0.004835164835164835,0.020146520146520144
0.0866418679979688,0.0,0.004835164835164835,0.020146520146520144
0.09523819500100217,0.0,0.004835164835164835,0.020146520146520144
0.10417346000031102,0.0,0.0024175824175824176,0.0
0.11099866799850133,0.0,0.0,0.007252747252747252
0.11539261999860173,0.0,0.0,0.007252747252747252
0.11628540799938492,0.0,0.0,0.007252747252747252
0.11799778999920818,0.0,0.0,0.007252747252747252
0.12123531999895931,0.0,0.00967032967032967,0.008864468864468863
0.12297567499990691,0.0,0.00967032967032967,0.008864468864468863
0.1261543000000529,0.0,0.00967032967032967,0.008864468864468863
0.12851498799864203,0.0,0.0008058608058608059,0.0
0.13401573000010103,0.0,0.0008058608058608059,0.0
0.13432559699867852,0.0,0.0008058608058608059,0.0
0.13974373699966236,0.0,0.0008058608058608059,0.0
0.14133212999877287,0.0,0.0008058608058608059,0.0
0.14589684000020497,0.0,0.0008058608058608059,0.0
0.15296472599948174,0.0,0.0008058608058608059,0.0
0.1601125699999102,0.0,0.0008058608058608059,0.0
0.16400849599813228,0.0,0.0008058608058608059,0.0
0.16863640999872587,0.0,0.0008058608058608059,0.0
0.17425180799909867,0.0,0.0008058608058608059,0.0
0.17436462399928132,0.0,0.0008058608058608059,0.0
0.179798667999421,0.0,0.0008058608058608059,0.0
0.18070045800050138,0.0,0.0008058608058608059,0.0
0.18233448499813676,0.0,0.0008058608058608059,0.0
0.1871611460010172,0.0,0.0008058608058608059,0.0
0.19248048399822437,0.0,0.0008058608058608059,0.0
0.19414858899835963,0.0,0.0008058608058608059,0.0
0.19810753099955036,0.0,0.0008058608058608059,0.0
0.20295974100008607,0.0,0.0008058608058608059,0.0
0.20945113299967488,0.0,0.0008058608058608059,0.0
0.21364623000044958,0.0,0.0008058608058608059,0.0
0.21541170899945428,0.0,0.0008058608058608059,0.0
0.2201319349987898,0.0,0.0008058608058608059,0.0
0.2203050690004602,0.0,0.0008058608058608059,0.0
0.2279895249994297,0.0,0.0008058608058608059,0.0
0.23670540699822595,0.0,0.0008058608058608059,0.0
0.24100522799926694,0.0,0.0008058608058608059,0.0
0.24184371600131271,0.0,0.0032234432234432234,0.0
0.24365482899884228,0.0,0.0032234432234432234,0.0
0.24943919599900255,0.0,0.0032234432234432234,0.0
0.2536648899986176,0.0,0.0032234432234432234,0.0
0.254580149998219,0.0,0.0032234432234432234,0.0
0.2554934649997449,0.0,0.0032234432234432234,0.0
0.25643416100137983,0.0,0.0032234432234432234,0.0
0.2581102590011142,0.0,0.0032234432234432234,0.0
0.26224821099822293,0.0,0.0032234432234432234,0.0
0.26512888399884105,0.0,0.0032234432234432234,0.0
0.2677773680006794,0.0,0.0032234432234432234,0.0
0.27191060399854905,0.0,0.004029304029304029,0.0
0.27519591500094975,0.0,0.004029304029304029,0.0
0.275447437998082,0.0,0.004029304029304029,0.0
0.28165190299841925,0.0,0.004029304029304029,0.0
0.2858354429990868,0.0,0.004029304029304029,0.0
0.28842335599983926,0.0,0.004029304029304029,0.0
0.2939941029981128,0.0,0.0,0.0
0.2942194790011854,0.0,0.0,0.0
0.3016135959987878,0.0,0.0,0.0
0.30595101099970634,0.0,0.0,0.0
0.3068098529984127,0.0,0.0,0.0
0.3084986280009616,0.0,0.0032234432234432234,0.0024175824175824176
0.31314615700102877,0.0,0.0032234432234432234,0.0024175824175824176
0.31327094700100133,0.0,0.0032234432234432234,0.0024175824175824176
0.3202681209986622,0.0,0.0032234432234432234,0.0024175824175824176
0.3251184900000226,0.0,0.0032234432234432234,0.0024175824175824176
0.33236665300137247,0.0,0.0032234432234432234,0.0024175824175824176
0.33638867099944036,0.0,0.004835164835164835,0.0008058608058608059
0.3396674379982869,0.0,0.004835164835164835,0.0008058608058608059
0.3413926030007133,0.0,0.004835164835164835,0.0008058608058608059
0.34465731700038305,0.0,0.004835164835164835,0.0008058608058608059
0.3448294709996844,0.0,0.004835164835164835,0.0008058608058608059
0.35252964299797895,0.0,0.004835164835164835,0.0008058608058608059
0.35743944400019245,0.0,0.0,0.0
0.3575022639997769,0.0,0.0,0.0
0.36365587600084837,0.0,0.0,0.0
0.3703748429979896,0.0,0.0,0.0
0.3758619699983683,0.0,0.004029304029304029,0.012893772893772894
0.37598148599863634,0.0,0.004029304029304029,0.012893772893772894
0.3866171049994591,0.0,0.004029304029304029,0.012893772893772894
0.39551543400011724,0.0,0.004029304029304029,0.012893772893772894
0.4053445229983481,0.0,0.004029304029304029,0.012893772893772894
0.41324033300043084,0.0,0.0,0.0
0.41816610200112336,0.0,0.0,0.005641025641025641
0.4207561840012204,0.0,0.0,0.005641025641025641
0.42490585899940925,0.0,0.0,0.005641025641025641
0.426613407998957,0.0,0.011282051282051281,0.0
0.43077658699985477,0.0,0.011282051282051281,0.0
0.4334938680003688,0.0,0.011282051282051281,0.0
0.43760075099999085,0.0,0.011282051282051281,0.0
0.4403639470001508,0.0,0.011282051282051281,0.0
0.4440663579989632,0.0,0.011282051282051281,0.0
0.45497247299863375,0.0,0.0032234432234432234,0.025787545787545788
0.46384255299926735,0.0,0.0032234432234432234,0.025787545787545788
0.4725315670002601,0.0,0.0032234432234432234,0.025787545787545788
0.4785162029984349,0.0,0.0016117216117216117,0.006446886446886447
0.48453628399875015,0.0,0.004029304029304029,0.0016117216117216117
0.48852448699835804,0.0,0.0032234432234432234,0.0
0.49114663699947414,0.0,0.0032234432234432234,0.0
0.4976459479985351,0.0,0.0032234432234432234,0.0
0.5020714199999929,0.0,0.0032234432234432234,0.0
0.502222757000709,0.0,0.0032234432234432234,0.0
0.5080368259987154,0.0,0.0032234432234432234,0.0
0.5081029489992943,0.0,0.0032234432234432234,0.0
0.5170611520006787,0.0,0.0032234432234432234,0.0
0.5214717859998927,0.0,0.0032234432234432234,0.0
0.5224161109981651,0.0,0.0032234432234432234,0.0
0.5233637759993144,0.0,0.0032234432234432234,0.0
0.5250164579992997,0.0,0.0032234432234432234,0.0
0.5283114929989097,0.0,0.0032234432234432234,0.0
0.528556421999383,0.0,0.0032234432234432234,0.0
0.5355473730014637,0.0,0.008058608058608058,0.010476190476190476
0.5397862870013341,0.0,0.008864468864468863,0.0136996336996337
0.5416086149998591,0.0,0.008864468864468863,0.0136996336996337
0.5448186360008549,0.0,0.008864468864468863,0.0136996336996337
0.5477496089988563,0.0,0.008864468864468863,0.0136996336996337
0.550407365000865,0.0,0.008864468864468863,0.0136996336996337
0.5543813029980811,0.0,0.008864468864468863,0.0136996336996337
0.5579825989989331,0.0,0.0008058608058608059,0.0
0.5662459099985426,0.0,0.004835164835164835,0.05721611721611722
0.5707351300006849,0.0,0.004835164835164835,0.05721611721611722
0.5709754050003539,0.0,0.004835164835164835,0.05721611721611722
0.5763131889980286,0.0,0.0,0.02175824175824176
0.5788404080012697,0.0,0.006446886446886447,0.02175824175824176
0.5875709169995389,0.0,0.006446886446886447,0.02175824175824176
0.5936107779998565,0.0,0.006446886446886447,0.06527472527472526
0.6000819850014523,0.0,0.006446886446886447,0.06527472527472526
0.6057375550008146,0.0,0.004835164835164835,0.0
0.6127488960009941,0.0,0.004835164835164835,0.0
0.6185009569999238,0.0,0.004835164835164835,0.0
0.6240419140012818,0.0,0.004835164835164835,0.0
0.624299365998013,0.0,0.004835164835164835,0.0
0.6364533380001376,0.0,0.004835164835164835,0.0
0.6475220729989815,0.0,0.0016117216117216117,0.014505494505494505
0.658201383001142,0.0,0.0016117216117216117,0.014505494505494505
0.6661980259996199,0.0,0.0016117216117216117,0.0
0.6708055019989843,0.0,0.0016117216117216117,0.0
0.6708734849999018,0.0,0.0016117216117216117,0.0
0.6780794920014159,0.0,0.0016117216117216117,0.0
0.6845453579990135,0.0,0.0016117216117216117,0.0
0.6887491380002757,0.0,0.0032234432234432234,0.006446886446886447
0.6912488320012926,0.0,0.007252747252747252,0.0
0.6913358109995897,0.0,0.007252747252747252,0.0
0.6989263629984634,0.0,0.007252747252747252,0.0
0.7040330630006792,0.0,0.007252747252747252,0.0
0.7064806999987923,0.0,0.007252747252747252,0.0
0.7125410059998103,0.0,0.0,0.0
0.720644009001262,0.0,0.0016117216117216117,0.0016117216117216117
0.7287212230003206,0.0,0.0,0.0
0.7396691889989597,0.0,0.0,0.0
0.7499244999999064,0.0,0.0,0.0
0.7581714820007619,0.0,0.0,0.0
0.7669295669984422,0.0,0.016923076923076923,0.0
0.7734677279986499,0.0,0.03142857142857143,0.0
0.780147923000186,0.0,0.0,0.0
0.7861128619988449,0.0,0.014505494505494505,0.0
0.7903606729996682,0.0,0.012893772893772894,0.01934065934065934
0.7912939790003293,0.0,0.012893772893772894,0.01934065934065934
0.7929268119987682,0.0,0.012893772893772894,0.01934065934065934
0.7980921609996585,0.0,0.012893772893772894,0.01934065934065934
0.8013653519992658,0.0,0.012893772893772894,0.01934065934065934
0.801508845997887,0.0,0.012893772893772894,0.01934065934065934
0.8108943730003375,0.0,0.012893772893772894,0.01934065934065934
0.8195044659987616,0.0,0.012893772893772894,0.01934065934065934
0.8245362749985361,0.0,0.012893772893772894,0.01934065934065934
0.8295635020003829,0.0,0.00967032967032967,0.016117216117216115
0.835033363000548,0.0,0.0,0.022564102564102562
0.8351109030008956,0.0,0.007252747252747252,0.0136996336996337
0.8409694039983151,0.0,0.008864468864468863,0.0
0.8479768059987691,0.0,0.008864468864468863,0.0
0.8519390879991988,0.0,0.008864468864468863,0.0
0.8552940849986044,0.0,0.008864468864468863,0.0
0.8555314260011073,0.0,0.005641025641025641,0.05318681318681319
0.8611488729984558,0.0,0.010476190476190476,0.04029304029304029
0.8621481669979403,0.0,0.010476190476190476,0.04029304029304029
0.863780575000419,0.0,0.010476190476190476,0.04029304029304029
0.8679293149980367,0.0,0.010476190476190476,0.04029304029304029
0.8682943630010413,0.0,0.010476190476190476,0.04029304029304029
0.8751117069987231,0.0,0.010476190476190476,0.04029304029304029
0.8802613309999288,0.0,0.008864468864468863,0.0
0.8847275379994244,0.0,0.0,0.0
0.8943781739981205,0.0,0.0,0.0
0.9047695779991045,0.0,0.0,0.0
0.9116467550011293,0.0,0.0,0.0
0.9180489760001365,0.0,0.0,0.0
0.9222033799997007,0.0,0.0,0.0
0.924700733001373,0.0,0.0,0.0
0.931484762000764,0.0,0.006446886446886447,0.026593406593406595
0.9377384229992458,0.0,0.006446886446886447,0.026593406593406595
0.9410913339997933,0.0,0.0016117216117216117,0.0024175824175824176
0.9419942559979972,0.0,0.012893772893772894,0.017728937728937726
0.9428900499988231,0.0,0.012893772893772894,0.017728937728937726
0.9439080060001288,0.0,0.012893772893772894,0.017728937728937726
0.9465947620010411,0.0,0.012893772893772894,0.017728937728937726
0.9513094780013489,0.0,0.008058608058608058,0.006446886446886447
0.954883399001119,0.0,0.008058608058608058,0.006446886446886447
0.959595756001363,0.0,0.008058608058608058,0.006446886446886447
0.9596644490011386,0.0,0.008058608058608058,0.006446886446886447
0.9676233850004792,0.0,0.008058608058608058,0.006446886446886447
0.9727174660001765,0.0,0.008058608058608058,0.0
0.9760326579998946,0.0,0.010476190476190476,0.004029304029304029
0.9763157380002667,0.0,0.010476190476190476,0.004029304029304029
0.983924295000179,0.0,0.010476190476190476,0.004029304029304029
0.988019609998446,0.0,0.010476190476190476,0.004029304029304029
0.9903669359991909,0.0,0.004835164835164835,0.006446886446886447
0.9967697499996575,0.0,0.0,0.0
1.0019050650007557,0.0,0.0024175824175824176,0.0
1.0028203729998495,0.0,0.0024175824175824176,0.0
1.0044976190001762,0.0,0.0024175824175824176,0.0
1.0086615340005665,0.0,0.004835164835164835,0.016923076923076923
1.0109739840008842,0.0,0.004835164835164835,0.016923076923076923
1.0111765820001892,0.0,0.004835164835164835,0.016923076923076923
1.0199886189984682,0.0,0.004835164835164835,0.016923076923076923
1.0257844750012737,0.0,0.037875457875457874,0.004029304029304029
1.0339645979984198,0.0,0.037875457875457874,0.004029304029304029
1.0394977500000095,0.0,0.0032234432234432234,0.0024175824175824176
1.0396971750014927,0.0,0.028205128205128206,0.0024175824175824176
1.0452940739996848,0.0,0.028205128205128206,0.0024175824175824176
1.0456669849991158,0.0,0.028205128205128206,0.0024175824175824176
1.0527235330009717,0.0,0.004029304029304029,0.0
1.0576637589983875,0.0,0.004029304029304029,0.0
1.0629201000010653,0.0,0.004029304029304029,0.0
1.0670518400002038,0.0,0.0008058608058608059,0.006446886446886447
1.0673378840001533,0.0,0.0016117216117216117,0.004029304029304029
1.0730839099996956,0.0,0.0016117216117216117,0.004029304029304029
1.0732214449999447,0.0,0.0016117216117216117,0.004029304029304029
1.0793159329987247,0.0,0.0016117216117216117,0.004029304029304029
1.087254596001003,0.0,0.0,0.0
1.092977576998237,0.0,0.005641025641025641,0.0136996336996337
1.093226118999155,0.0,0.005641025641025641,0.0136996336996337
1.1001254369984963,0.0,0.005641025641025641,0.0136996336996337
1.104159943999548,0.0,0.005641025641025641,0.0136996336996337
1.1064790279997396,0.0,0.005641025641025641,0.0136996336996337
1.1066510929995275,0.0,0.005641025641025641,0.0136996336996337
1.1127377769989835,0.0,0.005641025641025641,0.0136996336996337
1.1181493080002838,0.0,0.0016117216117216117,0.020146520146520144
1.119930918001046,0.0,0.0016117216117216117,0.020146520146520144
1.1224367409995466,0.0,0.0016117216117216117,0.020146520146520144
1.122528677999071,0.0,0.0016117216117216117,0.020146520146520144
1.1286355140000524,0.0,0.0016117216117216117,0.020146520146520144
1.1326902190012333,0.0,0.0016117216117216117,0.020146520146520144
1.1343431919995055,0.0,0.0032234432234432234,0.0032234432234432234
1.1389505279985315,0.0,0.0032234432234432234,0.0032234432234432234
1.1391299520000757,0.0,0.0032234432234432234,0.0032234432234432234
1.144905053999537,0.0,0.0032234432234432234,0.0032234432234432234
1.1449739829986356,0.0,0.0016117216117216117,0.0024175824175824176
1.1504171819979092,0.0,0.0016117216117216117,0.0024175824175824176
1.1512986130001082,0.0,0.0016117216117216117,0.0024175824175824176
1.1529029519988399,0.0,0.0016117216117216117,0.0024175824175824176
1.1559894279998844,0.0,0.0016117216117216117,0.0024175824175824176
1.1582787789993745,0.0,0.0016117216117216117,0.0024175824175824176
1.1591196529989247,0.0,0.0016117216117216117,0.0024175824175824176
1.15999762499996,0.0,0.0016117216117216117,0.0024175824175824176
1.1625446209982329,0.0,0.0016117216117216117,0.0024175824175824176
1.1707630019991484,0.0,0.0016117216117216117,0.0024175824175824176
1.176184744999773,0.0,0.0032234432234432234,0.007252747252747252
1.1764641420013504,0.0,0.0032234432234432234,0.007252747252747252
1.1850183719980123,0.0,0.0032234432234432234,0.007252747252747252
1.1902547649988264,0.0,0.007252747252747252,0.0
1.1926498590000847,0.0,0.004029304029304029,0.0
1.2000264710004558,0.0,0.004029304029304029,0.0
1.2041340559990203,0.0,0.0024175824175824176,0.0
1.2072549660006189,0.0,0.005641025641025641,0.010476190476190476
1.2096422009999515,0.0,0.005641025641025641,0.010476190476190476
1.217669752000802,0.0,0.005641025641025641,0.0
1.2226802799996221,0.0,0.0,0.007252747252747252
1.2257546449982328,0.0,0.0136996336996337,0.022564102564102562
1.2282532850003918,0.0,0.0136996336996337,0.022564102564102562
1.228393353998399,0.0,0.0008058608058608059,0.004835164835164835
1.234008104998793,0.0,0.0008058608058608059,0.004835164835164835
1.234222649000003,0.0,0.0008058608058608059,0.004835164835164835
1.2397610629996052,0.0,0.0008058608058608059,0.004835164835164835
1.2406027979995997,0.0,0.0008058608058608059,0.004835164835164835
1.242119028000161,0.0,0.0008058608058608059,0.004835164835164835
1.2465134800004307,0.0,0.0008058608058608059,0.004835164835164835
1.2480502510006772,0.0,0.0008058608058608059,0.004835164835164835
1.2523702489997959,0.0,0.0008058608058608059,0.004835164835164835
1.2545761250003125,0.0,0.0008058608058608059,0.004835164835164835
1.2547629170003347,0.0,0.0008058608058608059,0.004835164835164835
1.2600110599996697,0.0,0.0008058608058608059,0.004835164835164835
1.2624777390010422,0.0,0.0008058608058608059,0.004835164835164835
1.2674405180005124,0.0,0.006446886446886447,0.00967032967032967
1.2717543309991015,0.0,0.006446886446886447,0.00967032967032967
1.2733591200012597,0.0,0.006446886446886447,0.00967032967032967
1.2775512910011457,0.0,0.006446886446886447,0.00967032967032967
1.2791816040007689,0.0,0.006446886446886447,0.00967032967032967
1.2841560279994155,0.0,0.006446886446886447,0.00967032967032967
1.2895098219996726,0.0,0.006446886446886447,0.00967032967032967
1.2903916600007506,0.0,0.006446886446886447,0.00967032967032967
1.291371736999281,0.0,0.006446886446886447,0.00967032967032967
1.2922136659981334,0.0,0.006446886446886447,0.00967032967032967
1.2940210650012887,0.0,0.006446886446886447,0.00967032967032967
1.296019643999898,0.0,0.006446886446886447,0.00967032967032967
1.2977707270001702,0.0,0.006446886446886447,0.00967032967032967
1.3001060169990524,0.0,0.006446886446886447,0.00967032967032967
1.300959401,0.0,0.006446886446886447,0.00967032967032967
1.3018529420005507,0.0,0.006446886446886447,0.00967032967032967
1.3034094389986421,0.0,0.006446886446886447,0.00967032967032967
1.3083206549999886,0.0,0.006446886446886447,0.00967032967032967
1.31355319299837,0.0,0.006446886446886447,0.00967032967032967
1.3143698559979384,0.0,0.0,0.020146520146520144
1.3159533299985924,0.0,0.0,0.020146520146520144
1.3195894569980737,0.0,0.0,0.020146520146520144
1.3239524499986146,0.0,0.0,0.020146520146520144
1.3254558949993225,0.0,0.0,0.020146520146520144
1.3298925870003586,0.0,0.0,0.020146520146520144
1.330274448999262,0.0,0.0,0.020146520146520144
1.3356343880004715,0.0,0.0,0.020146520146520144
1.3366107510009897,0.0,0.0,0.020146520146520144
1.3375684589991579,0.0,0.0,0.020146520146520144
1.338463847998355,0.0,0.0,0.020146520146520144
1.3401169259996095,0.0,0.0,0.020146520146520144
1.3432844349990773,0.0,0.0,0.020146520146520144
1.3449402910009667,0.0,0.0,0.020146520146520144
1.3488603599980706,0.0,0.0,0.020146520146520144
1.3520745620007801,0.0,0.0,0.020146520146520144
1.3529087489987432,0.0,0.0,0.020146520146520144
1.3545029679989966,0.0,0.0,0.020146520146520144
1.3583831309988454,0.0,0.0,0.020146520146520144
1.3623213520004356,0.0,0.004835164835164835,0.0
1.3665767940001388,0.0,0.004835164835164835,0.0
1.3668182689980313,0.0,0.004835164835164835,0.0
1.3727745969990792,0.0,0.004835164835164835,0.0
1.3775732069989317,0.0,0.0,0.005641025641025641
1.3832265179989918,0.0,0.0,0.005641025641025641
1.3840584059980756,0.0,0.0,0.005641025641025641
1.385654544999852,0.0,0.0,0.005641025641025641
1.3902477970004838,0.0,0.0,0.005641025641025641
1.390402188000735,0.0,0.0,0.005641025641025641
1.396145146998606,0.0,0.0,0.005641025641025641
1.3962166480014275,0.0,0.0,0.0
1.4024847520013282,0.0,0.0,0.0
1.406404287001351,0.0,0.0,0.0
1.4111417179992713,0.0,0.0,0.0
1.411217257998942,0.0,0.0,0.0
1.4166025890008314,0.0,0.0,0.0
1.4189062990008097,0.0,0.0,0.0
1.4190251699983492,0.0,0.0,0.0
1.4245329650002532,0.0,0.0,0.0
1.4247666880000907,0.0,0.0,0.0
1.430333938998956,0.0,0.0,0.0
1.4305120659992099,0.0,0.0,0.0
1.4359442009990744,0.0,0.008058608058608058,0.007252747252747252
1.4375385839994124,0.0,0.008058608058608058,0.007252747252747252
1.4413802230010333,0.0,0.008058608058608058,0.007252747252747252
1.4452542039980472,0.0,0.008058608058608058,0.007252747252747252
1.4498020380015078,0.0,0.008058608058608058,0.007252747252747252
1.4500450269988505,0.0,0.0008058608058608059,0.0
1.4558210370014422,0.0,0.0008058608058608059,0.0
1.4607451310002944,0.0,0.0008058608058608059,0.0
1.4646627219990478,0.0,0.0008058608058608059,0.0
1.4671045579998463,0.0,0.0008058608058608059,0.0
1.4673318380009732,0.0,0.0008058608058608059,0.0
1.4720255989996076,0.0,0.0008058608058608059,0.0
1.4722167279978748,0.0,0.0008058608058608059,0.0
1.4776097940011823,0.0,0.0008058608058608059,0.0
1.4791939269998693,0.0,0.012893772893772894,0.0016117216117216117
1.4844740939988696,0.0,0.012893772893772894,0.0016117216117216117
1.486770682000497,0.0,0.008058608058608058,0.0
1.4922199540014844,0.0,0.008058608058608058,0.0
1.4930651409995335,0.0,0.008058608058608058,0.0
1.494736993998231,0.0,0.008058608058608058,0.0
1.498671175999334,0.0,0.008058608058608058,0.0
1.501738936000038,0.0,0.008058608058608058,0.0
1.5050347520009382,0.0,0.008058608058608058,0.0
1.5059135019982932,0.0,0.008058608058608058,0.0
1.5075884430007136,0.0,0.008058608058608058,0.0
1.5107919830006722,0.0,0.008058608058608058,0.0
1.511757422998926,0.0,0.008058608058608058,0.0
1.5134333030000562,0.0,0.008058608058608058,0.0
1.5170411420003802,0.0,0.008058608058608058,0.0
1.5230527040002926,0.0,0.008058608058608058,0.0
1.5271903819993895,0.0,0.008058608058608058,0.0
1.5288120369987155,0.0,0.011282051282051281,0.0
1.5323888979983167,0.0,0.011282051282051281,0.0
1.532477292999829,0.0,0.011282051282051281,0.0
1.5385113730008015,0.0,0.011282051282051281,0.0
1.542726331997983,0.0,0.011282051282051281,0.0
1.5444707870010461,0.0,0.0,0.04996336996336996
1.5476941259985324,0.0,0.0,0.04996336996336996
1.5486677160006366,0.0,0.0,0.04996336996336996
1.5495267000005697,0.0,0.0,0.04996336996336996
1.551287735997903,0.0,0.0,0.04996336996336996
1.5540388139997958,0.0,0.0,0.04996336996336996
1.559103199000674,0.0,0.0,0.04996336996336996
1.563303528000688,0.0,0.0,0.0
1.5649867030006135,0.0,0.0,0.0
1.5674593149997236,0.0,0.0,0.0
1.5730231939996884,0.0,0.0,0.0
1.5739200829993933,0.0,0.0,0.0
1.5747256459981145,0.0,0.0,0.0
1.5764602919989557,0.0,0.0,0.0
1.5805984809994698,0.0,0.0,0.0
1.5830235590001394,0.0,0.0024175824175824176,0.0
1.5891669119992002,0.0,0.0024175824175824176,0.0
1.5953346969981794,0.0,0.0024175824175824176,0.0
1.5992990710001322,0.0,0.0024175824175824176,0.0
1.6044004450013745,0.0,0.0024175824175824176,0.0
1.6084874869993655,0.0,0.0024175824175824176,0.0
1.611064668999461,0.0,0.008058608058608058,0.0
1.616845689000911,0.0,0.008058608058608058,0.0
1.6219499449980503,0.0,0.008058608058608058,0.0
1.6254902689979644,0.0,0.008058608058608058,0.0
1.6330136110009335,0.0,0.008058608058608058,0.0
1.6374463239990291,0.0,0.008058608058608058,0.0
1.6376395970000885,0.0,0.004029304029304029,0.008058608058608058
1.6435582179983612,0.0,0.004029304029304029,0.0
1.647853711998323,0.0,0.0,0.016923076923076923
1.6493123629988986,0.0,0.007252747252747252,0.0
1.6536192649982695,0.0,0.007252747252747252,0.0
1.6558010699991428,0.0,0.007252747252747252,0.0
1.6565658609979437,0.0,0.007252747252747252,0.0
1.658803735001129,0.0,0.007252747252747252,0.0
1.6589175820008677,0.0,0.007252747252747252,0.0
1.6640257090002706,0.0,0.007252747252747252,0.0
1.6683599409989256,0.0,0.004835164835164835,0.0
1.6699073720010347,0.0,0.008058608058608058,0.004029304029304029
1.6741781460004859,0.0,0.008058608058608058,0.004029304029304029
1.6758470620006847,0.0,0.008058608058608058,0.004029304029304029
1.6790680650010472,0.0,0.008058608058608058,0.004029304029304029
1.6808334620000096,0.0,0.008058608058608058,0.004029304029304029
1.6832931940007256,0.0,0.008058608058608058,0.004029304029304029
1.689208300998871,0.0,0.008058608058608058,0.004029304029304029
1.6952407540011336,0.0,0.008058608058608058,0.004029304029304029
1.6996665299993765,0.0,0.0,0.0
1.700601368000207,0.0,0.005641025641025641,0.0016117216117216117
1.701580704000662,0.0,0.005641025641025641,0.0016117216117216117
1.7024348749982892,0.0,0.005641025641025641,0.0016117216117216117
1.7033217919997696,0.0,0.005641025641025641,0.0016117216117216117
1.7050162859995908,0.0,0.005641025641025641,0.0016117216117216117
1.7084333009988768,0.0,0.005641025641025641,0.0016117216117216117
1.714307047001057,0.0,0.005641025641025641,0.0016117216117216117
1.720043606001127,0.0,0.005641025641025641,0.0016117216117216117
1.7201650659990264,0.0,0.005641025641025641,0.0016117216117216117
1.7263996229994518,0.0,0.005641025641025641,0.0016117216117216117
1.730668747000891,0.0,0.007252747252747252,0.00967032967032967
1.7323784899999737,0.0,0.0016117216117216117,0.0
1.7358023849992605,0.0,0.0016117216117216117,0.0
1.735911951000162,0.0,0.0016117216117216117,0.0
1.7418895880000491,0.0,0.0016117216117216117,0.0
1.745664828998997,0.0,0.010476190476190476,0.0032234432234432234
1.7502375789990765,0.0,0.010476190476190476,0.0032234432234432234
1.7511070369982917,0.0,0.0032234432234432234,0.0016117216117216117
1.7526775500009535,0.0,0.0032234432234432234,0.0016117216117216117
1.75670374299807,0.0,0.0032234432234432234,0.0016117216117216117
1.759340661999886,0.0,0.0032234432234432234,0.020146520146520144
1.7642541809982504,0.0,0.004029304029304029,0.0
1.7693292209987703,0.0,0.004029304029304029,0.0
1.7727751060010633,0.0,0.004029304029304029,0.0032234432234432234
1.7788254779989074,0.0,0.004029304029304029,0.0032234432234432234
1.7822808669989172,0.0,0.004029304029304029,0.0032234432234432234
1.7825121989990294,0.0,0.004029304029304029,0.0032234432234432234
1.7880627519989503,0.0,0.004029304029304029,0.0032234432234432234
1.788333723001415,0.0,0.004029304029304029,0.0032234432234432234
1.7940421489984146,0.0,0.004029304029304029,0.0032234432234432234
1.7942218530006357,0.0,0.004029304029304029,0.0032234432234432234
1.800132593998569,0.0,0.004029304029304029,0.0032234432234432234
1.804319161001331,0.0,0.004029304029304029,0.0032234432234432234
1.8068037379998714,0.0,0.004029304029304029,0.0032234432234432234
1.806920776998595,0.0,0.0016117216117216117,0.01934065934065934
1.8127634199991007,0.0,0.0016117216117216117,0.01934065934065934
1.8128560529985407,0.0,0.0016117216117216117,0.01934065934065934
1.8190663599998516,0.0,0.0016117216117216117,0.01934065934065934
1.8234467879992735,0.0,0.0016117216117216117,0.01934065934065934
1.8243348420000984,0.0,0.0016117216117216117,0.01934065934065934
1.8259674809996795,0.0,0.0016117216117216117,0.01934065934065934
1.8293428600009065,0.0,0.0016117216117216117,0.01934065934065934
1.8295442609996826,0.0,0.0016117216117216117,0.01934065934065934
1.835410961000889,0.0,0.0016117216117216117,0.01934065934065934
1.835503456000879,0.0,0.0016117216117216117,0.01934065934065934
1.8404419840007904,0.0,0.0016117216117216117,0.01934065934065934
1.8462008499991498,0.0,0.0016117216117216117,0.01934065934065934
1.852153380998061,0.0,0.0016117216117216117,0.01934065934065934
1.85709683299865,0.0,0.0024175824175824176,0.014505494505494505
1.86053795800035,0.0,0.0,0.008058608058608058
1.8663020450003387,0.0,0.0,0.008058608058608058
1.8664222830011568,0.0,0.0,0.008058608058608058
1.8721173710000585,0.0,0.0,0.008058608058608058
1.872260431999166,0.0,0.0,0.008058608058608058
1.878217620000214,0.0,0.0,0.008058608058608058
1.8830299020009988,0.0,0.0,0.008058608058608058
1.8875388619999285,0.0,0.0,0.08783882783882783
1.8877013489982346,0.0,0.0,0.08783882783882783
1.8935178229985468,0.0,0.0,0.08783882783882783
1.893748278998828,0.0,0.0,0.08783882783882783
1.8993712570008938,0.0,0.0,0.08783882783882783
1.9003510420006933,0.0,0.0,0.08783882783882783
1.901276886001142,0.0,0.0,0.08783882783882783
1.9022780829982366,0.0,0.0,0.08783882783882783
1.9032322769999155,0.0,0.0,0.08783882783882783
1.9050382710011036,0.0,0.008058608058608058,0.0024175824175824176
1.9075175500001933,0.0,0.008058608058608058,0.0024175824175824176
1.9132191210010205,0.0,0.008058608058608058,0.0024175824175824176
1.9133387760011829,0.0,0.008058608058608058,0.0024175824175824176
1.919145498999569,0.0,0.008058608058608058,0.0024175824175824176
1.9249075369989441,0.0,0.008058608058608058,0.0024175824175824176
1.9307841919981001,0.0,0.008058608058608058,0.0024175824175824176
1.9365836449978815,0.0,0.006446886446886447,0.0016117216117216117
1.942631188998348,0.0,0.0008058608058608059,0.05399267399267399
1.9467259929988359,0.0,0.0,0.01531135531135531
1.9491703099993174,0.0,0.0,0.01531135531135531
1.9492775699982303,0.0,0.0,0.01531135531135531
1.9551051419985015,0.0,0.0016117216117216117,0.0
1.9611474410012306,0.0,0.0016117216117216117,0.0
1.9652576359985687,0.0,0.0016117216117216117,0.0
1.9694032219995279,0.0,0.0016117216117216117,0.0
1.9712722090007446,0.0,0.0016117216117216117,0.0
1.9737121600010141,0.0,0.0016117216117216117,0.0
1.9796770940010902,0.0,0.0016117216117216117,0.0
1.9850781439999992,0.0,0.0,0.0016117216117216117
1.9873967690000427,0.0,0.0,0.0016117216117216117
1.9874647590004315,0.0,0.004835164835164835,0.0
1.9928632480005035,0.0,0.004835164835164835,0.0
1.9944234760005202,0.0,0.004835164835164835,0.0
1.998247198000172,0.0,0.004835164835164835,0.0
2.003631144998508,0.0,0.0024175824175824176,0.0
2.0044734539987985,0.0,0.0024175824175824176,0.0
2.0060653520013147,0.0,0.0024175824175824176,0.0
2.00988471600067,0.0,0.0024175824175824176,0.0
2.013720580998779,0.0,0.0024175824175824176,0.0
2.016889610000362,0.0,0.0024175824175824176,0.0
2.017761506998795,0.0,0.0024175824175824176,0.0
2.020022822998726,0.0,0.0024175824175824176,0.0
2.020222905000992,0.0,0.0024175824175824176,0.0
2.025617588999012,0.0,0.0024175824175824176,0.0
2.0279727689994616,0.0,0.0024175824175824176,0.0
2.0280322959988553,0.0,0.0024175824175824176,0.0
2.033384823000233,0.0,0.0024175824175824176,0.0
2.034983634999662,0.0,0.005641025641025641,0.024175824175824173
2.0381841079979495,0.0,0.005641025641025641,0.024175824175824173
2.039084259999072,0.0,0.005641025641025641,0.024175824175824173
2.040670426998986,0.0,0.005641025641025641,0.024175824175824173
2.0438296909997007,0.0,0.02175824175824176,0.006446886446886447
2.0454503079999995,0.0,0.02175824175824176,0.006446886446886447
2.0494231439988653,0.0,0.0136996336996337,0.01934065934065934
2.0530766709998716,0.0,0.0136996336996337,0.01934065934065934
2.053173862001131,0.0,0.0136996336996337,0.01934065934065934
2.0582775299990317,0.0,0.0136996336996337,0.01934065934065934
2.062175111997931,0.0,0.0136996336996337,0.01934065934065934
2.066057804000593,0.0,0.0136996336996337,0.01934065934065934
2.071440641000663,0.0,0.0136996336996337,0.01934065934065934
2.073185402998206,0.0,0.0136996336996337,0.01934065934065934
2.07637023999996,0.0,0.0136996336996337,0.01934065934065934
2.077269482000702,0.0,0.0136996336996337,0.01934065934065934
2.078833902000042,0.0,0.0136996336996337,0.01934065934065934
2.0827652209991356,0.0,0.004835164835164835,0.0
2.085991601998103,0.0,0.004835164835164835,0.0
2.087545776001207,0.0,0.004835164835164835,0.0
2.091351945000497,0.0,0.004835164835164835,0.0
2.096133621998888,0.0,0.004835164835164835,0.0
2.101869431000523,0.0,0.008058608058608058,0.0
2.1020354610009235,0.0,0.008058608058608058,0.0
2.1074854469989077,0.0,0.0016117216117216117,0.0008058608058608059
2.1077744559988787,0.0,0.0016117216117216117,0.0008058608058608059
2.113199434999842,0.0,0.0016117216117216117,0.0008058608058608059
2.114054292000219,0.0,0.0136996336996337,0.004835164835164835
2.1149620229989523,0.0,0.0136996336996337,0.004835164835164835
2.116484327998478,0.0,0.0136996336996337,0.004835164835164835
2.1203057689999696,0.0,0.0136996336996337,0.004835164835164835
2.124839616000827,0.0,0.0136996336996337,0.004835164835164835
2.1250366149979527,0.0,0.0136996336996337,0.004835164835164835
2.130191563999688,0.0,0.0136996336996337,0.004835164835164835
2.1323992739999085,0.0,0.004835164835164835,0.008058608058608058
2.1326221320014156,0.0,0.004835164835164835,0.008058608058608058
2.137773014001141,0.0,0.004835164835164835,0.008058608058608058
2.1399242330007837,0.0,0.004835164835164835,0.008058608058608058
2.140810959997907,0.0,0.004835164835164835,0.008058608058608058
2.142309672999545,0.0,0.004835164835164835,0.008058608058608058
2.1473459900007583,0.0,0.004835164835164835,0.008058608058608058
2.151967562000209,0.0,0.004029304029304029,0.0032234432234432234
2.152050174998294,0.0,0.004029304029304029,0.0032234432234432234
2.1578051619981125,0.0,0.004029304029304029,0.0032234432234432234
2.1579221270003472,0.0,0.004029304029304029,0.0032234432234432234
2.1632680789989536,0.0,0.004029304029304029,0.0032234432234432234
2.1655311149988847,0.0,0.004029304029304029,0.0032234432234432234
2.1656956970000465,0.0,0.004029304029304029,0.0032234432234432234
2.171072172001004,0.0,0.004029304029304029,0.0032234432234432234
2.173978373000864,0.0,0.004029304029304029,0.0032234432234432234
2.1768412710007397,0.0,0.012087912087912087,0.01934065934065934
2.1804382640002586,0.0,0.012087912087912087,0.01934065934065934
2.180537740998261,0.0,0.0032234432234432234,0.0
2.1855102730005456,0.0,0.0032234432234432234,0.0
2.190472170997964,0.0,0.0032234432234432234,0.0
2.194691968998086,0.0,0.006446886446886447,0.0
2.196842272998765,0.0,0.0,0.0032234432234432234
2.197614734999661,0.0,0.0,0.0032234432234432234
2.1998207610013196,0.0,0.0,0.0032234432234432234
2.2006184460005898,0.0,0.0,0.0032234432234432234
2.2027176070005225,0.0,0.0,0.0032234432234432234
2.2034638180011825,0.0,0.0,0.0032234432234432234
2.205601703000866,0.0,0.0,0.0032234432234432234
2.2063543389995175,0.0,0.0,0.0032234432234432234
2.208505127000535,0.0,0.0,0.0032234432234432234
2.2092468869996083,0.0,0.0,0.0032234432234432234
2.2117758019994653,0.0,0.0,0.0032234432234432234
2.2164014099980704,0.0,0.0,0.0
2.221777632999874,0.0,0.0,0.007252747252747252
2.223539405000338,0.0,0.0,0.007252747252747252
2.2267137369999546,0.0,0.0,0.007252747252747252
2.2284790970006725,0.0,0.0,0.007252747252747252
2.2317062399997667,0.0,0.0,0.007252747252747252
2.2325686359981773,0.0,0.0,0.007252747252747252
2.2349527049991593,0.0,0.0,0.007252747252747252
2.2350245119996544,0.0,0.0,0.007252747252747252
2.240395957000146,0.0,0.0,0.007252747252747252
2.2420853650000936,0.0,0.0,0.007252747252747252
2.2451040400010243,0.0,0.0,0.007252747252747252
2.2473522260006575,0.0,0.0,0.007252747252747252
2.2474639309984923,0.0,0.0,0.007252747252747252
2.252785255001072,0.0,0.0,0.007252747252747252
2.2552208519991837,0.0,0.0,0.007252747252747252
2.260691804000089,0.0,0.0,0.007252747252747252
2.2615616760012927,0.0,0.0,0.007252747252747252
2.263143708998541,0.0,0.0,0.037875457875457874
2.266983896999591,0.0,0.0,0.037875457875457874
2.2701067050002166,0.0,0.0,0.037875457875457874
2.2716998089999834,0.0,0.0,0.037875457875457874
2.2754710529989097,0.0,0.0,0.037875457875457874
2.2797588229987014,0.0,0.0,0.037875457875457874
2.2811994859985134,0.0,0.008058608058608058,0.0
2.28615037399868,0.0,0.008058608058608058,0.0
2.289698329001112,0.0,0.008058608058608058,0.0
2.2947261439985596,0.0,0.00967032967032967,0.007252747252747252
2.299040410998714,0.0,0.008864468864468863,0.016923076923076923
2.300612513001397,0.0,0.008864468864468863,0.016923076923076923
2.304928651999944,0.0,0.008864468864468863,0.016923076923076923
2.307766787998844,0.0,0.008864468864468863,0.016923076923076923
2.3113205269983155,0.0,0.008864468864468863,0.016923076923076923
2.3115196539984026,0.0,0.008058608058608058,0.006446886446886447
2.3167077910002263,0.0,0.008058608058608058,0.006446886446886447
2.3196117830011644,0.0,0.008058608058608058,0.006446886446886447
2.322586723999848,0.0,0.008058608058608058,0.006446886446886447
2.324779185000807,0.0,0.008058608058608058,0.006446886446886447
2.3256228319987713,0.0,0.008058608058608058,0.006446886446886447
2.3275257329987653,0.0,0.008058608058608058,0.006446886446886447
2.3292059829982463,0.0,0.008058608058608058,0.006446886446886447
2.332960533000005,0.0,0.008058608058608058,0.006446886446886447
2.336804218000907,0.0,0.008058608058608058,0.006446886446886447
2.341031590000057,0.0,0.008058608058608058,0.006446886446886447
2.3426564959991083,0.0,0.004835164835164835,0.0
2.346366190999106,0.0,0.004835164835164835,0.0
2.3518903809999756,0.0,0.004835164835164835,0.0
2.352679371000704,0.0,0.004835164835164835,0.0
2.3544061920001695,0.0,0.004835164835164835,0.0
2.358169065999391,0.0,0.004835164835164835,0.0
2.3628815869997197,0.0,0.0032234432234432234,0.0
2.368501892000495,0.0,0.0032234432234432234,0.0
2.368717410998215,0.0,0.004029304029304029,0.004029304029304029
2.37437970999963,0.0,0.007252747252747252,0.0
2.375176276000275,0.0,0.008058608058608058,0.0
2.376753855998686,0.0,0.008058608058608058,0.0
2.38065510999877,0.0,0.008058608058608058,0.0
2.384722636001243,0.0,0.008058608058608058,0.0
2.38706515100057,0.0,0.0024175824175824176,0.0
2.387261175997992,0.0,0.004029304029304029,0.016923076923076923
2.3928771760001837,0.0,0.004029304029304029,0.016923076923076923
2.392984856000112,0.0,0.004029304029304029,0.016923076923076923
2.3986244240004453,0.0,0.004029304029304029,0.016923076923076923
2.398689886998909,0.0,0.004029304029304029,0.016923076923076923
2.4045368789993518,0.0,0.004029304029304029,0.016923076923076923
2.4046473509988573,0.0,0.004029304029304029,0.016923076923076923
2.4100787559982564,0.0,0.004029304029304029,0.016923076923076923
2.4109759909988497,0.0,0.0,0.0
2.411907452999003,0.0,0.0,0.0
2.4134540160011966,0.0,0.0,0.0
2.418016859999625,0.0,0.0,0.0
2.418224270000792,0.0,0.0,0.0
2.4235990009983652,0.0,0.0,0.0
2.4252044210006716,0.0,0.0,0.0
2.4297364849990117,0.0,0.0,0.0
2.429819905999466,0.0,0.0,0.0
2.435410238998884,0.0,0.0,0.0
2.4371075329981977,0.0,0.0136996336996337,0.006446886446886447
2.4402974500007986,0.0,0.0136996336996337,0.006446886446886447
2.441851522999059,0.0,0.0136996336996337,0.006446886446886447
2.44607248399916,0.0,0.0136996336996337,0.006446886446886447
2.448933733998274,0.0,0.011282051282051281,0.017728937728937726
2.4524997849985084,0.0,0.011282051282051281,0.017728937728937726
2.4526478010011488,0.0,0.011282051282051281,0.017728937728937726
2.457682272000966,0.0,0.011282051282051281,0.017728937728937726
2.4626024309982313,0.0,0.0,0.012893772893772894
2.4627117329982866,0.0,0.007252747252747252,0.0
2.4678308439979446,0.0,0.007252747252747252,0.0
2.4711408789989946,0.0,0.007252747252747252,0.0
2.4713315589979175,0.0,0.007252747252747252,0.0
2.4768326859993977,0.0,0.007252747252747252,0.0
2.477771568999742,0.0,0.0,0.0
2.479323294999631,0.0,0.0,0.0
2.4840300280011434,0.0,0.0,0.0
2.488879207001446,0.0,0.0,0.0
2.4937038349999057,0.0,0.0,0.0
2.4985921289990074,0.0,0.0,0.0
2.5017234019978787,0.0,0.0,0.0
2.504082452000148,0.0,0.0,0.0
2.5042231629995513,0.0,0.0,0.0
2.50963039799899,0.0,0.0,0.0
2.511219075000554,0.0,0.0,0.0
2.5151851549999265,0.0,0.0,0.0
2.5182741200005694,0.0,0.0,0.0
2.5198541339996154,0.0,0.0,0.0
2.5237056209989532,0.0,0.0,0.0
2.527476917999593,0.0,0.0,0.0
2.531498323998676,0.0,0.0,0.0
2.534716000998742,0.0,0.0,0.0
2.5362990379981056,0.0,0.0,0.0
2.541036766000616,0.0,0.0,0.0
2.5457732059985574,0.0,0.0,0.0
2.551352507998672,0.0,0.0,0.0
2.5514654190010333,0.0,0.0,0.0
2.556910527000582,0.0,0.0,0.0
2.5577539389996673,0.0,0.0016117216117216117,0.016117216117216115
2.559314493999409,0.0,0.0016117216117216117,0.016117216117216115
2.5638734649983235,0.0,0.0016117216117216117,0.016117216117216115
2.564061559998663,0.0,0.0016117216117216117,0.016117216117216115
2.569513622998784,0.0,0.0016117216117216117,0.016117216117216115
2.571807484000601,0.0,0.0016117216117216117,0.016117216117216115
2.5719842440012144,0.0,0.008864468864468863,0.006446886446886447
2.577584960999957,0.0,0.008864468864468863,0.006446886446886447
2.5784058690005622,0.0,0.008864468864468863,0.006446886446886447
2.5800371459990856,0.0,0.0,0.06205128205128205
2.583219078998809,0.0,0.0032234432234432234,0.06124542124542124
2.584835461999319,0.0,0.0032234432234432234,0.06124542124542124
2.588724858000205,0.0,0.0032234432234432234,0.06124542124542124
2.5918609549989924,0.0,0.0,0.0
2.5934842669994396,0.0,0.0,0.0
2.5981296120007755,0.0,0.0,0.0
2.5982930770005623,0.0,0.00967032967032967,0.006446886446886447
2.603826160000608,0.0,0.00967032967032967,0.006446886446886447
2.604040154001268,0.0,0.00967032967032967,0.006446886446886447
2.6095335479985806,0.0,0.00967032967032967,0.006446886446886447
2.6097303290007403,0.0,0.00967032967032967,0.006446886446886447
2.6152915159982513,0.0,0.00967032967032967,0.006446886446886447
2.615422746999684,0.0,0.00967032967032967,0.006446886446886447
2.620758321998437,0.0,0.00967032967032967,0.006446886446886447
2.622337176999281,0.0,0.00967032967032967,0.006446886446886447
2.626823787999456,0.0,0.00967032967032967,0.006446886446886447
2.6269376290001674,0.0,0.00967032967032967,0.006446886446886447
2.63230419699903,0.0,0.00967032967032967,0.006446886446886447
2.6333035019997624,0.0,0.00967032967032967,0.006446886446886447
2.6342455789999804,0.0,0.00967032967032967,0.006446886446886447
2.635096058998897,0.0,0.00967032967032967,0.006446886446886447
2.6366614859980473,0.0,0.00967032967032967,0.006446886446886447
2.64073007800107,0.0,0.00967032967032967,0.006446886446886447
2.643116141000064,0.0,0.0032234432234432234,0.0
2.64328304999799,0.0,0.0,0.0
2.649028941999859,0.0,0.0,0.0
2.649216907000664,0.0,0.0,0.0
2.6549929450011405,0.0,0.0,0.0
2.659892523999588,0.0,0.004835164835164835,0.0
2.663964608000242,0.0,0.004835164835164835,0.0
2.666294528000435,0.0,0.004835164835164835,0.0
2.666421679998166,0.0,0.008058608058608058,0.007252747252747252
2.6722354230005294,0.0,0.008058608058608058,0.007252747252747252
2.677730324998265,0.0,0.008058608058608058,0.007252747252747252
2.6792820209993806,0.0,0.008058608058608058,0.007252747252747252
2.683857956999418,0.0,0.008058608058608058,0.007252747252747252
2.689962729000399,0.0,0.008058608058608058,0.007252747252747252
2.6954267590008385,0.0,0.008058608058608058,0.007252747252747252
2.6970482479991915,0.0,0.008058608058608058,0.007252747252747252
2.700181119998888,0.0,0.008058608058608058,0.007252747252747252
2.7019092070004262,0.0,0.008058608058608058,0.007252747252747252
2.7042958609999914,0.0,0.008058608058608058,0.007252747252747252
2.7045248020003783,0.0,0.008058608058608058,0.007252747252747252
2.7101698510014103,0.0,0.014505494505494505,0.014505494505494505
2.7104589660011698,0.0,0.007252747252747252,0.0
2.7162852020010178,0.0,0.007252747252747252,0.0
2.7218612670003495,0.0,0.007252747252747252,0.0
2.7229494099992735,0.0,0.007252747252747252,0.0
2.7232189719979942,0.0,0.007252747252747252,0.0
2.728691340998921,0.0,0.007252747252747252,0.0
2.7295535070006736,0.0,0.007252747252747252,0.0
2.7311891919998743,0.0,0.007252747252747252,0.0
2.7345322510009282,0.0,0.007252747252747252,0.0
2.734729108000465,0.0,0.007252747252747252,0.0
2.7410060969996266,0.0,0.007252747252747252,0.0
2.744418422000308,0.0,0.0,0.0
2.7446731890013325,0.0,0.012893772893772894,0.0008058608058608059
2.750255663999269,0.0,0.012893772893772894,0.0008058608058608059
2.7510639159991115,0.0,0.012893772893772894,0.0008058608058608059
2.752706791001401,0.0,0.012893772893772894,0.0008058608058608059
2.7565984270004265,0.0,0.012893772893772894,0.0008058608058608059
2.7606106649982394,0.0,0.0008058608058608059,0.0
2.763643296999362,0.0,0.0008058608058608059,0.0
2.766115049998916,0.0,0.0008058608058608059,0.0
2.766219032000663,0.0,0.0008058608058608059,0.0
2.77193955400071,0.0,0.0008058608058608059,0.0
2.772204275999684,0.0,0.0008058608058608059,0.0
2.77768764099892,0.0,0.0008058608058608059,0.0
2.7784898440004326,0.0,0.0008058608058608059,0.0
2.7801461909984937,0.0,0.0008058608058608059,0.0
2.7849827190002543,0.0,0.0008058608058608059,0.0
2.790912358999776,0.0,0.00967032967032967,0.0
2.7999689579992264,0.0,0.0024175824175824176,0.0
2.804795981999632,0.0,0.008864468864468863,0.0
2.809522046998609,0.0,0.008864468864468863,0.0
2.809655269000359,0.0,0.008864468864468863,0.0
2.815383474000555,0.0,0.008864468864468863,0.0
2.8155262990003393,0.0,0.006446886446886447,0.012893772893772894
2.82092251100039,0.0,0.006446886446886447,0.012893772893772894
2.822541908000858,0.0,0.0,0.014505494505494505
2.826388240999222,0.0,0.0,0.014505494505494505
2.8312337700008356,0.0,0.005641025641025641,0.008058608058608058
2.8367213339988666,0.0,0.005641025641025641,0.008058608058608058
2.837619085999904,0.0,0.005641025641025641,0.008058608058608058
2.8392485359981947,0.0,0.005641025641025641,0.008058608058608058
2.8444894489985018,0.0,0.005641025641025641,0.008058608058608058
2.846070061001228,0.0,0.0016117216117216117,0.0
2.8534681659984926,0.0,0.008058608058608058,0.0
2.860037051999825,0.0,0.008058608058608058,0.0
2.8675666859999183,0.0,0.007252747252747252,0.022564102564102562
2.8736469440009387,0.0,0.004835164835164835,0.007252747252747252
2.879817411998374,0.0,0.004835164835164835,0.007252747252747252
2.8837744279990147,0.0,0.006446886446886447,0.0
2.8904366829992796,0.0,0.006446886446886447,0.0
2.8972424370003864,0.0,0.004029304029304029,0.0
2.9020659460002207,0.0,0.004029304029304029,0.0
2.9055442069984565,0.0,0.008058608058608058,0.0
2.911479304999375,0.0,0.008058608058608058,0.0
2.9179156989994226,0.0,0.0,0.0
2.921912750000047,0.0,0.0,0.005641025641025641
2.925793172998965,0.0,0.0,0.005641025641025641
2.932122434998746,0.0,0.0,0.005641025641025641
2.936001337999187,0.0,0.0,0.005641025641025641
2.9385024289986177,0.0,0.007252747252747252,0.0
2.9385971080009767,0.0,0.0,0.0
2.9442281629999343,0.0,0.0,0.0
2.9443991059997643,0.0,0.0,0.0
2.951768565999373,0.0,0.0,0.0
2.956556986999203,0.0,0.0,0.0
2.961952261000988,0.0,0.0,0.0
2.9632481310000003,0.0,0.0,0.0
2.9633475650007313,0.0,0.0,0.0
2.970224379998399,0.0,0.0,0.0
2.9749589079983707,0.0,0.0,0.0
2.9815142740008014,0.0,0.0,0.0
2.984895035999216,0.0,0.0024175824175824176,0.0
2.985724130001472,0.0,0.0024175824175824176,0.0
2.987333409000712,0.0,0.0024175824175824176,0.0
2.991841478000424,0.0,0.0024175824175824176,0.0
2.99848463699891,0.0,0.0024175824175824176,0.0
3.0018839900003513,0.0,0.0024175824175824176,0.0
3.002102197999193,0.0,0.0024175824175824176,0.0
3.007602315999975,0.0,0.0024175824175824176,0.0
3.0091692739988503,0.0,0.004835164835164835,0.008058608058608058
3.015434020999237,0.0,0.004835164835164835,0.008058608058608058
3.0186901519991807,0.0,0.004835164835164835,0.008058608058608058
3.0203255919986987,0.0,0.0024175824175824176,0.0
3.023696199998085,0.0,0.0024175824175824176,0.0
3.0238624080011505,0.0,0.0024175824175824176,0.0
3.0299588269990636,0.0,0.0024175824175824176,0.0
3.034172315001342,0.0,0.0024175824175824176,0.0
3.035151088999555,0.0,0.0024175824175824176,0.0
3.036050555998372,0.0,0.0024175824175824176,0.0
3.0369659579992003,0.0,0.0024175824175824176,0.0
3.0386733619998267,0.0,0.0024175824175824176,0.0
3.041128362001473,0.0,0.008058608058608058,0.008058608058608058
3.0412307090009563,0.0,0.008058608058608058,0.008058608058608058
3.0483446799989906,0.0,0.008058608058608058,0.008058608058608058
3.052307216999907,0.0,0.008058608058608058,0.008058608058608058
3.0561484249992645,0.0,0.008058608058608058,0.008058608058608058
3.061105733999284,0.0,0.008058608058608058,0.008058608058608058
3.0675107360002585,0.0,0.008058608058608058,0.008058608058608058
3.0714358920013183,0.0,0.004835164835164835,0.016117216117216115
3.075317653998354,0.0,0.004835164835164835,0.016117216117216115
3.0816144989985332,0.0,0.004835164835164835,0.016117216117216115
3.085755922998942,0.0,0.004835164835164835,0.016117216117216115
3.087494147999678,0.0,0.005641025641025641,0.0032234432234432234
3.0906587409990607,0.0,0.005641025641025641,0.0032234432234432234
3.092273567999655,0.0,0.007252747252747252,0.0008058608058608059
3.0983559169981163,0.0,0.007252747252747252,0.0008058608058608059
3.1030390619998798,0.0,0.0,0.0
3.107742772997881,0.0,0.0,0.0
3.107853877998423,0.0,0.004029304029304029,0.0024175824175824176
3.1149854850009433,0.0,0.004029304029304029,0.0024175824175824176
3.119719611000619,0.0,0.007252747252747252,0.0
3.119880997001019,0.0,0.011282051282051281,0.0
3.125329185000737,0.0,0.011282051282051281,0.0
3.1261320259982313,0.0,0.011282051282051281,0.0
3.1280915069983166,0.0,0.011282051282051281,0.0
3.130458517000079,0.0,0.011282051282051281,0.0
3.136566215998755,0.0,0.011282051282051281,0.0
3.1407231009980023,0.0,0.0136996336996337,0.0
3.1431374800013145,0.0,0.0136996336996337,0.0
3.1432898929997464,0.0,0.012893772893772894,0.004029304029304029
3.1515722849981103,0.0,0.012893772893772894,0.004029304029304029
3.156317916000262,0.0,0.012893772893772894,0.004029304029304029
3.156473390998144,0.0,0.012893772893772894,0.004029304029304029
3.162504692998482,0.0,0.012893772893772894,0.004029304029304029
3.168745881997893,0.0,0.012893772893772894,0.004029304029304029
3.172819442999753,0.0,0.012893772893772894,0.004029304029304029
3.1760316180007067,0.0,0.012893772893772894,0.004029304029304029
3.1763398889997916,0.0,0.012893772893772894,0.004029304029304029
3.1859663799987175,0.0,0.012893772893772894,0.004029304029304029
3.1917307449984946,0.0,0.012893772893772894,0.004029304029304029
3.198850537999533,0.0,0.0032234432234432234,0.0
3.2028529759991216,0.0,0.008058608058608058,0.0
3.205880393998086,0.0,0.008058608058608058,0.0
3.2081934710004134,0.0,0.008058608058608058,0.0
3.2084040900008404,0.0,0.008058608058608058,0.0
3.215770007998799,0.0,0.008058608058608058,0.0
3.2203147489999537,0.0,0.008058608058608058,0.0
3.220381184000871,0.0,0.008058608058608058,0.0
3.2264602149989514,0.0,0.008058608058608058,0.0
3.2332797899980505,0.0,0.0016117216117216117,0.0032234432234432234
3.2365380349983752,0.0,0.0016117216117216117,0.0032234432234432234
3.2374637100001564,0.0,0.0016117216117216117,0.0032234432234432234
3.2391344479983672,0.0,0.0016117216117216117,0.0032234432234432234
3.2426131879983586,0.0,0.0016117216117216117,0.0032234432234432234
3.242696100998728,0.0,0.0016117216117216117,0.0032234432234432234
3.2516015660003177,0.0,0.0,0.04915750915750916
3.257168473999627,0.0,0.0,0.04915750915750916
3.2573095629995805,0.0,0.0,0.04915750915750916
3.2644404380007472,0.0,0.0,0.04915750915750916
3.2676890049988288,0.0,0.0,0.04915750915750916
3.2693638669989014,0.0,0.0,0.04915750915750916
3.2725404259981588,0.0,0.0,0.04915750915750916
3.2734131479992357,0.0,0.0,0.04915750915750916
3.275032935998752,0.0,0.0,0.04915750915750916
3.278141335998953,0.0,0.0,0.04915750915750916
3.280018284000107,0.0,0.0,0.04915750915750916
3.2819742200008477,0.0,0.0,0.04915750915750916
3.284346642998571,0.0,0.0,0.04915750915750916
3.284576517999085,0.0,0.0,0.04915750915750916
3.2903592139991815,0.0,0.0,0.04915750915750916
3.290427609001199,0.0,0.0,0.04915750915750916
3.2962662360005197,0.0,0.0,0.04915750915750916
3.2963480329999584,0.0,0.0,0.04915750915750916
3.3034702490003838,0.0,0.0,0.04915750915750916
3.308417379997991,0.0,0.04915750915750916,0.0
3.31405669599917,0.0,0.04915750915750916,0.0
3.3142202540002472,0.0,0.0,0.0016117216117216117
3.319105099999433,0.0,0.0,0.0016117216117216117
3.324507139997877,0.0,0.0,0.0016117216117216117
3.327539566998894,0.0,0.0,0.0016117216117216117
3.3285473709984217,0.0,0.0,0.0016117216117216117
3.329778350998822,0.0,0.0,0.0016117216117216117
3.335981124000682,0.0,0.0,0.0016117216117216117
3.339931409998826,0.0,0.004835164835164835,0.04996336996336996
3.343836870000814,0.0,0.004835164835164835,0.04996336996336996
3.3478733279989683,0.0,0.004835164835164835,0.04996336996336996
3.34952406299999,0.0,0.004835164835164835,0.04996336996336996
3.352692210999521,0.0,0.004835164835164835,0.04996336996336996
3.3543979399983073,0.0,0.004835164835164835,0.04996336996336996
3.357544008998957,0.0,0.004835164835164835,0.04996336996336996
3.3585131850013568,0.0,0.004835164835164835,0.04996336996336996
3.359381285998097,0.0,0.004835164835164835,0.04996336996336996
3.3610566749994177,0.0,0.004835164835164835,0.04996336996336996
3.3652713049996237,0.0,0.006446886446886447,0.016117216117216115
3.3676555380006903,0.0,0.006446886446886447,0.016117216117216115
3.375870476000273,0.0,0.005641025641025641,0.010476190476190476
3.3822878989994933,0.0,0.005641025641025641,0.010476190476190476
3.386463023998658,0.0,0.005641025641025641,0.010476190476190476
3.3886232910008403,0.0,0.005641025641025641,0.010476190476190476
3.388924742001109,0.0,0.005641025641025641,0.010476190476190476
3.3990114879998146,0.0,0.005641025641025641,0.010476190476190476
3.405133077998471,0.0,0.005641025641025641,0.010476190476190476
3.4094270800014783,0.0,0.008058608058608058,0.044322344322344324
3.411837719999312,0.0,0.008058608058608058,0.044322344322344324
3.4120230759981496,0.0,0.008058608058608058,0.044322344322344324
3.417933898999763,0.0,0.008058608058608058,0.044322344322344324
3.4226561409996066,0.0,0.0032234432234432234,0.004029304029304029
3.4282242420013063,0.0,0.0,0.0
3.428412384000694,0.0,0.004029304029304029,0.012893772893772894
3.4369834370008903,0.0,0.004029304029304029,0.012893772893772894
3.443907229000615,0.0,0.004029304029304029,0.00967032967032967
3.4483565049995377,0.0,0.004029304029304029,0.00967032967032967
3.448541715999454,0.0,0.004029304029304029,0.00967032967032967
3.4546590770005423,0.0,0.004029304029304029,0.00967032967032967
3.4589073329989333,0.0,0.004029304029304029,0.00967032967032967
3.460647608000727,0.0,0.02901098901098901,0.0
3.4667806129982637,0.0,0.02901098901098901,0.0
3.4699499380003545,0.0,0.02901098901098901,0.0
3.4711043429997517,0.0,0.02901098901098901,0.0
3.4713554919981107,0.0,0.02901098901098901,0.0
3.478306082000927,0.0,0.02901098901098901,0.0
3.4839310940005817,0.0,0.007252747252747252,0.02095238095238095
3.4841833020000195,0.0,0.007252747252747252,0.02095238095238095
3.4902529940009117,0.0,0.007252747252747252,0.02095238095238095
3.494641547000356,0.0,0.007252747252747252,0.02095238095238095
3.494977125999867,0.0,0.007252747252747252,0.02095238095238095
3.5021144729980733,0.0,0.007252747252747252,0.02095238095238095
3.5069101150002098,0.0,0.005641025641025641,0.0
3.514884099000483,0.0,0.005641025641025641,0.0
3.5197877659993537,0.0,0.0032234432234432234,0.006446886446886447
3.5237686859982205,0.0,0.007252747252747252,0.005641025641025641
3.5254527569995844,0.0,0.007252747252747252,0.005641025641025641
3.530499778000376,0.0,0.004835164835164835,0.0
3.534292992000701,0.0,0.004835164835164835,0.0
3.539042584998242,0.0,0.004835164835164835,0.0
3.5450310819978768,0.0,0.004835164835164835,0.0
3.5515129570012505,0.0,0.004835164835164835,0.0
3.5554798919984023,0.0,0.008058608058608058,0.00967032967032967
3.559692285998608,0.0,0.008058608058608058,0.00967032967032967
3.5621172149985796,0.0,0.0008058608058608059,0.0
3.5622811860012007,0.0,0.0008058608058608059,0.0
3.5687090339997667,0.0,0.0008058608058608059,0.0
3.5727663569996366,0.0,0.0008058608058608059,0.0
3.576748134000809,0.0,0.0008058608058608059,0.0
3.5811202849981782,0.0,0.0,0.004029304029304029
3.581509195999388,0.0,0.0,0.004029304029304029
3.5866535530003603,0.0,0.0,0.004029304029304029
3.588994832000026,0.0,0.0,0.004029304029304029
3.5891679849992215,0.0,0.0,0.004029304029304029
3.595385034001083,0.0,0.0,0.004029304029304029
3.599993783998798,0.0,0.0,0.004029304029304029
3.6046415439996053,0.0,0.0,0.004029304029304029
3.6047492170000623,0.0,0.0,0.004029304029304029
3.610941279999679,0.0,0.0,0.004029304029304029
3.6175047969991283,0.0,0.0,0.004029304029304029
3.6215180170001986,0.0,0.0,0.004029304029304029
3.625025885001378,0.0,0.0,0.004029304029304029
3.633317061001435,0.0,0.0,0.004029304029304029
3.6381882749992656,0.0,0.0,0.004029304029304029
3.642935095998837,0.0,0.0,0.004029304029304029
3.6430304269997578,0.0,0.0,0.004029304029304029
3.6509754859980603,0.0,0.0,0.004029304029304029
3.655683263998071,0.0,0.0,0.004029304029304029
3.6558209959985106,0.0,0.0,0.004029304029304029
3.662818722998054,0.0,0.0,0.004029304029304029
3.666803174000961,0.0,0.010476190476190476,0.010476190476190476
3.670882073998655,0.0,0.010476190476190476,0.010476190476190476
3.674415276000218,0.0,0.0,0.0
3.6745191299996804,0.0,0.0,0.0
3.6816052879985364,0.0,0.0,0.0
3.685827454999526,0.0,0.0,0.0
3.68855864699799,0.0,0.0,0.0
3.692513707999751,0.0,0.0,0.0
3.697684623999521,0.0,0.012893772893772894,0.008058608058608058
3.699857458999759,0.0,0.012893772893772894,0.008058608058608058
3.700066257999424,0.0,0.012893772893772894,0.008058608058608058
3.7057107069995254,0.0,0.012893772893772894,0.008058608058608058
3.706529193001188,0.0,0.006446886446886447,0.0016117216117216117
3.7082331419987895,0.0,0.006446886446886447,0.0016117216117216117
3.712236347000726,0.0,0.006446886446886447,0.0016117216117216117
3.715745165998669,0.0,0.006446886446886447,0.0016117216117216117
3.7206835270008014,0.0,0.006446886446886447,0.0016117216117216117
3.7247260119984276,0.0,0.006446886446886447,0.0016117216117216117
3.7287995730002876,0.0,0.006446886446886447,0.0016117216117216117
3.729900488000567,0.0,0.006446886446886447,0.0016117216117216117
3.7312649019986566,0.0,0.006446886446886447,0.0016117216117216117
3.7363200830004644,0.0,0.006446886446886447,0.0016117216117216117
3.74034249000033,0.0,0.0,0.017728937728937726
3.7436191589986265,0.0,0.0,0.017728937728937726
3.7438504620004096,0.0,0.0,0.017728937728937726
3.751414204998582,0.0,0.0,0.017728937728937726
3.7562241829982668,0.0,0.0,0.017728937728937726
3.762005828000838,0.0,0.0,0.017728937728937726
3.767662555001152,0.0,0.0,0.017728937728937726
3.773380360998999,0.0,0.00967032967032967,0.0
3.7735893770004623,0.0,0.004835164835164835,0.008058608058608058
3.779695281999011,0.0,0.004835164835164835,0.008058608058608058
3.784377081999992,0.0,0.0016117216117216117,0.0
3.79008414800046,0.0,0.006446886446886447,0.004029304029304029
3.79040727499887,0.0,0.006446886446886447,0.004029304029304029
3.795368300001428,0.0,0.006446886446886447,0.004029304029304029
3.8010017209999205,0.0,0.006446886446886447,0.004029304029304029
3.8064445220006746,0.0,0.0,0.0
3.808377315999678,0.0,0.0,0.0
3.811000278001302,0.0,0.0,0.0
3.81572472300104,0.0,0.0,0.0
3.8205135210009757,0.0,0.0,0.0
3.824366143999214,0.0,0.0,0.0
3.8291655799985165,0.0,0.0,0.0
3.8361501660001522,0.0,0.0,0.0
3.840896323999914,0.0,0.0,0.0
3.8411691629989946,0.0,0.0,0.0
3.850107466998452,0.0,0.0,0.0
3.8550695720005024,0.0,0.005641025641025641,0.0
3.858495551998203,0.0,0.005641025641025641,0.0
3.8586216289986623,0.0,0.005641025641025641,0.0
3.8680144370009657,0.0,0.005641025641025641,0.0
3.8732112539983063,0.0,0.005641025641025641,0.0
3.875688027997967,0.0,0.005641025641025641,0.0
3.8846995720014093,0.0,0.008058608058608058,0.025787545787545788
3.891807545998745,0.0,0.008058608058608058,0.025787545787545788
3.897590697000851,0.0,0.008058608058608058,0.025787545787545788
3.9029493859998183,0.0,0.006446886446886447,0.0
3.9032225500013737,0.0,0.004029304029304029,0.0016117216117216117
3.909006721998594,0.0,0.004029304029304029,0.0016117216117216117
3.9091701549987192,0.0,0.004029304029304029,0.0016117216117216117
3.9183112050013733,0.0,0.004029304029304029,0.0016117216117216117
3.922980338000343,0.0,0.005641025641025641,0.008864468864468863
3.923096244001499,0.0,0.005641025641025641,0.008864468864468863
3.9301126430000295,0.0,0.005641025641025641,0.008864468864468863
3.9337170949984284,0.0,0.005641025641025641,0.008864468864468863
3.939893574999587,0.0,0.005641025641025641,0.008864468864468863
3.944738875001349,0.0,0.005641025641025641,0.008864468864468863
3.9504066230001627,0.0,0.004029304029304029,0.011282051282051281
3.955796615999134,0.0,0.004029304029304029,0.011282051282051281
3.9566767059986887,0.0,0.004835164835164835,0.0
3.9583173829996667,0.0,0.004835164835164835,0.0
3.962648660999548,0.0,0.00967032967032967,0.0
3.9647693340011756,0.0,0.00967032967032967,0.0
3.9649876750008843,0.0,0.00967032967032967,0.0
3.970682367998961,0.0,0.00967032967032967,0.0
3.9707525209996675,0.0,0.00967032967032967,0.0
3.976458132998232,0.0,0.008864468864468863,0.0
3.976573282001482,0.0,0.008864468864468863,0.0
3.9851453869996476,0.0,0.008864468864468863,0.0
3.991027430998656,0.0,0.022564102564102562,0.025787545787545788
3.9969272160014953,0.0,0.022564102564102562,0.025787545787545788
4.002184472999943,0.0,0.022564102564102562,0.025787545787545788
4.003116425999906,0.0,0.0,0.00967032967032967
4.004144727001403,0.0,0.0,0.00967032967032967
4.005003006001061,0.0,0.0,0.00967032967032967
4.005909731000429,0.0,0.0,0.00967032967032967
4.007475876998797,0.0,0.010476190476190476,0.008058608058608058
4.0134957199989,0.0,0.010476190476190476,0.008058608058608058
4.0204345989986905,0.0,0.010476190476190476,0.008058608058608058
4.025325383001473,0.0,0.010476190476190476,0.008058608058608058
4.032375287999457,0.0,0.0032234432234432234,0.02901098901098901
4.036253984999348,0.0,0.0032234432234432234,0.02901098901098901
4.042235180000716,0.0,0.0032234432234432234,0.02901098901098901
4.046732994000195,0.0,0.0032234432234432234,0.02901098901098901
4.04680538699904,0.0,0.0032234432234432234,0.02901098901098901
4.052468812998995,0.0,0.004029304029304029,0.0
4.053269549000106,0.0,0.004029304029304029,0.0
4.0550100459986425,0.0,0.004029304029304029,0.0
4.058327463000751,0.0,0.0008058608058608059,0.0024175824175824176
4.059887505998631,0.0,0.0008058608058608059,0.0024175824175824176
4.066265992998524,0.0,0.0008058608058608059,0.0024175824175824176
4.070290210998792,0.0,0.0008058608058608059,0.0024175824175824176
4.073514059000445,0.0,0.0008058608058608059,0.0024175824175824176
4.074373734998517,0.0,0.0008058608058608059,0.0024175824175824176
4.075965865999024,0.0,0.0008058608058608059,0.0024175824175824176
4.081889316999877,0.0,0.0008058608058608059,0.0024175824175824176
4.085380437998538,0.0,0.008864468864468863,0.0
4.091076355998666,0.0,0.0032234432234432234,0.00967032967032967
4.091229517998727,0.0,0.0032234432234432234,0.00967032967032967
4.099812029999157,0.0,0.0032234432234432234,0.00967032967032967
4.103983298999083,0.0,0.0032234432234432234,0.00967032967032967
4.1064857450001,0.0,0.0008058608058608059,0.0
4.106592004998674,0.0,0.0008058608058608059,0.0
4.113968485999067,0.0,0.0032234432234432234,0.0
4.118149662001088,0.0,0.0032234432234432234,0.0
4.12141936199987,0.0,0.0032234432234432234,0.0
4.121622530001332,0.0,0.0032234432234432234,0.0
4.127187752001191,0.0,0.0032234432234432234,0.0
4.1273117439995985,0.0,0.0032234432234432234,0.0
4.1341583719986374,0.0,0.0032234432234432234,0.0
4.138032744998782,0.0,0.0032234432234432234,0.0
4.143159264000133,0.0,0.0032234432234432234,0.0
4.146734916001151,0.0,0.0032234432234432234,0.0
4.151373287000752,0.0,0.0032234432234432234,0.0
4.156612955001037,0.0,0.0032234432234432234,0.0
4.159318616999371,0.0,0.0032234432234432234,0.0
4.166202191998309,0.0,0.0024175824175824176,0.0
4.170044660000713,0.0,0.0024175824175824176,0.0
4.174577246998524,0.0,0.0024175824175824176,0.0
4.174722580999514,0.0,0.0024175824175824176,0.0
4.182560092998756,0.0,0.0024175824175824176,0.0
4.18655465700067,0.0,0.008864468864468863,0.0008058608058608059
4.189656982998713,0.0,0.008864468864468863,0.0008058608058608059
4.192280002000189,0.0,0.008864468864468863,0.0008058608058608059
4.197784545998729,0.0,0.008864468864468863,0.0008058608058608059
4.203694946998439,0.0,0.005641025641025641,0.004029304029304029
4.208000304999587,0.0,0.005641025641025641,0.004029304029304029
4.209641305998957,0.0,0.0,0.0008058608058608059
4.216132703000767,0.0,0.0,0.0008058608058608059
4.220070223000221,0.0,0.00967032967032967,0.011282051282051281
4.224348055999144,0.0,0.00967032967032967,0.011282051282051281
4.225168616998417,0.0,0.00967032967032967,0.011282051282051281
4.2270769200004,0.0,0.00967032967032967,0.011282051282051281
4.230650093999429,0.0,0.00967032967032967,0.011282051282051281
4.236977814998681,0.0,0.0032234432234432234,0.0
4.241091216001223,0.0,0.004029304029304029,0.0
4.244854311000381,0.0,0.0008058608058608059,0.0
4.249237109997921,0.0,0.0008058608058608059,0.0
4.2493068059993675,0.0,0.0008058608058608059,0.0024175824175824176
4.254768414000864,0.0,0.0,0.0
4.256323634999717,0.0,0.0,0.0
4.261949830000958,0.0,0.0,0.0
4.262047454998537,0.0,0.005641025641025641,0.011282051282051281
4.269088326000201,0.0,0.005641025641025641,0.011282051282051281
4.2739162990001205,0.0,0.005641025641025641,0.011282051282051281
4.280891785998392,0.0,0.0136996336996337,0.024175824175824173
4.285028598998906,0.0,0.0136996336996337,0.024175824175824173
4.2877629559989145,0.0,0.0136996336996337,0.024175824175824173
4.291820952999842,0.0,0.0016117216117216117,0.0
4.2960214970007655,0.0,0.0016117216117216117,0.0
4.297549057999277,0.0,0.0016117216117216117,0.0
4.3017811569989135,0.0,0.0016117216117216117,0.0
4.302672879999591,0.0,0.0016117216117216117,0.0
4.306069458998536,0.0,0.0016117216117216117,0.0
4.306272535999597,0.0,0.0016117216117216117,0.0
4.316125549001299,0.0,0.0,0.0
4.321421978998842,0.0,0.004029304029304029,0.0
4.324439871001232,0.0,0.004029304029304029,0.0
4.32743457199831,0.0,0.004029304029304029,0.0
4.3291761049986235,0.0,0.004835164835164835,0.005641025641025641
4.331965269000648,0.0,0.004835164835164835,0.005641025641025641
4.335239373998775,0.0,0.004835164835164835,0.005641025641025641
4.33544119599901,0.0,0.004835164835164835,0.005641025641025641
4.3409294779994525,0.0,0.004835164835164835,0.005641025641025641
4.341256929998053,0.0,0.004835164835164835,0.005641025641025641
4.348790543997893,0.0,0.004835164835164835,0.005641025641025641
4.354744552998454,0.0,0.004835164835164835,0.005641025641025641
4.357935625997925,0.0,0.004835164835164835,0.005641025641025641
4.359894174998772,0.0,0.004835164835164835,0.005641025641025641
4.3623794710001675,0.0,0.004835164835164835,0.005641025641025641
4.372083856000245,0.0,0.004835164835164835,0.005641025641025641
4.381427829001041,0.0,0.004835164835164835,0.005641025641025641
4.386608476997935,0.0,0.0,0.03062271062271062
4.389324726998893,0.0,0.0,0.03062271062271062
4.395310866999353,0.0,0.0,0.03062271062271062
4.4010793730012665,0.0,0.004029304029304029,0.0024175824175824176
4.404270120001456,0.0,0.004029304029304029,0.0024175824175824176
4.405141430997901,0.0,0.004029304029304029,0.0024175824175824176
4.406793308000488,0.0,0.004029304029304029,0.0024175824175824176
4.412706212999183,0.0,0.004029304029304029,0.0024175824175824176
4.418185162001464,0.0,0.005641025641025641,0.0
4.418330122000043,0.0,0.005641025641025641,0.0
4.424471487000119,0.0,0.005641025641025641,0.0
4.428301748001104,0.0,0.005641025641025641,0.0
4.434418951997941,0.0,0.0024175824175824176,0.004029304029304029
4.4377526759999455,0.0,0.00967032967032967,0.018534798534798533
4.438644196001405,0.0,0.00967032967032967,0.018534798534798533
4.440452582999569,0.0,0.00967032967032967,0.018534798534798533
4.443994067998574,0.0,0.00967032967032967,0.018534798534798533
4.452898679999635,0.0,0.00967032967032967,0.018534798534798533
4.458638591000636,0.0,0.00967032967032967,0.018534798534798533
4.458756862000882,0.0,0.00967032967032967,0.018534798534798533
4.466393414000777,0.0,0.00967032967032967,0.018534798534798533
4.470989211000415,0.0,0.008058608058608058,0.004835164835164835
4.471225926998159,0.0,0.008058608058608058,0.004835164835164835
4.476640670000052,0.0,0.008058608058608058,0.004835164835164835
4.477653580001061,0.0,0.0,0.008058608058608058
4.4793664239987265,0.0,0.0,0.008058608058608058
4.484594863999519,0.0,0.0,0.008058608058608058
4.497564606001106,0.0,0.01531135531135531,0.0
4.502285193000716,0.0,0.012087912087912087,0.004029304029304029
4.510095460998855,0.0,0.012087912087912087,0.004029304029304029
4.5185651350002445,0.0,0.012087912087912087,0.004029304029304029
4.526912741999695,0.0,0.012087912087912087,0.004029304029304029
4.535944664999988,0.0,0.012087912087912087,0.004029304029304029
4.5419956910009205,0.0,0.012893772893772894,0.0024175824175824176
4.55055178800103,0.0,0.0024175824175824176,0.0
4.558570605000568,0.0,0.0024175824175824176,0.0
4.564921331999358,0.0,0.0024175824175824176,0.0
4.568862710999383,0.0,0.004835164835164835,0.0
4.571765463999327,0.0,0.004835164835164835,0.0
4.574449760999414,0.0,0.004835164835164835,0.0
4.580555581000226,0.0,0.004835164835164835,0.0
4.584278619000543,0.0,0.0,0.0
4.59041957899899,0.0,0.0,0.0
4.595397270000831,0.0,0.0,0.0
4.599258047001058,0.0,0.0,0.0
4.602557391001028,0.0,0.0,0.0
4.603427556001407,0.0,0.0,0.0
4.605056610998872,0.0,0.0,0.0
4.608275859998685,0.0,0.0,0.0
4.609855017999507,0.0,0.0,0.0
4.615743465998094,0.0,0.0,0.0
4.6199023890003446,0.0,0.006446886446886447,0.011282051282051281
4.622388891999435,0.0,0.006446886446886447,0.011282051282051281
4.622469134999847,0.0,0.006446886446886447,0.011282051282051281
4.629010048000055,0.0,0.006446886446886447,0.011282051282051281
4.633546222001314,0.0,0.006446886446886447,0.011282051282051281
4.633627068000351,0.0,0.008864468864468863,0.022564102564102562
4.639308653000626,0.0,0.008864468864468863,0.022564102564102562
4.639533636000124,0.0,0.008864468864468863,0.022564102564102562
4.646582468998531,0.0,0.008864468864468863,0.022564102564102562
4.6511811329983175,0.0,0.008864468864468863,0.022564102564102562
4.651315587998397,0.0,0.00967032967032967,0.018534798534798533
4.656696779999038,0.0,0.00967032967032967,0.018534798534798533
4.658575934998225,0.0,0.00967032967032967,0.018534798534798533
4.662236724998365,0.0,0.00967032967032967,0.018534798534798533
4.669215281999641,0.0,0.00967032967032967,0.018534798534798533
4.674267590999079,0.0,0.00967032967032967,0.018534798534798533
4.681037667000055,0.0,0.00967032967032967,0.018534798534798533
4.684361018000345,0.0,0.004029304029304029,0.004029304029304029
4.685893322999618,0.0,0.004029304029304029,0.004029304029304029
4.68963632699888,0.0,0.0,0.0
4.6953204150013335,0.0,0.0008058608058608059,0.03304029304029304
4.702822203998949,0.0,0.0008058608058608059,0.03304029304029304
4.708525681999163,0.0,0.0008058608058608059,0.03304029304029304
4.708720557999186,0.0,0.004029304029304029,0.0032234432234432234
4.71792340400134,0.0,0.004029304029304029,0.0032234432234432234
4.72606062399791,0.0,0.004029304029304029,0.0032234432234432234
4.7336123140012205,0.0,0.004029304029304029,0.0032234432234432234
4.738302223999199,0.0,0.004835164835164835,0.0
4.7391447679983685,0.0,0.004835164835164835,0.0
4.741442341000948,0.0,0.004835164835164835,0.0
4.741540551000071,0.0,0.004835164835164835,0.0
4.749548668998614,0.0,0.004835164835164835,0.0
4.753435643000557,0.0,0.004835164835164835,0.0
4.757253921998199,0.0,0.004835164835164835,0.0
4.763558861999627,0.0,0.004835164835164835,0.0
4.767464116001065,0.0,0.0,0.0
4.770502258998022,0.0,0.004029304029304029,0.0
4.772170260999701,0.0,0.004029304029304029,0.0
4.776031965000584,0.0,0.004029304029304029,0.0
4.782712978998461,0.0,0.004029304029304029,0.0
4.786129645999608,0.0,0.0,0.0
4.786961581001378,0.0,0.0,0.0
4.789379286998155,0.0,0.0,0.0
4.794726691001415,0.0,0.0,0.0
4.7968145519989775,0.0,0.0,0.012893772893772894
4.79847305200019,0.0,0.0,0.012893772893772894
4.801042965998931,0.0,0.0,0.012893772893772894
4.805020227999194,0.0,0.0,0.012893772893772894
4.809672415998648,0.0,0.0,0.012893772893772894
4.809873920999962,0.0,0.0,0.012893772893772894
4.819215174000419,0.0,0.0,0.012893772893772894
4.82448160399872,0.0,0.0,0.012893772893772894
4.827027212999383,0.0,0.006446886446886447,0.004835164835164835
4.833676836999075,0.0,0.006446886446886447,0.004835164835164835
4.837821659999463,0.0,0.006446886446886447,0.004835164835164835
4.840134545000183,0.0,0.005641025641025641,0.02095238095238095
4.840367560998857,0.0,0.005641025641025641,0.02095238095238095
4.848746905001462,0.0,0.005641025641025641,0.02095238095238095
4.85502750500018,0.0,0.005641025641025641,0.02095238095238095
4.860097100998246,0.0,0.005641025641025641,0.02095238095238095
4.863973028001055,0.0,0.0,0.0
4.865295249001065,0.0,0.0,0.0
4.875150670999574,0.0,0.0,0.0
4.8854319649981335,0.0,0.0,0.0
4.891064970001025,0.0,0.0,0.012893772893772894
4.891226069998083,0.0,0.0,0.012893772893772894
4.898937433001265,0.0,0.0,0.012893772893772894
4.902750396999181,0.0,0.0,0.012893772893772894
4.90854708400002,0.0,0.0,0.012893772893772894
4.916890283999237,0.0,0.0,0.0136996336996337
4.921434675998171,0.0,0.0,0.0136996336996337
4.922260401999665,0.0,0.0,0.0136996336996337
4.9237976529984735,0.0,0.007252747252747252,0.0
4.929167251000763,0.0,0.004835164835164835,0.0
4.93121825399794,0.0,0.004835164835164835,0.0
4.931533579998359,0.0,0.004835164835164835,0.0
4.937508670998795,0.0,0.004835164835164835,0.0
4.9426336949982215,0.0,0.004835164835164835,0.0
4.946100306999142,0.0,0.004835164835164835,0.0
4.94620019300055,0.0,0.004835164835164835,0.0
4.9528646809994825,0.0,0.004835164835164835,0.0
4.956718995999836,0.0,0.004835164835164835,0.0
4.961810919001437,0.0,0.004835164835164835,0.0
4.967695576000551,0.0,0.004835164835164835,0.0
4.972334685000533,0.0,0.004835164835164835,0.0
4.976685637000628,0.0,0.004835164835164835,0.0
4.978648560998408,0.0,0.004835164835164835,0.0
4.9799422479991335,0.0,0.004835164835164835,0.0
4.990078662998712,0.0,0.004835164835164835,0.0
5.001184579999972,0.0,0.004835164835164835,0.0
5.006629049999901,0.0,0.004835164835164835,0.0
5.008340550000867,0.0,0.004835164835164835,0.0
5.0137985670007765,0.0,0.004835164835164835,0.0
5.0139363189991855,0.0,0.004835164835164835,0.0
5.020154322999588,0.0,0.004835164835164835,0.0
5.023973674000445,0.0,0.006446886446886447,0.0016117216117216117
5.028976562000025,0.0,0.006446886446886447,0.0016117216117216117
5.033936192998226,0.0,0.006446886446886447,0.0016117216117216117
5.036288914001489,0.0,0.006446886446886447,0.0016117216117216117
5.044234016000701,0.0,0.006446886446886447,0.0016117216117216117
5.04982997299885,0.0,0.006446886446886447,0.0016117216117216117
5.049907010001334,0.0,0.007252747252747252,0.0
5.0584944680012995,0.0,0.007252747252747252,0.0
5.066903180999361,0.0,0.0,0.02336996336996337
5.073879586998373,0.0,0.0,0.02336996336996337
5.078965709999466,0.0,0.0,0.02336996336996337
5.082385726000211,0.0,0.004835164835164835,0.004029304029304029
5.082603093000216,0.0,0.004835164835164835,0.004029304029304029
5.09180784199998,0.0,0.004835164835164835,0.004029304029304029
5.100609828998131,0.0,0.010476190476190476,0.0
5.105929279998236,0.0,0.011282051282051281,0.0
5.10825682399809,0.0,0.011282051282051281,0.0
5.116788285999064,0.0,0.005641025641025641,0.0
5.123340516998724,0.0,0.005641025641025641,0.0
5.128578955998819,0.0,0.005641025641025641,0.0
5.129647226000088,0.0,0.005641025641025641,0.0
5.129950385999109,0.0,0.005641025641025641,0.0
5.136466658001154,0.0,0.005641025641025641,0.0
5.140360261000751,0.0,0.005641025641025641,0.0
5.148199849998491,0.0,0.00967032967032967,0.0
5.152325416998792,0.0,0.00967032967032967,0.0
5.1541444639988185,0.0,0.0,0.00967032967032967
5.156534482001007,0.0,0.0,0.00967032967032967
5.163818197001092,0.0,0.0,0.00967032967032967
5.168124412000907,0.0,0.0,0.00967032967032967
5.169715256000927,0.0,0.0,0.0
5.173966031998134,0.0,0.0,0.0
5.175584333999723,0.0,0.0,0.0
5.178983560999768,0.0,0.0,0.0
5.179220351001277,0.0,0.004835164835164835,0.0
5.1847900729990215,0.0,0.004835164835164835,0.0
5.18644867599869,0.0,0.004835164835164835,0.0
5.189462256999832,0.0,0.004835164835164835,0.0
5.192439088001265,0.0,0.0024175824175824176,0.0
5.194904443000269,0.0,0.0024175824175824176,0.0
5.200310341999284,0.0,0.0024175824175824176,0.0
5.201843344999361,0.0,0.0024175824175824176,0.0
5.206360846001189,0.0,0.0024175824175824176,0.0
5.206519685998501,0.0,0.0,0.0032234432234432234
5.211872664000111,0.0,0.0,0.0032234432234432234
5.214163184999052,0.0,0.0,0.0032234432234432234
5.219617178001499,0.0,0.007252747252747252,0.01934065934065934
5.221221391999279,0.0,0.010476190476190476,0.0008058608058608059
5.225033734001045,0.0,0.010476190476190476,0.0008058608058608059
5.228189926001505,0.0,0.010476190476190476,0.0008058608058608059
5.229818815998442,0.0,0.010476190476190476,0.0008058608058608059
5.234399570999813,0.0,0.010476190476190476,0.0008058608058608059
5.23981480799921,0.0,0.010476190476190476,0.0008058608058608059
5.241406763998384,0.0,0.010476190476190476,0.0008058608058608059
5.245922344998689,0.0,0.004029304029304029,0.010476190476190476
5.246175773998402,0.0,0.004029304029304029,0.010476190476190476
5.2516270839987556,0.0,0.004029304029304029,0.010476190476190476
5.2518320939998375,0.0,0.004029304029304029,0.010476190476190476
5.257329006999498,0.0,0.004029304029304029,0.010476190476190476
5.257515183999203,0.0,0.004029304029304029,0.010476190476190476
5.264039731999219,0.0,0.004029304029304029,0.010476190476190476
5.26718062999862,0.0,0.004029304029304029,0.010476190476190476
5.26879029599877,0.0,0.0,0.006446886446886447
5.272588831001485,0.0,0.004835164835164835,0.029816849816849816
5.277109542999824,0.0,0.0,0.020146520146520144
5.277375014000427,0.0,0.0,0.020146520146520144
5.282048115997895,0.0,0.0,0.020146520146520144
5.2822316769998,0.0,0.0,0.020146520146520144
5.287636076998751,0.0,0.0,0.020146520146520144
5.2899084060009045,0.0,0.0,0.020146520146520144
5.2899822809995385,0.0,0.0,0.020146520146520144
5.295401225997921,0.0,0.0,0.020146520146520144
5.296225713998865,0.0,0.0,0.020146520146520144
5.2986222809995525,0.0,0.0,0.020146520146520144
5.298782031000883,0.0,0.0,0.020146520146520144
5.304247258998657,0.0,0.0,0.020146520146520144
5.305814549999923,0.0,0.0,0.007252747252747252
5.30984915999943,0.0,0.0,0.007252747252747252
5.312403699001152,0.0,0.0,0.007252747252747252
5.319969502001186,0.0,0.0,0.007252747252747252
5.3247935170002165,0.0,0.0,0.03062271062271062
5.324879711999529,0.0,0.0,0.03062271062271062
5.3309312269993825,0.0,0.0,0.03062271062271062
5.335016262000863,0.0,0.0032234432234432234,0.0
5.337425360998168,0.0,0.0032234432234432234,0.0
5.3429079439993075,0.0,0.0032234432234432234,0.0
5.343865932998597,0.0,0.0032234432234432234,0.0
5.345566518000851,0.0,0.0032234432234432234,0.0
5.348718403998646,0.0,0.0032234432234432234,0.0
5.350331926998479,0.0,0.0032234432234432234,0.0
5.355037683999399,0.0,0.0032234432234432234,0.0
5.3552213049988495,0.0,0.0032234432234432234,0.0
5.360857534000388,0.0,0.0032234432234432234,0.0
5.366429673998937,0.0,0.0032234432234432234,0.0
5.367435015999945,0.0,0.0032234432234432234,0.0
5.367648794999695,0.0,0.0032234432234432234,0.0
5.373182067000016,0.0,0.0032234432234432234,0.0
5.373307218000264,0.0,0.0032234432234432234,0.0
5.37902727799883,0.0,0.0032234432234432234,0.0
5.379222269999445,0.0,0.0032234432234432234,0.0
5.389900114998454,0.0,0.0032234432234432234,0.0
5.4020729059993755,0.0,0.0032234432234432234,0.0
5.409104264999769,0.0,0.0,0.010476190476190476
5.416485163001198,0.0,0.0,0.007252747252747252
5.4217895030014915,0.0,0.0,0.007252747252747252
5.424620245001279,0.0,0.0,0.007252747252747252
5.429054711999925,0.0,0.0,0.007252747252747252
5.429650165999192,0.0,0.0,0.007252747252747252
5.432878580999386,0.0,0.0,0.007252747252747252
5.433085414999368,0.0,0.0,0.007252747252747252
5.444148722999671,0.0,0.0,0.007252747252747252
5.454787167000177,0.0,0.0,0.007252747252747252
5.461748544999864,0.0,0.0,0.007252747252747252
5.466205799999443,0.0,0.0,0.007252747252747252
5.466375003001303,0.0,0.0,0.007252747252747252
5.47241687299902,0.0,0.0,0.007252747252747252
5.480719084000157,0.0,0.004835164835164835,0.0136996336996337
5.485690852998232,0.0,0.0008058608058608059,0.0
5.487705661998916,0.0,0.007252747252747252,0.0008058608058608059
5.4893504139981815,0.0,0.007252747252747252,0.0008058608058608059
5.498468030000367,0.0,0.007252747252747252,0.0008058608058608059
5.504849880999245,0.0,0.007252747252747252,0.0008058608058608059
5.509726372998557,0.0,0.007252747252747252,0.0008058608058608059
5.516878272999747,0.0,0.007252747252747252,0.0008058608058608059
5.522042622000299,0.0,0.0032234432234432234,0.004029304029304029
5.525285543000791,0.0,0.0032234432234432234,0.004029304029304029
5.5283798499986005,0.0,0.0032234432234432234,0.004029304029304029
5.529790437998599,0.0,0.0032234432234432234,0.004029304029304029
5.537409983000543,0.0,0.0032234432234432234,0.004029304029304029
5.542397667999467,0.0,0.029816849816849816,0.00967032967032967
5.550878524998552,0.0,0.029816849816849816,0.00967032967032967
5.55503131200021,0.0,0.0032234432234432234,0.017728937728937726
5.557518554000126,0.0,0.0032234432234432234,0.017728937728937726
5.567500785000448,0.0,0.0032234432234432234,0.017728937728937726
5.575847082000109,0.0,0.006446886446886447,0.02336996336996337
5.584035589999985,0.0,0.006446886446886447,0.02336996336996337
5.5898078479986,0.0,0.0,0.0
5.595276445001218,0.0,0.0,0.0
5.5972066180002,0.0,0.0024175824175824176,0.0
5.59887492100097,0.0,0.0024175824175824176,0.0
5.6012994080010685,0.0,0.0024175824175824176,0.0
5.601376088998222,0.0,0.0008058608058608059,0.006446886446886447
5.6071523430000525,0.0,0.0008058608058608059,0.006446886446886447
5.607259192998754,0.0,0.0008058608058608059,0.006446886446886447
5.6135448519999045,0.0,0.0008058608058608059,0.006446886446886447
5.617190819000825,0.0,0.0008058608058608059,0.006446886446886447
5.6228562200012675,0.0,0.0008058608058608059,0.006446886446886447
5.630320076001226,0.0,0.0008058608058608059,0.006446886446886447
5.634879220000585,0.0,0.0008058608058608059,0.006446886446886447
5.634960520997993,0.0,0.0,0.02336996336996337
5.640611161998095,0.0,0.0,0.02336996336996337
5.640782399997988,0.0,0.0,0.02336996336996337
5.648559934001241,0.0,0.0,0.02336996336996337
5.653484358001151,0.0,0.0008058608058608059,0.0016117216117216117
5.658449925998866,0.0,0.0008058608058608059,0.0016117216117216117
5.664342984000541,0.0,0.0008058608058608059,0.0016117216117216117
5.669482891000371,0.0,0.0008058608058608059,0.0016117216117216117
5.671862343999237,0.0,0.0008058608058608059,0.0016117216117216117
5.678559028998279,0.0,0.0008058608058608059,0.0016117216117216117
5.682915221997973,0.0,0.0008058608058608059,0.0016117216117216117
5.6830332210010965,0.0,0.0008058608058608059,0.0016117216117216117
5.689815965000889,0.0,0.0008058608058608059,0.0016117216117216117
5.697209813999507,0.0,0.0008058608058608059,0.0016117216117216117
5.701503221000166,0.0,0.016117216117216115,0.0
5.702433603000827,0.0,0.016117216117216115,0.0
5.70419957500053,0.0,0.016117216117216115,0.0
5.7074105979991145,0.0,0.016117216117216115,0.0
5.7083596589982335,0.0,0.04996336996336996,0.0032234432234432234
5.709485568000673,0.0,0.04996336996336996,0.0032234432234432234
5.70970623500034,0.0,0.04996336996336996,0.0032234432234432234
5.71865810899908,0.0,0.04996336996336996,0.0032234432234432234
5.725457018997986,0.0,0.04996336996336996,0.0032234432234432234
5.732185807999485,0.0,0.04996336996336996,0.0032234432234432234
5.736146512997948,0.0,0.04996336996336996,0.0032234432234432234
5.741082411001116,0.0,0.04996336996336996,0.0032234432234432234
5.746034112999041,0.0,0.04996336996336996,0.0032234432234432234
5.748303535998275,0.0,0.0,0.0
5.748511608999252,0.0,0.0,0.0
5.754066825000336,0.0,0.0,0.0
5.7543107439996675,0.0,0.0,0.0
5.759933631001331,0.0,0.0,0.0
5.760499232001166,0.0,0.0,0.0
5.765523961999861,0.0,0.0,0.0
5.767871881998872,0.0,0.0,0.0024175824175824176
5.768060214999423,0.0,0.0,0.0024175824175824176
5.773931821000588,0.0,0.0,0.0024175824175824176
5.781736347998958,0.0,0.0,0.0024175824175824176
5.786641807000706,0.0,0.0,0.0024175824175824176
5.790889847998187,0.0,0.0,0.0024175824175824176
5.792469304000406,0.0,0.0,0.0024175824175824176
5.798584791999019,0.0,0.0,0.0024175824175824176
5.801760836999165,0.0,0.0,0.0024175824175824176
5.803387804000522,0.0,0.004029304029304029,0.0
5.807417879997956,0.0,0.004029304029304029,0.0
5.811290096000448,0.0,0.011282051282051281,0.004029304029304029
5.81573582800047,0.0,0.011282051282051281,0.004029304029304029
5.815887000000657,0.0,0.0,0.016923076923076923
5.821548506999534,0.0,0.0,0.016923076923076923
5.821675228999084,0.0,0.0,0.005641025641025641
5.828823627998645,0.0,0.0,0.005641025641025641
5.832671005999146,0.0,0.0,0.005641025641025641
5.837431472999015,0.0,0.0,0.005641025641025641
5.842068089998065,0.0,0.0,0.005641025641025641
5.84222556199893,0.0,0.006446886446886447,0.006446886446886447
5.850189322998631,0.0,0.006446886446886447,0.006446886446886447
5.855003692999162,0.0,0.006446886446886447,0.006446886446886447
5.859331166000629,0.0,0.006446886446886447,0.006446886446886447
5.862598456998967,0.0,0.006446886446886447,0.006446886446886447
5.868859539998084,0.0,0.006446886446886447,0.006446886446886447
5.8727940099997795,0.0,0.006446886446886447,0.006446886446886447
5.878644397998869,0.0,0.006446886446886447,0.006446886446886447
5.883884249000403,0.0,0.006446886446886447,0.006446886446886447
5.885509651001485,0.0,0.006446886446886447,0.006446886446886447
5.889459252000961,0.0,0.0,0.0
5.8945169750004425,0.0,0.0,0.0008058608058608059
5.900348284998472,0.0,0.0,0.0008058608058608059
5.905114345001493,0.0,0.008058608058608058,0.0
5.910443057000521,0.0,0.0016117216117216117,0.06446886446886446
5.911872742999549,0.0,0.004835164835164835,0.00967032967032967
5.916673681000248,0.0,0.004835164835164835,0.00967032967032967
5.922827546000917,0.0,0.004835164835164835,0.00967032967032967
5.929599054001301,0.0,0.004835164835164835,0.00967032967032967
5.933432189998712,0.0,0.0,0.0
5.938550260998454,0.0,0.0,0.0
5.94205755800067,0.0,0.008864468864468863,0.02095238095238095
5.942232634999527,0.0,0.008864468864468863,0.02095238095238095
5.949592574001144,0.0,0.0,0.0
5.954514953999023,0.0,0.0,0.0
5.959337052998308,0.0,0.0,0.0
5.966211990999,0.0,0.0,0.012087912087912087
5.970073805998254,0.0,0.0,0.012087912087912087
5.974786642000254,0.0,0.0,0.012087912087912087
5.982867433998763,0.0,0.0,0.012087912087912087
5.987792987998546,0.0,0.0,0.012087912087912087
5.9919663930013485,0.0,0.0032234432234432234,0.02175824175824176
5.9964672540008905,0.0,0.0032234432234432234,0.02175824175824176
6.002540762001445,0.0,0.0032234432234432234,0.02175824175824176
6.006568233999133,0.0,0.0032234432234432234,0.02175824175824176
6.0122078849999525,0.0,0.008864468864468863,0.0
6.018653487000847,0.0,0.008864468864468863,0.0
6.022577657000511,0.0,0.008864468864468863,0.0
6.025869285000226,0.0,0.008864468864468863,0.0
6.027331668999977,0.0,0.008864468864468863,0.0
6.035367951000808,0.0,0.008864468864468863,0.0
6.0402226359983615,0.0,0.008864468864468863,0.0
6.049513751000632,0.0,0.00967032967032967,0.018534798534798533
6.054583314999036,0.0,0.00967032967032967,0.018534798534798533
6.0584721919985896,0.0,0.00967032967032967,0.018534798534798533
6.064409528000397,0.0,0.00967032967032967,0.018534798534798533
6.068664390000777,0.0,0.00967032967032967,0.018534798534798533
6.069542334000289,0.0,0.00967032967032967,0.018534798534798533
6.072014463999949,0.0,0.00967032967032967,0.018534798534798533
6.077846972999396,0.0,0.00967032967032967,0.018534798534798533
6.084909774999687,0.0,0.00967032967032967,0.018534798534798533
6.0895838889991865,0.0,0.00967032967032967,0.018534798534798533
6.089660184999957,0.0,0.00967032967032967,0.018534798534798533
6.09725036799864,0.0,0.00967032967032967,0.018534798534798533
6.1013962809993245,0.0,0.00967032967032967,0.018534798534798533
6.1047089230014535,0.0,0.00967032967032967,0.018534798534798533
6.105599124999571,0.0,0.00967032967032967,0.018534798534798533
6.107254841001122,0.0,0.00967032967032967,0.018534798534798533
6.1131658509984845,0.0,0.00967032967032967,0.018534798534798533
6.118362697998236,0.0,0.00967032967032967,0.018534798534798533
6.1215847700004815,0.0,0.00967032967032967,0.018534798534798533
6.123251050001272,0.0,0.00967032967032967,0.018534798534798533
6.130110706999403,0.0,0.00967032967032967,0.018534798534798533
6.134218963001331,0.0,0.004835164835164835,0.004835164835164835
6.135968282000249,0.0,0.004835164835164835,0.004835164835164835
6.140002080999693,0.0,0.004835164835164835,0.004835164835164835
6.142717689999699,0.0,0.004835164835164835,0.004835164835164835
6.148426161998941,0.0,0.004835164835164835,0.004835164835164835
6.152292136001051,0.0,0.004835164835164835,0.004835164835164835
6.157033201998274,0.0,0.004835164835164835,0.004835164835164835
6.165873547000956,0.0,0.004835164835164835,0.004835164835164835
6.17036001499946,0.0,0.004835164835164835,0.004835164835164835
6.171182690999558,0.0,0.004835164835164835,0.083003663003663
6.172776810999494,0.0,0.004835164835164835,0.083003663003663
6.176113689998601,0.0,0.004835164835164835,0.083003663003663
6.177805530998739,0.0,0.004835164835164835,0.083003663003663
6.18144073700023,0.0,0.004835164835164835,0.083003663003663
6.185272939997958,0.0,0.004835164835164835,0.083003663003663
6.190544605000468,0.0,0.004835164835164835,0.083003663003663
6.194947789001162,0.03948717948717949,0.011282051282051281,0.014505494505494505
6.2017430550004065,0.03948717948717949,0.011282051282051281,0.014505494505494505
6.2060176779996254,0.03948717948717949,0.011282051282051281,0.014505494505494505
6.20778516199789,0.0,0.0024175824175824176,0.016923076923076923
6.210389954998391,0.0,0.0024175824175824176,0.016923076923076923
6.216994256999897,0.0,0.0024175824175824176,0.016923076923076923
6.2214804040013405,0.0,0.0024175824175824176,0.016923076923076923
6.221668211001088,0.0,0.0032234432234432234,0.0032234432234432234
6.228266886999336,0.0,0.0032234432234432234,0.0032234432234432234
6.233916269000474,0.0,0.0032234432234432234,0.0032234432234432234
6.242372558997886,0.0,0.0032234432234432234,0.0032234432234432234
6.247936072999437,0.0,0.0032234432234432234,0.0032234432234432234
6.2482239400014805,0.0,0.0032234432234432234,0.0032234432234432234
6.257342212000367,0.0,0.0032234432234432234,0.0032234432234432234
6.266196169999603,0.0,0.0032234432234432234,0.0032234432234432234
6.271504088999791,0.0,0.0,0.0
6.27617075300077,0.0,0.0,0.0
6.283443937998527,0.0,0.0,0.0
6.287577863000479,0.0,0.0,0.0
6.289973042999918,0.0,0.0,0.0
6.290032607001194,0.0,0.0,0.0
6.2970758480005316,0.0,0.0,0.0
6.301386567000009,0.0,0.0024175824175824176,0.01934065934065934
6.303012043998024,0.0,0.004835164835164835,0.048351648351648346
6.306950154998049,0.0,0.00967032967032967,0.024175824175824173
6.31015202799972,0.0,0.00967032967032967,0.024175824175824173
6.312506530000974,0.0,0.00967032967032967,0.024175824175824173
6.312605609000457,0.0,0.00967032967032967,0.024175824175824173
6.317802270998072,0.0,0.00967032967032967,0.024175824175824173
6.3204256530007115,0.0,0.00967032967032967,0.024175824175824173
6.32467589999942,0.0,0.014505494505494505,0.0
6.326161550998222,0.0,0.006446886446886447,0.016923076923076923
6.330557842000417,0.0,0.006446886446886447,0.016923076923076923
6.331304937000823,0.0,0.0,0.0
6.33342790900133,0.0,0.0,0.0
6.333669441999518,0.0,0.0,0.0
6.338690976001089,0.0,0.0,0.0
6.342867224000656,0.0,0.0,0.0
6.345159775999491,0.0,0.0,0.0
6.345312248999107,0.0,0.0032234432234432234,0.02095238095238095
6.350287496999954,0.0,0.0032234432234432234,0.02095238095238095
6.35544690900133,0.0,0.0032234432234432234,0.02095238095238095
6.3591270510005415,0.0,0.0032234432234432234,0.02095238095238095
6.364480926000397,0.0,0.011282051282051281,0.0
6.364682898998581,0.0,0.011282051282051281,0.0
6.370163839997986,0.0,0.0,0.0
6.3709938089996285,0.0,0.005641025641025641,0.04996336996336996
6.371928739001305,0.0,0.005641025641025641,0.04996336996336996
6.372846319998644,0.0,0.005641025641025641,0.04996336996336996
6.374468432000867,0.0,0.005641025641025641,0.04996336996336996
6.37850982999953,0.0,0.005641025641025641,0.04996336996336996
6.381638694998401,0.0,0.005641025641025641,0.04996336996336996
6.382486014997994,0.0,0.005641025641025641,0.04996336996336996
6.3842061899995315,0.0,0.005641025641025641,0.04996336996336996
6.387319891000516,0.0,0.005641025641025641,0.04996336996336996
6.388264109999,0.0,0.005641025641025641,0.04996336996336996
6.389131251999061,0.0,0.005641025641025641,0.04996336996336996
6.3907292609983415,0.0,0.005641025641025641,0.04996336996336996
6.393916627999715,0.0,0.005641025641025641,0.04996336996336996
6.3948250749999715,0.0,0.0,0.0273992673992674
6.396457816998009,0.0,0.0,0.0273992673992674
6.400066891001188,0.0,0.0,0.0273992673992674
6.400170380999043,0.0,0.0,0.0273992673992674
6.405283453997981,0.0,0.0,0.0273992673992674
6.409925323998323,0.0,0.0,0.0273992673992674
6.415290607998031,0.0,0.0,0.0273992673992674
6.416116354001133,0.0,0.0,0.0273992673992674
6.4177093899998,0.0,0.0,0.0273992673992674
6.4215713720004715,0.0,0.0,0.03062271062271062
6.425400895997882,0.0,0.0,0.03062271062271062
6.429295981000905,0.0,0.0,0.03062271062271062
6.432560856999771,0.0,0.0,0.03062271062271062
6.432776870999078,0.0,0.0,0.03062271062271062
6.43835004200082,0.0,0.010476190476190476,0.0
6.4384705150005175,0.0,0.0,0.0
6.4439162429989665,0.0,0.0,0.0
6.444923300998198,0.0,0.0,0.0
6.445785980999062,0.0,0.0,0.0
6.446690726999805,0.0,0.0,0.03948717948717949
6.448491576000379,0.0,0.0,0.03948717948717949
6.451662731000397,0.0,0.0,0.03948717948717949
6.453292412999872,0.0,0.0,0.03948717948717949
6.457865723001305,0.0,0.0008058608058608059,0.0
6.458008047000476,0.0,0.0008058608058608059,0.0
6.463886818000901,0.0,0.0008058608058608059,0.0
6.469430764998833,0.0,0.0008058608058608059,0.0
6.470973388000857,0.0,0.004029304029304029,0.0
6.474150591999205,0.0,0.004029304029304029,0.0
6.475705021999602,0.0,0.004029304029304029,0.0
6.479506486000901,0.0,0.004029304029304029,0.0
6.4833568009999,0.0,0.0,0.004029304029304029
6.487906203998136,0.0,0.0,0.004029304029304029
6.488220438001008,0.0,0.0,0.004029304029304029
6.493648510000639,0.0,0.0,0.004029304029304029
6.495243796998693,0.0,0.0,0.004029304029304029
6.499859277999349,0.0,0.0,0.004029304029304029
6.4999696939994465,0.0,0.0,0.004029304029304029
6.505706784999347,0.0,0.0,0.004029304029304029
6.505926208999881,0.0,0.0,0.004029304029304029
6.511496356000862,0.0,0.0,0.004029304029304029
6.5116692049996345,0.0,0.0,0.004029304029304029
6.517253559999517,0.0,0.0,0.004029304029304029
6.518077763998008,0.0,0.0,0.0
6.519832615998894,0.0,0.0,0.0
6.522126683998067,0.0,0.0,0.0
6.522305184000288,0.0,0.0,0.0
6.527628386000288,0.0,0.0,0.0
6.529993350999575,0.0,0.0,0.0
6.530233162000513,0.0,0.0,0.0
6.535665552000864,0.0,0.0,0.0
6.536471090999839,0.0,0.0,0.0
6.538245601001108,0.0,0.0,0.0
6.541566702999262,0.0,0.0,0.0
6.5417194930014375,0.0,0.0,0.0
6.5473416179993364,0.0,0.0,0.0
6.547468683998886,0.0,0.0,0.0
6.553090739998879,0.0,0.0,0.0
6.553227296000841,0.0,0.005641025641025641,0.014505494505494505
6.558886193000944,0.0,0.005641025641025641,0.014505494505494505
6.559053714001493,0.0,0.005641025641025641,0.014505494505494505
6.564873526000156,0.0,0.005641025641025641,0.014505494505494505
6.5650126629989245,0.0,0.005641025641025641,0.014505494505494505
6.570688332998543,0.0,0.005641025641025641,0.014505494505494505
6.5707828539998445,0.0,0.005641025641025641,0.014505494505494505
6.576220357001148,0.0,0.005641025641025641,0.014505494505494505
6.578673119998712,0.0,0.00967032967032967,0.0
6.583485979997931,0.0,0.00967032967032967,0.0
6.589219919998868,0.0,0.00967032967032967,0.0
6.59472818300128,0.0,0.00967032967032967,0.0
6.595608020998043,0.0,0.00967032967032967,0.0
6.59723954799847,0.0,0.00967032967032967,0.0
6.601812815999438,0.0,0.00967032967032967,0.0
6.601879118999932,0.0,0.0,0.0
6.607276569000533,0.0,0.0,0.0
6.6089476970009855,0.0,0.0,0.0
6.611492706000718,0.0,0.0,0.0
6.617059766998864,0.0,0.0,0.0
6.618048930999066,0.0,0.0,0.0
6.618310343998019,0.0,0.0,0.0
6.623839292999037,0.0,0.0,0.0
6.624688837000576,0.0,0.008058608058608058,0.0
6.626329562001047,0.0,0.008058608058608058,0.0
6.630221658000664,0.0,0.008058608058608058,0.0
6.633548538000468,0.0,0.004029304029304029,0.0016117216117216117
6.633778269999311,0.0,0.004029304029304029,0.0016117216117216117
6.639390436997928,0.0,0.004029304029304029,0.0016117216117216117
6.639513363999868,0.0,0.004835164835164835,0.005641025641025641
6.644957952998084,0.0,0.004835164835164835,0.005641025641025641
6.645793622999918,0.0,0.0024175824175824176,0.004029304029304029
6.648123357997974,0.0,0.0024175824175824176,0.004029304029304029
6.648227672998473,0.0,0.0,0.014505494505494505
6.653702022998914,0.0,0.0,0.014505494505494505
6.65454753800077,0.0,0.0,0.00967032967032967
6.656247056998836,0.0,0.0,0.00967032967032967
6.660208492001402,0.0,0.0,0.00967032967032967
6.664303489000304,0.0,0.0024175824175824176,0.016117216117216115
6.666686968001159,0.0,0.0024175824175824176,0.016117216117216115
6.672339385000669,0.0,0.0024175824175824176,0.016117216117216115
6.672667943999841,0.0,0.0032234432234432234,0.011282051282051281
6.677387802999874,0.0,0.0032234432234432234,0.011282051282051281
6.683107659999223,0.0,0.005641025641025641,0.0008058608058608059
6.6832209230015,0.0,0.005641025641025641,0.0008058608058608059
6.689003928000602,0.0,0.005641025641025641,0.0008058608058608059
6.6947313679993385,0.0,0.005641025641025641,0.0008058608058608059
6.694824744998186,0.0,0.005641025641025641,0.0008058608058608059
6.70026320100078,0.0,0.005641025641025641,0.0008058608058608059
6.70124130199838,0.0,0.005641025641025641,0.0008058608058608059
6.702128566001193,0.0,0.005641025641025641,0.0008058608058608059
6.70301696399838,0.0,0.006446886446886447,0.004029304029304029
6.704718102999323,0.0,0.006446886446886447,0.004029304029304029
6.707937867999135,0.0,0.006446886446886447,0.004029304029304029
6.708794581998518,0.0,0.006446886446886447,0.004029304029304029
6.710393108998687,0.0,0.006446886446886447,0.004029304029304029
6.714278514999023,0.0,0.006446886446886447,0.004029304029304029
6.718203755001014,0.0,0.006446886446886447,0.004029304029304029
6.723156576998008,0.0,0.006446886446886447,0.004029304029304029
6.72737736199997,0.0,0.006446886446886447,0.004029304029304029
6.7282982190008624,0.0,0.0032234432234432234,0.0
6.7291733649981325,0.0,0.0032234432234432234,0.0
6.730892853000114,0.0,0.0032234432234432234,0.0
6.733301681000739,0.0,0.0032234432234432234,0.0
6.738967753000907,0.0,0.0032234432234432234,0.0
6.739226516998315,0.0,0.0032234432234432234,0.0
6.744885473999602,0.0,0.0032234432234432234,0.0
6.745169958001497,0.0,0.0032234432234432234,0.0
6.750555594000616,0.0,0.0032234432234432234,0.0
6.752290197000548,0.0,0.0032234432234432234,0.0
6.756242138999369,0.0,0.0032234432234432234,0.0
6.760121891999006,0.0,0.004835164835164835,0.0
6.764124952998827,0.0,0.004835164835164835,0.0
6.766665682000166,0.0,0.004835164835164835,0.0
6.771441345998028,0.0,0.004835164835164835,0.0
6.777053584999521,0.0,0.0,0.005641025641025641
6.777366899001208,0.0,0.0,0.005641025641025641
6.782824507001351,0.0,0.0,0.005641025641025641
6.783751019000192,0.0,0.0,0.005641025641025641
6.785375274001126,0.0,0.0,0.005641025641025641
6.789264961000299,0.0,0.0,0.005641025641025641
6.793882855999982,0.0,0.0,0.005641025641025641
6.7994338249991415,0.0,0.0,0.0
6.800261011998373,0.0,0.0,0.0
6.801905378000811,0.0,0.0,0.0
6.805040272000042,0.0,0.0,0.0
6.80749189099879,0.0,0.0,0.0
6.807702457001142,0.0,0.0,0.0
6.813251691000914,0.0,0.0,0.0
6.813468651998846,0.0,0.0,0.0
6.819030643000588,0.0,0.0,0.0
6.819293422999181,0.0,0.0,0.0
6.825022527998954,0.0,0.0,0.0
6.825227454999549,0.0,0.0,0.0
6.8307910570001695,0.0,0.0,0.0
6.8309204959987255,0.0,0.0,0.0
6.836789121000038,0.0,0.0,0.0
6.836886040000536,0.0,0.0,0.0
6.842727788000047,0.0,0.0,0.0
6.8474687230009295,0.0,0.0,0.0
6.852151426999626,0.0,0.0,0.0
6.85221947899845,0.0,0.0,0.0
6.857636527998693,0.0,0.0,0.0
6.859914928998478,0.0,0.0,0.0
6.860032320000755,0.0,0.0,0.0
6.8656336439998995,0.0,0.0,0.0
6.865725259998726,0.0,0.0,0.0
6.871437578000041,0.0,0.0,0.0
6.877074205000099,0.0,0.0,0.005641025641025641
6.877285971000674,0.0,0.0,0.005641025641025641
6.88299666400053,0.0,0.0,0.005641025641025641
6.883220845000324,0.0,0.0,0.005641025641025641
6.8887616059982975,0.0,0.0,0.005641025641025641
6.888932181998825,0.0,0.0,0.005641025641025641
6.894542928999726,0.0,0.0,0.005641025641025641
6.8954006120002305,0.0,0.007252747252747252,0.008864468864468863
6.897082536001108,0.0,0.007252747252747252,0.008864468864468863
6.900327479997941,0.0,0.007252747252747252,0.008864468864468863
6.900527632999001,0.0,0.007252747252747252,0.008864468864468863
6.9060882730009325,0.0,0.007252747252747252,0.008864468864468863
6.906933079000737,0.0,0.007252747252747252,0.008864468864468863
6.907858029000636,0.0,0.007252747252747252,0.008864468864468863
6.909490902999096,0.0,0.007252747252747252,0.008864468864468863
6.913417882999056,0.0,0.007252747252747252,0.008864468864468863
6.917265364998457,0.0,0.007252747252747252,0.008864468864468863
6.922243329001503,0.0,0.007252747252747252,0.008864468864468863
6.9262816259979445,0.0,0.008864468864468863,0.0
6.9288676799988025,0.0,0.008864468864468863,0.0
6.9336507090010855,0.0,0.004029304029304029,0.006446886446886447
6.937840886999766,0.0,0.004029304029304029,0.006446886446886447
6.939454561001185,0.0,0.004029304029304029,0.006446886446886447
6.943406245998631,0.0,0.004029304029304029,0.006446886446886447
6.947560133998195,0.0,0.004029304029304029,0.006446886446886447
6.94921899199835,0.0,0.004029304029304029,0.006446886446886447
6.952550730999064,0.0,0.004029304029304029,0.006446886446886447
6.95279599299829,0.0,0.004029304029304029,0.006446886446886447
6.958325171999604,0.0,0.004029304029304029,0.006446886446886447
6.960023859999637,0.0,0.004029304029304029,0.006446886446886447
6.963320439001109,0.0,0.004029304029304029,0.006446886446886447
6.964216643998952,0.0,0.004029304029304029,0.006446886446886447
6.9657871880008315,0.0,0.004029304029304029,0.006446886446886447
6.969616622998728,0.0,0.004029304029304029,0.006446886446886447
6.973403583000618,0.0,0.004029304029304029,0.006446886446886447
6.977957169001456,0.0,0.004029304029304029,0.006446886446886447
6.97822579700005,0.0,0.004029304029304029,0.006446886446886447
6.983736678001151,0.0,0.004029304029304029,0.006446886446886447
6.984534746999998,0.0,0.0008058608058608059,0.029816849816849816
6.986105732001306,0.0,0.0008058608058608059,0.029816849816849816
6.990080696999939,0.0,0.0008058608058608059,0.029816849816849816
6.992588260000048,0.0,0.006446886446886447,0.0
6.997276490998047,0.0,0.0016117216117216117,0.02095238095238095
6.997460736998619,0.0,0.0016117216117216117,0.02095238095238095
7.002940927999589,0.0,0.0016117216117216117,0.02095238095238095
7.003226164000807,0.0,0.0016117216117216117,0.02095238095238095
7.008812459000183,0.0,0.0016117216117216117,0.02095238095238095
7.00898346699978,0.0,0.0016117216117216117,0.02095238095238095
7.014760466998268,0.0,0.0016117216117216117,0.02095238095238095
7.014897801000188,0.0,0.0016117216117216117,0.02095238095238095
7.020723598001496,0.0,0.0016117216117216117,0.02095238095238095
7.025731732999702,0.0,0.0016117216117216117,0.02095238095238095
7.0298575189990515,0.0,0.005641025641025641,0.0
7.031447107998247,0.0,0.005641025641025641,0.0
7.035467644000164,0.0,0.005641025641025641,0.0
7.0394149310013745,0.0,0.005641025641025641,0.0
7.0428787609998835,0.0,0.005641025641025641,0.0
7.043169565000426,0.0,0.005641025641025641,0.0
7.048793067999213,0.0,0.005641025641025641,0.0
7.048880252001254,0.0,0.005641025641025641,0.0
7.054715872000088,0.0,0.005641025641025641,0.0
7.06047200499961,0.0,0.005641025641025641,0.0
7.060532350998983,0.0,0.005641025641025641,0.0
7.065971558000456,0.0,0.005641025641025641,0.0
7.0668097130001115,0.0,0.01531135531135531,0.0
7.069127162998484,0.0,0.0,0.0
7.069330366000941,0.0,0.0,0.0
7.074759496001207,0.0,0.0,0.0
7.076344326000253,0.0,0.0,0.0
7.080948472997989,0.0,0.0,0.0
7.081027267999161,0.0,0.0,0.0
7.086529938998865,0.0,0.0,0.0
7.086726262998127,0.0,0.0,0.0
7.0921596759981185,0.0,0.0,0.0
7.0937780259992,0.0,0.0,0.0
7.0978001469993615,0.0,0.0,0.0
7.100861415998224,0.0,0.005641025641025641,0.04593406593406593
7.102459625999472,0.0,0.005641025641025641,0.04593406593406593
7.106343340998137,0.0,0.005641025641025641,0.04593406593406593
7.110241226000653,0.0,0.005641025641025641,0.04593406593406593
7.1149550400004955,0.0,0.005641025641025641,0.04593406593406593
7.115046119000908,0.0,0.005641025641025641,0.016923076923076923
7.120898684999702,0.0,0.005641025641025641,0.016923076923076923
7.126409403997968,0.0,0.005641025641025641,0.016923076923076923
7.128188628998032,0.0,0.005641025641025641,0.016923076923076923
7.1305761840012565,0.0,0.005641025641025641,0.016923076923076923
7.130643833999784,0.0,0.005641025641025641,0.016923076923076923
7.136244073000853,0.0,0.008058608058608058,0.0
7.136478315998829,0.0,0.008058608058608058,0.0
7.1420145650008635,0.0,0.008058608058608058,0.0
7.14222719800091,0.0,0.008058608058608058,0.0
7.147981516998698,0.0,0.00967032967032967,0.014505494505494505
7.15375048399801,0.0,0.00967032967032967,0.014505494505494505
7.153984393000428,0.0,0.028205128205128206,0.004835164835164835
7.159323875999689,0.0,0.028205128205128206,0.004835164835164835
7.162502164999751,0.0,0.018534798534798533,0.004835164835164835
7.162731398999313,0.0,0.018534798534798533,0.004835164835164835
7.168145599000127,0.0,0.018534798534798533,0.004835164835164835
7.169765336999262,0.0,0.018534798534798533,0.004835164835164835
7.173654058999091,0.0,0.018534798534798533,0.004835164835164835
7.176802022000629,0.0,0.007252747252747252,0.0
7.177823885998805,0.0,0.007252747252747252,0.0
7.178679747998103,0.0,0.007252747252747252,0.0
7.180331719999231,0.0,0.007252747252747252,0.0
7.185255969001446,0.0,0.007252747252747252,0.0
7.189140718000999,0.0,0.0016117216117216117,0.0008058608058608059
7.193699685998581,0.0,0.0,0.010476190476190476
7.19385398400118,0.0,0.008058608058608058,0.0
7.1996628859997145,0.0,0.008058608058608058,0.0
7.199886635000439,0.0,0.0016117216117216117,0.00967032967032967
7.205301255999075,0.0,0.0016117216117216117,0.00967032967032967
7.206132250001247,0.0,0.0016117216117216117,0.00967032967032967
7.207683789998555,0.0,0.0016117216117216117,0.00967032967032967
7.211280497998814,0.0,0.0016117216117216117,0.00967032967032967
7.216380990001198,0.0,0.004029304029304029,0.0016117216117216117
7.22032105299877,0.0,0.004029304029304029,0.0016117216117216117
7.224346031998721,0.0,0.004029304029304029,0.0016117216117216117
7.226717230998474,0.0,0.004029304029304029,0.0016117216117216117
7.2268244980004965,0.0,0.0024175824175824176,0.0
7.232575863999955,0.0,0.0024175824175824176,0.0
7.233458226000948,0.0,0.0,0.00967032967032967
7.234338802998536,0.0,0.0,0.00967032967032967
7.236041183001362,0.0,0.0,0.00967032967032967
7.238593191999826,0.0,0.0,0.00967032967032967
7.243355160000647,0.0,0.0,0.00967032967032967
7.243489483000303,0.0,0.0,0.00967032967032967
7.24903919999997,0.0,0.0,0.00967032967032967
7.249840740998479,0.0,0.0,0.00967032967032967
7.251424289999704,0.0,0.0,0.010476190476190476
7.255972087998089,0.0,0.0,0.010476190476190476
7.2561753269983456,0.0,0.0,0.010476190476190476
7.261567090998142,0.0,0.0,0.010476190476190476
7.263333787999727,0.0,0.0,0.010476190476190476
7.265679157000704,0.0,0.0,0.010476190476190476
7.2658547239989275,0.0,0.0,0.010476190476190476
7.271182107000641,0.0,0.0,0.010476190476190476
7.273478677998355,0.0,0.0,0.010476190476190476
7.2735752150001645,0.0,0.0,0.010476190476190476
7.279292672999873,0.0,0.0,0.010476190476190476
7.2794245639997825,0.0,0.0,0.010476190476190476
7.285251483001048,0.0,0.0,0.010476190476190476
7.290632293999806,0.0,0.0,0.010476190476190476
7.29233208399819,0.0,0.0,0.010476190476190476
7.294837724999525,0.0,0.0,0.010476190476190476
7.299677412000165,0.0,0.0,0.010476190476190476
7.304562532001,0.0,0.006446886446886447,0.0
7.309398998000688,0.0,0.006446886446886447,0.0
7.315150056998391,0.0,0.006446886446886447,0.0
7.320947680000245,0.0,0.0,0.00967032967032967
7.326393881998229,0.0,0.0,0.0
7.328734861999692,0.0,0.0,0.0
7.328823396997905,0.0,0.0,0.0
7.334401221000007,0.0,0.0,0.0
7.334572194999055,0.0,0.0,0.0
7.339991738997924,0.0,0.0,0.0
7.340361694001331,0.0,0.0,0.0
7.345949611000833,0.0,0.0,0.0
7.346227203001035,0.0,0.0032234432234432234,0.006446886446886447
7.351908894997905,0.0,0.0032234432234432234,0.006446886446886447
7.3519812429985905,0.0,0.0032234432234432234,0.006446886446886447
7.3573826540014124,0.0,0.0032234432234432234,0.006446886446886447
7.358273723999446,0.0,0.0032234432234432234,0.006446886446886447
7.359864869999001,0.0,0.0032234432234432234,0.006446886446886447
7.363001723999332,0.0,0.0032234432234432234,0.006446886446886447
7.364574896000704,0.0,0.004835164835164835,0.0
7.368378265000501,0.0,0.004835164835164835,0.0
7.37292683099804,0.0,0.004835164835164835,0.0
7.373220423000021,0.0,0.0,0.006446886446886447
7.378595501999371,0.0,0.0,0.006446886446886447
7.379481954998482,0.0,0.0,0.006446886446886447
7.381075489000068,0.0,0.03465201465201465,0.0032234432234432234
7.385021670997958,0.0,0.03465201465201465,0.0032234432234432234
7.3881201229996805,0.0,0.03465201465201465,0.0032234432234432234
7.390505723000388,0.0,0.03465201465201465,0.0032234432234432234
7.396127112999238,0.0,0.03465201465201465,0.0032234432234432234
7.396940212998743,0.0,0.004029304029304029,0.0136996336996337
7.397854536000523,0.0,0.004029304029304029,0.0136996336996337
7.399425032999716,0.0,0.004029304029304029,0.0136996336996337
7.40398386599918,0.0,0.004029304029304029,0.0136996336996337
7.404211655000836,0.0,0.029816849816849816,0.0
7.4097941590007395,0.0,0.029816849816849816,0.0
7.415209992999735,0.0,0.029816849816849816,0.0
7.4174807780000265,0.0,0.0016117216117216117,0.0
7.417675515000155,0.0,0.0016117216117216117,0.0
7.4230668079981115,0.0,0.0016117216117216117,0.0
7.423980350999045,0.0,0.0016117216117216117,0.0
7.424833619999845,0.0,0.0016117216117216117,0.0
7.426397065999481,0.0,0.0016117216117216117,0.0
7.431085258998792,0.0,0.0016117216117216117,0.0
7.431219857000542,0.0,0.0016117216117216117,0.0
7.436554260999401,0.0,0.0016117216117216117,0.0
7.438098531998548,0.0,0.0016117216117216117,0.0
7.441937790001248,0.0,0.0016117216117216117,0.0
7.445701837998058,0.0,0.0016117216117216117,0.0
7.450264024999342,0.0,0.0016117216117216117,0.0
7.455736481999338,0.0,0.0016117216117216117,0.0
7.457330094999634,0.0,0.0016117216117216117,0.0
7.4618898990011076,0.0,0.0016117216117216117,0.0
7.462028682999517,0.0,0.0016117216117216117,0.0
7.467494611999427,0.0,0.0016117216117216117,0.0
7.468340380000882,0.0,0.01531135531135531,0.008058608058608058
7.469935691999126,0.0,0.01531135531135531,0.008058608058608058
7.473803300999862,0.0,0.01531135531135531,0.008058608058608058
7.477681136999308,0.0,0.01531135531135531,0.008058608058608058
7.483042825999291,0.0,0.01531135531135531,0.008058608058608058
7.4854288669994276,0.0,0.0032234432234432234,0.02901098901098901
7.4855409339979815,0.0,0.0032234432234432234,0.02901098901098901
7.490932456999872,0.0,0.0032234432234432234,0.02901098901098901
7.492490618999,0.0,0.0032234432234432234,0.02901098901098901
7.496361337998678,0.0,0.0032234432234432234,0.02901098901098901
7.5009005530009745,0.0,0.0032234432234432234,0.02901098901098901
7.500989453998045,0.0,0.0032234432234432234,0.02901098901098901
7.506347816000925,0.0,0.011282051282051281,0.0
7.508042181998462,0.0,0.011282051282051281,0.0
7.511182244998054,0.0,0.011282051282051281,0.0
7.513517639999918,0.0,0.004835164835164835,0.0008058608058608059
7.5189735800013295,0.0,0.004835164835164835,0.0008058608058608059
7.519839517000946,0.0,0.004835164835164835,0.0008058608058608059
7.521470069001225,0.0,0.004835164835164835,0.0008058608058608059
7.525425518000702,0.0,0.0008058608058608059,0.0
7.530143023999699,0.0,0.0,0.0
7.5302281609983766,0.0,0.0,0.0
7.535974577000161,0.0,0.0,0.0
7.541384110998479,0.0,0.0,0.0
7.5429514729985385,0.0,0.0,0.0
7.546727534998354,0.0,0.0,0.0
7.550552120999782,0.0,0.0,0.0
7.554411468998296,0.0,0.007252747252747252,0.0
7.558269903998735,0.0,0.007252747252747252,0.0
7.563105199998972,0.0,0.007252747252747252,0.0
7.568130707000819,0.0,0.007252747252747252,0.0
7.571469596998213,0.0,0.0,0.0
7.571631285998592,0.0,0.006446886446886447,0.010476190476190476
7.577109118999942,0.0,0.006446886446886447,0.010476190476190476
7.5788414210001065,0.0,0.006446886446886447,0.010476190476190476
7.581159712000954,0.0,0.008058608058608058,0.0024175824175824176
7.5813348650008265,0.0,0.008058608058608058,0.0024175824175824176
7.586872404001042,0.0,0.008058608058608058,0.0024175824175824176
7.587684916001308,0.0,0.0032234432234432234,0.008864468864468863
7.58926737100046,0.0,0.0032234432234432234,0.008864468864468863
7.593124267001258,0.0,0.004029304029304029,0.0
7.596214425000653,0.0,0.004029304029304029,0.0
7.5984936649983865,0.0,0.004029304029304029,0.0
7.59861267299857,0.0,0.004029304029304029,0.0
7.604011667001032,0.0,0.004029304029304029,0.0
7.604964072001167,0.0,0.0016117216117216117,0.0
7.605767692999507,0.0,0.0016117216117216117,0.0
7.608166138001252,0.0,0.0016117216117216117,0.0
7.613570610999886,0.0,0.0016117216117216117,0.0
7.616024967999692,0.0,0.0016117216117216117,0.0
7.62155581800107,0.0,0.0016117216117216117,0.0
7.621777346001181,0.0,0.0016117216117216117,0.0
7.627383947998169,0.0,0.0016117216117216117,0.0
7.627509690999432,0.0,0.0016117216117216117,0.0
7.6328808090001985,0.0,0.0016117216117216117,0.0
7.6345686099994055,0.0,0.0016117216117216117,0.0
7.637798266001482,0.0,0.0016117216117216117,0.0
7.638669367999682,0.0,0.0016117216117216117,0.0
7.641081130997918,0.0,0.0016117216117216117,0.0
7.646594148998702,0.0,0.0016117216117216117,0.0
7.646822839000379,0.0,0.005641025641025641,0.0032234432234432234
7.652377522997995,0.0,0.005641025641025641,0.0032234432234432234
7.653381590000208,0.0,0.005641025641025641,0.0032234432234432234
7.65424519500084,0.0,0.005641025641025641,0.0032234432234432234
7.6560951249994105,0.0,0.005641025641025641,0.0032234432234432234
7.6586052759994345,0.0,0.0,0.0410989010989011
7.6631656649988145,0.0,0.004029304029304029,0.0032234432234432234
7.663329921000695,0.0,0.004029304029304029,0.0032234432234432234
7.669024733000697,0.0,0.004029304029304029,0.0032234432234432234
7.669221280000784,0.0,0.007252747252747252,0.0
7.674909991001186,0.0,0.008864468864468863,0.006446886446886447
7.680009970001265,0.0,0.008864468864468863,0.006446886446886447
7.6828797009984555,0.0,0.004835164835164835,0.0
7.685717899999872,0.0,0.004835164835164835,0.0
7.688580713998817,0.0,0.004835164835164835,0.0
7.692048167999019,0.0,0.004835164835164835,0.0
7.692217368999991,0.0,0.004835164835164835,0.0
7.6972506509991945,0.0,0.004835164835164835,0.0
7.7013948899984825,0.0,0.004835164835164835,0.0
7.703575167000963,0.0,0.004835164835164835,0.0
7.703823479998391,0.0,0.004835164835164835,0.0
7.708779632001097,0.0,0.004835164835164835,0.0
7.713777904999006,0.0,0.004835164835164835,0.0
7.717607688999124,0.0,0.004835164835164835,0.0
7.720887428000424,0.0,0.005641025641025641,0.0016117216117216117
7.722457903000759,0.0,0.004029304029304029,0.0016117216117216117
7.7264958179985115,0.0,0.004029304029304029,0.0016117216117216117
7.729474621999543,0.0,0.004029304029304029,0.0016117216117216117
7.73168936699949,0.0,0.004029304029304029,0.0016117216117216117
7.731876985999406,0.0,0.004029304029304029,0.0016117216117216117
7.737291167999501,0.0,0.004029304029304029,0.0016117216117216117
7.738877534000494,0.0,0.004029304029304029,0.0
7.7420417579996865,0.0,0.004029304029304029,0.0
7.742993779000244,0.0,0.004029304029304029,0.0
7.74392203699972,0.0,0.004029304029304029,0.0
7.744831264000823,0.0,0.004029304029304029,0.0
7.74642394699913,0.0,0.004029304029304029,0.0
7.751216976997966,0.0,0.004029304029304029,0.0
7.756761172000552,0.0,0.004029304029304029,0.0
7.7569856269983575,0.0,0.004029304029304029,0.0
7.762447591998352,0.0,0.004029304029304029,0.0
7.762676074999035,0.0,0.004029304029304029,0.0
7.768236112999148,0.0,0.004029304029304029,0.0
7.768369317000179,0.0,0.004029304029304029,0.0
7.773839484998462,0.0,0.004029304029304029,0.0
7.774682588998985,0.0,0.004029304029304029,0.0
7.776327501000196,0.0,0.004029304029304029,0.0
7.780927445000998,0.0,0.004029304029304029,0.0
7.7810848299996,0.0,0.0016117216117216117,0.0016117216117216117
7.786446122001507,0.0,0.0016117216117216117,0.0016117216117216117
7.78732810099973,0.0,0.0016117216117216117,0.0016117216117216117
7.788923200998397,0.0,0.0016117216117216117,0.0016117216117216117
7.792749984000693,0.0,0.0016117216117216117,0.0016117216117216117
7.796561619001295,0.0,0.0016117216117216117,0.0016117216117216117
7.799687212998833,0.0,0.004835164835164835,0.0136996336996337
7.8020288400002755,0.0,0.0032234432234432234,0.0
7.802220613000827,0.0,0.0032234432234432234,0.0
7.807793253999989,0.0,0.0032234432234432234,0.0
7.808745695998368,0.0,0.0032234432234432234,0.0
7.808983339000406,0.0,0.0032234432234432234,0.0
7.81465470799958,0.0,0.0032234432234432234,0.0
7.814875051000854,0.0,0.004029304029304029,0.0
7.8206301589998475,0.0,0.004029304029304029,0.0
7.820875587000046,0.0,0.004029304029304029,0.0
7.8262533390006865,0.0,0.006446886446886447,0.0032234432234432234
7.827949233000254,0.0,0.006446886446886447,0.0032234432234432234
7.830312149999372,0.0,0.006446886446886447,0.0
7.830420875998243,0.0,0.006446886446886447,0.0
7.835875065000437,0.0,0.006446886446886447,0.0
7.836869989998377,0.0,0.006446886446886447,0.0
7.837823769998067,0.0,0.006446886446886447,0.0
7.838681707999058,0.0,0.006446886446886447,0.0
7.8403547140005685,0.0,0.006446886446886447,0.0
7.84432531299899,0.0,0.006446886446886447,0.0
7.848338715000864,0.0,0.010476190476190476,0.0
7.853107505998196,0.0,0.010476190476190476,0.0
7.858021244999691,0.0,0.0008058608058608059,0.0
7.8627976040006615,0.0,0.00967032967032967,0.0008058608058608059
7.867546301000402,0.0,0.0008058608058608059,0.012893772893772894
7.8730820509990735,0.0,0.0008058608058608059,0.012893772893772894
7.873909624999214,0.0,0.005641025641025641,0.037875457875457874
7.875488514000608,0.0,0.005641025641025641,0.037875457875457874
7.879315694000979,0.0,0.008058608058608058,0.006446886446886447
7.883857196000463,0.0,0.008058608058608058,0.006446886446886447
7.88404040399837,0.0,0.008058608058608058,0.006446886446886447
7.889400536998437,0.0,0.0,0.0
7.891757367000537,0.0,0.0,0.0
7.891879954000615,0.0,0.0,0.0
7.897234582000237,0.0,0.0,0.0
7.8981181390008715,0.0,0.010476190476190476,0.0
7.899761246000708,0.0,0.010476190476190476,0.0
7.904333327998756,0.0,0.010476190476190476,0.0
7.90445225700023,0.0,0.010476190476190476,0.0
7.9098698050001985,0.0,0.010476190476190476,0.0
7.911437219998334,0.0,0.010476190476190476,0.0
7.915224666998256,0.0,0.010476190476190476,0.0
7.919895529001224,0.0,0.010476190476190476,0.0
7.925445595999918,0.0,0.010476190476190476,0.0
7.925575025001308,0.0,0.010476190476190476,0.0
7.931052553998597,0.0,0.010476190476190476,0.0
7.931343552998442,0.0,0.010476190476190476,0.0
7.9367105460005405,0.0,0.010476190476190476,0.0
7.938321300000098,0.0,0.010476190476190476,0.0
7.942346203999477,0.0,0.010476190476190476,0.0
7.946273319997999,0.0,0.010476190476190476,0.0
7.9501063030002115,0.0,0.010476190476190476,0.0
7.953974651998578,0.0,0.010476190476190476,0.0
7.957238778999454,0.0,0.010476190476190476,0.0
7.958957342998474,0.0,0.010476190476190476,0.0
7.962374718001229,0.0,0.010476190476190476,0.0
7.962577121998038,0.0,0.010476190476190476,0.0
7.968118384000263,0.0,0.010476190476190476,0.0
7.96833676100141,0.0,0.010476190476190476,0.0
7.973805279998487,0.0,0.010476190476190476,0.0
7.974834927001211,0.0,0.03868131868131868,0.0136996336996337
7.975096038000629,0.0,0.03868131868131868,0.0136996336996337
7.980586609999591,0.0,0.03868131868131868,0.0136996336996337
7.982980464999855,0.0,0.03868131868131868,0.0136996336996337
7.983069578000141,0.0,0.03868131868131868,0.0136996336996337
7.9886428249992605,0.0,0.03868131868131868,0.0136996336996337
7.98969460599983,0.0,0.0136996336996337,0.016117216117216115
7.9906619530011085,0.0,0.0136996336996337,0.016117216117216115
7.99158154700126,0.0,0.0136996336996337,0.016117216117216115
7.992477071999019,0.0,0.0136996336996337,0.016117216117216115
7.99416788400049,0.0,0.0136996336996337,0.016117216117216115
7.997418187998846,0.0,0.0136996336996337,0.016117216117216115
7.998276667000027,0.0,0.0,0.006446886446886447
7.999918314999377,0.0,0.0,0.006446886446886447
8.003691097997944,0.0,0.0,0.006446886446886447
8.007608383999468,0.0,0.00967032967032967,0.0
8.010751838999568,0.0,0.00967032967032967,0.0
8.012331613997958,0.0,0.007252747252747252,0.0
8.017060113001207,0.0,0.007252747252747252,0.0
8.021960498001135,0.0,0.007252747252747252,0.0
8.026702259001468,0.0,0.005641025641025641,0.0
8.026778753999679,0.0,0.005641025641025641,0.0
8.032291860999976,0.0,0.005641025641025641,0.0
8.032522343000892,0.0,0.005641025641025641,0.0
8.0378227350011,0.0,0.005641025641025641,0.0
8.039421133998985,0.0,0.005641025641025641,0.0
8.045895389001089,0.0,0.005641025641025641,0.0
8.04978043400115,0.0,0.0032234432234432234,0.008864468864468863
8.054467219000799,0.0,0.004835164835164835,0.006446886446886447
8.05454725099844,0.0,0.004835164835164835,0.006446886446886447
8.060044115998608,0.0,0.004835164835164835,0.006446886446886447
8.060851631998958,0.0,0.004835164835164835,0.006446886446886447
8.062326611001481,0.0,0.004835164835164835,0.006446886446886447
8.06806115099971,0.0,0.004835164835164835,0.006446886446886447
8.068217903000914,0.0,0.004835164835164835,0.006446886446886447
8.073200080998504,0.0,0.004835164835164835,0.006446886446886447
