time,emg1,emg2,emg3
0.03236621699761599,1.0218315018315018,0.14827838827838827,1.8526739926739926
0.052148933995340485,1.0218315018315018,0.14827838827838827,1.8526739926739926
0.05240891999710584,0.0,0.26996336996336995,0.0709157509157509
0.061280957001145,0.0,0.26996336996336995,0.0709157509157509
0.0667825799973798,0.0,0.26996336996336995,0.0709157509157509
0.06863574199815048,0.0,0.26996336996336995,0.0709157509157509
0.07306568499916466,0.9339926739926739,0.3376556776556776,1.892161172161172
0.07872340099856956,0.5689377289377289,0.3642490842490842,1.5947985347985347
0.07966759799455758,0.5689377289377289,0.3642490842490842,1.5947985347985347
0.08067056999425404,0.5689377289377289,0.3642490842490842,1.5947985347985347
0.08164958799898159,0.5689377289377289,0.3642490842490842,1.5947985347985347
0.08264632400096161,0.5689377289377289,0.3642490842490842,1.5947985347985347
0.08363594899856253,0.5689377289377289,0.3642490842490842,1.5947985347985347
0.08463538099749712,1.4465201465201465,0.23369963369963367,0.21435897435897436
0.08565453899791464,1.4465201465201465,0.23369963369963367,0.21435897435897436
0.08663733700086595,1.4465201465201465,0.23369963369963367,0.21435897435897436
0.08763864099455532,1.4465201465201465,0.23369963369963367,0.21435897435897436
0.08866254099848447,1.4465201465201465,0.23369963369963367,0.21435897435897436
0.08968548199482029,1.4465201465201465,0.23369963369963367,0.21435897435897436
0.09078216800116934,0.5197802197802197,0.3441025641025641,1.6504029304029304
0.09111598399613285,0.5197802197802197,0.3441025641025641,1.6504029304029304
0.09729619899735553,0.5197802197802197,0.3441025641025641,1.6504029304029304
0.10436246400058735,0.5197802197802197,0.3441025641025641,1.6504029304029304
0.10905328000080772,1.174139194139194,0.523003663003663,2.686739926739927
0.11406277299829526,1.174139194139194,0.523003663003663,2.686739926739927
0.11871117199916625,1.174139194139194,0.523003663003663,2.686739926739927
0.1189602179947542,1.3756043956043955,0.6406593406593406,2.698827838827839
0.12378599699877668,1.3756043956043955,0.6406593406593406,2.698827838827839
0.12390796099498402,0.5794139194139193,0.13296703296703297,1.1967032967032967
0.12851175599644193,0.5794139194139193,0.13296703296703297,1.1967032967032967
0.1293742569978349,0.5794139194139193,0.13296703296703297,1.1967032967032967
0.13164554799732286,0.5794139194139193,0.13296703296703297,1.1967032967032967
0.13189706599951023,0.5794139194139193,0.13296703296703297,1.1967032967032967
0.13715977199899498,0.5794139194139193,0.13296703296703297,1.1967032967032967
0.14017690599575872,0.5794139194139193,0.13296703296703297,1.1967032967032967
0.14383566600008635,0.5794139194139193,0.13296703296703297,1.1967032967032967
0.14925969199975953,0.5794139194139193,0.13296703296703297,1.1967032967032967
0.15313107199472142,0.19904761904761903,0.26673992673992675,1.810769230769231
0.158969113996136,0.07494505494505493,0.25465201465201465,0.5673260073260072
0.16270218399586156,0.07494505494505493,0.25465201465201465,0.5673260073260072
0.1679539209944778,1.6367032967032966,0.3553846153846154,1.527912087912088
0.17092639299517032,1.6367032967032966,0.3553846153846154,1.527912087912088
0.17389647199888714,1.6367032967032966,0.3553846153846154,1.527912087912088
0.17623741299757967,1.6367032967032966,0.3553846153846154,1.527912087912088
0.1765446239951416,1.6367032967032966,0.3553846153846154,1.527912087912088
0.18170562899467768,1.6367032967032966,0.3553846153846154,1.527912087912088
0.18468297900108155,1.6367032967032966,0.3553846153846154,1.527912087912088
0.1876666620009928,0.9065934065934066,0.14263736263736262,0.09428571428571428
0.1906688539966126,0.9065934065934066,0.14263736263736262,0.09428571428571428
0.19365047400060575,0.7663736263736264,0.40937728937728934,1.4626373626373625
0.19597350299591199,0.7663736263736264,0.40937728937728934,1.4626373626373625
0.19629262200032827,0.7663736263736264,0.40937728937728934,1.4626373626373625
0.2027536309979041,0.7663736263736264,0.40937728937728934,1.4626373626373625
0.2070277390012052,0.5334798534798535,0.11443223443223444,1.24021978021978
0.20795180599816376,0.5334798534798535,0.11443223443223444,1.24021978021978
0.20956042200123193,0.8775824175824175,0.332014652014652,1.9445421245421244
0.21362679999583634,0.8775824175824175,0.332014652014652,1.9445421245421244
0.2166594609952881,1.3554578754578754,0.42468864468864465,1.2635897435897436
0.2207468579945271,1.3554578754578754,0.42468864468864465,1.2635897435897436
0.22367080099502346,1.3554578754578754,0.42468864468864465,1.2635897435897436
0.22570566400099779,1.3554578754578754,0.42468864468864465,1.2635897435897436
0.226203969999915,1.3554578754578754,0.42468864468864465,1.2635897435897436
0.23444029399979627,1.3554578754578754,0.42468864468864465,1.2635897435897436
0.2431776719968184,1.3554578754578754,0.42468864468864465,1.2635897435897436
0.2504482160002226,1.3554578754578754,0.42468864468864465,1.2635897435897436
0.2589543020003475,0.8727472527472527,0.303003663003663,1.5424175824175823
0.2651736859988887,0.8727472527472527,0.303003663003663,1.5424175824175823
0.27106072299648076,1.688278388278388,0.423076923076923,1.394139194139194
0.27639579999959096,1.688278388278388,0.423076923076923,1.394139194139194
0.2773857819993282,1.688278388278388,0.423076923076923,1.394139194139194
0.278507549999631,1.688278388278388,0.423076923076923,1.394139194139194
0.2787324519958929,1.688278388278388,0.423076923076923,1.394139194139194
0.28373633999581216,1.688278388278388,0.423076923076923,1.394139194139194
0.28875455600064015,0.664029304029304,0.14827838827838827,1.1459340659340658
0.2953451369976392,0.7357509157509158,0.3924542124542124,1.8832967032967032
0.29939511999691604,0.22564102564102564,0.4448351648351648,0.42710622710622714
0.3025816749941441,0.22564102564102564,0.4448351648351648,0.42710622710622714
0.3042684069951065,1.0355311355311354,0.25787545787545785,0.11926739926739927
0.30900280000059865,1.0355311355311354,0.25787545787545785,0.11926739926739927
0.3140605489970767,0.7389743589743589,0.2482051282051282,1.826080586080586
0.3180181969946716,0.7389743589743589,0.2482051282051282,1.826080586080586
0.32219549900037237,0.7389743589743589,0.2482051282051282,1.826080586080586
0.3281993720011087,0.842124542124542,0.07816849816849816,0.6704761904761904
0.33149263499944936,0.942051282051282,0.3537728937728937,1.0766300366300365
0.33311718799814116,0.942051282051282,0.3537728937728937,1.0766300366300365
0.33701260999805527,0.942051282051282,0.3537728937728937,1.0766300366300365
0.3418913959976635,0.942051282051282,0.3537728937728937,1.0766300366300365
0.34640571299678413,0.942051282051282,0.3537728937728937,1.0766300366300365
0.34655352700065123,0.942051282051282,0.3537728937728937,1.0766300366300365
0.3514132799973595,0.942051282051282,0.3537728937728937,1.0766300366300365
0.3582192249959917,0.942051282051282,0.3537728937728937,1.0766300366300365
0.3634500569969532,0.942051282051282,0.3537728937728937,1.0766300366300365
0.3658717520011123,0.942051282051282,0.3537728937728937,1.0766300366300365
0.371363301994279,0.942051282051282,0.3537728937728937,1.0766300366300365
0.3740620199969271,0.942051282051282,0.3537728937728937,1.0766300366300365
0.3781514049987891,0.942051282051282,0.3537728937728937,1.0766300366300365
0.38083699099661317,0.942051282051282,0.3537728937728937,1.0766300366300365
0.3854961449978873,0.942051282051282,0.3537728937728937,1.0766300366300365
0.3857168069953332,0.942051282051282,0.3537728937728937,1.0766300366300365
0.3919745969978976,0.942051282051282,0.3537728937728937,1.0766300366300365
0.3955234870009008,0.942051282051282,0.3537728937728937,1.0766300366300365
0.3957670029994915,0.6503296703296703,0.5681318681318681,0.4504761904761904
0.40134767400013516,0.6503296703296703,0.5681318681318681,0.4504761904761904
0.40295471099670976,0.6503296703296703,0.5681318681318681,0.4504761904761904
0.4090739559978829,0.6503296703296703,0.5681318681318681,0.4504761904761904
0.41201991499838186,0.6503296703296703,0.5681318681318681,0.4504761904761904
0.4144927320012357,0.6503296703296703,0.5681318681318681,0.4504761904761904
0.4146684169973014,0.6503296703296703,0.5681318681318681,0.4504761904761904
0.4202746379960445,0.6503296703296703,0.5681318681318681,0.4504761904761904
0.4214053010000498,0.6503296703296703,0.5681318681318681,0.4504761904761904
0.4216796170003363,0.6503296703296703,0.5681318681318681,0.4504761904761904
0.43125640400103293,0.6503296703296703,0.5681318681318681,0.4504761904761904
0.4379438729956746,0.6503296703296703,0.5681318681318681,0.4504761904761904
0.4440983559979941,0.6503296703296703,0.5681318681318681,0.4504761904761904
0.44739434799703304,0.6503296703296703,0.5681318681318681,0.4504761904761904
0.44903635299851885,0.6503296703296703,0.5681318681318681,0.4504761904761904
0.452372835999995,0.6503296703296703,0.5681318681318681,0.4504761904761904
0.4540203329961514,0.6503296703296703,0.5681318681318681,0.4504761904761904
0.4617889840010321,0.6503296703296703,0.5681318681318681,0.4504761904761904
0.4652919579966692,1.0967765567765566,0.12813186813186814,1.9429304029304029
0.4656230629989295,1.0967765567765566,0.12813186813186814,1.9429304029304029
0.47036614699754864,1.0967765567765566,0.12813186813186814,1.9429304029304029
0.47050183799728984,1.0967765567765566,0.12813186813186814,1.9429304029304029
0.47851160899881506,1.0967765567765566,0.12813186813186814,1.9429304029304029
0.48340989699499914,1.0967765567765566,0.12813186813186814,1.9429304029304029
0.4881510499981232,1.0967765567765566,0.12813186813186814,1.9429304029304029
0.4882793090000632,1.0967765567765566,0.12813186813186814,1.9429304029304029
0.49607120599830523,1.0967765567765566,0.12813186813186814,1.9429304029304029
0.5011147929981234,0.0,0.3545787545787546,0.2361172161172161
0.5068359559954843,1.4287912087912087,0.37875457875457874,1.3562637362637362
0.5137650619944907,1.0983882783882783,0.30622710622710625,0.17003663003663003
0.518456673999026,1.0983882783882783,0.30622710622710625,0.17003663003663003
0.5187549429974752,1.0983882783882783,0.30622710622710625,0.17003663003663003
0.5249296479960321,1.0983882783882783,0.30622710622710625,0.17003663003663003
0.5286839809996309,1.0726007326007325,0.43032967032967034,0.6882051282051282
0.5337331199989421,1.0726007326007325,0.43032967032967034,0.6882051282051282
0.5376593559994944,1.0726007326007325,0.43032967032967034,0.6882051282051282
0.5442574650005554,2.165347985347985,0.772014652014652,2.0315750915750916
0.5475321739941137,2.165347985347985,0.772014652014652,2.0315750915750916
0.5484272179965046,2.165347985347985,0.772014652014652,2.0315750915750916
0.5501394140010234,2.165347985347985,0.772014652014652,2.0315750915750916
0.5532523500005482,2.165347985347985,0.772014652014652,2.0315750915750916
0.5549567109992495,2.165347985347985,0.772014652014652,2.0315750915750916
0.560236173994781,0.0,0.2377289377289377,0.07897435897435898
0.5622295009961817,1.606080586080586,0.5455677655677655,2.4989743589743587
0.5632198719977168,1.606080586080586,0.5455677655677655,2.4989743589743587
0.5643110289965989,1.606080586080586,0.5455677655677655,2.4989743589743587
0.564630633998604,1.606080586080586,0.5455677655677655,2.4989743589743587
0.5695122600009199,1.606080586080586,0.5455677655677655,2.4989743589743587
0.5775455569964834,1.606080586080586,0.5455677655677655,2.4989743589743587
0.5817811029992299,1.606080586080586,0.5455677655677655,2.4989743589743587
0.583421275994624,1.606080586080586,0.5455677655677655,2.4989743589743587
0.5875437289942056,1.606080586080586,0.5455677655677655,2.4989743589743587
0.5910539749966119,1.606080586080586,0.5455677655677655,2.4989743589743587
0.5967766329995357,1.606080586080586,0.5455677655677655,2.4989743589743587
0.5969327249986236,1.606080586080586,0.5455677655677655,2.4989743589743587
0.6016571849977481,1.606080586080586,0.5455677655677655,2.4989743589743587
0.6018529879947891,1.606080586080586,0.5455677655677655,2.4989743589743587
0.6076140769946505,1.606080586080586,0.5455677655677655,2.4989743589743587
0.607829625994782,1.606080586080586,0.5455677655677655,2.4989743589743587
0.6134705469958135,1.606080586080586,0.5455677655677655,2.4989743589743587
0.6136287609988358,1.606080586080586,0.5455677655677655,2.4989743589743587
0.618188973996439,1.606080586080586,0.5455677655677655,2.4989743589743587
0.6190701839950634,1.606080586080586,0.5455677655677655,2.4989743589743587
0.6199577349980245,1.606080586080586,0.5455677655677655,2.4989743589743587
0.62183723400085,1.606080586080586,0.5455677655677655,2.4989743589743587
0.624519719996897,1.606080586080586,0.5455677655677655,2.4989743589743587
0.6283942449954338,1.606080586080586,0.5455677655677655,2.4989743589743587
0.6323668839977472,1.606080586080586,0.5455677655677655,2.4989743589743587
0.6355094719983754,0.0,0.1772893772893773,0.32556776556776557
0.6378363769981661,0.0,0.1772893772893773,0.32556776556776557
0.6380598299947451,2.0267399267399266,0.6406593406593406,1.9558241758241757
0.6452176359962323,2.0267399267399266,0.6406593406593406,1.9558241758241757
0.649964888994873,2.0267399267399266,0.6406593406593406,1.9558241758241757
0.6556670759964618,0.5890842490842491,0.3723076923076923,1.573846153846154
0.658672605000902,0.5890842490842491,0.3723076923076923,1.573846153846154
0.6599336569997831,0.5890842490842491,0.3723076923076923,1.573846153846154
0.6654818909955793,0.5890842490842491,0.3723076923076923,1.573846153846154
0.6671132769988617,0.5890842490842491,0.3723076923076923,1.573846153846154
0.6710130779974861,0.5890842490842491,0.3723076923076923,1.573846153846154
0.6785598059941549,0.5890842490842491,0.3723076923076923,1.573846153846154
0.6844189759940491,0.5890842490842491,0.3723076923076923,1.573846153846154
0.6930497819994343,0.5890842490842491,0.3723076923076923,1.573846153846154
0.6994530509982724,0.5890842490842491,0.3723076923076923,1.573846153846154
0.7045296789947315,0.5890842490842491,0.3723076923076923,1.573846153846154
0.7088317909947364,0.5890842490842491,0.3723076923076923,1.573846153846154
0.7165661449980689,0.5890842490842491,0.3723076923076923,1.573846153846154
0.7227351089968579,0.5890842490842491,0.3723076923076923,1.573846153846154
0.7296516790011083,1.0355311355311354,0.1789010989010989,1.7906227106227104
0.7365461029985454,1.0355311355311354,0.1789010989010989,1.7906227106227104
0.7441519079948193,1.0355311355311354,0.1789010989010989,1.7906227106227104
0.7501824149949243,1.0355311355311354,0.1789010989010989,1.7906227106227104
0.7564303029939765,0.8308424908424907,0.27802197802197803,1.468278388278388
0.7614255820008111,0.8308424908424907,0.27802197802197803,1.468278388278388
0.7645648499965318,0.8308424908424907,0.27802197802197803,1.468278388278388
0.7661576449972927,0.8308424908424907,0.27802197802197803,1.468278388278388
0.7700032430002466,0.8308424908424907,0.27802197802197803,1.468278388278388
0.7787282019999111,0.8308424908424907,0.27802197802197803,1.468278388278388
0.7853028079989599,0.17487179487179486,0.2627106227106227,0.5721611721611721
0.7886262589963735,0.17487179487179486,0.2627106227106227,0.5721611721611721
0.7906267340003978,0.17487179487179486,0.2627106227106227,0.5721611721611721
0.7930150280008093,0.17487179487179486,0.2627106227106227,0.5721611721611721
0.8001632089944906,0.17487179487179486,0.2627106227106227,0.5721611721611721
0.8051293909957167,0.17487179487179486,0.2627106227106227,0.5721611721611721
0.811367533999146,0.17487179487179486,0.2627106227106227,0.5721611721611721
0.8152495120011736,1.3546520146520145,0.5318681318681319,1.2780952380952382
0.8204943620003178,1.3546520146520145,0.5318681318681319,1.2780952380952382
0.8243850479993853,1.3546520146520145,0.5318681318681319,1.2780952380952382
0.8276324729959015,1.3546520146520145,0.5318681318681319,1.2780952380952382
0.8285615169952507,1.3546520146520145,0.5318681318681319,1.2780952380952382
0.8301931089954451,1.3546520146520145,0.5318681318681319,1.2780952380952382
0.8342602769989753,1.3546520146520145,0.5318681318681319,1.2780952380952382
0.8373462579984334,1.3546520146520145,0.5318681318681319,1.2780952380952382
0.8393762709965813,1.3546520146520145,0.5318681318681319,1.2780952380952382
0.840700034998008,1.3546520146520145,0.5318681318681319,1.2780952380952382
0.8478706949972548,1.3546520146520145,0.5318681318681319,1.2780952380952382
0.8525395999968168,1.0798534798534798,0.33282051282051284,0.9823443223443222
0.8527743550002924,1.191062271062271,0.5044688644688645,1.4094505494505494
0.8602905949956039,1.191062271062271,0.5044688644688645,1.4094505494505494
0.8657682139964891,1.4497435897435897,0.29816849816849816,2.8430769230769233
0.8660248189989943,1.1693040293040293,0.2506227106227106,0.13216117216117215
0.8705295479958295,1.1693040293040293,0.2506227106227106,0.13216117216117215
0.8714042529973085,1.1693040293040293,0.2506227106227106,0.13216117216117215
0.8743905779992929,0.1692307692307692,0.3231501831501831,0.6052014652014651
0.876428922994819,0.1692307692307692,0.3231501831501831,0.6052014652014651
0.8777142179969815,0.1692307692307692,0.3231501831501831,0.6052014652014651
0.8832810899984906,0.1692307692307692,0.3231501831501831,0.6052014652014651
0.8848418929992476,0.1692307692307692,0.3231501831501831,0.6052014652014651
0.8915837569948053,0.1692307692307692,0.3231501831501831,0.6052014652014651
0.895381283997267,0.9114285714285715,0.3312087912087912,2.075897435897436
0.9001440549982362,0.9114285714285715,0.3312087912087912,2.075897435897436
0.9066130200008047,0.9114285714285715,0.3312087912087912,2.075897435897436
0.9106544949972886,1.2015384615384614,0.21999999999999997,0.3465201465201465
0.9139083959962591,1.2015384615384614,0.21999999999999997,0.3465201465201465
0.9148502709940658,1.2015384615384614,0.21999999999999997,0.3465201465201465
0.9164677730004769,1.2015384615384614,0.21999999999999997,0.3465201465201465
0.9205179679993307,1.2015384615384614,0.21999999999999997,0.3465201465201465
0.9246477709966712,1.2015384615384614,0.21999999999999997,0.3465201465201465
0.9280479849985568,1.2015384615384614,0.21999999999999997,0.3465201465201465
0.9366500719988835,1.2015384615384614,0.21999999999999997,0.3465201465201465
0.9427319269962027,0.0,0.2345054945054945,0.23208791208791207
0.9467059539965703,1.3828571428571428,0.3779487179487179,1.3852747252747253
0.9499318579983083,1.3828571428571428,0.3779487179487179,1.3852747252747253
0.9508188199979486,1.3828571428571428,0.3779487179487179,1.3852747252747253
0.9518267949970323,1.3659340659340657,0.5769963369963369,1.4457142857142857
0.9535112329976982,1.3659340659340657,0.5769963369963369,1.4457142857142857
0.9571674619946862,1.3659340659340657,0.5769963369963369,1.4457142857142857
0.966992700996343,1.3659340659340657,0.5769963369963369,1.4457142857142857
0.9752213459942141,1.3659340659340657,0.5769963369963369,1.4457142857142857
0.9787694409969845,1.3659340659340657,0.5769963369963369,1.4457142857142857
0.9789766389949364,1.3659340659340657,0.5769963369963369,1.4457142857142857
0.9852025939981104,1.3659340659340657,0.5769963369963369,1.4457142857142857
0.9917500059964368,1.3659340659340657,0.5769963369963369,1.4457142857142857
0.9956146429976798,1.3659340659340657,0.5769963369963369,1.4457142857142857
0.9988523259962676,1.3659340659340657,0.5769963369963369,1.4457142857142857
0.9997893019972253,1.3659340659340657,0.5769963369963369,1.4457142857142857
1.0006976410004427,1.3659340659340657,0.5769963369963369,1.4457142857142857
1.0022535620009876,1.3659340659340657,0.5769963369963369,1.4457142857142857
1.007033515998046,1.3659340659340657,0.5769963369963369,1.4457142857142857
1.0135062639965327,1.3659340659340657,0.5769963369963369,1.4457142857142857
1.0174831399999675,1.3659340659340657,0.5769963369963369,1.4457142857142857
1.0213664510010858,1.3659340659340657,0.5769963369963369,1.4457142857142857
1.0287076300010085,1.3659340659340657,0.5769963369963369,1.4457142857142857
1.0335196829983033,1.3659340659340657,0.5769963369963369,1.4457142857142857
1.0336746709945146,1.3659340659340657,0.5769963369963369,1.4457142857142857
1.038360824000847,1.3659340659340657,0.5769963369963369,1.4457142857142857
1.0386412980005844,2.067032967032967,0.5342857142857143,1.6375091575091574
1.045871027999965,1.2643956043956044,0.4222710622710622,2.723003663003663
1.0506118639968918,1.0806593406593406,0.23128205128205126,0.21677655677655677
1.0507539760001237,1.0806593406593406,0.23128205128205126,0.21677655677655677
1.0574490069993772,1.0806593406593406,0.23128205128205126,0.21677655677655677
1.0614731009991374,2.036410256410256,0.5391208791208791,1.7043956043956046
1.0638728479971178,2.036410256410256,0.5391208791208791,1.7043956043956046
1.0696127459959826,2.036410256410256,0.5391208791208791,1.7043956043956046
1.069861509000475,2.036410256410256,0.5391208791208791,1.7043956043956046
1.0771340439969208,2.036410256410256,0.5391208791208791,1.7043956043956046
1.0810830720001832,0.0,0.1772893772893773,0.0701098901098901
1.0850598519973573,1.6624908424908424,0.34087912087912087,1.7132600732600733
1.089773672996671,1.6624908424908424,0.34087912087912087,1.7132600732600733
1.0901111049970496,1.6624908424908424,0.34087912087912087,1.7132600732600733
1.0952328979983577,1.6624908424908424,0.34087912087912087,1.7132600732600733
1.099063950998243,1.6624908424908424,0.34087912087912087,1.7132600732600733
1.103125582994835,1.6624908424908424,0.34087912087912087,1.7132600732600733
1.1064885199957644,1.6624908424908424,0.34087912087912087,1.7132600732600733
1.1073903770011384,1.6624908424908424,0.34087912087912087,1.7132600732600733
1.1083162299983087,1.6624908424908424,0.34087912087912087,1.7132600732600733
1.1092530819951207,1.6624908424908424,0.34087912087912087,1.7132600732600733
1.110880834996351,1.6624908424908424,0.34087912087912087,1.7132600732600733
1.1146956129960017,1.6624908424908424,0.34087912087912087,1.7132600732600733
1.1193126869984553,0.25142857142857145,0.40534798534798533,0.5737728937728938
1.1202052219960024,1.979194139194139,0.6720879120879121,2.456263736263736
1.121126327998354,1.979194139194139,0.6720879120879121,2.456263736263736
1.1228947290001088,1.979194139194139,0.6720879120879121,2.456263736263736
1.125906244997168,1.979194139194139,0.6720879120879121,2.456263736263736
1.1282005429966375,1.979194139194139,0.6720879120879121,2.456263736263736
1.1285309759987285,0.8235897435897436,0.3892307692307692,1.3514285714285714
1.1335646859952249,0.8235897435897436,0.3892307692307692,1.3514285714285714
1.1374678789943573,0.8235897435897436,0.3892307692307692,1.3514285714285714
1.141374252998503,0.8235897435897436,0.3892307692307692,1.3514285714285714
1.1451154519963893,0.8235897435897436,0.3892307692307692,1.3514285714285714
1.1497572299995227,0.8235897435897436,0.3892307692307692,1.3514285714285714
1.1499610699975165,1.1749450549450549,0.2175824175824176,1.747106227106227
1.1546994219970657,1.1749450549450549,0.2175824175824176,1.747106227106227
1.1548435149961733,1.1749450549450549,0.2175824175824176,1.747106227106227
1.159638911994989,1.1749450549450549,0.2175824175824176,1.747106227106227
1.1659564159999718,1.1749450549450549,0.2175824175824176,1.747106227106227
1.1726351589968544,1.1749450549450549,0.2175824175824176,1.747106227106227
1.1769775049979216,1.0903296703296703,0.41098901098901097,1.6995604395604393
1.1778074850008124,1.0903296703296703,0.41098901098901097,1.6995604395604393
1.1794450179950218,1.0903296703296703,0.41098901098901097,1.6995604395604393
1.1830909319978673,1.0903296703296703,0.41098901098901097,1.6995604395604393
1.1832396269965102,1.0903296703296703,0.41098901098901097,1.6995604395604393
1.1883142789956764,1.0903296703296703,0.41098901098901097,1.6995604395604393
1.1947460999945179,1.0903296703296703,0.41098901098901097,1.6995604395604393
1.198506606000592,0.0,0.03706959706959707,0.10153846153846154
1.2043716179978219,1.6230036630036628,0.6358241758241758,2.5473260073260073
1.2123865539979306,1.6230036630036628,0.6358241758241758,2.5473260073260073
1.2176590939998277,1.0024908424908423,0.39487179487179486,1.519047619047619
1.2210874339943985,1.0024908424908423,0.39487179487179486,1.519047619047619
1.2213280879950617,1.0024908424908423,0.39487179487179486,1.519047619047619
1.2274703820003197,1.0024908424908423,0.39487179487179486,1.519047619047619
1.230529848995502,1.0024908424908423,0.39487179487179486,1.519047619047619
1.2343433489950257,1.0024908424908423,0.39487179487179486,1.519047619047619
1.2373635869953432,0.09347985347985348,0.1095970695970696,0.21032967032967032
1.2405962009943323,0.09347985347985348,0.1095970695970696,0.21032967032967032
1.24234271000023,0.09347985347985348,0.1095970695970696,0.21032967032967032
1.245607630997256,0.09347985347985348,0.1095970695970696,0.21032967032967032
1.246463383999071,0.09347985347985348,0.1095970695970696,0.21032967032967032
1.248080849996768,0.09347985347985348,0.1095970695970696,0.21032967032967032
1.2526762279958348,0.09347985347985348,0.1095970695970696,0.21032967032967032
1.252997104995302,0.09347985347985348,0.1095970695970696,0.21032967032967032
1.258292109996546,0.09347985347985348,0.1095970695970696,0.21032967032967032
1.261486644994875,2.2435164835164834,0.7623443223443224,2.432087912087912
1.2625254969971138,2.2435164835164834,0.7623443223443224,2.432087912087912
1.262828400998842,2.2435164835164834,0.7623443223443224,2.432087912087912
1.2682604329966125,2.2435164835164834,0.7623443223443224,2.432087912087912
1.2705935769990901,1.145128205128205,0.3441025641025641,0.40776556776556777
1.2707651559976512,0.7236630036630036,0.356996336996337,1.5625641025641024
1.2761955549940467,0.7236630036630036,0.356996336996337,1.5625641025641024
1.278571661998285,0.1772893772893773,0.4126007326007326,0.47706959706959706
1.2787948529949063,0.1772893772893773,0.4126007326007326,0.47706959706959706
1.2836278039976605,0.1772893772893773,0.4126007326007326,0.47706959706959706
1.2891416839993326,0.1772893772893773,0.4126007326007326,0.47706959706959706
1.2906728710004245,0.1772893772893773,0.4126007326007326,0.47706959706959706
1.2946474969940027,0.5133333333333333,0.43677655677655675,1.8123809523809524
1.2994685559970094,0.5133333333333333,0.43677655677655675,1.8123809523809524
1.3047952339984477,0.8526007326007327,0.4794871794871795,2.581172161172161
1.3070615379983792,1.120952380952381,0.3295970695970696,0.7615384615384615
1.3074070959992241,1.120952380952381,0.3295970695970696,0.7615384615384615
1.3127886699949158,1.120952380952381,0.3295970695970696,0.7615384615384615
1.3150748909974936,1.120952380952381,0.3295970695970696,0.7615384615384615
1.3152933679957641,1.120952380952381,0.3295970695970696,0.7615384615384615
1.3204666879973956,1.120952380952381,0.3295970695970696,0.7615384615384615
1.3235478439964936,1.120952380952381,0.3295970695970696,0.7615384615384615
1.326562959999137,1.120952380952381,0.3295970695970696,0.7615384615384615
1.3289049429949955,1.120952380952381,0.3295970695970696,0.7615384615384615
1.3291025979997357,1.120952380952381,0.3295970695970696,0.7615384615384615
1.334676689999469,1.120952380952381,0.3295970695970696,0.7615384615384615
1.3349517030001152,1.120952380952381,0.3295970695970696,0.7615384615384615
1.3400943279993953,1.120952380952381,0.3295970695970696,0.7615384615384615
1.3437876399984816,2.253992673992674,0.7075457875457875,2.7786080586080586
1.3438984749955125,2.253992673992674,0.7075457875457875,2.7786080586080586
1.3492088149941992,2.253992673992674,0.7075457875457875,2.7786080586080586
1.3515378070005681,0.8276190476190476,0.6704761904761904,1.3151648351648353
1.3523752439941745,1.498901098901099,0.42952380952380953,1.2724542124542124
1.3539796179975383,1.498901098901099,0.42952380952380953,1.2724542124542124
1.3584599120003986,1.498901098901099,0.42952380952380953,1.2724542124542124
1.3593709229971864,1.498901098901099,0.42952380952380953,1.2724542124542124
1.3609760219987947,1.498901098901099,0.42952380952380953,1.2724542124542124
1.3647008609987097,1.498901098901099,0.42952380952380953,1.2724542124542124
1.3691776049963664,1.498901098901099,0.42952380952380953,1.2724542124542124
1.3707137940000393,0.9605860805860806,0.3038095238095238,2.013846153846154
1.3745043119997717,0.9605860805860806,0.3038095238095238,2.013846153846154
1.3800456679964554,0.0,0.32556776556776557,0.06527472527472526
1.381112001996371,0.0,0.32556776556776557,0.06527472527472526
1.3819603949959856,0.0,0.32556776556776557,0.06527472527472526
1.382843695995689,0.0,0.32556776556776557,0.06527472527472526
1.3843864429945825,0.0,0.32556776556776557,0.06527472527472526
1.3889737029967364,0.0,0.32556776556776557,0.06527472527472526
1.3898109719957574,0.8348717948717947,0.43999999999999995,1.361098901098901
1.3913444159989012,0.8348717948717947,0.43999999999999995,1.361098901098901
1.3959251899941592,0.8348717948717947,0.43999999999999995,1.361098901098901
1.3962460670009023,0.8348717948717947,0.43999999999999995,1.361098901098901
1.4016388729942264,0.8348717948717947,0.43999999999999995,1.361098901098901
1.4033752999966964,2.315238095238095,1.1145054945054944,2.3853479853479853
1.406489213994064,2.315238095238095,1.1145054945054944,2.3853479853479853
1.4080372139942483,2.315238095238095,1.1145054945054944,2.3853479853479853
1.4127126669991412,2.315238095238095,1.1145054945054944,2.3853479853479853
1.412827660999028,2.315238095238095,1.1145054945054944,2.3853479853479853
1.4176224559996626,2.315238095238095,1.1145054945054944,2.3853479853479853
1.4232596669971826,2.315238095238095,1.1145054945054944,2.3853479853479853
1.4242958319955505,0.772014652014652,0.33684981684981685,2.4514285714285715
1.4251321490010014,0.772014652014652,0.33684981684981685,2.4514285714285715
1.426750335995166,0.772014652014652,0.33684981684981685,2.4514285714285715
1.4306362669958617,0.772014652014652,0.33684981684981685,2.4514285714285715
1.4346973059946322,0.772014652014652,0.33684981684981685,2.4514285714285715
1.4370488839995232,0.772014652014652,0.33684981684981685,2.4514285714285715
1.437406214994553,0.772014652014652,0.33684981684981685,2.4514285714285715
1.4426877599980799,0.772014652014652,0.33684981684981685,2.4514285714285715
1.4450897429996985,0.9082051282051282,0.25545787545787546,2.407106227106227
1.4452472909979406,0.9082051282051282,0.25545787545787546,2.407106227106227
1.4506662519997917,0.9082051282051282,0.25545787545787546,2.407106227106227
1.4515248509997036,0.9082051282051282,0.25545787545787546,2.407106227106227
1.4531464839965338,0.9082051282051282,0.25545787545787546,2.407106227106227
1.4576836519991048,0.9082051282051282,0.25545787545787546,2.407106227106227
1.4580145239960984,0.9082051282051282,0.25545787545787546,2.407106227106227
1.4632854759984184,0.9082051282051282,0.25545787545787546,2.407106227106227
1.4648665790009545,0.6132600732600733,0.13135531135531134,1.0774358974358973
1.4693879349943018,0.6132600732600733,0.13135531135531134,1.0774358974358973
1.4702195349964313,0.8598534798534798,0.40937728937728934,1.2740659340659342
1.4718423869999242,0.8598534798534798,0.40937728937728934,1.2740659340659342
1.4759124749980401,0.05318681318681319,0.29816849816849816,0.5133333333333333
1.4789199459992233,0.05318681318681319,0.29816849816849816,0.5133333333333333
1.4819053259998327,0.05318681318681319,0.29816849816849816,0.5133333333333333
1.4843647679954302,0.05318681318681319,0.29816849816849816,0.5133333333333333
1.4845788829989033,0.05318681318681319,0.29816849816849816,0.5133333333333333
1.4898837590008043,0.05318681318681319,0.29816849816849816,0.5133333333333333
1.4921509199994034,0.6567765567765567,0.3465201465201465,1.4706959706959708
1.4924656899966067,0.6567765567765567,0.3465201465201465,1.4706959706959708
1.4976683909990243,0.6567765567765567,0.3465201465201465,1.4706959706959708
1.501368248995277,0.044322344322344324,0.15633699633699633,0.1643956043956044
1.501477760997659,0.044322344322344324,0.15633699633699633,0.1643956043956044
1.5067015839958913,0.044322344322344324,0.15633699633699633,0.1643956043956044
1.5090334499982418,1.1338461538461537,0.2756043956043956,0.28446886446886444
1.5094253209972521,1.1338461538461537,0.2756043956043956,0.28446886446886444
1.5145879589981632,1.1338461538461537,0.2756043956043956,0.28446886446886444
1.5175764239975251,0.051575091575091575,0.2345054945054945,0.11362637362637362
1.5205453719972866,0.051575091575091575,0.2345054945054945,0.11362637362637362
1.523494852001022,0.051575091575091575,0.2345054945054945,0.11362637362637362
1.5265103929996258,0.051575091575091575,0.2345054945054945,0.11362637362637362
1.5287861339966184,0.051575091575091575,0.2345054945054945,0.11362637362637362
1.5290417849973892,0.051575091575091575,0.2345054945054945,0.11362637362637362
1.534317347999604,0.051575091575091575,0.2345054945054945,0.11362637362637362
1.537415400998725,0.051575091575091575,0.2345054945054945,0.11362637362637362
1.5391630239973892,0.051575091575091575,0.2345054945054945,0.11362637362637362
1.5428151769956457,0.051575091575091575,0.2345054945054945,0.11362637362637362
1.5429133020006702,0.051575091575091575,0.2345054945054945,0.11362637362637362
1.5480720560008194,0.051575091575091575,0.2345054945054945,0.11362637362637362
1.5512652729958063,1.5714285714285712,0.4722344322344322,1.0919413919413918
1.5522248829947785,1.5714285714285712,0.4722344322344322,1.0919413919413918
1.5532023790001404,1.5714285714285712,0.4722344322344322,1.0919413919413918
1.554089748999104,0.0,0.15472527472527473,0.19743589743589743
1.556508980000217,0.0,0.15472527472527473,0.19743589743589743
1.5617524400004186,0.0,0.15472527472527473,0.19743589743589743
1.5649141979956767,0.0,0.15472527472527473,0.19743589743589743
1.5664311539949267,0.0,0.15472527472527473,0.19743589743589743
1.5708471379984985,0.0,0.15472527472527473,0.19743589743589743
1.5716401869940455,0.0,0.15472527472527473,0.19743589743589743
1.573342462994333,0.0,0.15472527472527473,0.19743589743589743
1.577062231997843,0.0,0.15472527472527473,0.19743589743589743
1.5825856960000237,0.0,0.15472527472527473,0.19743589743589743
1.5836125259957043,0.8598534798534798,0.42388278388278383,2.593260073260073
1.5844683209943469,0.8598534798534798,0.42388278388278383,2.593260073260073
1.5862053439996089,0.8598534798534798,0.42388278388278383,2.593260073260073
1.5894634110009065,0.8598534798534798,0.42388278388278383,2.593260073260073
1.5903781939996406,0.8598534798534798,0.42388278388278383,2.593260073260073
1.5920068819978042,0.8598534798534798,0.42388278388278383,2.593260073260073
1.5965323399941553,0.23531135531135527,0.10637362637362638,0.49076923076923074
1.5973573649971513,0.23531135531135527,0.10637362637362638,0.49076923076923074
1.5990423319963156,0.23531135531135527,0.10637362637362638,0.49076923076923074
1.6022658709989628,0.9944322344322343,0.4593406593406593,2.731062271062271
1.6031654129983508,0.9944322344322343,0.4593406593406593,2.731062271062271
1.6047888069952023,0.9944322344322343,0.4593406593406593,2.731062271062271
1.6085202999965986,1.062930402930403,0.33684981684981685,0.8445421245421244
1.6086246380000375,1.062930402930403,0.33684981684981685,0.8445421245421244
1.6139649139950052,0.8227838827838827,0.24014652014652016,2.0009523809523806
1.6165281819994561,1.1652747252747253,0.5399267399267399,1.4819780219780219
1.6218368939953507,0.01934065934065934,0.27238095238095233,0.08139194139194139
1.624825143997441,0.01934065934065934,0.27238095238095233,0.08139194139194139
1.627269783995871,0.01934065934065934,0.27238095238095233,0.08139194139194139
1.6274465409951517,0.01934065934065934,0.27238095238095233,0.08139194139194139
1.6329246239984059,0.01934065934065934,0.27238095238095233,0.08139194139194139
1.6337420950003434,0.01934065934065934,0.27238095238095233,0.08139194139194139
1.635355177000747,0.01934065934065934,0.27238095238095233,0.08139194139194139
1.6411643719984568,0.01934065934065934,0.27238095238095233,0.08139194139194139
1.649268219996884,0.01934065934065934,0.27238095238095233,0.08139194139194139
1.65378707099444,0.7841025641025641,0.09670329670329669,0.8268131868131867
1.654677113998332,0.7841025641025641,0.09670329670329669,0.8268131868131867
1.6562495899997884,0.7841025641025641,0.09670329670329669,0.8268131868131867
1.6603823650002596,0.7841025641025641,0.09670329670329669,0.8268131868131867
1.6632410689999233,0.7841025641025641,0.09670329670329669,0.8268131868131867
1.6669552229941473,0.7841025641025641,0.09670329670329669,0.8268131868131867
1.6723352469998645,0.7841025641025641,0.09670329670329669,0.8268131868131867
1.674639885997749,0.7841025641025641,0.09670329670329669,0.8268131868131867
1.674841217994981,0.7841025641025641,0.09670329670329669,0.8268131868131867
1.6800566189995152,0.7841025641025641,0.09670329670329669,0.8268131868131867
1.683118172994,0.7841025641025641,0.09670329670329669,0.8268131868131867
1.6854263419954805,0.7841025641025641,0.09670329670329669,0.8268131868131867
1.685612951994699,0.7841025641025641,0.09670329670329669,0.8268131868131867
1.690765889994509,0.7841025641025641,0.09670329670329669,0.8268131868131867
1.6945122920005815,0.7841025641025641,0.09670329670329669,0.8268131868131867
1.6998748609985341,0.0,0.19179487179487179,0.07494505494505493
1.7020866019956884,0.0,0.19179487179487179,0.07494505494505493
1.702377718000207,0.0,0.19179487179487179,0.07494505494505493
1.7074883870009216,0.0,0.19179487179487179,0.07494505494505493
1.7103613139988738,0.0,0.19179487179487179,0.07494505494505493
1.7137753029965097,0.0,0.19179487179487179,0.07494505494505493
1.714074718998745,0.0,0.3505494505494505,0.07494505494505493
1.718894243997056,0.0,0.3505494505494505,0.07494505494505493
1.7190671339994879,0.0,0.3505494505494505,0.07494505494505493
1.723981389994151,0.0,0.3505494505494505,0.07494505494505493
1.7287925599957816,0.8566300366300367,0.016117216117216115,0.7002930402930403
1.7290352290001465,0.8566300366300367,0.016117216117216115,0.7002930402930403
1.7345915999976569,0.8566300366300367,0.016117216117216115,0.7002930402930403
1.7355800359946443,0.8566300366300367,0.016117216117216115,0.7002930402930403
1.7364674709970132,0.8566300366300367,0.016117216117216115,0.7002930402930403
1.738057022994326,0.8566300366300367,0.016117216117216115,0.7002930402930403
1.7426258019986562,0.8566300366300367,0.016117216117216115,0.7002930402930403
1.742812557000434,0.8566300366300367,0.016117216117216115,0.7002930402930403
1.7481084309983999,0.8566300366300367,0.016117216117216115,0.7002930402930403
1.7504584329944919,0.8566300366300367,0.016117216117216115,0.7002930402930403
1.7505986749965814,0.8566300366300367,0.016117216117216115,0.7002930402930403
1.755924844997935,0.8566300366300367,0.016117216117216115,0.7002930402930403
1.7583631070010597,0.0136996336996337,0.31186813186813184,0.19985347985347984
1.7585795630002394,0.0136996336996337,0.31186813186813184,0.19985347985347984
1.76392217099783,0.0136996336996337,0.31186813186813184,0.19985347985347984
1.7656313729967223,0.0136996336996337,0.31186813186813184,0.19985347985347984
1.7693323040002724,0.0136996336996337,0.31186813186813184,0.19985347985347984
1.7745617279942962,0.7252747252747253,0.25787545787545785,1.506959706959707
1.7775590109959012,0.7252747252747253,0.25787545787545785,1.506959706959707
1.7805509899990284,0.7252747252747253,0.25787545787545785,1.506959706959707
1.7836331989965402,0.7252747252747253,0.25787545787545785,1.506959706959707
1.7860168479965068,1.203150183150183,0.23853479853479853,0.6962637362637363
1.786131551998551,1.203150183150183,0.23853479853479853,0.6962637362637363
1.7918671049992554,1.203150183150183,0.23853479853479853,0.6962637362637363
1.7920666680001887,1.203150183150183,0.23853479853479853,0.6962637362637363
1.7969548920009402,1.203150183150183,0.23853479853479853,0.6962637362637363
1.7970470619984553,1.203150183150183,0.23853479853479853,0.6962637362637363
1.8022015519964043,1.203150183150183,0.23853479853479853,0.6962637362637363
1.8071139809981105,1.203150183150183,0.23853479853479853,0.6962637362637363
1.8110414809998474,0.73010989010989,0.22886446886446887,1.3473992673992674
1.8149177390005207,0.73010989010989,0.22886446886446887,1.3473992673992674
1.8194553079956677,0.0,0.21435897435897436,0.06366300366300366
1.8203390459966613,0.0,0.21435897435897436,0.06366300366300366
1.8227209469987429,0.9428571428571427,0.12893772893772892,2.0887912087912084
1.8228706079971744,0.9428571428571427,0.12893772893772892,2.0887912087912084
1.8283204749968718,0.9428571428571427,0.12893772893772892,2.0887912087912084
1.830097095000383,0.9428571428571427,0.12893772893772892,2.0887912087912084
1.8333068499996443,0.9428571428571427,0.12893772893772892,2.0887912087912084
1.8341636749973986,0.9428571428571427,0.12893772893772892,2.0887912087912084
1.835769868994248,0.9428571428571427,0.12893772893772892,2.0887912087912084
1.8402838019974297,0.9428571428571427,0.12893772893772892,2.0887912087912084
1.8411666530009825,0.9428571428571427,0.12893772893772892,2.0887912087912084
1.842927403995418,0.9428571428571427,0.12893772893772892,2.0887912087912084
1.8452589989974513,0.9428571428571427,0.12893772893772892,2.0887912087912084
1.846105696997256,0.9428571428571427,0.12893772893772892,2.0887912087912084
1.8476728219975485,0.9428571428571427,0.12893772893772892,2.0887912087912084
1.852207717995043,1.0145787545787546,0.3263736263736263,1.701978021978022
1.8531541919946903,1.0427838827838827,0.3287912087912088,2.046080586080586
1.8540519710004446,1.0427838827838827,0.3287912087912088,2.046080586080586
1.8557551739941118,1.0427838827838827,0.3287912087912088,2.046080586080586
1.8591157509945333,0.10153846153846154,0.21516483516483517,0.14505494505494507
1.8600062319965218,2.425641025641026,0.5681318681318681,2.7616849816849816
1.8615392930005328,2.425641025641026,0.5681318681318681,2.7616849816849816
1.8661652320006397,2.425641025641026,0.5681318681318681,2.7616849816849816
1.866381908999756,2.425641025641026,0.5681318681318681,2.7616849816849816
1.8715675579951494,2.425641025641026,0.5681318681318681,2.7616849816849816
1.8738941839983454,2.425641025641026,0.5681318681318681,2.7616849816849816
1.8742473649981548,2.425641025641026,0.5681318681318681,2.7616849816849816
1.8791442449946771,2.425641025641026,0.5681318681318681,2.7616849816849816
1.8833249829986016,2.425641025641026,0.5681318681318681,2.7616849816849816
1.8861316439943039,1.1604395604395605,0.2208058608058608,0.3706959706959707
1.8902230879975832,1.1241758241758242,0.3473260073260073,1.3643223443223442
1.8936885169969173,1.1241758241758242,0.3473260073260073,1.3643223443223442
1.8938706049957545,1.1241758241758242,0.3473260073260073,1.3643223443223442
1.8988453179990756,1.1241758241758242,0.3473260073260073,1.3643223443223442
1.904225086000224,1.635091575091575,0.4448351648351648,2.7657142857142856
1.9073648209960083,1.635091575091575,0.4448351648351648,2.7657142857142856
1.908983185996476,1.4304029304029304,0.3698901098901099,1.2386080586080586
1.9129046829984873,1.4304029304029304,0.3698901098901099,1.2386080586080586
1.9166667399986181,0.12329670329670328,0.2715750915750916,0.4279120879120879
1.9219972040009452,0.12329670329670328,0.2715750915750916,0.4279120879120879
1.9244423979980638,0.12329670329670328,0.2715750915750916,0.4279120879120879
1.9246832439966965,0.12329670329670328,0.2715750915750916,0.4279120879120879
1.9299844369961647,0.12329670329670328,0.2715750915750916,0.4279120879120879
1.933119761000853,0.9799267399267398,0.2643223443223443,1.535164835164835
1.9346489529998507,0.6334065934065934,0.1926007326007326,0.9186813186813186
1.9391397020008299,0.6334065934065934,0.1926007326007326,0.9186813186813186
1.9406598349960404,0.6334065934065934,0.1926007326007326,0.9186813186813186
1.9445767579964013,0.6334065934065934,0.1926007326007326,0.9186813186813186
1.9493425469991053,0.6334065934065934,0.1926007326007326,0.9186813186813186
1.9496236790000694,1.141098901098901,0.3167032967032967,1.826080586080586
1.9543538270008867,1.141098901098901,0.3167032967032967,1.826080586080586
1.9544687569941743,1.141098901098901,0.3167032967032967,1.826080586080586
1.9597472120003658,1.141098901098901,0.3167032967032967,1.826080586080586
1.962222728994675,1.141098901098901,0.3167032967032967,1.826080586080586
1.9674410429943237,1.141098901098901,0.3167032967032967,1.826080586080586
1.9713270909996936,1.141098901098901,0.3167032967032967,1.826080586080586
1.9752149909982109,1.141098901098901,0.3167032967032967,1.826080586080586
1.9805381689948263,1.141098901098901,0.3167032967032967,1.826080586080586
1.9831532219977817,1.141098901098901,0.3167032967032967,1.826080586080586
1.987642378997407,1.141098901098901,0.3167032967032967,1.826080586080586
1.988528158995905,0.7937728937728937,0.17245421245421244,1.3707692307692307
1.9902547109959414,0.7937728937728937,0.17245421245421244,1.3707692307692307
1.9932656829987536,1.0371428571428571,0.29736263736263735,1.90989010989011
1.9956946199963568,1.0371428571428571,0.29736263736263735,1.90989010989011
1.9958265649984241,0.0,0.2208058608058608,0.07655677655677656
2.0010881389971473,0.0,0.2208058608058608,0.07655677655677656
2.0033519239950692,0.0,0.2208058608058608,0.07655677655677656
2.0036192839979776,0.0,0.2208058608058608,0.07655677655677656
2.008749631997489,0.0,0.2208058608058608,0.07655677655677656
2.011751280995668,0.0,0.2208058608058608,0.07655677655677656
2.0147341650008457,0.0,0.2208058608058608,0.07655677655677656
2.0176685389960767,0.0,0.2208058608058608,0.07655677655677656
2.021292990000802,0.0,0.2208058608058608,0.07655677655677656
2.0213779719997547,0.0,0.2208058608058608,0.07655677655677656
2.0264806339982897,0.0,0.2208058608058608,0.07655677655677656
2.0309641339990776,0.0,0.2208058608058608,0.07655677655677656
2.031216326999129,0.0,0.2208058608058608,0.07655677655677656
2.0365999220011872,0.0,0.2208058608058608,0.07655677655677656
2.0380888270010473,0.0,0.2208058608058608,0.07655677655677656
2.0425633970007766,0.0,0.2208058608058608,0.07655677655677656
2.0428984530008165,1.3997802197802196,0.42630036630036633,1.502930402930403
2.0480665089999093,1.3997802197802196,0.42630036630036633,1.502930402930403
2.051142889999028,1.3997802197802196,0.42630036630036633,1.502930402930403
2.054075975996966,0.6374358974358975,0.14505494505494507,1.9284249084249083
2.056339308997849,0.0,0.16842490842490843,0.06285714285714286
2.0566129759972682,0.0,0.19179487179487179,0.166007326007326
2.061735805000353,1.5802930402930402,0.26996336996336995,1.4408791208791207
2.0649792779950076,1.5802930402930402,0.26996336996336995,1.4408791208791207
2.0665239869995276,1.5802930402930402,0.26996336996336995,1.4408791208791207
2.0704357599970535,1.5802930402930402,0.26996336996336995,1.4408791208791207
2.0748741989955306,1.1306227106227105,0.3642490842490842,2.0855677655677654
2.0752249009965453,0.0,0.20468864468864467,0.09670329670329669
2.080616111998097,0.0,0.20468864468864467,0.09670329670329669
2.0823101719943224,0.0,0.20468864468864467,0.09670329670329669
2.086156969999138,0.0,0.20468864468864467,0.09670329670329669
2.0901463749978575,0.9960439560439559,0.2949450549450549,1.6004395604395603
2.093930574999831,0.9960439560439559,0.2949450549450549,1.6004395604395603
2.09940774399729,0.9960439560439559,0.2949450549450549,1.6004395604395603
2.101126326000667,0.9960439560439559,0.2949450549450549,1.6004395604395603
2.104831127995567,0.9960439560439559,0.2949450549450549,1.6004395604395603
2.1101264210010413,0.9960439560439559,0.2949450549450549,1.6004395604395603
2.113441380999575,1.1580219780219778,0.21435897435897436,2.0525274725274723
2.1136734419997083,1.1580219780219778,0.21435897435897436,2.0525274725274723
2.1190101639949717,1.1580219780219778,0.21435897435897436,2.0525274725274723
2.1208231639975565,1.1580219780219778,0.21435897435897436,2.0525274725274723
2.1239531989995157,1.1580219780219778,0.21435897435897436,2.0525274725274723
2.1256336209989968,1.1580219780219778,0.21435897435897436,2.0525274725274723
2.1295438349989126,1.3304761904761904,0.25706959706959703,1.303076923076923
2.1333598060009535,1.3304761904761904,0.25706959706959703,1.303076923076923
2.13778574099706,1.3304761904761904,0.25706959706959703,1.303076923076923
2.1387264739969396,1.3304761904761904,0.25706959706959703,1.303076923076923
2.140350743000454,1.3304761904761904,0.25706959706959703,1.303076923076923
2.1447293809978873,1.3304761904761904,0.25706959706959703,1.303076923076923
2.145617352995032,1.3304761904761904,0.25706959706959703,1.303076923076923
2.147160956999869,1.3304761904761904,0.25706959706959703,1.303076923076923
2.15244065799925,1.3304761904761904,0.25706959706959703,1.303076923076923
2.155416966001212,1.3304761904761904,0.25706959706959703,1.303076923076923
2.1577194619967486,1.3304761904761904,0.25706959706959703,1.303076923076923
2.1579828819958493,1.3304761904761904,0.25706959706959703,1.303076923076923
2.1634493279998424,1.3304761904761904,0.25706959706959703,1.303076923076923
2.164491065996117,1.3304761904761904,0.25706959706959703,1.303076923076923
2.1647765669986256,1.3304761904761904,0.25706959706959703,1.303076923076923
2.1701139099968714,1.3304761904761904,0.25706959706959703,1.303076923076923
2.172375388996443,1.3304761904761904,0.25706959706959703,1.303076923076923
2.173238950999803,1.3304761904761904,0.25706959706959703,1.303076923076923
2.1747975239995867,1.3304761904761904,0.25706959706959703,1.303076923076923
2.17910745399422,1.3304761904761904,0.25706959706959703,1.303076923076923
2.1806946899960167,1.3304761904761904,0.25706959706959703,1.303076923076923
2.185107959994639,1.3304761904761904,0.25706959706959703,1.303076923076923
2.1859946869954,1.3304761904761904,0.25706959706959703,1.303076923076923
2.1875282589971903,1.3304761904761904,0.25706959706959703,1.303076923076923
2.1918987819954054,1.3304761904761904,0.25706959706959703,1.303076923076923
2.1934204639983363,1.3304761904761904,0.25706959706959703,1.303076923076923
2.197727920000034,1.3304761904761904,0.25706959706959703,1.303076923076923
2.1992740869973204,2.6762637362637363,0.5310622710622711,3.3
2.203662148996955,2.6762637362637363,0.5310622710622711,3.3
2.2045043440011796,2.6762637362637363,0.5310622710622711,3.3
2.2061731969952234,2.6762637362637363,0.5310622710622711,3.3
2.2099249439997948,2.6762637362637363,0.5310622710622711,3.3
2.2152107969959616,2.6762637362637363,0.5310622710622711,3.3
2.2182293239966384,2.6762637362637363,0.5310622710622711,3.3
2.2205194839989417,2.726227106227106,0.47465201465201456,2.5215384615384613
2.220769447994826,2.075091575091575,0.43355311355311354,3.3
2.2258733349954127,2.075091575091575,0.43355311355311354,3.3
2.229590481998457,1.56014652014652,0.22805860805860806,0.8066666666666666
2.2350192469966714,1.3498168498168497,0.04351648351648352,2.4167765567765565
2.237228875994333,1.3498168498168497,0.04351648351648352,2.4167765567765565
2.2375148860010086,1.3498168498168497,0.04351648351648352,2.4167765567765565
2.2425859099967056,1.3498168498168497,0.04351648351648352,2.4167765567765565
2.2457729179950547,1.5931868131868132,0.14102564102564102,3.3
2.2473365039986675,1.5931868131868132,0.14102564102564102,3.3
2.2517890429953695,1.5931868131868132,0.14102564102564102,3.3
2.2526872909947997,1.5931868131868132,0.14102564102564102,3.3
2.2542768139974214,1.5931868131868132,0.14102564102564102,3.3
2.2589533059945097,1.5931868131868132,0.14102564102564102,3.3
2.2642883389999042,2.046080586080586,0.1942124542124542,1.5972161172161172
2.2672751049976796,2.046080586080586,0.1942124542124542,1.5972161172161172
2.2696202480001375,2.046080586080586,0.1942124542124542,1.5972161172161172
2.2698543049991713,2.046080586080586,0.1942124542124542,1.5972161172161172
2.2752667989989277,2.046080586080586,0.1942124542124542,1.5972161172161172
2.276166948999162,2.046080586080586,0.1942124542124542,1.5972161172161172
2.2777416079989052,0.09509157509157509,0.2747985347985348,0.016117216117216115
2.2831994730004226,0.09509157509157509,0.2747985347985348,0.016117216117216115
2.284211948994198,1.274871794871795,0.17809523809523808,2.2080586080586078
2.2850991359955515,1.274871794871795,0.17809523809523808,2.2080586080586078
2.2867601869947976,1.274871794871795,0.17809523809523808,2.2080586080586078
2.289928220998263,1.274871794871795,0.17809523809523808,2.2080586080586078
2.291503627995553,1.270842490842491,0.12974358974358974,2.0049816849816846
2.2961401409993414,1.270842490842491,0.12974358974358974,2.0049816849816846
2.2962452239953564,1.270842490842491,0.12974358974358974,2.0049816849816846
2.3017262520006625,1.270842490842491,0.12974358974358974,2.0049816849816846
2.3028010560010443,1.270842490842491,0.12974358974358974,2.0049816849816846
2.3030470949961455,1.0443956043956042,0.05963369963369963,0.5423443223443223
2.3081825799963553,1.0443956043956042,0.05963369963369963,0.5423443223443223
2.3125509710007464,1.6769963369963368,0.4214652014652014,2.291062271062271
2.3140883469968685,0.8171428571428572,0.09992673992673992,2.2402930402930403
2.3178349139998318,0.8171428571428572,0.09992673992673992,2.2402930402930403
2.323442001994408,0.8171428571428572,0.09992673992673992,2.2402930402930403
2.3244361369943363,1.1652747252747253,0.1112087912087912,0.2917216117216117
2.325312043998565,1.1652747252747253,0.1112087912087912,0.2917216117216117
2.3269037999998545,1.1652747252747253,0.1112087912087912,0.2917216117216117
2.331502681998245,1.1652747252747253,0.1112087912087912,0.2917216117216117
2.331768739000836,1.1652747252747253,0.1112087912087912,0.2917216117216117
2.3363282840000466,1.1652747252747253,0.1112087912087912,0.2917216117216117
2.3371479389970773,1.1652747252747253,0.1112087912087912,0.2917216117216117
2.3387765389998094,1.1652747252747253,0.1112087912087912,0.2917216117216117
2.343363011998008,2.4909157509157507,0.224029304029304,2.736703296703297
2.3442187619948527,2.4909157509157507,0.224029304029304,2.736703296703297
2.3459286139986943,1.2805128205128204,0.09186813186813186,0.3384615384615384
2.3489329509975505,1.2805128205128204,0.09186813186813186,0.3384615384615384
2.35186889799661,1.2805128205128204,0.09186813186813186,0.3384615384615384
2.355003009994107,1.2805128205128204,0.09186813186813186,0.3384615384615384
2.357390076998854,0.014505494505494505,0.1829304029304029,0.05802197802197802
2.3575945919947117,0.014505494505494505,0.1829304029304029,0.05802197802197802
2.3628028909952263,0.014505494505494505,0.1829304029304029,0.05802197802197802
2.3660428679941106,0.014505494505494505,0.1829304029304029,0.05802197802197802
2.3669385999965016,0.014505494505494505,0.1829304029304029,0.05802197802197802
2.3684835899985046,0.9694505494505494,0.14344322344322344,1.4295970695970697
2.3730289379964233,0.9694505494505494,0.14344322344322344,1.4295970695970697
2.3732981979992473,0.9694505494505494,0.14344322344322344,1.4295970695970697
2.3784261149994563,0.9694505494505494,0.14344322344322344,1.4295970695970697
2.381482570999651,0.9694505494505494,0.14344322344322344,1.4295970695970697
2.3839799649940687,1.3876923076923076,0.423076923076923,2.735091575091575
2.384084621000511,1.3876923076923076,0.423076923076923,2.735091575091575
2.389275806999649,1.3876923076923076,0.423076923076923,2.735091575091575
2.3930191659965203,1.195091575091575,0.1652014652014652,2.3958241758241754
2.3975434309977572,1.195091575091575,0.1652014652014652,2.3958241758241754
2.3983751889973064,1.195091575091575,0.1652014652014652,2.3958241758241754
2.3999952909944113,1.195091575091575,0.1652014652014652,2.3958241758241754
2.403825550994952,1.195091575091575,0.1652014652014652,2.3958241758241754
2.4081642999954056,1.244249084249084,0.05802197802197802,0.42388278388278383
2.4104779139961465,0.9275457875457875,0.09267399267399268,1.7277655677655677
2.410713630000828,0.9275457875457875,0.09267399267399268,1.7277655677655677
2.4160210659974837,0.9275457875457875,0.09267399267399268,1.7277655677655677
2.418339191994164,0.0,0.044322344322344324,0.18776556776556774
2.41860465699574,0.0,0.044322344322344324,0.18776556776556774
2.4233254119972116,0.0,0.044322344322344324,0.18776556776556774
2.42351944699476,0.0,0.044322344322344324,0.18776556776556774
2.4283513889968162,0.0,0.044322344322344324,0.18776556776556774
2.433413638995262,0.0,0.044322344322344324,0.18776556776556774
2.436914938996779,0.0,0.044322344322344324,0.18776556776556774
2.437213356999564,0.0,0.044322344322344324,0.18776556776556774
2.44194765699649,2.418388278388278,0.40534798534798533,2.6585347985347987
2.442155068994907,2.418388278388278,0.40534798534798533,2.6585347985347987
2.44688673899509,2.418388278388278,0.40534798534798533,2.6585347985347987
2.447065856998961,0.46014652014652013,0.3295970695970696,1.3103296703296703
2.4519047509966185,0.46014652014652013,0.3295970695970696,1.3103296703296703
2.4519965930012404,0.46014652014652013,0.3295970695970696,1.3103296703296703
2.456748996999522,0.42388278388278383,0.5205860805860806,0.838095238095238
2.4616225919962744,1.1846153846153846,0.5431501831501832,0.7123809523809523
2.466530405996309,1.1846153846153846,0.5431501831501832,0.7123809523809523
2.466631288996723,1.0975824175824174,0.03948717948717949,1.5706227106227104
2.4718028089992004,1.0975824175824174,0.03948717948717949,1.5706227106227104
2.4755505159992026,1.0975824175824174,0.03948717948717949,1.5706227106227104
2.4806862639961764,0.10234432234432234,0.004835164835164835,0.17164835164835165
2.4843414009956177,0.10234432234432234,0.004835164835164835,0.17164835164835165
2.489616674996796,1.6471794871794871,0.3916483516483516,2.2193406593406593
2.492825850000372,1.6471794871794871,0.3916483516483516,2.2193406593406593
2.4937238419952337,1.6471794871794871,0.3916483516483516,2.2193406593406593
2.4952670939965174,1.6471794871794871,0.3916483516483516,2.2193406593406593
2.4999540919961873,1.6471794871794871,0.3916483516483516,2.2193406593406593
2.5000840699940454,1.7841758241758239,0.33282051282051284,3.3
2.5058101899994654,1.7841758241758239,0.33282051282051284,3.3
2.505984327995975,0.9347985347985347,0.28285714285714286,0.8638827838827838
2.511136788998556,1.353040293040293,0.1797069597069597,1.818021978021978
2.5150865510004223,0.7526739926739926,0.3916483516483516,2.4175824175824174
2.5189637639996363,0.7526739926739926,0.3916483516483516,2.4175824175824174
2.523540479996882,2.3587545787545787,0.14102564102564102,3.3
2.5243607000011252,2.3587545787545787,0.14102564102564102,3.3
2.525922836997779,2.3587545787545787,0.14102564102564102,3.3
2.530472569997073,2.3587545787545787,0.14102564102564102,3.3
2.530720372997166,1.0331135531135531,0.5697435897435897,1.8824908424908422
2.5361590780012193,1.0331135531135531,0.5697435897435897,1.8824908424908422
2.5378884710007696,0.2063003663003663,0.27641025641025635,0.5874725274725274
2.540868069998396,0.2063003663003663,0.27641025641025635,0.5874725274725274
2.5438471480010776,0.2063003663003663,0.27641025641025635,0.5874725274725274
2.546801220996713,0.6454945054945055,0.2989743589743589,0.7421978021978022
2.5498323049978353,0.6454945054945055,0.2989743589743589,0.7421978021978022
2.552909660000296,0.6454945054945055,0.2989743589743589,0.7421978021978022
2.555150592001155,0.6454945054945055,0.2989743589743589,0.7421978021978022
2.5560000209952705,0.6454945054945055,0.2989743589743589,0.7421978021978022
2.5575642740004696,0.6454945054945055,0.2989743589743589,0.7421978021978022
2.5628970359975938,0.6454945054945055,0.2989743589743589,0.7421978021978022
2.565225461999944,1.7164835164835166,0.11604395604395604,3.3
2.5655145259952405,1.7164835164835166,0.11604395604395604,3.3
2.5708697349982685,1.7164835164835166,0.11604395604395604,3.3
2.5727100019939826,1.7164835164835166,0.11604395604395604,3.3
2.5750035169985495,1.7164835164835166,0.11604395604395604,3.3
2.575296660994354,1.7164835164835166,0.11604395604395604,3.3
2.580581150999933,1.7164835164835166,0.11604395604395604,3.3
2.5832012359969667,1.7164835164835166,0.11604395604395604,3.3
2.587618745994405,1.7164835164835166,0.11604395604395604,3.3
2.588497157994425,1.7164835164835166,0.11604395604395604,3.3
2.5909376429990516,1.7164835164835166,0.11604395604395604,3.3
2.5962141419950058,1.7164835164835166,0.11604395604395604,3.3
2.5995860469993204,1.7164835164835166,0.11604395604395604,3.3
2.599808546998247,1.7164835164835166,0.11604395604395604,3.3
2.605128160001186,1.7164835164835166,0.11604395604395604,3.3
2.6073887609964004,1.7164835164835166,0.11604395604395604,3.3
2.6076501269999426,1.7164835164835166,0.11604395604395604,3.3
2.6129500239985646,1.1273992673992674,0.04996336996336996,2.5005860805860802
2.6152345679947757,1.1273992673992674,0.04996336996336996,2.5005860805860802
2.616055193997454,1.1273992673992674,0.04996336996336996,2.5005860805860802
2.6176510009972844,1.1273992673992674,0.04996336996336996,2.5005860805860802
2.6213697719940683,1.1273992673992674,0.04996336996336996,2.5005860805860802
2.621538930994575,1.1273992673992674,0.04996336996336996,2.5005860805860802
2.6266535809991183,1.1273992673992674,0.04996336996336996,2.5005860805860802
2.6302925989948562,1.1273992673992674,0.04996336996336996,2.5005860805860802
2.6355220129989902,0.6873992673992674,0.11282051282051282,2.5432967032967033
2.638516222999897,0.6873992673992674,0.11282051282051282,2.5432967032967033
2.6408396779952454,0.6873992673992674,0.11282051282051282,2.5432967032967033
2.6410165679990314,0.6873992673992674,0.11282051282051282,2.5432967032967033
2.6462315399985528,1.3804395604395605,0.2224175824175824,2.606153846153846
2.649307747997227,1.3804395604395605,0.2224175824175824,2.606153846153846
2.651610861001245,1.3804395604395605,0.2224175824175824,2.606153846153846
2.6518336959998123,1.3804395604395605,0.2224175824175824,2.606153846153846
2.656364999995276,1.3804395604395605,0.2224175824175824,2.606153846153846
2.6579071359956288,0.2063003663003663,0.07816849816849816,0.4859340659340659
2.6624442169995746,0.2063003663003663,0.07816849816849816,0.4859340659340659
2.6632521399951656,0.2063003663003663,0.07816849816849816,0.4859340659340659
2.6654758579970803,0.2063003663003663,0.07816849816849816,0.4859340659340659
2.665703736995056,0.2063003663003663,0.07816849816849816,0.4859340659340659
2.671060688997386,0.2063003663003663,0.07816849816849816,0.4859340659340659
2.6741978689969983,0.9904029304029303,0.2328937728937729,2.403076923076923
2.675083383997844,0.0,0.3449084249084249,0.6414652014652015
2.6766916579945246,0.0,0.3449084249084249,0.6414652014652015
2.6810574599949177,0.0,0.3449084249084249,0.6414652014652015
2.6820838209969224,1.5448351648351648,0.963003663003663,2.929304029304029
2.683716134997667,1.5448351648351648,0.963003663003663,2.929304029304029
2.688288820994785,1.5448351648351648,0.963003663003663,2.929304029304029
2.688453845999902,1.5448351648351648,0.963003663003663,2.929304029304029
2.692916576001153,1.5448351648351648,0.963003663003663,2.929304029304029
2.6937512069998775,1.5448351648351648,0.963003663003663,2.929304029304029
2.69534301499516,1.5448351648351648,0.963003663003663,2.929304029304029
2.6997379309977987,1.5448351648351648,0.963003663003663,2.929304029304029
2.700576925999485,1.5448351648351648,0.963003663003663,2.929304029304029
2.7021864769994863,1.5448351648351648,0.963003663003663,2.929304029304029
2.7078848089950043,1.5448351648351648,0.963003663003663,2.929304029304029
2.715129302996502,1.5448351648351648,0.963003663003663,2.929304029304029
2.719677679997403,1.5448351648351648,0.963003663003663,2.929304029304029
2.7199911889983923,1.5448351648351648,0.963003663003663,2.929304029304029
2.724564698000904,1.5448351648351648,0.963003663003663,2.929304029304029
2.7254327579939854,1.5448351648351648,0.963003663003663,2.929304029304029
2.726989429000241,1.5448351648351648,0.963003663003663,2.929304029304029
2.7306977810003445,1.5448351648351648,0.963003663003663,2.929304029304029
2.730834573994798,1.5448351648351648,0.963003663003663,2.929304029304029
2.7357862329954514,1.5448351648351648,0.963003663003663,2.929304029304029
2.741062738998153,1.5448351648351648,0.963003663003663,2.929304029304029
2.7427588619975722,1.5448351648351648,0.963003663003663,2.929304029304029
2.7464870839976356,1.5448351648351648,0.963003663003663,2.929304029304029
2.751728020994051,1.5448351648351648,0.963003663003663,2.929304029304029
2.7548099650011864,1.5448351648351648,0.963003663003663,2.929304029304029
2.756483801997092,1.5448351648351648,0.963003663003663,2.929304029304029
2.7602902009966783,0.083003663003663,0.11765567765567764,0.2063003663003663
2.764772274000279,0.083003663003663,0.11765567765567764,0.2063003663003663
2.765687720995629,0.083003663003663,0.11765567765567764,0.2063003663003663
2.767242196998268,0.083003663003663,0.11765567765567764,0.2063003663003663
2.771683654995286,0.083003663003663,0.11765567765567764,0.2063003663003663
2.7725272979951114,0.083003663003663,0.11765567765567764,0.2063003663003663
2.774173993995646,0.007252747252747252,0.08139194139194139,0.7857142857142856
2.7779045309944195,0.007252747252747252,0.08139194139194139,0.7857142857142856
2.7833353559981333,0.007252747252747252,0.08139194139194139,0.7857142857142856
2.7865622339959373,0.8517948717948718,0.18857142857142856,0.381978021978022
2.7868202079989715,0.8517948717948718,0.18857142857142856,0.381978021978022
2.7935521969993715,1.1556043956043955,0.2216117216117216,1.8526739926739926
2.7980026449949946,1.1556043956043955,0.2216117216117216,1.8526739926739926
2.7988775779958814,1.1556043956043955,0.2216117216117216,1.8526739926739926
2.800437809994037,1.1556043956043955,0.2216117216117216,1.8526739926739926
2.8049055299998145,1.1556043956043955,0.2216117216117216,1.8526739926739926
2.80525386500085,1.1556043956043955,0.2216117216117216,1.8526739926739926
2.8098402979958337,1.1556043956043955,0.2216117216117216,1.8526739926739926
2.810107667995908,1.1556043956043955,0.2216117216117216,1.8526739926739926
2.8154485729974112,1.1556043956043955,0.2216117216117216,1.8526739926739926
2.817770585999824,1.1556043956043955,0.2216117216117216,1.8526739926739926
2.818004453998583,1.1556043956043955,0.2216117216117216,1.8526739926739926
2.8225683540003956,2.0396336996336997,0.6608058608058608,3.2758241758241757
2.822851819997595,2.0396336996336997,0.6608058608058608,3.2758241758241757
2.8280222289977246,2.0396336996336997,0.6608058608058608,3.2758241758241757
2.831130264996318,0.9307692307692307,0.02095238095238095,1.7857875457875456
2.8335176350010443,0.4738461538461538,0.33604395604395604,1.9058608058608055
2.8337390829983633,0.051575091575091575,0.2836630036630036,0.3884249084249084
2.839379287994234,0.051575091575091575,0.2836630036630036,0.3884249084249084
2.8396567550007603,0.051575091575091575,0.2836630036630036,0.3884249084249084
2.844749871001113,0.051575091575091575,0.2836630036630036,0.3884249084249084
2.848803635999502,0.051575091575091575,0.2836630036630036,0.3884249084249084
2.8530331820002175,0.051575091575091575,0.2836630036630036,0.3884249084249084
2.8560768149982323,0.051575091575091575,0.2836630036630036,0.3884249084249084
2.858036974001152,0.051575091575091575,0.2836630036630036,0.3884249084249084
2.859866252998472,0.051575091575091575,0.2836630036630036,0.3884249084249084
2.8635488619984244,0.051575091575091575,0.2836630036630036,0.3884249084249084
2.8694277699978556,0.051575091575091575,0.2836630036630036,0.3884249084249084
2.8789547569977003,0.051575091575091575,0.2836630036630036,0.3884249084249084
2.8829589870001655,0.051575091575091575,0.2836630036630036,0.3884249084249084
2.8868383199951495,0.051575091575091575,0.2836630036630036,0.3884249084249084
2.8937180239954614,0.051575091575091575,0.2836630036630036,0.3884249084249084
2.897789611000917,0.051575091575091575,0.2836630036630036,0.3884249084249084
2.901560015998257,1.2337728937728938,0.33684981684981685,0.6680586080586081
2.909074233000865,1.8172161172161172,0.6608058608058608,2.021904761904762
2.914670178994129,1.2466666666666666,0.06446886446886446,1.6592673992673992
2.9148853509977926,0.0547985347985348,0.08703296703296703,0.5939194139194138
2.9251969429969904,0.0547985347985348,0.08703296703296703,0.5939194139194138
2.931656123000721,2.3297435897435896,0.40776556776556777,3.3
2.935517815996718,2.3297435897435896,0.40776556776556777,3.3
2.941937153998879,2.3297435897435896,0.40776556776556777,3.3
2.9450784899963764,2.3297435897435896,0.40776556776556777,3.3
2.9460166029966786,2.3297435897435896,0.40776556776556777,3.3
2.9469532209986937,2.3297435897435896,0.40776556776556777,3.3
2.9485592979981448,2.3297435897435896,0.40776556776556777,3.3
2.95315643199865,2.3297435897435896,0.40776556776556777,3.3
2.953304222995939,1.1596336996336996,0.07816849816849816,2.4054945054945054
2.9603263289973256,1.1596336996336996,0.07816849816849816,2.4054945054945054
2.9641012599968235,1.1596336996336996,0.07816849816849816,2.4054945054945054
2.9694370419965708,1.1596336996336996,0.07816849816849816,2.4054945054945054
2.9728462229977595,1.1596336996336996,0.07816849816849816,2.4054945054945054
2.9731992689994513,1.1596336996336996,0.07816849816849816,2.4054945054945054
2.9807116459996905,1.1596336996336996,0.07816849816849816,2.4054945054945054
2.986647584999446,1.1717216117216116,0.0419047619047619,3.1944322344322345
2.993166795000434,1.2756776556776557,0.016117216117216115,1.4650549450549448
2.9962701330005075,1.6673260073260072,0.7583150183150182,1.4295970695970697
2.9987378469959367,1.6673260073260072,0.7583150183150182,1.4295970695970697
2.998902104998706,1.6673260073260072,0.7583150183150182,1.4295970695970697
3.0034844719994,1.6673260073260072,0.7583150183150182,1.4295970695970697
3.00370424099674,1.6673260073260072,0.7583150183150182,1.4295970695970697
3.0114918729959754,0.8614652014652014,0.10717948717948718,0.27399267399267396
3.0161169880011585,0.8614652014652014,0.10717948717948718,0.27399267399267396
3.0163829480006825,0.8614652014652014,0.10717948717948718,0.27399267399267396
3.0225975590001326,0.8614652014652014,0.10717948717948718,0.27399267399267396
3.0275286709947977,2.5167032967032963,0.3658608058608058,3.2089377289377286
3.03055309499905,1.3336996336996336,0.07575091575091575,0.1821245421245421
3.0336549849962466,1.3336996336996336,0.07575091575091575,0.1821245421245421
3.035315142995387,1.5754578754578754,0.7671794871794871,1.5327472527472528
3.0406210949950037,1.5754578754578754,0.7671794871794871,1.5327472527472528
3.042949046001013,1.5585347985347984,0.08058608058608058,3.2629304029304027
3.0430833139980678,1.5585347985347984,0.08058608058608058,3.2629304029304027
3.0485104139952455,1.5585347985347984,0.08058608058608058,3.2629304029304027
3.0508737899945118,1.5585347985347984,0.08058608058608058,3.2629304029304027
3.058377023997309,1.5585347985347984,0.08058608058608058,3.2629304029304027
3.0640882779989624,1.5585347985347984,0.08058608058608058,3.2629304029304027
3.06830197799718,2.0090109890109886,0.1386080586080586,3.3
3.0727098689967534,2.0090109890109886,0.1386080586080586,3.3
3.072880367995822,2.0090109890109886,0.1386080586080586,3.3
3.082193948997883,2.0090109890109886,0.1386080586080586,3.3
3.08866472599766,2.6424175824175826,0.32476190476190475,2.4820512820512817
3.0929588379949564,1.8446153846153845,0.0846153846153846,1.9155311355311355
3.093139849996078,0.17164835164835165,0.47142857142857136,0.7736263736263735
3.0990859269950306,0.17164835164835165,0.47142857142857136,0.7736263736263735
3.1053617629950168,0.17164835164835165,0.47142857142857136,0.7736263736263735
3.1106341759950737,0.17164835164835165,0.47142857142857136,0.7736263736263735
3.112232352999854,0.17164835164835165,0.47142857142857136,0.7736263736263735
3.1166996209940407,0.17164835164835165,0.47142857142857136,0.7736263736263735
3.1175664760012296,0.1095970695970696,0.307032967032967,0.14908424908424908
3.1203006169962464,0.1095970695970696,0.307032967032967,0.14908424908424908
3.1273523869967903,0.1095970695970696,0.307032967032967,0.14908424908424908
3.1324451479958952,0.1095970695970696,0.307032967032967,0.14908424908424908
3.1362277359949076,0.1095970695970696,0.307032967032967,0.14908424908424908
3.146013788995333,0.1095970695970696,0.307032967032967,0.14908424908424908
3.1534988729981706,0.1095970695970696,0.307032967032967,0.14908424908424908
3.1592626630008454,0.1095970695970696,0.307032967032967,0.14908424908424908
3.1685554559953744,0.1095970695970696,0.307032967032967,0.14908424908424908
3.17879919999541,0.1095970695970696,0.307032967032967,0.14908424908424908
3.186155470997619,2.1790476190476187,0.5802197802197803,3.258095238095238
3.1928062419974594,2.1790476190476187,0.5802197802197803,3.258095238095238
3.1984800649952376,2.1790476190476187,0.5802197802197803,3.258095238095238
3.209113459997752,2.1790476190476187,0.5802197802197803,3.258095238095238
3.216759249997267,2.1790476190476187,0.5802197802197803,3.258095238095238
3.2227505699993344,1.2942124542124542,0.24175824175824176,0.8252014652014652
3.2277259999973467,1.2942124542124542,0.24175824175824176,0.8252014652014652
3.231465325996396,1.2942124542124542,0.24175824175824176,0.8252014652014652
3.2392210600010003,1.2942124542124542,0.24175824175824176,0.8252014652014652
3.245289647995378,1.2942124542124542,0.24175824175824176,0.8252014652014652
3.249050203994557,1.2942124542124542,0.24175824175824176,0.8252014652014652
3.254791531995579,1.2942124542124542,0.24175824175824176,0.8252014652014652
3.2618625280010747,0.0,0.5657142857142857,0.523003663003663
3.2663721829958376,0.0,0.5657142857142857,0.523003663003663
3.2678768209952977,0.0,0.5657142857142857,0.523003663003663
3.273739222997392,0.0,0.5657142857142857,0.523003663003663
3.2832244069941225,0.0,0.5657142857142857,0.523003663003663
3.292356227997516,2.336996336996337,0.4383882783882784,2.805201465201465
3.2964850130010745,2.336996336996337,0.4383882783882784,2.805201465201465
3.298934107995592,2.336996336996337,0.4383882783882784,2.805201465201465
3.299070042994572,2.336996336996337,0.4383882783882784,2.805201465201465
3.309473197994521,2.336996336996337,0.4383882783882784,2.805201465201465
3.317762462000246,2.336996336996337,0.4383882783882784,2.805201465201465
3.3268594319961267,1.7027838827838828,0.9694505494505494,1.3304761904761904
3.333697738999035,0.9114285714285715,0.047545787545787546,1.647985347985348
3.339482623996446,0.9114285714285715,0.047545787545787546,1.647985347985348
3.3485772869971697,0.9114285714285715,0.047545787545787546,1.647985347985348
3.352452307997737,0.9114285714285715,0.047545787545787546,1.647985347985348
3.3595420489946264,1.299047619047619,0.25545787545787546,2.4868864468864467
3.3626948859964614,1.299047619047619,0.25545787545787546,2.4868864468864467
3.365233675998752,1.299047619047619,0.25545787545787546,2.4868864468864467
3.373582792999514,1.299047619047619,0.25545787545787546,2.4868864468864467
3.3781564819946652,1.299047619047619,0.25545787545787546,2.4868864468864467
3.3783657399981166,1.299047619047619,0.25545787545787546,2.4868864468864467
3.3829214699944714,1.299047619047619,0.25545787545787546,2.4868864468864467
3.3832532099986565,1.299047619047619,0.25545787545787546,2.4868864468864467
3.390950843997416,1.299047619047619,0.25545787545787546,2.4868864468864467
3.3943832219956676,1.299047619047619,0.25545787545787546,2.4868864468864467
3.3959840050010826,1.4723076923076923,1.2337728937728938,1.5665934065934064
3.3991411839961074,1.4723076923076923,1.2337728937728938,1.5665934065934064
3.401531106996117,2.6923809523809523,0.5874725274725274,2.1355311355311355
3.4017540929999086,2.6923809523809523,0.5874725274725274,2.1355311355311355
3.408610193997447,2.6923809523809523,0.5874725274725274,2.1355311355311355
3.415062702995783,2.6923809523809523,0.5874725274725274,2.1355311355311355
3.420944632998726,2.6923809523809523,0.5874725274725274,2.1355311355311355
3.4292820819973713,0.18454212454212454,0.419047619047619,0.41340659340659336
3.4338048259960487,0.18454212454212454,0.419047619047619,0.41340659340659336
3.4339492299986887,0.18454212454212454,0.419047619047619,0.41340659340659336
3.4428775400010636,0.18454212454212454,0.419047619047619,0.41340659340659336
3.44917805899604,0.083003663003663,0.469010989010989,0.23853479853479853
3.455163601000095,1.3949450549450548,0.3223443223443223,0.2482051282051282
3.462672333000228,1.39010989010989,1.0580952380952382,1.7930402930402929
3.466043415995955,1.39010989010989,1.0580952380952382,1.7930402930402929
3.4663113599963253,1.39010989010989,1.0580952380952382,1.7930402930402929
3.471625617996324,1.39010989010989,1.0580952380952382,1.7930402930402929
3.475865729000361,1.099194139194139,0.10153846153846154,2.137142857142857
3.476064516995393,0.1386080586080586,0.5205860805860806,0.6503296703296703
3.481190157996025,0.1386080586080586,0.5205860805860806,0.6503296703296703
3.4851389229952474,0.1386080586080586,0.5205860805860806,0.6503296703296703
3.4914398649998475,0.1386080586080586,0.5205860805860806,0.6503296703296703
3.496038924000459,0.1386080586080586,0.5205860805860806,0.6503296703296703
3.5055880789950606,0.1386080586080586,0.5205860805860806,0.6503296703296703
3.5137460740006645,1.88007326007326,0.1797069597069597,3.187179487179487
3.5212811949968454,1.88007326007326,0.1797069597069597,3.187179487179487
3.5265296369980206,1.9703296703296702,0.40534798534798533,0.850989010989011
3.526825781998923,1.1765567765567766,0.016117216117216115,0.5584615384615385
3.5324052259966265,1.1765567765567766,0.016117216117216115,0.5584615384615385
3.5340846289982437,0.8534065934065934,0.1643956043956044,2.013846153846154
3.539256611999008,0.8534065934065934,0.1643956043956044,2.013846153846154
3.541601933997299,0.8534065934065934,0.1643956043956044,2.013846153846154
3.541760059000808,0.8534065934065934,0.1643956043956044,2.013846153846154
3.546532838998246,0.8534065934065934,0.1643956043956044,2.013846153846154
3.5520117729975027,0.8534065934065934,0.1643956043956044,2.013846153846154
3.553680197997892,0.9871794871794871,0.12893772893772892,2.033186813186813
3.5612261569986003,0.9871794871794871,0.12893772893772892,2.033186813186813
3.566933775997313,0.016117216117216115,0.17487179487179486,0.3432967032967033
3.577080893999664,0.016117216117216115,0.17487179487179486,0.3432967032967033
3.582944713998586,0.016117216117216115,0.17487179487179486,0.3432967032967033
3.5929536519979592,0.016117216117216115,0.17487179487179486,0.3432967032967033
3.5992851679984597,0.016117216117216115,0.17487179487179486,0.3432967032967033
3.6062821829982568,0.016117216117216115,0.17487179487179486,0.3432967032967033
3.6109311089967377,0.6430769230769231,0.3167032967032967,1.5295238095238095
3.6110841509944294,0.6430769230769231,0.3167032967032967,1.5295238095238095
3.617585309999413,0.6430769230769231,0.3167032967032967,1.5295238095238095
3.6252523879957153,0.6430769230769231,0.3167032967032967,1.5295238095238095
3.6300348279983154,0.6430769230769231,0.3167032967032967,1.5295238095238095
3.635645141999703,0.6430769230769231,0.3167032967032967,1.5295238095238095
3.6359902639960637,0.6430769230769231,0.3167032967032967,1.5295238095238095
3.6423210139982984,0.6430769230769231,0.3167032967032967,1.5295238095238095
3.6458284350010217,0.6430769230769231,0.3167032967032967,1.5295238095238095
3.6459811469976557,0.6430769230769231,0.3167032967032967,1.5295238095238095
3.6518317719965125,0.6430769230769231,0.3167032967032967,1.5295238095238095
3.662343244999647,0.6430769230769231,0.3167032967032967,1.5295238095238095
3.6668222849984886,0.6430769230769231,0.3167032967032967,1.5295238095238095
3.667721239995444,0.6430769230769231,0.3167032967032967,1.5295238095238095
3.6693291339979623,0.6430769230769231,0.3167032967032967,1.5295238095238095
3.67617484999937,0.6430769230769231,0.3167032967032967,1.5295238095238095
3.680174213994178,0.6430769230769231,0.3167032967032967,1.5295238095238095
3.683277320997149,2.049304029304029,0.26190476190476186,2.946227106227106
3.68623235499399,2.049304029304029,0.26190476190476186,2.946227106227106
3.6894946100001107,2.049304029304029,0.26190476190476186,2.946227106227106
3.6896931789960945,2.049304029304029,0.26190476190476186,2.946227106227106
3.6948401479967288,2.049304029304029,0.26190476190476186,2.946227106227106
3.697857945000578,0.29655677655677654,0.28930402930402926,0.2063003663003663
3.7002206279939855,0.29655677655677654,0.28930402930402926,0.2063003663003663
3.7004852409954765,0.29655677655677654,0.28930402930402926,0.2063003663003663
3.70895908500097,0.29655677655677654,0.28930402930402926,0.2063003663003663
3.714130082997144,0.29655677655677654,0.28930402930402926,0.2063003663003663
3.7171678869999596,0.9235164835164835,0.5584615384615385,1.2394139194139193
3.7202126549964305,0.9235164835164835,0.5584615384615385,1.2394139194139193
3.723150125995744,0.9235164835164835,0.5584615384615385,1.2394139194139193
3.726373370998772,0.9235164835164835,0.5584615384615385,1.2394139194139193
3.726629333999881,0.9235164835164835,0.5584615384615385,1.2394139194139193
3.7328344239940634,0.9235164835164835,0.5584615384615385,1.2394139194139193
3.7360743649987853,0.9235164835164835,0.5584615384615385,1.2394139194139193
3.7391501999954926,0.9235164835164835,0.5584615384615385,1.2394139194139193
3.7408606819954002,0.9235164835164835,0.5584615384615385,1.2394139194139193
3.7436781369979144,1.1040293040293039,0.1668131868131868,2.6609523809523807
3.7474906729985378,1.1040293040293039,0.1668131868131868,2.6609523809523807
3.7519547219999367,1.1040293040293039,0.1668131868131868,2.6609523809523807
3.7528461939946283,1.282930402930403,0.0273992673992674,2.121025641025641
3.7540940760009107,1.282930402930403,0.0273992673992674,2.121025641025641
3.7548008339945227,1.282930402930403,0.0273992673992674,2.121025641025641
3.757850576999772,1.282930402930403,0.0273992673992674,2.121025641025641
3.759137094995822,1.282930402930403,0.0273992673992674,2.121025641025641
3.764656865998404,1.282930402930403,0.0273992673992674,2.121025641025641
3.76624504999927,1.282930402930403,0.0273992673992674,2.121025641025641
3.7703854049977963,1.282930402930403,0.0273992673992674,2.121025641025641
3.774440611996397,1.282930402930403,0.0273992673992674,2.121025641025641
3.7764466169974185,1.282930402930403,0.0273992673992674,2.121025641025641
3.77809339799569,1.282930402930403,0.0273992673992674,2.121025641025641
3.781998755999666,1.282930402930403,0.0273992673992674,2.121025641025641
3.7864854599974933,1.282930402930403,0.0273992673992674,2.121025641025641
3.7880529399990337,1.282930402930403,0.0273992673992674,2.121025641025641
3.794190421998792,1.282930402930403,0.0273992673992674,2.121025641025641
3.7980581739975605,1.282930402930403,0.0273992673992674,2.121025641025641
3.802656798994576,1.282930402930403,0.0273992673992674,2.121025641025641
3.802916536995326,1.282930402930403,0.0273992673992674,2.121025641025641
3.8111211039940827,1.282930402930403,0.0273992673992674,2.121025641025641
3.816378397998051,1.4787545787545788,0.4593406593406593,0.2957509157509157
3.8202618549985345,1.4787545787545788,0.4593406593406593,0.2957509157509157
3.826409066998167,1.4787545787545788,0.4593406593406593,0.2957509157509157
3.8298324399947887,1.4787545787545788,0.4593406593406593,0.2957509157509157
3.8300447840010747,1.4787545787545788,0.4593406593406593,0.2957509157509157
3.835409321000043,1.4787545787545788,0.4593406593406593,0.2957509157509157
3.8371585269997013,1.4787545787545788,0.4593406593406593,0.2957509157509157
3.8427424049950787,1.4787545787545788,0.4593406593406593,0.2957509157509157
3.842967188997136,1.4787545787545788,0.4593406593406593,0.2957509157509157
3.8475545170003898,1.4787545787545788,0.4593406593406593,0.2957509157509157
3.848465135000879,1.4787545787545788,0.4593406593406593,0.2957509157509157
3.850671064996277,1.083076923076923,0.2087179487179487,1.8164102564102564
3.8509053439993295,1.083076923076923,0.2087179487179487,1.8164102564102564
3.8587047350010835,1.083076923076923,0.2087179487179487,1.8164102564102564
3.8625491189959575,1.2821245421245422,1.00007326007326,1.2515018315018314
3.8670436499960488,1.2821245421245422,1.00007326007326,1.2515018315018314
3.8673288179998053,1.2821245421245422,1.00007326007326,1.2515018315018314
3.873213835999195,1.0758241758241758,0.1104029304029304,1.5375824175824175
3.873429220999242,1.0758241758241758,0.1104029304029304,1.5375824175824175
3.8779947069997434,1.0758241758241758,0.1104029304029304,1.5375824175824175
3.883279951995064,1.0758241758241758,0.1104029304029304,1.5375824175824175
3.886347460000252,1.0758241758241758,0.1104029304029304,1.5375824175824175
3.890588440001011,1.0758241758241758,0.1104029304029304,1.5375824175824175
3.890878811995208,1.0758241758241758,0.1104029304029304,1.5375824175824175
3.8962705669982824,0.834065934065934,0.7736263736263735,2.1597069597069596
3.8979031130002113,0.1652014652014652,0.12571428571428572,0.581025641025641
3.901667753998481,0.1652014652014652,0.12571428571428572,0.581025641025641
3.9101119979968644,0.1652014652014652,0.12571428571428572,0.581025641025641
3.915372594994551,0.1652014652014652,0.12571428571428572,0.581025641025641
3.9177880139977788,0.1652014652014652,0.12571428571428572,0.581025641025641
3.91792085099587,0.1652014652014652,0.12571428571428572,0.581025641025641
3.9238938109992887,0.1652014652014652,0.12571428571428572,0.581025641025641
3.9328926960006356,1.4803663003663003,0.3304029304029304,0.20065934065934066
3.941231325996341,1.5657875457875456,0.2635164835164835,1.9050549450549448
3.945193643994571,2.581172161172161,0.5729670329670329,1.8937728937728935
3.949762895994354,0.9178754578754579,0.46014652014652013,1.129010989010989
3.9500320160004776,0.9178754578754579,0.46014652014652013,1.129010989010989
3.956800836000184,0.9178754578754579,0.46014652014652013,1.129010989010989
3.9624596879948513,0.0,0.5536263736263736,0.506080586080586
3.9677614299944253,1.722930402930403,1.145128205128205,1.9292307692307693
3.97487361599633,1.722930402930403,1.145128205128205,1.9292307692307693
3.979653457994573,0.5681318681318681,0.2498168498168498,0.8654945054945055
3.983427456994832,2.6649816849816848,0.2377289377289377,3.3
3.9896455470006913,1.4860073260073259,0.26996336996336995,0.190989010989011
3.9930385389961884,1.4860073260073259,0.26996336996336995,0.190989010989011
3.993410616996698,1.4860073260073259,0.26996336996336995,0.190989010989011
3.9980435609977576,1.4860073260073259,0.26996336996336995,0.190989010989011
3.998300740000559,1.4860073260073259,0.26996336996336995,0.190989010989011
4.0046492670007865,1.4860073260073259,0.26996336996336995,0.190989010989011
4.010296642998583,1.4860073260073259,0.26996336996336995,0.190989010989011
4.016357631000574,1.1322344322344322,0.1555311355311355,2.5868131868131865
4.020242678998329,1.1322344322344322,0.1555311355311355,2.5868131868131865
4.029032374994131,1.1322344322344322,0.1555311355311355,2.5868131868131865
4.0348711569968145,1.1322344322344322,0.1555311355311355,2.5868131868131865
4.042242372001056,1.1322344322344322,0.1555311355311355,2.5868131868131865
4.046614262995718,2.3587545787545787,0.32073260073260074,3.3
4.047524834997603,2.3587545787545787,0.32073260073260074,3.3
4.0491359349980485,2.3587545787545787,0.32073260073260074,3.3
4.05292709999776,2.3587545787545787,0.32073260073260074,3.3
4.060341794000124,2.3587545787545787,0.32073260073260074,3.3
4.06442153199896,0.10153846153846154,0.18857142857142856,0.06849816849816849
4.06836449799448,0.10153846153846154,0.18857142857142856,0.06849816849816849
4.074357142999361,1.7519413919413918,0.2248351648351648,1.4569963369963368
4.077569383996888,0.0,0.18534798534798536,0.42065934065934063
4.079165275994455,0.1386080586080586,0.09670329670329669,0.07978021978021978
4.08291652299522,0.1386080586080586,0.09670329670329669,0.07978021978021978
4.089456634996168,0.1386080586080586,0.09670329670329669,0.07978021978021978
4.0934468589985045,1.303076923076923,0.1676190476190476,1.1604395604395605
4.096495376994426,1.303076923076923,0.1676190476190476,1.1604395604395605
4.0995872049970785,0.23934065934065935,0.27802197802197803,0.08622710622710622
4.100796241000353,0.23934065934065935,0.27802197802197803,0.08622710622710622
4.100957121998363,0.23934065934065935,0.27802197802197803,0.08622710622710622
4.107907500998408,0.23934065934065935,0.27802197802197803,0.08622710622710622
4.112591016993974,0.23934065934065935,0.27802197802197803,0.08622710622710622
4.112703509999847,0.23934065934065935,0.27802197802197803,0.08622710622710622
4.1228942919988185,0.23934065934065935,0.27802197802197803,0.08622710622710622
4.129730164000648,0.23934065934065935,0.27802197802197803,0.08622710622710622
4.134240907995263,0.23934065934065935,0.27802197802197803,0.08622710622710622
4.134562783998263,0.23934065934065935,0.27802197802197803,0.08622710622710622
4.142745031000231,0.23934065934065935,0.27802197802197803,0.08622710622710622
4.146744146994024,2.8229304029304028,0.4964102564102564,1.7503296703296702
4.151957352994941,1.4884249084249084,0.25787545787545785,0.8864468864468864
4.158575131994439,1.4884249084249084,0.25787545787545785,0.8864468864468864
4.163888489994861,0.0,0.40534798534798533,0.06205128205128205
4.164188267001009,0.8912820512820512,0.5246153846153846,1.3361172161172161
4.173557684996922,0.8912820512820512,0.5246153846153846,1.3361172161172161
4.178140336996876,0.8912820512820512,0.5246153846153846,1.3361172161172161
4.178391786001157,2.332967032967033,0.4835164835164835,0.9009523809523808
4.1842604049961665,2.332967032967033,0.4835164835164835,0.9009523809523808
4.192349541001022,2.332967032967033,0.4835164835164835,0.9009523809523808
4.196168860995385,2.332967032967033,0.4835164835164835,0.9009523809523808
4.200741210996057,0.016923076923076923,0.03304029304029304,0.14747252747252745
4.200886469996476,0.016923076923076923,0.03304029304029304,0.14747252747252745
4.20871478299523,0.016923076923076923,0.03304029304029304,0.14747252747252745
4.212660193996271,1.5867399267399267,0.37150183150183147,0.24578754578754577
4.217107987999043,1.4078388278388276,0.13296703296703297,2.4780219780219777
4.218736600996635,0.007252747252747252,0.26593406593406593,0.34813186813186814
4.224767005995091,0.007252747252747252,0.26593406593406593,0.34813186813186814
4.227880992999417,0.007252747252747252,0.26593406593406593,0.34813186813186814
4.230212381000456,0.9138461538461539,0.26109890109890105,1.7164835164835166
4.230500798999856,0.9138461538461539,0.26109890109890105,1.7164835164835166
4.2350793489968055,0.9138461538461539,0.26109890109890105,1.7164835164835166
4.235393938994093,0.9138461538461539,0.26109890109890105,1.7164835164835166
4.241211640000984,0.9138461538461539,0.26109890109890105,1.7164835164835166
4.24667869899713,2.848717948717949,0.4851282051282051,3.103369963369963
4.247548269995605,2.848717948717949,0.4851282051282051,3.103369963369963
4.249536900999374,2.848717948717949,0.4851282051282051,3.103369963369963
4.251016226000502,1.7301831501831502,0.190989010989011,2.5505494505494504
4.260480046999874,1.813992673992674,0.14908424908424908,2.6706227106227107
4.2696889609942446,1.813992673992674,0.14908424908424908,2.6706227106227107
4.278754285995092,1.813992673992674,0.14908424908424908,2.6706227106227107
4.284234950995597,1.813992673992674,0.14908424908424908,2.6706227106227107
4.2855086579947965,1.813992673992674,0.14908424908424908,2.6706227106227107
4.285770397997112,1.813992673992674,0.14908424908424908,2.6706227106227107
4.293584858998656,1.813992673992674,0.14908424908424908,2.6706227106227107
4.29821048300073,1.813992673992674,0.14908424908424908,2.6706227106227107
4.299084153994045,1.813992673992674,0.14908424908424908,2.6706227106227107
4.300824666999688,3.116263736263736,0.6213186813186813,2.4820512820512817
4.304291804997774,3.116263736263736,0.6213186813186813,2.4820512820512817
4.30466219799564,3.116263736263736,0.6213186813186813,2.4820512820512817
4.311724974999379,3.116263736263736,0.6213186813186813,2.4820512820512817
4.315503984995303,1.7172893772893774,0.3578021978021978,1.4215384615384616
4.3222132609953405,1.7172893772893774,0.3578021978021978,1.4215384615384616
4.327204205997987,1.7172893772893774,0.3578021978021978,1.4215384615384616
4.330331860001024,1.0516483516483515,0.6084249084249085,1.1628571428571428
4.332705376997183,1.0516483516483515,0.6084249084249085,1.1628571428571428
4.3329496559963445,1.0516483516483515,0.6084249084249085,1.1628571428571428
4.34099006899487,1.0516483516483515,0.6084249084249085,1.1628571428571428
4.344589002997964,1.0516483516483515,0.6084249084249085,1.1628571428571428
4.3447604549946846,0.7647619047619048,0.5036630036630036,1.843003663003663
4.349637774997973,0.7647619047619048,0.5036630036630036,1.843003663003663
4.34973650000029,0.7647619047619048,0.5036630036630036,1.843003663003663
4.356927028995415,1.3643223443223442,0.2111355311355311,1.90021978021978
4.360532401995442,0.0,0.381978021978022,0.1692307692307692
4.366046655995888,0.0,0.381978021978022,0.1692307692307692
4.366956768993987,0.0,0.381978021978022,0.1692307692307692
4.367848557994876,0.0,0.381978021978022,0.1692307692307692
4.370763541999622,0.0,0.381978021978022,0.1692307692307692
4.375434384994151,1.1394871794871795,0.28769230769230764,1.8824908424908422
4.379391404996568,1.1394871794871795,0.28769230769230764,1.8824908424908422
4.3824158319985145,1.1394871794871795,0.28769230769230764,1.8824908424908422
4.385373990000517,1.4924542124542124,0.6761172161172161,2.453846153846154
4.38901553699543,1.4924542124542124,0.6761172161172161,2.453846153846154
4.394956995995017,1.4924542124542124,0.6761172161172161,2.453846153846154
4.399877121999452,1.4924542124542124,0.6761172161172161,2.453846153846154
4.404773949994706,2.748791208791209,0.6245421245421244,0.8751648351648351
4.41159731499647,2.748791208791209,0.6245421245421244,0.8751648351648351
4.41609802399762,2.748791208791209,0.6245421245421244,0.8751648351648351
4.417038462001074,2.748791208791209,0.6245421245421244,0.8751648351648351
4.418037039999035,2.748791208791209,0.6245421245421244,0.8751648351648351
4.41899276899494,2.748791208791209,0.6245421245421244,0.8751648351648351
4.420132761995774,2.8986813186813185,0.5600732600732601,1.49003663003663
4.42188418799924,2.8986813186813185,0.5600732600732601,1.49003663003663
4.4258710899957805,2.8986813186813185,0.5600732600732601,1.49003663003663
4.427590605999285,1.6729670329670328,0.2836630036630036,0.07494505494505493
4.431547697997303,1.6729670329670328,0.2836630036630036,0.07494505494505493
4.435318511998048,1.6729670329670328,0.2836630036630036,0.07494505494505493
4.442628764998517,1.6729670329670328,0.2836630036630036,0.07494505494505493
4.446360654001182,1.6729670329670328,0.2836630036630036,0.07494505494505493
4.446479282996734,1.6729670329670328,0.2836630036630036,0.07494505494505493
4.4519170229978045,1.6729670329670328,0.2836630036630036,0.07494505494505493
4.4538138339994475,0.921098901098901,0.2482051282051282,2.3764835164835163
4.457811460000812,0.0,0.3344322344322344,0.6882051282051282
4.458744108000246,0.0,0.3344322344322344,0.6882051282051282
4.4603893749954295,0.0,0.3344322344322344,0.6882051282051282
4.464158974995371,0.0,0.3344322344322344,0.6882051282051282
4.468856482999399,0.0,0.3344322344322344,0.6882051282051282
4.4689874299947405,0.0,0.3344322344322344,0.6882051282051282
4.476078071995289,0.0,0.3344322344322344,0.6882051282051282
4.479861114996311,0.0,0.3344322344322344,0.6882051282051282
4.485451319000276,3.1968498168498165,0.506080586080586,2.5561904761904763
4.486656098997628,3.1968498168498165,0.506080586080586,2.5561904761904763
4.486785475994111,3.1968498168498165,0.506080586080586,2.5561904761904763
4.493934565995005,1.4739194139194138,0.14505494505494507,1.4030036630036629
4.498587345995475,1.1725274725274726,1.2063736263736262,2.1597069597069596
4.498865361994831,1.1725274725274726,1.2063736263736262,2.1597069597069596
4.504082497995114,1.1725274725274726,1.2063736263736262,2.1597069597069596
4.508789154999249,1.4997069597069597,0.4182417582417582,2.718168498168498
4.5133177940006135,1.6834432234432233,0.25706959706959703,1.6334798534798534
4.513646178995259,1.087106227106227,0.09347985347985348,2.3386080586080586
4.518406047995086,1.087106227106227,0.09347985347985348,2.3386080586080586
4.518572701999801,0.07816849816849816,0.051575091575091575,0.05641025641025641
4.527727884997148,0.07816849816849816,0.051575091575091575,0.05641025641025641
4.531781256999238,0.7905494505494506,0.47142857142857136,0.8284249084249083
4.535079623994534,0.7905494505494506,0.47142857142857136,0.8284249084249083
4.536506509000901,0.0,0.16036630036630037,0.26593406593406593
4.545025252999039,0.0,0.16036630036630037,0.26593406593406593
4.550974353995116,3.1904029304029304,0.5471794871794872,2.763296703296703
4.5603749549991335,3.1904029304029304,0.5471794871794872,2.763296703296703
4.566028856999765,3.1904029304029304,0.5471794871794872,2.763296703296703
4.567671874996449,1.2684249084249084,0.8235897435897436,1.5005128205128204
4.5748495329971774,1.2684249084249084,0.8235897435897436,1.5005128205128204
4.5779896109961555,1.2684249084249084,0.8235897435897436,1.5005128205128204
4.580169021995971,1.2684249084249084,0.8235897435897436,1.5005128205128204
4.580501609998464,1.2684249084249084,0.8235897435897436,1.5005128205128204
4.587700948999554,1.2684249084249084,0.8235897435897436,1.5005128205128204
4.593250366997381,1.2684249084249084,0.8235897435897436,1.5005128205128204
4.6017708590006805,1.2684249084249084,0.8235897435897436,1.5005128205128204
4.6074304719950305,0.14747252747252745,0.09670329670329669,0.12007326007326008
4.607583141994837,1.5754578754578754,0.3739194139194139,0.17084249084249084
4.615967207995709,1.5754578754578754,0.3739194139194139,0.17084249084249084
4.622557034999772,1.5754578754578754,0.3739194139194139,0.17084249084249084
4.6259860450009,1.5754578754578754,0.3739194139194139,0.17084249084249084
4.626248168999155,1.5754578754578754,0.3739194139194139,0.17084249084249084
4.6315501049975865,1.5754578754578754,0.3739194139194139,0.17084249084249084
4.6353999489947455,1.5754578754578754,0.3739194139194139,0.17084249084249084
4.640356345000328,0.0701098901098901,0.40776556776556777,0.9694505494505494
4.644552286998078,0.0701098901098901,0.40776556776556777,0.9694505494505494
4.6466366370004835,0.0701098901098901,0.40776556776556777,0.9694505494505494
4.648004738999589,2.2008058608058607,0.27802197802197803,1.124981684981685
4.658802191996074,1.311135531135531,0.17084249084249084,1.4183150183150184
4.6634227269969415,1.311135531135531,0.17084249084249084,1.4183150183150184
4.663769539998611,1.311135531135531,0.17084249084249084,1.4183150183150184
4.668953057996987,1.498095238095238,0.4931868131868131,0.29978021978021974
4.673860741000681,1.498095238095238,0.4931868131868131,0.29978021978021974
4.67995553399669,1.498095238095238,0.4931868131868131,0.29978021978021974
4.6882808309965185,1.498095238095238,0.4931868131868131,0.29978021978021974
4.699292099998274,1.1918681318681317,0.39567765567765567,2.943003663003663
4.699638375001086,1.1918681318681317,0.39567765567765567,2.943003663003663
4.711360754998168,1.1918681318681317,0.39567765567765567,2.943003663003663
4.72228968199488,0.9767032967032967,0.4182417582417582,0.9476923076923076
4.732915228996717,0.9767032967032967,0.4182417582417582,0.9476923076923076
4.742656164999062,0.9767032967032967,0.4182417582417582,0.9476923076923076
4.747472080998705,0.9767032967032967,0.4182417582417582,0.9476923076923076
4.758195678994525,0.9767032967032967,0.4182417582417582,0.9476923076923076
4.760492716995941,0.9767032967032967,0.4182417582417582,0.9476923076923076
4.768227073000162,0.9767032967032967,0.4182417582417582,0.9476923076923076
4.776553677998891,0.9767032967032967,0.4182417582417582,0.9476923076923076
4.781103192995943,1.3264468864468864,0.11604395604395604,2.320879120879121
4.7813790639993385,1.3264468864468864,0.11604395604395604,2.320879120879121
4.786725801997818,1.3264468864468864,0.11604395604395604,2.320879120879121
4.788894416997209,1.3264468864468864,0.11604395604395604,2.320879120879121
4.789165012996818,1.3264468864468864,0.11604395604395604,2.320879120879121
4.794758352996723,1.3264468864468864,0.11604395604395604,2.320879120879121
4.794997070996033,1.3264468864468864,0.11604395604395604,2.320879120879121
4.800304844000493,1.3264468864468864,0.11604395604395604,2.320879120879121
4.803853560995776,1.3264468864468864,0.11604395604395604,2.320879120879121
4.810412339000322,1.3264468864468864,0.11604395604395604,2.320879120879121
4.814595058000123,1.3256410256410256,0.0693040293040293,2.5666666666666664
4.817047472999548,1.3256410256410256,0.0693040293040293,2.5666666666666664
4.817248274994199,1.3256410256410256,0.0693040293040293,2.5666666666666664
4.823765361994447,1.3256410256410256,0.0693040293040293,2.5666666666666664
4.827144114999101,1.3256410256410256,0.0693040293040293,2.5666666666666664
4.82804155699705,1.3256410256410256,0.0693040293040293,2.5666666666666664
4.829024336999282,1.3256410256410256,0.0693040293040293,2.5666666666666664
4.830056626997248,1.3256410256410256,0.0693040293040293,2.5666666666666664
4.8310423319999245,1.3256410256410256,0.0693040293040293,2.5666666666666664
4.8326721400007955,1.3256410256410256,0.0693040293040293,2.5666666666666664
4.836483275001228,0.23853479853479853,0.12249084249084248,0.630989010989011
4.842805909996969,0.10073260073260072,0.2917216117216117,0.1241025641025641
4.846734751998156,0.10073260073260072,0.2917216117216117,0.1241025641025641
4.851361533997988,1.523076923076923,0.07333333333333333,0.26754578754578756
4.851635049999459,1.523076923076923,0.07333333333333333,0.26754578754578756
4.85992609999812,1.523076923076923,0.07333333333333333,0.26754578754578756
4.86642541999754,1.523076923076923,0.07333333333333333,0.26754578754578756
4.872400727996137,2.1065201465201464,0.13941391941391942,3.3
4.876561714998388,2.1065201465201464,0.13941391941391942,3.3
4.878988978998677,2.1065201465201464,0.13941391941391942,3.3
4.888485518997186,2.1065201465201464,0.13941391941391942,3.3
4.897704356000759,2.1065201465201464,0.13941391941391942,3.3
4.902658106999297,0.17406593406593407,0.29816849816849816,0.5286446886446886
4.914565011000377,3.3,0.5931135531135531,2.735091575091575
4.925985975998628,3.3,0.5931135531135531,2.735091575091575
4.935325507998641,3.3,0.5931135531135531,2.735091575091575
4.943041544996959,1.2498901098901098,0.037875457875457874,2.083150183150183
4.949632629999542,0.6237362637362637,0.5391208791208791,1.547252747252747
4.954596322997531,0.6237362637362637,0.5391208791208791,1.547252747252747
4.959251544998551,0.6237362637362637,0.5391208791208791,1.547252747252747
4.965405670998734,0.6237362637362637,0.5391208791208791,1.547252747252747
4.973204444999283,0.6237362637362637,0.5391208791208791,1.547252747252747
4.977001654995547,0.6237362637362637,0.5391208791208791,1.547252747252747
4.981500671994581,0.6237362637362637,0.5391208791208791,1.547252747252747
4.9823937979963375,0.6237362637362637,0.5391208791208791,1.547252747252747
4.984021547999873,0.6237362637362637,0.5391208791208791,1.547252747252747
4.990038186995662,0.6237362637362637,0.5391208791208791,1.547252747252747
4.997353715996724,1.9526007326007324,0.39890109890109887,0.9799267399267398
5.004220117996738,1.9526007326007324,0.39890109890109887,0.9799267399267398
5.010960941996018,1.7092307692307693,0.3046153846153846,2.9695970695970697
5.014851925996481,1.7092307692307693,0.3046153846153846,2.9695970695970697
5.019847404997563,0.9879853479853479,1.1467399267399265,1.9727472527472525
5.028004514999338,2.9953846153846153,0.5979487179487178,1.8478388278388278
5.0350601989994175,2.9953846153846153,0.5979487179487178,1.8478388278388278
5.040293703998032,2.9953846153846153,0.5979487179487178,1.8478388278388278
5.0435409099954995,2.9953846153846153,0.5979487179487178,1.8478388278388278
5.043728372998885,2.9953846153846153,0.5979487179487178,1.8478388278388278
5.049105065998447,2.9953846153846153,0.5979487179487178,1.8478388278388278
5.050722622996545,2.9953846153846153,0.5979487179487178,1.8478388278388278
5.054924366995692,2.9953846153846153,0.5979487179487178,1.8478388278388278
5.057114990995615,2.9953846153846153,0.5979487179487178,1.8478388278388278
5.0579326809966005,0.15875457875457877,0.03062271062271062,0.06688644688644689
5.059471306994965,0.15875457875457877,0.03062271062271062,0.06688644688644689
5.064282323000953,0.15875457875457877,0.03062271062271062,0.06688644688644689
5.069344780000392,0.15875457875457877,0.03062271062271062,0.06688644688644689
5.077902865996293,0.15875457875457877,0.03062271062271062,0.06688644688644689
5.0829193929967005,0.0,0.2063003663003663,0.5109157509157509
5.087130125997646,0.0,0.2063003663003663,0.5109157509157509
5.088796486001229,0.0,0.2063003663003663,0.5109157509157509
5.092920776995015,0.0,0.2063003663003663,0.5109157509157509
5.094670138998481,0.0,0.2063003663003663,0.5109157509157509
5.099815538000257,0.0,0.2063003663003663,0.5109157509157509
5.102626511994458,0.0,0.2063003663003663,0.5109157509157509
5.104670782995527,0.0,0.2063003663003663,0.5109157509157509
5.106292605996714,0.0,0.2063003663003663,0.5109157509157509
5.111108238001179,0.0,0.2063003663003663,0.5109157509157509
5.115344077996269,1.2055677655677655,0.26593406593406593,1.6616849816849815
5.118139104997681,1.2055677655677655,0.26593406593406593,1.6616849816849815
5.125523646995134,0.10476190476190475,0.048351648351648346,0.14666666666666667
5.130260541998723,0.10476190476190475,0.048351648351648346,0.14666666666666667
5.135047648000182,1.664102564102564,0.07897435897435898,1.88007326007326
5.1433944669988705,1.664102564102564,0.07897435897435898,1.88007326007326
5.147886749997269,2.3426373626373627,0.5173626373626373,1.0387545787545787
5.1482427539958735,1.722930402930403,0.06769230769230769,0.8517948717948718
5.153533583994431,1.722930402930403,0.06769230769230769,0.8517948717948718
5.157263999994029,1.722930402930403,0.06769230769230769,0.8517948717948718
5.161140283998975,1.722930402930403,0.06769230769230769,0.8517948717948718
5.165560702000221,1.722930402930403,0.06769230769230769,0.8517948717948718
5.167125177998969,1.722930402930403,0.06769230769230769,0.8517948717948718
5.171863557996403,1.722930402930403,0.06769230769230769,0.8517948717948718
5.177234193994082,1.722930402930403,0.06769230769230769,0.8517948717948718
5.17964282399771,0.09025641025641025,0.15875457875457877,0.13135531135531134
5.179755683995609,2.440952380952381,0.5117216117216117,1.3828571428571428
5.185142028996779,2.440952380952381,0.5117216117216117,1.3828571428571428
5.187402777999523,1.3619047619047617,0.24417582417582417,0.14989010989010987
5.18765729599545,1.3619047619047617,0.24417582417582417,0.14989010989010987
5.193277147998742,1.3876923076923076,0.12249084249084248,1.8196336996336997
5.193544272995496,1.3876923076923076,0.12249084249084248,1.8196336996336997
5.198770558999968,1.3876923076923076,0.12249084249084248,1.8196336996336997
5.202601703997061,1.3876923076923076,0.12249084249084248,1.8196336996336997
5.20638869299728,1.3876923076923076,0.12249084249084248,1.8196336996336997
5.210907461994793,1.3876923076923076,0.12249084249084248,1.8196336996336997
5.211132005999389,1.3014652014652013,0.03545787545787545,2.0638095238095238
5.216406293999171,1.3014652014652013,0.03545787545787545,2.0638095238095238
5.219374643995252,1.3014652014652013,0.03545787545787545,2.0638095238095238
5.221682184994279,1.3014652014652013,0.03545787545787545,2.0638095238095238
5.221905030994094,1.3014652014652013,0.03545787545787545,2.0638095238095238
5.227049701999931,1.3014652014652013,0.03545787545787545,2.0638095238095238
5.230833137000445,1.3014652014652013,0.03545787545787545,2.0638095238095238
5.2352889369940385,1.3014652014652013,0.03545787545787545,2.0638095238095238
5.236844993996783,1.1298168498168497,1.0355311355311354,1.394139194139194
5.240625512997212,1.1298168498168497,1.0355311355311354,1.394139194139194
5.246057983000355,1.1298168498168497,1.0355311355311354,1.394139194139194
5.2476841079987935,1.1298168498168497,1.0355311355311354,1.394139194139194
5.252114520997566,1.211208791208791,0.11523809523809524,1.722930402930403
5.252416735995212,1.211208791208791,0.11523809523809524,1.722930402930403
5.256905697999173,1.211208791208791,0.11523809523809524,1.722930402930403
5.257746167997539,1.211208791208791,0.11523809523809524,1.722930402930403
5.259350149994134,1.211208791208791,0.11523809523809524,1.722930402930403
5.263738917994488,1.211208791208791,0.11523809523809524,1.722930402930403
5.265305050997995,0.8284249084249083,0.7792673992673992,1.6093040293040293
5.26908285299578,0.8284249084249083,0.7792673992673992,1.6093040293040293
5.273581911998917,0.8284249084249083,0.7792673992673992,1.6093040293040293
5.275152695998258,0.8284249084249083,0.7792673992673992,1.6093040293040293
5.279046044997813,0.8284249084249083,0.7792673992673992,1.6093040293040293
5.28280388499843,0.16117216117216115,0.22564102564102564,0.4391941391941392
5.282928603999608,2.729450549450549,0.2651282051282051,3.3
5.28746793299797,2.729450549450549,0.2651282051282051,3.3
5.28911824899842,2.729450549450549,0.2651282051282051,3.3
5.293631408996589,2.729450549450549,0.2651282051282051,3.3
5.2946031729952665,1.0959706959706959,0.09912087912087912,2.424029304029304
5.295496604994696,1.0959706959706959,0.09912087912087912,2.424029304029304
5.29724791499757,1.0959706959706959,0.09912087912087912,2.424029304029304
5.303120523996768,1.0959706959706959,0.09912087912087912,2.424029304029304
5.30620291899686,1.0959706959706959,0.09912087912087912,2.424029304029304
5.308501275998424,1.0959706959706959,0.09912087912087912,2.424029304029304
5.308758227998624,1.0959706959706959,0.09912087912087912,2.424029304029304
5.313424399995711,1.0959706959706959,0.09912087912087912,2.424029304029304
5.3136801489963545,0.8840293040293039,1.0919413919413918,2.129084249084249
5.318493815997499,0.8840293040293039,1.0919413919413918,2.129084249084249
5.31875180699717,0.8840293040293039,1.0919413919413918,2.129084249084249
5.323520664998796,0.8840293040293039,1.0919413919413918,2.129084249084249
5.323632134000945,0.8840293040293039,1.0919413919413918,2.129084249084249
5.328187777995481,0.8840293040293039,1.0919413919413918,2.129084249084249
5.3291954989981605,0.8840293040293039,1.0919413919413918,2.129084249084249
5.330044663998706,0.8840293040293039,1.0919413919413918,2.129084249084249
5.331618060998153,1.9026373626373623,0.6479120879120879,2.5876190476190475
5.336285423996742,0.6591941391941392,0.7921611721611721,2.1049084249084244
5.3363858759985305,0.6591941391941392,0.7921611721611721,2.1049084249084244
5.341887349997705,0.6591941391941392,0.7921611721611721,2.1049084249084244
5.342730405995098,0.6591941391941392,0.7921611721611721,2.1049084249084244
5.344380837996141,0.6591941391941392,0.7921611721611721,2.1049084249084244
5.3482340989939985,1.7487179487179487,0.365054945054945,0.29010989010989013
5.3521565689952695,1.7487179487179487,0.365054945054945,0.29010989010989013
5.358681589998014,1.7487179487179487,0.365054945054945,0.29010989010989013
5.362596633996873,1.7487179487179487,0.365054945054945,0.29010989010989013
5.367066945000261,1.7487179487179487,0.365054945054945,0.29010989010989013
5.367490151998936,1.7487179487179487,0.365054945054945,0.29010989010989013
5.378130823999527,1.7487179487179487,0.365054945054945,0.29010989010989013
5.387269188999198,1.7487179487179487,0.365054945054945,0.29010989010989013
5.3969249590008985,1.7487179487179487,0.365054945054945,0.29010989010989013
5.406594808999216,1.7487179487179487,0.365054945054945,0.29010989010989013
5.41463334600121,1.7487179487179487,0.365054945054945,0.29010989010989013
5.421909671000321,1.7487179487179487,0.365054945054945,0.29010989010989013
5.427829765998467,2.8253479853479853,0.3505494505494505,3.3
5.432868341995345,1.6866666666666665,0.39890109890109887,2.262051282051282
5.4372798269978375,1.6866666666666665,0.39890109890109887,2.262051282051282
5.437647068996739,1.6866666666666665,0.39890109890109887,2.262051282051282
5.443030603993975,1.6866666666666665,0.39890109890109887,2.262051282051282
5.443254386998888,1.6866666666666665,0.39890109890109887,2.262051282051282
5.447934300995257,1.6866666666666665,0.39890109890109887,2.262051282051282
5.448146352995536,1.6866666666666665,0.39890109890109887,2.262051282051282
5.455026910996821,1.6866666666666665,0.39890109890109887,2.262051282051282
5.459876182998414,1.7978754578754577,0.045128205128205125,2.6754578754578753
5.46367339999415,0.23531135531135527,0.43597069597069593,0.2248351648351648
5.468205488999956,1.0468131868131867,0.9082051282051282,1.1346520146520145
5.468488095000794,1.0468131868131867,0.9082051282051282,1.1346520146520145
5.473897555995791,1.0468131868131867,0.9082051282051282,1.1346520146520145
5.4755148990007,1.90989010989011,0.22644688644688646,2.6657875457875457
5.479330135000055,1.90989010989011,0.22644688644688646,2.6657875457875457
5.483800625996082,0.21597069597069596,0.04996336996336996,0.2562637362637363
5.484639710994088,1.3707692307692307,1.070989010989011,1.9284249084249083
5.486351794999791,1.3707692307692307,1.070989010989011,1.9284249084249083
5.491192916000728,1.3707692307692307,1.070989010989011,1.9284249084249083
5.494318361998012,1.6794139194139193,0.13054945054945052,1.9268131868131868
5.4959473259950755,0.17084249084249084,0.3336263736263736,0.6648351648351648
5.499833961999684,0.17084249084249084,0.3336263736263736,0.6648351648351648
5.505828393994307,0.17084249084249084,0.3336263736263736,0.6648351648351648
5.511020541998732,1.9622710622710622,0.39003663003663,1.1096703296703296
5.51277425999433,1.9622710622710622,0.39003663003663,1.1096703296703296
5.51800226100022,0.7212454212454212,0.08542124542124542,2.694798534798535
5.5213919739981066,0.20065934065934066,0.17648351648351646,0.2232234432234432
5.521558604996244,0.20065934065934066,0.17648351648351646,0.2232234432234432
5.527977541998553,0.20065934065934066,0.17648351648351646,0.2232234432234432
5.531881650997093,0.20065934065934066,0.17648351648351646,0.2232234432234432
5.536704162994283,0.20065934065934066,0.17648351648351646,0.2232234432234432
5.545824525994249,0.12087912087912088,0.28446886446886444,0.3223443223443223
5.551425541998469,0.12087912087912088,0.28446886446886444,0.3223443223443223
5.55173297500005,0.12087912087912088,0.28446886446886444,0.3223443223443223
5.559953288000543,0.12087912087912088,0.28446886446886444,0.3223443223443223
5.564707735997217,0.12087912087912088,0.28446886446886444,0.3223443223443223
5.572163808996265,0.12087912087912088,0.28446886446886444,0.3223443223443223
5.577118254994275,1.4618315018315018,0.051575091575091575,1.7189010989010989
5.581120842995006,0.0,0.43999999999999995,0.6463003663003662
5.584871207996912,2.573113553113553,0.5495970695970696,1.2039560439560437
5.5923725069951615,1.5714285714285712,0.4424175824175824,0.09589743589743589
5.597565043994109,1.5714285714285712,0.4424175824175824,0.09589743589743589
5.60005797699705,1.5714285714285712,0.4424175824175824,0.09589743589743589
5.611365633994865,1.5714285714285712,0.4424175824175824,0.09589743589743589
5.619482280999364,1.5714285714285712,0.4424175824175824,0.09589743589743589
5.625865805996,1.5714285714285712,0.4424175824175824,0.09589743589743589
5.629382364997582,1.5714285714285712,0.4424175824175824,0.09589743589743589
5.629537913999229,1.5714285714285712,0.4424175824175824,0.09589743589743589
5.635363773995778,1.5714285714285712,0.4424175824175824,0.09589743589743589
5.6441344729973935,1.0468131868131867,0.954945054945055,1.468278388278388
5.65076708199922,1.0468131868131867,0.954945054945055,1.468278388278388
5.657021503000578,1.1539926739926738,0.0273992673992674,1.2821245421245422
5.6614211079941015,1.1539926739926738,0.0273992673992674,1.2821245421245422
5.662350408994826,1.1539926739926738,0.0273992673992674,1.2821245421245422
5.663991775996692,1.1539926739926738,0.0273992673992674,1.2821245421245422
5.667711399997643,1.1539926739926738,0.0273992673992674,1.2821245421245422
5.676635071999044,1.1539926739926738,0.0273992673992674,1.2821245421245422
5.681172933000198,0.21032967032967032,0.08058608058608058,0.05641025641025641
5.682770996994805,0.21032967032967032,0.08058608058608058,0.05641025641025641
5.687009435998334,0.21032967032967032,0.08058608058608058,0.05641025641025641
5.689771833000123,0.21032967032967032,0.08058608058608058,0.05641025641025641
5.695305205998011,0.21032967032967032,0.08058608058608058,0.05641025641025641
5.696372678998159,0.21032967032967032,0.08058608058608058,0.05641025641025641
5.69656129500072,0.18937728937728937,0.14586080586080585,0.14989010989010987
5.706274955999106,0.18937728937728937,0.14586080586080585,0.14989010989010987
5.714534257997002,3.3,0.5076923076923077,2.5956776556776555
5.722681592000299,3.3,0.5076923076923077,2.5956776556776555
5.727466901000298,3.3,0.5076923076923077,2.5956776556776555
5.7320155699999304,1.4755311355311356,0.43355311355311354,0.3537728937728937
5.732381451998663,1.4755311355311356,0.43355311355311354,0.3537728937728937
5.73878015900118,1.4755311355311356,0.43355311355311354,0.3537728937728937
5.743831669999054,2.9389743589743587,0.5157509157509157,2.4127472527472524
5.745995833000052,1.361098901098901,0.7937728937728937,2.295091575091575
5.746250703996338,1.361098901098901,0.7937728937728937,2.295091575091575
5.751502216000517,1.361098901098901,0.7937728937728937,2.295091575091575
5.75480449499446,1.361098901098901,0.7937728937728937,2.295091575091575
5.755053900997154,1.361098901098901,0.7937728937728937,2.295091575091575
5.76059820199589,1.361098901098901,0.7937728937728937,2.295091575091575
5.76086227199994,1.361098901098901,0.7937728937728937,2.295091575091575
5.765829304997169,1.361098901098901,0.7937728937728937,2.295091575091575
5.770356459994218,1.361098901098901,0.7937728937728937,2.295091575091575
5.771421309997095,2.0444688644688642,0.1104029304029304,2.586007326007326
5.771699776996684,1.1241758241758242,0.19985347985347984,2.399047619047619
5.777515320995008,1.1241758241758242,0.19985347985347984,2.399047619047619
5.782898327001021,1.1241758241758242,0.19985347985347984,2.399047619047619
5.785520118995919,3.09047619047619,0.5350915750915751,2.541684981684982
5.793288562999805,3.09047619047619,0.5350915750915751,2.541684981684982
5.797813344994211,3.09047619047619,0.5350915750915751,2.541684981684982
5.798685907997424,3.09047619047619,0.5350915750915751,2.541684981684982
5.800323749994277,3.09047619047619,0.5350915750915751,2.541684981684982
5.804103435999423,3.09047619047619,0.5350915750915751,2.541684981684982
5.810378215996025,3.09047619047619,0.5350915750915751,2.541684981684982
5.814261077997799,3.09047619047619,0.5350915750915751,2.541684981684982
5.818117005001113,3.09047619047619,0.5350915750915751,2.541684981684982
5.825052840998978,3.09047619047619,0.5350915750915751,2.541684981684982
5.829017295996891,3.09047619047619,0.5350915750915751,2.541684981684982
5.832752012996934,3.09047619047619,0.5350915750915751,2.541684981684982
5.8384835709948675,3.09047619047619,0.5350915750915751,2.541684981684982
5.838763194995408,3.09047619047619,0.5350915750915751,2.541684981684982
5.844886466999014,3.09047619047619,0.5350915750915751,2.541684981684982
5.850784891998046,3.09047619047619,0.5350915750915751,2.541684981684982
5.859102541995526,1.696336996336996,0.12974358974358974,2.44981684981685
5.864132153998071,0.0,0.05802197802197802,0.473040293040293
5.869282332998409,1.8204395604395605,0.9621978021978022,2.791501831501831
5.873578004000592,1.8204395604395605,0.9621978021978022,2.791501831501831
5.873819964996073,1.8204395604395605,0.9621978021978022,2.791501831501831
5.878546747997461,1.8204395604395605,0.9621978021978022,2.791501831501831
5.884338757998194,1.8204395604395605,0.9621978021978022,2.791501831501831
5.884596651994798,1.5222710622710622,0.3344322344322344,2.9639560439560437
5.894217090994061,1.5222710622710622,0.3344322344322344,2.9639560439560437
5.90361618699535,1.5222710622710622,0.3344322344322344,2.9639560439560437
5.913841900000989,2.929304029304029,0.8292307692307692,3.3
5.921737488999497,1.5931868131868132,0.13216117216117215,2.286227106227106
5.926615652999317,0.1692307692307692,0.03545787545787545,0.09025641025641025
5.931829332999769,0.1692307692307692,0.03545787545787545,0.09025641025641025
