time,emg1,emg2,emg3
0.0022774789977120236,2.643223443223443,1.4271794871794872,0.43274725274725273
0.0032537139995838515,1.9880586080586078,1.0887179487179486,0.7147985347985348
0.004775601002620533,1.9880586080586078,1.0887179487179486,0.7147985347985348
0.030192477999662515,1.9880586080586078,1.0887179487179486,0.7147985347985348
0.044831521998276,0.9404395604395603,0.5367032967032966,0.3690842490842491
0.05926175200147554,0.9404395604395603,0.5367032967032966,0.3690842490842491
0.05960655299713835,1.6093040293040293,0.95010989010989,0.5350915750915751
0.06629560599685647,1.6093040293040293,0.95010989010989,0.5350915750915751
0.07084014100109925,1.6093040293040293,0.95010989010989,0.5350915750915751
0.07185211800242541,1.6093040293040293,0.95010989010989,0.5350915750915751
0.07285597299778601,1.6093040293040293,0.95010989010989,0.5350915750915751
0.07314649799809558,0.07252747252747253,0.8953113553113552,1.083076923076923
0.07856477500172332,0.07252747252747253,0.8953113553113552,1.083076923076923
0.0796148289955454,0.07252747252747253,0.8953113553113552,1.083076923076923
0.07998927500011632,0.585054945054945,0.195018315018315,0.3553846153846154
0.08571293800196145,0.585054945054945,0.195018315018315,0.3553846153846154
0.08587950099899899,0.4287179487179487,0.14505494505494507,0.26996336996336995
0.09291178399871569,0.4287179487179487,0.14505494505494507,0.26996336996336995
0.09718697599601,0.4287179487179487,0.14505494505494507,0.26996336996336995
0.09909363400220172,0.4287179487179487,0.14505494505494507,0.26996336996336995
0.10167749299580464,0.4287179487179487,0.14505494505494507,0.26996336996336995
0.10749975899670972,0.5407326007326007,0.3167032967032967,0.2369230769230769
0.10772241900122026,0.5407326007326007,0.3167032967032967,0.2369230769230769
0.11331367999810027,0.5407326007326007,0.3167032967032967,0.2369230769230769
0.1142505230018287,0.5407326007326007,0.3167032967032967,0.2369230769230769
0.11587350600166246,0.5407326007326007,0.3167032967032967,0.2369230769230769
0.11974049000127707,0.5407326007326007,0.3167032967032967,0.2369230769230769
0.12511786999675678,0.0709157509157509,0.10395604395604395,0.792967032967033
0.12745623999944655,0.0709157509157509,0.10395604395604395,0.792967032967033
0.12767873700067867,0.0709157509157509,0.10395604395604395,0.792967032967033
0.13310666699544527,0.0709157509157509,0.10395604395604395,0.792967032967033
0.13475628699961817,0.0709157509157509,0.10395604395604395,0.792967032967033
0.1396916939993389,0.0709157509157509,0.10395604395604395,0.792967032967033
0.14498921199992765,0.0709157509157509,0.10395604395604395,0.792967032967033
0.1465421199973207,0.43274725274725273,0.14344322344322344,0.22564102564102564
0.15035398599866312,0.43274725274725273,0.14344322344322344,0.22564102564102564
0.1577759639985743,0.43274725274725273,0.14344322344322344,0.22564102564102564
0.1633930899988627,0.43274725274725273,0.14344322344322344,0.22564102564102564
0.17333306699583773,0.46659340659340653,0.23934065934065935,0.29333333333333333
0.18214932199771283,0.46659340659340653,0.23934065934065935,0.29333333333333333
0.19001384700095514,0.7188278388278388,0.26754578754578756,0.27318681318681315
0.19653230800031452,0.7188278388278388,0.26754578754578756,0.27318681318681315
0.20167064199631568,0.7188278388278388,0.26754578754578756,0.27318681318681315
0.2049222150017158,0.7188278388278388,0.26754578754578756,0.27318681318681315
0.20663027800037526,0.7188278388278388,0.26754578754578756,0.27318681318681315
0.2112470360007137,0.7188278388278388,0.26754578754578756,0.27318681318681315
0.21679550199769437,1.788205128205128,1.1338461538461537,0.6326007326007326
0.21848713800136466,1.788205128205128,1.1338461538461537,0.6326007326007326
0.22425091399782104,1.788205128205128,1.1338461538461537,0.6326007326007326
0.2285354539999389,1.788205128205128,1.1338461538461537,0.6326007326007326
0.2296496510025463,1.788205128205128,1.1338461538461537,0.6326007326007326
0.22991628699674038,1.788205128205128,1.1338461538461537,0.6326007326007326
0.23508295699866721,1.788205128205128,1.1338461538461537,0.6326007326007326
0.24066478700115113,0.8735531135531135,0.9323809523809523,0.5947252747252747
0.24654730199836195,0.1942124542124542,0.19824175824175824,0.8018315018315018
0.24664545500127133,0.1942124542124542,0.19824175824175824,0.8018315018315018
0.253386940996279,0.1942124542124542,0.19824175824175824,0.8018315018315018
0.258821192997857,0.1942124542124542,0.19824175824175824,0.8018315018315018
0.25908945000264794,0.1942124542124542,0.19824175824175824,0.8018315018315018
0.26527692200033925,0.1942124542124542,0.19824175824175824,0.8018315018315018
0.2693945779974456,1.7559706959706958,1.0726007326007325,0.6374358974358975
0.2740909130006912,1.7559706959706958,1.0726007326007325,0.6374358974358975
0.27821993800171185,1.7559706959706958,1.0726007326007325,0.6374358974358975
0.2806410080011119,1.1676923076923076,0.6019780219780219,0.0975091575091575
0.28082701499806717,1.1676923076923076,0.6019780219780219,0.0975091575091575
0.28559078500256874,1.1676923076923076,0.6019780219780219,0.0975091575091575
0.2939890209963778,1.1676923076923076,0.6019780219780219,0.0975091575091575
0.29973430300015025,2.3039560439560436,0.6680586080586081,0.23531135531135527
0.2999204469961114,2.3039560439560436,0.6680586080586081,0.23531135531135527
0.30810412100254325,2.3039560439560436,0.6680586080586081,0.23531135531135527
0.31232667499716626,2.3039560439560436,0.6680586080586081,0.23531135531135527
0.3141514759990969,0.10395604395604395,0.8928937728937728,0.9162637362637363
0.3173827619975782,0.10395604395604395,0.8928937728937728,0.9162637362637363
0.3183595669979695,0.10395604395604395,0.8928937728937728,0.9162637362637363
0.32013950400141766,0.10395604395604395,0.8928937728937728,0.9162637362637363
0.3273557020002045,0.10395604395604395,0.8928937728937728,0.9162637362637363
0.3337379540025722,0.10395604395604395,0.8928937728937728,0.9162637362637363
0.3400290950012277,1.843003663003663,0.6736996336996337,0.0821978021978022
0.3434915140023804,1.843003663003663,0.6736996336996337,0.0821978021978022
0.34363122299691895,1.843003663003663,0.6736996336996337,0.0821978021978022
0.3498282059954363,1.843003663003663,0.6736996336996337,0.0821978021978022
0.35620727200148394,1.843003663003663,0.6736996336996337,0.0821978021978022
0.35991936799837276,1.843003663003663,0.6736996336996337,0.0821978021978022
0.36594506300025387,0.921098901098901,0.29655677655677654,0.2627106227106227
0.3732285750011215,0.9944322344322343,0.13296703296703297,0.2868864468864469
0.3774669089980307,0.9944322344322343,0.13296703296703297,0.2868864468864469
0.3784293909993721,0.9944322344322343,0.13296703296703297,0.2868864468864469
0.3800265390018467,0.9944322344322343,0.13296703296703297,0.2868864468864469
0.38410724599816604,0.9944322344322343,0.13296703296703297,0.2868864468864469
0.3910346760021639,0.9944322344322343,0.13296703296703297,0.2868864468864469
0.39570284399815137,0.9944322344322343,0.13296703296703297,0.2868864468864469
0.4047356840019347,1.0685714285714285,0.5487912087912087,0.2651282051282051
0.41278931900160387,1.0685714285714285,0.5487912087912087,0.2651282051282051
0.4174380120020942,1.3425641025641024,0.3021978021978022,0.3449084249084249
0.427186756998708,1.3425641025641024,0.3021978021978022,0.3449084249084249
0.431987185998878,2.4909157509157507,1.5174358974358972,0.37150183150183147
0.438843187999737,2.4909157509157507,1.5174358974358972,0.37150183150183147
0.4428129169973545,2.4909157509157507,1.5174358974358972,0.37150183150183147
0.44605930500256363,2.4909157509157507,1.5174358974358972,0.37150183150183147
0.44635860699781915,2.4909157509157507,1.5174358974358972,0.37150183150183147
0.4522988219978288,2.4909157509157507,1.5174358974358972,0.37150183150183147
0.4604150439990917,2.4909157509157507,1.5174358974358972,0.37150183150183147
0.4660891489984351,1.016190476190476,0.5141391941391941,0.25787545787545785
0.46768623599928105,1.016190476190476,0.5141391941391941,0.25787545787545785
0.4754692080023233,1.016190476190476,0.5141391941391941,0.25787545787545785
0.47957263799617067,1.016190476190476,0.5141391941391941,0.25787545787545785
0.4828456870018272,1.016190476190476,0.5141391941391941,0.25787545787545785
0.4837763030009228,1.016190476190476,0.5141391941391941,0.25787545787545785
0.4855904349969933,1.016190476190476,0.5141391941391941,0.25787545787545785
0.4904492229979951,1.016190476190476,0.5141391941391941,0.25787545787545785
0.4931122609996237,1.016190476190476,0.5141391941391941,0.25787545787545785
0.4990056730021024,1.016190476190476,0.5141391941391941,0.25787545787545785
0.5048261670017382,1.016190476190476,0.5141391941391941,0.25787545787545785
0.5114355679979781,0.7824908424908424,0.13296703296703297,0.2063003663003663
0.5156362429988803,0.7824908424908424,0.13296703296703297,0.2063003663003663
0.5183017119998112,0.7824908424908424,0.13296703296703297,0.2063003663003663
0.5252191469990066,0.7824908424908424,0.13296703296703297,0.2063003663003663
0.5294344360008836,0.8292307692307692,0.13699633699633698,0.3843956043956044
0.532032254996011,1.7084249084249086,1.058901098901099,1.4207326007326007
0.5397141959983855,1.7084249084249086,1.058901098901099,1.4207326007326007
0.5443958030009526,2.5956776556776555,1.444102564102564,0.5479853479853479
0.5493530559979263,2.5956776556776555,1.444102564102564,0.5479853479853479
0.5567086509981891,2.5956776556776555,1.444102564102564,0.5479853479853479
0.560393148996809,2.423223443223443,1.3336996336996336,0.7599267399267399
0.5666178539977409,2.423223443223443,1.3336996336996336,0.7599267399267399
0.5729532170007587,2.423223443223443,1.3336996336996336,0.7599267399267399
0.5765371500019683,2.423223443223443,1.3336996336996336,0.7599267399267399
0.5766556489979848,2.423223443223443,1.3336996336996336,0.7599267399267399
0.5824298430015915,2.423223443223443,1.3336996336996336,0.7599267399267399
0.582734438998159,1.195091575091575,0.23853479853479853,0.39890109890109887
0.5906638090018532,1.195091575091575,0.23853479853479853,0.39890109890109887
0.5951047909984482,1.195091575091575,0.23853479853479853,0.39890109890109887
0.5960534749974613,1.195091575091575,0.23853479853479853,0.39890109890109887
0.5979966930026421,1.195091575091575,0.23853479853479853,0.39890109890109887
0.5996895130010671,1.195091575091575,0.23853479853479853,0.39890109890109887
0.6057246560012572,1.195091575091575,0.23853479853479853,0.39890109890109887
0.6100375050009461,1.195091575091575,0.23853479853479853,0.39890109890109887
0.6103513749985723,1.195091575091575,0.23853479853479853,0.39890109890109887
0.6151348900020821,1.195091575091575,0.23853479853479853,0.39890109890109887
0.6153923269957886,1.195091575091575,0.23853479853479853,0.39890109890109887
0.6230690919983317,1.2732600732600732,0.5157509157509157,0.047545787545787546
0.6273810159982531,0.9823443223443222,0.3924542124542124,0.0410989010989011
0.6297652840003138,0.9823443223443222,0.3924542124542124,0.0410989010989011
0.634551590999763,0.9823443223443222,0.3924542124542124,0.0410989010989011
0.6346792059994186,0.9823443223443222,0.3924542124542124,0.0410989010989011
0.6422222979963408,0.9823443223443222,0.3924542124542124,0.0410989010989011
0.646362665000197,0.9823443223443222,0.3924542124542124,0.0410989010989011
0.6487876859973767,0.9823443223443222,0.3924542124542124,0.0410989010989011
0.6489715759962564,0.9823443223443222,0.3924542124542124,0.0410989010989011
0.6572938059980515,0.9823443223443222,0.3924542124542124,0.0410989010989011
0.6609483169959276,0.9960439560439559,0.7873260073260073,0.48432234432234433
0.6659629749992746,0.9960439560439559,0.7873260073260073,0.48432234432234433
0.6710046969965333,0.9960439560439559,0.7873260073260073,0.48432234432234433
0.6749779789970489,0.9960439560439559,0.7873260073260073,0.48432234432234433
0.6784620300022652,0.9960439560439559,0.7873260073260073,0.48432234432234433
0.6786708540021209,0.9960439560439559,0.7873260073260073,0.48432234432234433
0.6844640569979674,0.9960439560439559,0.7873260073260073,0.48432234432234433
0.6846042510005645,0.9960439560439559,0.7873260073260073,0.48432234432234433
0.6943389660009416,0.9960439560439559,0.7873260073260073,0.48432234432234433
0.7007594550013891,0.9960439560439559,0.7873260073260073,0.48432234432234433
0.7080971069954103,1.0306959706959706,0.3545787545787546,0.05318681318681319
0.7140410829961183,1.0306959706959706,0.3545787545787546,0.05318681318681319
0.7179595319976215,1.0306959706959706,0.3545787545787546,0.05318681318681319
0.7246246899958351,1.0306959706959706,0.3545787545787546,0.05318681318681319
0.7279212909998023,1.0306959706959706,0.3545787545787546,0.05318681318681319
0.7295898320007836,1.0306959706959706,0.3545787545787546,0.05318681318681319
0.7335383289973834,1.0306959706959706,0.3545787545787546,0.05318681318681319
0.7403714019965264,1.0306959706959706,0.3545787545787546,0.05318681318681319
0.743851403996814,1.0306959706959706,0.3545787545787546,0.05318681318681319
0.7441948449995834,0.8042490842490841,0.39406593406593404,0.6898168498168498
0.7513509659984265,0.8042490842490841,0.39406593406593404,0.6898168498168498
0.7577630359955947,0.8042490842490841,0.39406593406593404,0.6898168498168498
0.7611645759970997,0.8042490842490841,0.39406593406593404,0.6898168498168498
0.7614241240007686,0.8042490842490841,0.39406593406593404,0.6898168498168498
0.7670367649989203,0.8042490842490841,0.39406593406593404,0.6898168498168498
0.7679722890025005,0.8042490842490841,0.39406593406593404,0.6898168498168498
0.7705134880015976,0.8042490842490841,0.39406593406593404,0.6898168498168498
0.7774994720020914,1.2966300366300365,0.5705494505494505,0.5673260073260072
0.782399465002527,1.627032967032967,0.7913553113553113,0.47142857142857136
0.7886834789969726,1.627032967032967,0.7913553113553113,0.47142857142857136
0.794566283999302,1.627032967032967,0.7913553113553113,0.47142857142857136
0.7997545249963878,1.627032967032967,0.7913553113553113,0.47142857142857136
0.8051338629957172,0.7808791208791208,0.3892307692307692,0.44080586080586076
0.8055713709982228,0.7808791208791208,0.3892307692307692,0.44080586080586076
0.8097254329986754,0.7808791208791208,0.3892307692307692,0.44080586080586076
0.812178086998756,0.7808791208791208,0.3892307692307692,0.44080586080586076
0.812329125998076,0.09267399267399268,1.012967032967033,0.9436630036630036
0.8170578720018966,0.09267399267399268,1.012967032967033,0.9436630036630036
0.8172452529979637,0.09267399267399268,1.012967032967033,0.9436630036630036
0.8242456180014415,0.09267399267399268,1.012967032967033,0.9436630036630036
0.8283026819990482,0.09267399267399268,1.012967032967033,0.9436630036630036
0.8334521649958333,0.09267399267399268,1.012967032967033,0.9436630036630036
0.835059849996469,0.09267399267399268,1.012967032967033,0.9436630036630036
0.842365165000956,0.09267399267399268,1.012967032967033,0.9436630036630036
0.8479556109959958,0.09267399267399268,1.012967032967033,0.9436630036630036
0.8574367949986481,1.7438827838827837,1.1967032967032967,1.3731868131868132
0.8643252059991937,1.7438827838827837,1.1967032967032967,1.3731868131868132
0.8682422389974818,1.7438827838827837,1.1967032967032967,1.3731868131868132
0.8740122269955464,2.0347985347985347,0.6156776556776556,0.12249084249084248
0.8795343530000537,1.211208791208791,0.5778021978021978,0.5318681318681319
0.8804517249955097,1.211208791208791,0.5778021978021978,0.5318681318681319
0.8820591260009678,1.211208791208791,0.5778021978021978,0.5318681318681319
0.8866915710023022,1.211208791208791,0.5778021978021978,0.5318681318681319
0.8870119540006272,1.211208791208791,0.5778021978021978,0.5318681318681319
0.8928184210017207,1.211208791208791,0.5778021978021978,0.5318681318681319
0.8975029209977947,1.211208791208791,0.5778021978021978,0.5318681318681319
0.9045241630010423,1.3804395604395605,0.7994139194139194,0.7736263736263735
0.9082373359997291,1.0339194139194139,0.18937728937728937,0.14747252747252745
0.9138340589997824,1.0339194139194139,0.18937728937728937,0.14747252747252745
0.9156711269970401,1.0339194139194139,0.18937728937728937,0.14747252747252745
0.9180322289976175,0.9791208791208791,0.4351648351648352,0.008058608058608058
0.9183270499997889,0.9791208791208791,0.4351648351648352,0.008058608058608058
0.9259867660002783,0.9791208791208791,0.4351648351648352,0.008058608058608058
0.9307975280025858,1.145128205128205,0.43597069597069593,0.6882051282051282
0.9309859419954591,1.145128205128205,0.43597069597069593,0.6882051282051282
0.936407417000737,1.145128205128205,0.43597069597069593,0.6882051282051282
0.9388963219971629,1.145128205128205,0.43597069597069593,0.6882051282051282
0.9438306879965239,1.145128205128205,0.43597069597069593,0.6882051282051282
0.9485171920023276,1.145128205128205,0.43597069597069593,0.6882051282051282
0.957474271999672,1.145128205128205,0.43597069597069593,0.6882051282051282
0.9629936830024235,1.145128205128205,0.43597069597069593,0.6882051282051282
0.9633351500015124,2.6150183150183146,1.556117216117216,0.3972893772893773
0.9681334810011322,2.6150183150183146,1.556117216117216,0.3972893772893773
0.9757001580001088,1.688278388278388,0.3602197802197802,0.22725274725274724
0.9803572890014038,1.688278388278388,0.3602197802197802,0.22725274725274724
0.9805967819993384,1.688278388278388,0.3602197802197802,0.22725274725274724
0.9880288049971568,1.688278388278388,0.3602197802197802,0.22725274725274724
0.9937894949980546,1.688278388278388,0.3602197802197802,0.22725274725274724
1.0006319640015136,1.688278388278388,0.3602197802197802,0.22725274725274724
1.0077403019968187,1.1596336996336996,0.5947252747252747,0.10315018315018315
1.0136588250024943,1.1596336996336996,0.5947252747252747,0.10315018315018315
1.0177527129999362,1.1596336996336996,0.5947252747252747,0.10315018315018315
1.0231836129969452,1.1596336996336996,0.5947252747252747,0.10315018315018315
1.033720330997312,2.8100366300366297,1.5254945054945055,0.5004395604395604
1.0455822700023418,2.452234432234432,0.9412454212454211,0.7107692307692308
1.056813201001205,2.452234432234432,0.9412454212454211,0.7107692307692308
1.06162444200163,1.3562637362637362,0.6769230769230768,0.5399267399267399
1.0663043599997764,1.3562637362637362,0.6769230769230768,0.5399267399267399
1.0666214919983759,1.3562637362637362,0.6769230769230768,0.5399267399267399
1.0722359989958932,1.3562637362637362,0.6769230769230768,0.5399267399267399
1.0738790089963004,1.3562637362637362,0.6769230769230768,0.5399267399267399
1.0770378859961056,1.3562637362637362,0.6769230769230768,0.5399267399267399
1.0796013270010008,1.3562637362637362,0.6769230769230768,0.5399267399267399
1.084397098995396,1.3562637362637362,0.6769230769230768,0.5399267399267399
1.0846301450001192,0.8985347985347985,0.15875457875457877,0.16358974358974357
1.0900475559974439,0.8985347985347985,0.15875457875457877,0.16358974358974357
1.0909578200007672,0.8985347985347985,0.15875457875457877,0.16358974358974357
1.092576230999839,0.8985347985347985,0.15875457875457877,0.16358974358974357
1.097282083996106,0.8985347985347985,0.15875457875457877,0.16358974358974357
1.1062966079989565,0.5641025641025641,0.2989743589743589,0.2989743589743589
1.114663070999086,0.5641025641025641,0.2989743589743589,0.2989743589743589
1.121827695002139,0.5641025641025641,0.2989743589743589,0.2989743589743589
1.1275283809955,2.755238095238095,1.432014652014652,0.4456410256410256
1.1359891669999342,2.755238095238095,1.432014652014652,0.4456410256410256
1.143365570998867,2.755238095238095,1.432014652014652,0.4456410256410256
1.1482283739969716,2.755238095238095,1.432014652014652,0.4456410256410256
1.1567625219977344,2.755238095238095,1.432014652014652,0.4456410256410256
1.164067382000212,0.8526007326007327,1.008937728937729,0.9396336996336996
1.1714336099976208,0.8526007326007327,1.008937728937729,0.9396336996336996
1.177972352001234,1.696336996336996,0.3997069597069597,0.2248351648351648
1.1848145210024086,1.3659340659340657,1.0218315018315018,1.1024175824175824
1.188894466999045,1.3659340659340657,1.0218315018315018,1.1024175824175824
1.1924447150013293,1.3659340659340657,1.0218315018315018,1.1024175824175824
1.1976253760003601,1.3659340659340657,1.0218315018315018,1.1024175824175824
1.200841029000003,1.3756043956043955,0.3723076923076923,0.024175824175824173
1.2024866729989299,1.3756043956043955,0.3723076923076923,0.024175824175824173
1.205698265999672,1.3756043956043955,0.3723076923076923,0.024175824175824173
1.2081114309985423,1.3756043956043955,0.3723076923076923,0.024175824175824173
1.2082686649955576,1.3756043956043955,0.3723076923076923,0.024175824175824173
1.2135654049998266,1.3756043956043955,0.3723076923076923,0.024175824175824173
1.21670246499707,1.3756043956043955,0.3723076923076923,0.024175824175824173
1.2190671189964633,1.1298168498168497,0.4698168498168498,0.011282051282051281
1.219270798996149,1.070989010989011,0.43999999999999995,0.2191941391941392
1.2246883810003055,1.070989010989011,0.43999999999999995,0.2191941391941392
1.2262902270013,1.070989010989011,0.43999999999999995,0.2191941391941392
1.2309745189995738,1.070989010989011,0.43999999999999995,0.2191941391941392
1.2313380740015418,1.070989010989011,0.43999999999999995,0.2191941391941392
1.23714424699574,0.08058608058608058,0.9404395604395603,1.0492307692307692
1.2372782109960099,0.08058608058608058,0.9404395604395603,1.0492307692307692
1.2418045550002716,0.08058608058608058,0.9404395604395603,1.0492307692307692
1.2427256399969338,0.08058608058608058,0.9404395604395603,1.0492307692307692
1.2443339769961312,0.08058608058608058,0.9404395604395603,1.0492307692307692
1.2481287010014057,0.08058608058608058,0.9404395604395603,1.0492307692307692
1.2536710200001835,1.9654945054945054,1.1902564102564102,1.4706959706959708
1.2546176920004655,0.7357509157509158,0.9984615384615383,1.1886446886446886
1.2557300670014229,0.7357509157509158,0.9984615384615383,1.1886446886446886
1.2559591679964797,0.7357509157509158,0.9984615384615383,1.1886446886446886
1.2606348740009707,0.7357509157509158,0.9984615384615383,1.1886446886446886
1.2610023300003377,1.1257875457875457,0.28446886446886444,0.06285714285714286
1.2666438829983235,1.1257875457875457,0.28446886446886444,0.06285714285714286
1.266928356999415,1.1394871794871795,0.1805128205128205,0.38681318681318677
1.2722427760018036,1.1394871794871795,0.1805128205128205,0.38681318681318677
1.2747869550003088,1.1394871794871795,0.1805128205128205,0.38681318681318677
1.2802785199965,1.1394871794871795,0.1805128205128205,0.38681318681318677
1.2819140380015597,1.1394871794871795,0.1805128205128205,0.38681318681318677
1.2858946330015897,1.1394871794871795,0.1805128205128205,0.38681318681318677
1.28900602000067,1.5005128205128204,0.921098901098901,1.3804395604395605
1.290786986995954,1.5005128205128204,0.921098901098901,1.3804395604395605
1.2938324610004202,1.5005128205128204,0.921098901098901,1.3804395604395605
1.296374575002119,1.5005128205128204,0.921098901098901,1.3804395604395605
1.3011849839967908,1.5005128205128204,0.921098901098901,1.3804395604395605
1.3067306070006453,1.332087912087912,0.23531135531135527,0.6277655677655677
1.308283501995902,1.332087912087912,0.23531135531135527,0.6277655677655677
1.3121325870015426,1.332087912087912,0.23531135531135527,0.6277655677655677
1.3161200690010446,1.332087912087912,0.23531135531135527,0.6277655677655677
1.3193095999959041,1.5947985347985347,0.9114285714285715,0.689010989010989
1.320874940000067,1.5947985347985347,0.9114285714285715,0.689010989010989
1.3250564170011785,1.5947985347985347,0.9114285714285715,0.689010989010989
1.3273683750012424,1.5947985347985347,0.9114285714285715,0.689010989010989
1.3276008129978436,1.5947985347985347,0.9114285714285715,0.689010989010989
1.3328113879979355,1.5947985347985347,0.9114285714285715,0.689010989010989
1.3360408340013237,1.5947985347985347,0.9114285714285715,0.689010989010989
1.3376041070005158,1.5947985347985347,0.9114285714285715,0.689010989010989
1.34163570599776,1.5947985347985347,0.9114285714285715,0.689010989010989
1.345602339002653,1.5947985347985347,0.9114285714285715,0.689010989010989
1.3502103819992044,1.5947985347985347,0.9114285714285715,0.689010989010989
1.3505324159996235,1.4787545787545788,0.8985347985347985,0.5979487179487178
1.355611056998896,0.15311355311355312,0.9476923076923076,1.0218315018315018
1.3624729629955254,0.61003663003663,0.2361172161172161,0.20227106227106226
1.3680204330012202,2.594065934065934,1.4779487179487178,0.4174358974358974
1.3682808699959423,2.594065934065934,1.4779487179487178,0.4174358974358974
1.3764928140008124,2.0638095238095238,0.5665201465201465,0.13699633699633698
1.3821005650024745,2.3587545787545787,1.4553846153846153,0.6205128205128204
1.382221480998851,2.3587545787545787,1.4553846153846153,0.6205128205128204
1.3871412399967085,2.3587545787545787,1.4553846153846153,0.6205128205128204
1.3913273040016065,2.3587545787545787,1.4553846153846153,0.6205128205128204
1.3943895369957318,2.3587545787545787,1.4553846153846153,0.6205128205128204
1.3960089850006625,0.904981684981685,1.004102564102564,0.7583150183150182
1.4007139839959564,0.904981684981685,1.004102564102564,0.7583150183150182
1.4008201800024835,0.904981684981685,1.004102564102564,0.7583150183150182
1.4057820419984637,0.904981684981685,1.004102564102564,0.7583150183150182
1.4098588729975745,0.904981684981685,1.004102564102564,0.7583150183150182
1.4131603479982005,2.5360439560439563,1.3619047619047617,0.5931135531135531
1.413454132998595,2.5360439560439563,1.3619047619047617,0.5931135531135531
1.4183203560023685,2.5360439560439563,1.3619047619047617,0.5931135531135531
1.4238870139961364,2.5360439560439563,1.3619047619047617,0.5931135531135531
1.42420329900051,2.5360439560439563,1.3619047619047617,0.5931135531135531
1.428794414998265,2.5360439560439563,1.3619047619047617,0.5931135531135531
1.4296989959984785,2.5360439560439563,1.3619047619047617,0.5931135531135531
1.4313686679961393,2.5360439560439563,1.3619047619047617,0.5931135531135531
1.4344732519966783,2.5360439560439563,1.3619047619047617,0.5931135531135531
1.436835633998271,1.4868131868131869,0.8638827838827838,0.2747985347985348
1.4370372420016793,1.4868131868131869,0.8638827838827838,0.2747985347985348
1.4425655550003285,1.2176556776556777,0.5165567765567766,0.1805128205128205
1.4433889489955618,1.353040293040293,0.2232234432234432,0.2836630036630036
1.445674203998351,1.353040293040293,0.2232234432234432,0.2836630036630036
1.445956217001367,1.353040293040293,0.2232234432234432,0.2836630036630036
1.4512709519985947,1.353040293040293,0.2232234432234432,0.2836630036630036
1.4543816500008688,1.353040293040293,0.2232234432234432,0.2836630036630036
1.4561482479984988,1.353040293040293,0.2232234432234432,0.2836630036630036
1.4591891750023933,1.353040293040293,0.2232234432234432,0.2836630036630036
1.4615631339984247,1.353040293040293,0.2232234432234432,0.2836630036630036
1.4618184869977995,1.353040293040293,0.2232234432234432,0.2836630036630036
1.4673372479956015,1.353040293040293,0.2232234432234432,0.2836630036630036
1.4683617080008844,1.353040293040293,0.2232234432234432,0.2836630036630036
1.4686533639978734,2.234652014652015,0.614065934065934,0.10073260073260072
1.474248632999661,2.234652014652015,0.614065934065934,0.10073260073260072
1.4751091319994885,1.1580219780219778,1.05003663003663,0.9815384615384615
1.4767038299978594,1.1580219780219778,1.05003663003663,0.9815384615384615
1.4811286059994018,1.1580219780219778,1.05003663003663,0.9815384615384615
1.4820018419995904,1.1580219780219778,1.05003663003663,0.9815384615384615
1.4835561040017637,1.3772161172161173,0.14666666666666667,0.2369230769230769
1.4874781960024848,1.3772161172161173,0.14666666666666667,0.2369230769230769
1.4914783269996406,1.3772161172161173,0.14666666666666667,0.2369230769230769
1.495405526002287,1.3772161172161173,0.14666666666666667,0.2369230769230769
1.499259536001773,1.3772161172161173,0.14666666666666667,0.2369230769230769
1.5030172199985827,1.3772161172161173,0.14666666666666667,0.2369230769230769
1.5076992190006422,1.3772161172161173,0.14666666666666667,0.2369230769230769
1.5079213749995688,0.9106227106227106,0.27076923076923076,0.585054945054945
1.5125917219993426,0.9106227106227106,0.27076923076923076,0.585054945054945
1.5127298759980476,0.3312087912087912,1.0387545787545787,1.0387545787545787
1.5181500569960917,0.3312087912087912,1.0387545787545787,1.0387545787545787
1.5198090589983622,1.0822710622710623,0.37875457875457874,0.1555311355311355
1.5242823919979855,1.0822710622710623,0.37875457875457874,0.1555311355311355
1.5258842249968438,1.0822710622710623,0.37875457875457874,0.1555311355311355
1.5298798399962834,1.0822710622710623,0.37875457875457874,0.1555311355311355
1.5331167749973247,1.0822710622710623,0.37875457875457874,0.1555311355311355
1.5349053850004566,0.23208791208791207,1.0145787545787546,1.1757509157509156
1.5380900250020204,0.23208791208791207,1.0145787545787546,1.1757509157509156
1.5396735419999459,0.23208791208791207,1.0145787545787546,1.1757509157509156
1.5435945700010052,1.7205128205128206,0.7768498168498168,0.5286446886446886
1.5476333469996462,1.7205128205128206,0.7768498168498168,0.5286446886446886
1.5516186719978577,2.681098901098901,1.2305494505494505,1.1902564102564102
1.5548754900009953,2.681098901098901,1.2305494505494505,1.1902564102564102
1.5560125900010462,2.681098901098901,1.2305494505494505,1.1902564102564102
1.5563076109974645,2.681098901098901,1.2305494505494505,1.1902564102564102
1.5610619739964022,2.681098901098901,1.2305494505494505,1.1902564102564102
1.5612053680015379,3.058241758241758,1.5126007326007325,0.5931135531135531
1.565794451002148,3.058241758241758,1.5126007326007325,0.5931135531135531
1.566086954997445,0.834065934065934,0.12329670329670328,0.25223443223443226
1.5715858589974232,0.834065934065934,0.12329670329670328,0.25223443223443226
1.5732500859958236,0.834065934065934,0.12329670329670328,0.25223443223443226
1.5770364429990877,0.834065934065934,0.12329670329670328,0.25223443223443226
1.5817433949996484,0.834065934065934,0.12329670329670328,0.25223443223443226
1.5872844670011546,0.834065934065934,0.12329670329670328,0.25223443223443226
1.588139751998824,0.834065934065934,0.12329670329670328,0.25223443223443226
1.5897020510019502,0.834065934065934,0.12329670329670328,0.25223443223443226
1.5944536390015855,2.7165567765567764,1.3925274725274726,0.7978021978021977
1.5999962519999826,2.7165567765567764,1.3925274725274726,0.7978021978021977
1.6017248220014153,2.7165567765567764,1.3925274725274726,0.7978021978021977
1.604930453999259,2.7165567765567764,1.3925274725274726,0.7978021978021977
1.6059325969981728,2.7165567765567764,1.3925274725274726,0.7978021978021977
1.6062524000008125,2.7165567765567764,1.3925274725274726,0.7978021978021977
1.6116799079973134,2.7165567765567764,1.3925274725274726,0.7978021978021977
1.6134309499975643,1.6939194139194136,1.1596336996336996,0.6704761904761904
1.615859637997346,1.6939194139194136,1.1596336996336996,0.6704761904761904
1.6160914209976909,0.8574358974358974,0.303003663003663,0.18373626373626373
1.621376908995444,0.8574358974358974,0.303003663003663,0.18373626373626373
1.6230141220003134,0.8574358974358974,0.303003663003663,0.18373626373626373
1.626817796000978,0.8574358974358974,0.303003663003663,0.18373626373626373
1.6322046759960358,0.8574358974358974,0.303003663003663,0.18373626373626373
1.6338140009975177,0.8574358974358974,0.303003663003663,0.18373626373626373
1.6385141220016521,0.8574358974358974,0.303003663003663,0.18373626373626373
1.63863839199621,0.8574358974358974,0.303003663003663,0.18373626373626373
1.6443651849986054,0.8574358974358974,0.303003663003663,0.18373626373626373
1.6446203219966264,1.3949450549450548,0.1378021978021978,0.3046153846153846
1.6499327740020817,1.3949450549450548,0.1378021978021978,0.3046153846153846
1.6553160690018558,1.6931135531135528,0.9073992673992675,0.6124542124542125
1.6556693079983233,1.6931135531135528,0.9073992673992675,0.6124542124542125
1.662572684996121,1.6931135531135528,0.9073992673992675,0.6124542124542125
1.666627945000073,1.6931135531135528,0.9073992673992675,0.6124542124542125
1.6698321590010892,1.6931135531135528,0.9073992673992675,0.6124542124542125
1.6716911399998935,1.6931135531135528,0.9073992673992675,0.6124542124542125
1.674062692996813,1.6931135531135528,0.9073992673992675,0.6124542124542125
1.6743372819983051,1.6931135531135528,0.9073992673992675,0.6124542124542125
1.6789108070006478,1.6931135531135528,0.9073992673992675,0.6124542124542125
1.6791464720008662,1.6931135531135528,0.9073992673992675,0.6124542124542125
1.6837117120012408,1.6931135531135528,0.9073992673992675,0.6124542124542125
1.6845568729986553,1.6931135531135528,0.9073992673992675,0.6124542124542125
1.6854520269989735,1.6931135531135528,0.9073992673992675,0.6124542124542125
1.6870624399962253,1.7946520146520144,1.058901098901099,1.1805860805860806
1.691816350001318,1.7946520146520144,1.058901098901099,1.1805860805860806
1.6973404019954614,1.7946520146520144,1.058901098901099,1.1805860805860806
1.6983091860020068,1.7946520146520144,1.058901098901099,1.1805860805860806
1.6993194149981719,1.7946520146520144,1.058901098901099,1.1805860805860806
1.7001743270011502,1.7946520146520144,1.058901098901099,1.1805860805860806
1.7019255560007878,1.7946520146520144,1.058901098901099,1.1805860805860806
1.7058234720025212,1.7946520146520144,1.058901098901099,1.1805860805860806
1.70970629400108,1.7946520146520144,1.058901098901099,1.1805860805860806
1.7142539880005643,1.7946520146520144,1.058901098901099,1.1805860805860806
1.7145610939987819,1.7946520146520144,1.058901098901099,1.1805860805860806
1.719387815996015,1.7946520146520144,1.058901098901099,1.1805860805860806
1.7248650429974077,1.7946520146520144,1.058901098901099,1.1805860805860806
1.7264488380023977,1.7946520146520144,1.058901098901099,1.1805860805860806
1.7304707169969333,1.7946520146520144,1.058901098901099,1.1805860805860806
1.733630691000144,1.7946520146520144,1.058901098901099,1.1805860805860806
1.7351710809962242,1.7946520146520144,1.058901098901099,1.1805860805860806
1.7391126649963553,1.7946520146520144,1.058901098901099,1.1805860805860806
1.7430317109974567,1.7946520146520144,1.058901098901099,1.1805860805860806
1.7469213500007754,1.3578754578754577,0.25706959706959703,0.3586080586080586
1.7514052900005481,1.3578754578754577,0.25706959706959703,0.3586080586080586
1.751697786996374,1.3578754578754577,0.25706959706959703,0.3586080586080586
1.757313456000702,1.3578754578754577,0.25706959706959703,0.3586080586080586
1.7575981499976479,1.3578754578754577,0.25706959706959703,0.3586080586080586
1.7630229759961367,1.3578754578754577,0.25706959706959703,0.3586080586080586
1.7655594190000556,1.5464468864468863,0.1523076923076923,0.31509157509157504
1.770237555996573,1.5464468864468863,0.1523076923076923,0.31509157509157504
1.7704989970006864,1.5464468864468863,0.1523076923076923,0.31509157509157504
1.7753347769976244,1.5464468864468863,0.1523076923076923,0.31509157509157504
1.7754387960012536,1.4336263736263737,0.5302564102564102,0.0419047619047619
1.7808729030002723,1.4336263736263737,0.5302564102564102,0.0419047619047619
1.7824714829985169,1.3884981684981685,0.5310622710622711,0.4383882783882784
1.7869789760006825,1.3884981684981685,0.5310622710622711,0.4383882783882784
1.787908559999778,1.3884981684981685,0.5310622710622711,0.4383882783882784
1.7895209830021486,1.3884981684981685,0.5310622710622711,0.4383882783882784
1.7940425170017988,1.3884981684981685,0.5310622710622711,0.4383882783882784
1.7949651750022895,0.8888644688644688,1.0854945054945053,1.0443956043956042
1.7965882459975546,0.8888644688644688,1.0854945054945053,1.0443956043956042
1.8003596529961214,0.8888644688644688,1.0854945054945053,1.0443956043956042
1.8049084869999206,0.8888644688644688,1.0854945054945053,1.0443956043956042
1.8057574670019676,0.8888644688644688,1.0854945054945053,1.0443956043956042
1.807339499995578,0.8888644688644688,1.0854945054945053,1.0443956043956042
1.8114007469994249,0.8888644688644688,1.0854945054945053,1.0443956043956042
1.8138125830009812,0.8888644688644688,1.0854945054945053,1.0443956043956042
1.8139925229988876,1.4336263736263737,1.0903296703296703,0.8679120879120878
1.8190170020025107,1.4336263736263737,1.0903296703296703,0.8679120879120878
1.822801629998139,1.4336263736263737,1.0903296703296703,0.8679120879120878
1.8275532490006299,1.4336263736263737,1.0903296703296703,0.8679120879120878
1.8330883529997664,1.4336263736263737,1.0903296703296703,0.8679120879120878
1.833939233001729,1.4336263736263737,1.0903296703296703,0.8679120879120878
1.8357035750013893,1.4336263736263737,1.0903296703296703,0.8679120879120878
1.8388487659976818,1.0726007326007325,0.33684981684981685,0.23531135531135527
1.8404264630007674,1.0726007326007325,0.33684981684981685,0.23531135531135527
1.844322397999349,1.0726007326007325,0.33684981684981685,0.23531135531135527
1.849795930997061,1.0726007326007325,0.33684981684981685,0.23531135531135527
1.8515490450008656,2.6456410256410257,1.3167765567765568,0.585054945054945
1.8545831629962777,2.6456410256410257,1.3167765567765568,0.585054945054945
1.8569046209959197,2.6456410256410257,1.3167765567765568,0.585054945054945
1.8571470440001576,2.6456410256410257,1.3167765567765568,0.585054945054945
1.8618875249958364,2.6456410256410257,1.3167765567765568,0.585054945054945
1.8620692050026264,2.6456410256410257,1.3167765567765568,0.585054945054945
1.866774524001812,2.6456410256410257,1.3167765567765568,0.585054945054945
1.866980478996993,0.954945054945055,0.15311355311355312,0.1676190476190476
1.872557885995775,0.954945054945055,0.15311355311355312,0.1676190476190476
1.8735197080022772,0.954945054945055,0.15311355311355312,0.1676190476190476
1.8750931120011955,0.954945054945055,0.15311355311355312,0.1676190476190476
1.8788611630006926,0.954945054945055,0.15311355311355312,0.1676190476190476
1.8841050490009366,0.954945054945055,0.15311355311355312,0.1676190476190476
1.8873052290000487,0.954945054945055,0.15311355311355312,0.1676190476190476
1.88902331799909,0.954945054945055,0.15311355311355312,0.1676190476190476
1.8921049499986111,0.954945054945055,0.15311355311355312,0.1676190476190476
1.8945075099982205,0.954945054945055,0.15311355311355312,0.1676190476190476
1.8946342619965435,0.954945054945055,0.15311355311355312,0.1676190476190476
1.9002632150004501,0.954945054945055,0.15311355311355312,0.1676190476190476
1.9011070920023485,2.9180219780219776,1.5335531135531135,0.4166300366300366
1.9027112650001072,2.9180219780219776,1.5335531135531135,0.4166300366300366
1.9073016149995965,2.9180219780219776,1.5335531135531135,0.4166300366300366
1.9075081539995153,2.5070329670329667,1.2885714285714285,1.0999999999999999
1.9123296329998993,2.5070329670329667,1.2885714285714285,1.0999999999999999
1.9125137049995828,2.5070329670329667,1.2885714285714285,1.0999999999999999
1.9174673349989462,2.5070329670329667,1.2885714285714285,1.0999999999999999
1.9220448190026218,2.5070329670329667,1.2885714285714285,1.0999999999999999
1.9229114769987063,2.5070329670329667,1.2885714285714285,1.0999999999999999
1.9246577779995278,2.5070329670329667,1.2885714285714285,1.0999999999999999
1.9270446169975912,1.8204395604395605,0.9726739926739927,1.0717948717948718
1.9272467049959232,1.8204395604395605,0.9726739926739927,1.0717948717948718
1.9319334050014731,1.8204395604395605,0.9726739926739927,1.0717948717948718
1.9321785479987739,0.7147985347985348,1.0653479853479852,0.8469597069597068
1.9367965560013545,0.7147985347985348,1.0653479853479852,0.8469597069597068
1.937038156997005,1.1354578754578755,0.4142124542124542,0.30945054945054945
1.9432181149968528,1.1354578754578755,0.4142124542124542,0.30945054945054945
1.9471117489956669,1.1354578754578755,0.4142124542124542,0.30945054945054945
1.9516337269960786,1.1354578754578755,0.4142124542124542,0.30945054945054945
1.9519515729989507,1.1354578754578755,0.4142124542124542,0.30945054945054945
1.9574247599957744,1.1354578754578755,0.4142124542124542,0.30945054945054945
1.959755932999542,1.1354578754578755,0.4142124542124542,0.30945054945054945
1.9599487559971749,1.1354578754578755,0.4142124542124542,0.30945054945054945
1.965582753997296,1.1354578754578755,0.4142124542124542,0.30945054945054945
1.9658664189992123,1.1354578754578755,0.4142124542124542,0.30945054945054945
1.9711417569997138,1.1354578754578755,0.4142124542124542,0.30945054945054945
1.9735463409961085,1.1354578754578755,0.4142124542124542,0.30945054945054945
1.9737206889985828,1.1354578754578755,0.4142124542124542,0.30945054945054945
1.9787222230006591,1.1354578754578755,0.4142124542124542,0.30945054945054945
1.9828633060024003,1.814798534798535,0.7389743589743589,0.4593406593406593
1.986356531000638,1.6568498168498167,0.17084249084249084,0.2498168498168498
1.9864910539981793,1.6568498168498167,0.17084249084249084,0.2498168498168498
1.9914076839995687,1.6568498168498167,0.17084249084249084,0.2498168498168498
1.9965291179978522,1.6568498168498167,0.17084249084249084,0.2498168498168498
2.0003782179992413,1.6568498168498167,0.17084249084249084,0.2498168498168498
2.0054230239984463,1.2772893772893772,0.26996336996336995,0.3594139194139194
2.0096073969980353,1.2772893772893772,0.26996336996336995,0.3594139194139194
2.0113870349960052,3.219413919413919,0.7687912087912088,0.3352380952380952
2.0148206829981063,3.219413919413919,0.7687912087912088,0.3352380952380952
2.0149797609992675,3.219413919413919,0.7687912087912088,0.3352380952380952
2.020263338999939,1.6068864468864468,0.5246153846153846,0.29413919413919415
2.0233839950014954,1.6068864468864468,0.5246153846153846,0.29413919413919415
2.024879060998501,1.6068864468864468,0.5246153846153846,0.29413919413919415
2.029161484002543,1.6068864468864468,0.5246153846153846,0.29413919413919415
2.0313796019981964,1.4698901098901098,0.5254212454212454,0.8002197802197801
2.032151667001017,1.4698901098901098,0.5254212454212454,0.8002197802197801
2.033804824000981,1.4698901098901098,0.5254212454212454,0.8002197802197801
2.038214906999201,1.4698901098901098,0.5254212454212454,0.8002197802197801
2.039152172001195,1.4698901098901098,0.5254212454212454,0.8002197802197801
2.0407879529957427,2.423223443223443,1.0468131868131867,0.3972893772893773
2.044453192000219,2.423223443223443,1.0468131868131867,0.3972893772893773
2.0493734760020743,2.423223443223443,1.0468131868131867,0.3972893772893773
2.049518410996825,1.8832967032967032,0.415018315018315,0.7043223443223443
2.05466123700171,1.8832967032967032,0.415018315018315,0.7043223443223443
2.059028969000792,1.025054945054945,1.0661538461538462,0.7027106227106227
2.0599001689988654,1.7003663003663,0.3892307692307692,0.03545787545787545
2.0615543099993374,1.7003663003663,0.3892307692307692,0.03545787545787545
2.0655383659977815,1.7841758241758239,0.17809523809523808,0.2111355311355311
2.0694360779962153,1.7841758241758239,0.17809523809523808,0.2111355311355311
2.073204442996939,1.7841758241758239,0.17809523809523808,0.2111355311355311
2.0779479510019883,1.7841758241758239,0.17809523809523808,0.2111355311355311
2.0781549519961118,1.5964102564102562,0.39890109890109887,0.4045421245421245
2.08306881399767,1.6109157509157508,0.39567765567765567,0.33684981684981685
2.0899158469983377,1.6109157509157508,0.39567765567765567,0.33684981684981685
2.093722486999468,1.6109157509157508,0.39567765567765567,0.33684981684981685
2.0985300699976506,1.6109157509157508,0.39567765567765567,0.33684981684981685
2.0987257399974624,1.6109157509157508,0.39567765567765567,0.33684981684981685
2.1043659889983246,1.6109157509157508,0.39567765567765567,0.33684981684981685
2.105183073996159,1.569010989010989,0.18776556776556774,0.3078388278388278
2.1068250600001193,1.569010989010989,0.18776556776556774,0.3078388278388278
2.1105864779965486,1.569010989010989,0.18776556776556774,0.3078388278388278
2.1158479809964774,1.569010989010989,0.18776556776556774,0.3078388278388278
2.119594951996987,1.569010989010989,0.18776556776556774,0.3078388278388278
2.1242524859990226,1.569010989010989,0.18776556776556774,0.3078388278388278
2.124570212996332,1.2273260073260073,0.16117216117216115,0.23369963369963367
2.1293360519994167,1.2273260073260073,0.16117216117216115,0.23369963369963367
2.1295166369964136,2.697216117216117,0.39487179487179486,0.14505494505494507
2.135137429999304,2.697216117216117,0.39487179487179486,0.14505494505494507
2.135935767000774,2.697216117216117,0.39487179487179486,0.14505494505494507
2.1374923059993307,2.697216117216117,0.39487179487179486,0.14505494505494507
2.141710030999093,2.697216117216117,0.39487179487179486,0.14505494505494507
2.144490405000397,2.697216117216117,0.39487179487179486,0.14505494505494507
2.147919233000721,2.697216117216117,0.39487179487179486,0.14505494505494507
2.14818509700126,2.697216117216117,0.39487179487179486,0.14505494505494507
2.1529214549955213,2.697216117216117,0.39487179487179486,0.14505494505494507
2.1531614619962056,0.5568498168498168,1.003296703296703,1.6213919413919413
2.1582778329975554,0.5568498168498168,1.003296703296703,1.6213919413919413
2.1615484680005466,2.6649816849816848,0.7534798534798535,0.7824908424908424
2.16241800699936,2.6649816849816848,0.7534798534798535,0.7824908424908424
2.164003819001664,2.6649816849816848,0.7534798534798535,0.7824908424908424
2.1684683109997422,2.6649816849816848,0.7534798534798535,0.7824908424908424
2.1693199910005205,3.3,1.3127472527472526,2.437728937728938
2.1708889130022726,3.3,1.3127472527472526,2.437728937728938
2.1747876059962437,3.3,1.3127472527472526,2.437728937728938
2.1787548489955952,3.3,1.3127472527472526,2.437728937728938
2.1826246170021477,3.3,1.3127472527472526,2.437728937728938
2.1866043039990473,3.3,1.3127472527472526,2.437728937728938
2.1898088960006135,3.3,1.3127472527472526,2.437728937728938
2.191447249002522,3.3,1.3127472527472526,2.437728937728938
2.195343988001696,3.3,1.3127472527472526,2.437728937728938
2.1990663319957093,3.3,1.3127472527472526,2.437728937728938
2.204832067996904,3.3,1.3127472527472526,2.437728937728938
2.2050149310016423,1.3328937728937729,0.15472527472527473,0.6253479853479853
2.2105861859963625,1.3328937728937729,0.15472527472527473,0.6253479853479853
2.210817967999901,1.3328937728937729,0.15472527472527473,0.6253479853479853
2.216218679997837,1.3328937728937729,0.15472527472527473,0.6253479853479853
2.218023394001648,2.706886446886447,0.8816117216117215,1.519047619047619
2.221137296000961,2.706886446886447,0.8816117216117215,1.519047619047619
2.2220634869954665,1.7527472527472527,0.2248351648351648,0.8928937728937728
2.2236963999966974,1.7527472527472527,0.2248351648351648,0.8928937728937728
2.2284176600005594,1.1684981684981686,0.14102564102564102,0.6164835164835165
2.2337064129969804,1.1684981684981686,0.14102564102564102,0.6164835164835165
2.23668819500017,1.1684981684981686,0.14102564102564102,0.6164835164835165
2.239024766997318,1.796263736263736,0.4899633699633699,1.4054212454212454
2.2392224919967703,1.796263736263736,0.4899633699633699,1.4054212454212454
2.244421830997453,1.796263736263736,0.4899633699633699,1.4054212454212454
2.2467478399994434,1.4690842490842488,0.14908424908424908,0.7059340659340658
2.24758899200242,1.4690842490842488,0.14908424908424908,0.7059340659340658
2.2491676829959033,3.175091575091575,0.5560439560439561,1.066959706959707
2.2529701059975196,3.175091575091575,0.5560439560439561,1.066959706959707
2.2530946129991207,3.175091575091575,0.5560439560439561,1.066959706959707
2.2587008319969755,3.175091575091575,0.5560439560439561,1.066959706959707
2.2589868279974326,1.8558974358974358,0.5068864468864469,1.3498168498168497
2.263500164997822,2.10007326007326,0.9517216117216116,0.51010989010989
2.264393083998584,2.10007326007326,0.9517216117216116,0.51010989010989
2.265945040002407,0.9871794871794871,0.1668131868131868,0.4174358974358974
2.2703601390021504,0.9871794871794871,0.1668131868131868,0.4174358974358974
2.271256813000946,0.9871794871794871,0.1668131868131868,0.4174358974358974
2.2728621099959128,0.9871794871794871,0.1668131868131868,0.4174358974358974
2.2780560920000426,0.9871794871794871,0.1668131868131868,0.4174358974358974
2.2810601469973335,0.9871794871794871,0.1668131868131868,0.4174358974358974
2.284059341000102,0.9871794871794871,0.1668131868131868,0.4174358974358974
2.2868261039984645,0.9871794871794871,0.1668131868131868,0.4174358974358974
2.2903635809998377,2.8664468864468864,1.282930402930403,3.3
2.2905773739985307,2.8664468864468864,1.282930402930403,3.3
2.294897907995619,2.8664468864468864,1.282930402930403,3.3
2.2970523179974407,2.61018315018315,0.958974358974359,2.399047619047619
2.298509546999412,2.61018315018315,0.958974358974359,2.399047619047619
2.302654952996818,2.61018315018315,0.958974358974359,2.399047619047619
2.3055076180025935,2.61018315018315,0.958974358974359,2.399047619047619
2.3086604389973218,2.61018315018315,0.958974358974359,2.399047619047619
2.311090069000784,2.61018315018315,0.958974358974359,2.399047619047619
2.3113061969997943,2.61018315018315,0.958974358974359,2.399047619047619
2.316066799001419,2.61018315018315,0.958974358974359,2.399047619047619
2.3162330740015022,2.61018315018315,0.958974358974359,2.399047619047619
2.3207522250013426,2.61018315018315,0.958974358974359,2.399047619047619
2.3217970819969196,2.61018315018315,0.958974358974359,2.399047619047619
2.3226482609970844,2.61018315018315,0.958974358974359,2.399047619047619
2.323602750999271,2.61018315018315,0.958974358974359,2.399047619047619
2.325160472995776,2.61018315018315,0.958974358974359,2.399047619047619
2.3298212789959507,2.61018315018315,0.958974358974359,2.399047619047619
2.329985887998191,2.61018315018315,0.958974358974359,2.399047619047619
2.334847261001414,2.61018315018315,0.958974358974359,2.399047619047619
2.3404984829976456,2.61018315018315,0.958974358974359,2.399047619047619
2.3407911929971306,2.61018315018315,0.958974358974359,2.399047619047619
2.3456069759995444,2.61018315018315,0.958974358974359,2.399047619047619
2.3512825220022933,2.61018315018315,0.958974358974359,2.399047619047619
2.3515046760003315,2.61018315018315,0.958974358974359,2.399047619047619
2.3560369629994966,2.61018315018315,0.958974358974359,2.399047619047619
2.3570366429994465,2.61018315018315,0.958974358974359,2.399047619047619
2.357950076999259,2.61018315018315,0.958974358974359,2.399047619047619
2.359551574001671,2.61018315018315,0.958974358974359,2.399047619047619
2.363284423998266,2.61018315018315,0.958974358974359,2.399047619047619
2.3688876009982778,2.61018315018315,0.958974358974359,2.399047619047619
2.3697490679987823,2.61018315018315,0.958974358974359,2.399047619047619
2.371321947000979,2.61018315018315,0.958974358974359,2.399047619047619
2.375095933995908,2.61018315018315,0.958974358974359,2.399047619047619
2.379628105001757,2.61018315018315,0.958974358974359,2.399047619047619
2.380611811997369,2.61018315018315,0.958974358974359,2.399047619047619
2.3815556909976294,2.61018315018315,0.958974358974359,2.399047619047619
2.383114939999359,2.61018315018315,0.958974358974359,2.399047619047619
2.3869103449978866,0.8566300366300367,0.14586080586080585,0.40776556776556777
2.3914385190000758,0.8566300366300367,0.14586080586080585,0.40776556776556777
2.3923221479999484,0.8566300366300367,0.14586080586080585,0.40776556776556777
2.3939336170005845,0.8566300366300367,0.14586080586080585,0.40776556776556777
2.3988110259961104,2.4473992673992675,1.1878388278388277,3.3
2.4033827039966127,2.4473992673992675,1.1878388278388277,3.3
2.4036480110007687,0.8066666666666666,0.14908424908424908,0.21838827838827837
2.4089051359987934,0.8066666666666666,0.14908424908424908,0.21838827838827837
2.411199647001922,0.8066666666666666,0.14908424908424908,0.21838827838827837
2.4115171289959108,0.8066666666666666,0.14908424908424908,0.21838827838827837
2.4164080979971914,0.8066666666666666,0.14908424908424908,0.21838827838827837
2.4220288849974168,0.8066666666666666,0.14908424908424908,0.21838827838827837
2.4229047760018148,3.09047619047619,1.5013186813186812,0.5769963369963369
2.42444119600259,3.09047619047619,1.5013186813186812,0.5769963369963369
2.4280141179988277,3.09047619047619,1.5013186813186812,0.5769963369963369
2.4282739059999585,3.3,1.228937728937729,2.771355311355311
2.432620883999334,3.3,1.228937728937729,2.771355311355311
2.434828090001247,1.3546520146520145,1.0016849816849815,1.2136263736263737
2.4356421749980655,1.3546520146520145,1.0016849816849815,1.2136263736263737
2.437152929996955,1.3546520146520145,1.0016849816849815,1.2136263736263737
2.4413161619959283,1.3546520146520145,1.0016849816849815,1.2136263736263737
2.4442031279977527,1.3546520146520145,1.0016849816849815,1.2136263736263737
2.447068011999363,1.3546520146520145,1.0016849816849815,1.2136263736263737
2.450520639999013,1.3546520146520145,1.0016849816849815,1.2136263736263737
2.450707808995503,1.3546520146520145,1.0016849816849815,1.2136263736263737
2.4556152149962145,1.3546520146520145,1.0016849816849815,1.2136263736263737
2.460460025999055,1.3546520146520145,1.0016849816849815,1.2136263736263737
2.466153488996497,1.5802930402930402,0.5971428571428571,0.16036630036630037
2.46645598699979,2.8664468864468864,1.3667399267399267,2.5271794871794873
2.4709986899979413,2.8664468864468864,1.3667399267399267,2.5271794871794873
2.4719016469971393,2.8664468864468864,1.3667399267399267,2.5271794871794873
2.4734690289988066,2.8664468864468864,1.3667399267399267,2.5271794871794873
2.4772472839977127,2.8664468864468864,1.3667399267399267,2.5271794871794873
2.48218701499718,1.3014652014652013,0.3231501831501831,0.13377289377289378
2.486636745998112,1.3014652014652013,0.3231501831501831,0.13377289377289378
2.4875391789973946,1.3014652014652013,0.3231501831501831,0.13377289377289378
2.4891052050006692,1.3014652014652013,0.3231501831501831,0.13377289377289378
2.492873053000949,2.698827838827839,1.303076923076923,0.9775091575091575
2.498325993998151,2.698827838827839,1.303076923076923,0.9775091575091575
2.5000663839964545,1.282930402930403,0.4488644688644688,0.5778021978021978
2.503786631001276,1.282930402930403,0.4488644688644688,0.5778021978021978
2.5092792919967906,1.282930402930403,0.4488644688644688,0.5778021978021978
2.5110368609966827,1.282930402930403,0.4488644688644688,0.5778021978021978
2.5141728980015614,1.282930402930403,0.4488644688644688,0.5778021978021978
2.516647334996378,1.282930402930403,0.4488644688644688,0.5778021978021978
2.5222314019993064,1.282930402930403,0.4488644688644688,0.5778021978021978
2.5224682749976637,1.593992673992674,0.17164835164835165,0.3916483516483516
2.5280794909995166,1.593992673992674,0.17164835164835165,0.3916483516483516
2.5283206820022315,1.593992673992674,0.17164835164835165,0.3916483516483516
2.5335073599999305,1.593992673992674,0.17164835164835165,0.3916483516483516
2.536510776997602,1.593992673992674,0.17164835164835165,0.3916483516483516
2.5394826709962217,0.9186813186813186,0.30058608058608055,0.29736263736263735
2.54245287199592,0.9186813186813186,0.30058608058608055,0.29736263736263735
2.5454223420019844,1.6383150183150184,0.23047619047619047,0.5383150183150183
2.5477392219981994,1.6383150183150184,0.23047619047619047,0.5383150183150183
2.5480398450017674,1.6383150183150184,0.23047619047619047,0.5383150183150183
2.5533421719956095,1.6383150183150184,0.23047619047619047,0.5383150183150183
2.5556940599999507,1.6383150183150184,0.23047619047619047,0.5383150183150183
2.555976265000936,1.498095238095238,0.48754578754578753,0.07575091575091575
2.560985145995801,1.498095238095238,0.48754578754578753,0.07575091575091575
2.5645677119973698,1.498095238095238,0.48754578754578753,0.07575091575091575
2.564853874995606,1.498095238095238,0.48754578754578753,0.07575091575091575
2.5698142780020135,1.498095238095238,0.48754578754578753,0.07575091575091575
2.573919146001572,1.498095238095238,0.48754578754578753,0.07575091575091575
2.577278737000597,1.498095238095238,0.48754578754578753,0.07575091575091575
2.5780735419975827,1.498095238095238,0.48754578754578753,0.07575091575091575
2.580197868999676,1.498095238095238,0.48754578754578753,0.07575091575091575
2.5810718220018316,1.498095238095238,0.48754578754578753,0.07575091575091575
2.5831442560011055,1.3224175824175823,0.22805860805860806,0.33604395604395604
2.5846001600002637,1.3224175824175823,0.22805860805860806,0.33604395604395604
2.589403220998065,1.3224175824175823,0.22805860805860806,0.33604395604395604
2.589585902998806,1.3224175824175823,0.22805860805860806,0.33604395604395604
2.594574486996862,1.3224175824175823,0.22805860805860806,0.33604395604395604
2.6002740080002695,1.3224175824175823,0.22805860805860806,0.33604395604395604
2.6004220149989123,1.3224175824175823,0.22805860805860806,0.33604395604395604
2.605637888002093,1.3224175824175823,0.22805860805860806,0.33604395604395604
2.608275231999869,1.1233699633699634,0.14505494505494507,0.4528937728937729
2.6127322659958736,1.1233699633699634,0.14505494505494507,0.4528937728937729
2.6136101259980933,0.8808058608058608,1.0516483516483515,1.3925274725274726
2.614731807996577,0.8808058608058608,1.0516483516483515,1.3925274725274726
2.6157983829980367,0.8808058608058608,1.0516483516483515,1.3925274725274726
2.61666777299979,0.8808058608058608,1.0516483516483515,1.3925274725274726
2.618413447999046,0.8808058608058608,1.0516483516483515,1.3925274725274726
2.620775010997022,0.8808058608058608,1.0516483516483515,1.3925274725274726
2.6210808159958106,0.8808058608058608,1.0516483516483515,1.3925274725274726
2.6257099750000634,0.8808058608058608,1.0516483516483515,1.3925274725274726
2.62587696799892,0.8808058608058608,1.0516483516483515,1.3925274725274726
2.6304965689996607,0.8808058608058608,1.0516483516483515,1.3925274725274726
2.630826688997331,0.8808058608058608,1.0516483516483515,1.3925274725274726
2.6353340319983545,0.8808058608058608,1.0516483516483515,1.3925274725274726
2.6362623879977036,0.8808058608058608,1.0516483516483515,1.3925274725274726
2.637951297001564,0.8808058608058608,1.0516483516483515,1.3925274725274726
2.641274716996122,0.8808058608058608,1.0516483516483515,1.3925274725274726
2.6421586599972215,0.8808058608058608,1.0516483516483515,1.3925274725274726
2.643713334997301,0.8808058608058608,1.0516483516483515,1.3925274725274726
2.6484264329992584,0.8808058608058608,1.0516483516483515,1.3925274725274726
2.6537930949998554,0.8808058608058608,1.0516483516483515,1.3925274725274726
2.6568184310017386,0.8808058608058608,1.0516483516483515,1.3925274725274726
2.659176403998572,0.8808058608058608,1.0516483516483515,1.3925274725274726
2.6593557779997354,0.8808058608058608,1.0516483516483515,1.3925274725274726
2.6648247970006196,0.8808058608058608,1.0516483516483515,1.3925274725274726
2.6664312389984843,0.8808058608058608,1.0516483516483515,1.3925274725274726
2.6702629950013943,0.8808058608058608,1.0516483516483515,1.3925274725274726
2.674784805996751,0.8808058608058608,1.0516483516483515,1.3925274725274726
2.6751252460016985,0.8808058608058608,1.0516483516483515,1.3925274725274726
2.6796612120015197,0.8808058608058608,1.0516483516483515,1.3925274725274726
2.680592472999706,1.236996336996337,0.4456410256410256,0.2627106227106227
2.6821607509991736,1.236996336996337,0.4456410256410256,0.2627106227106227
2.686568498997076,1.5754578754578754,0.1418315018315018,0.6873992673992674
2.6874445880021085,1.5754578754578754,0.1418315018315018,0.6873992673992674
2.6890129359962884,1.5754578754578754,0.1418315018315018,0.6873992673992674
2.696220589001314,1.5754578754578754,0.1418315018315018,0.6873992673992674
2.700643021002179,1.5754578754578754,0.1418315018315018,0.6873992673992674
2.700872585999605,1.5754578754578754,0.1418315018315018,0.6873992673992674
2.70743324799696,1.5754578754578754,0.1418315018315018,0.6873992673992674
2.7125047969966545,1.5754578754578754,0.1418315018315018,0.6873992673992674
2.7172357870003907,1.5754578754578754,0.1418315018315018,0.6873992673992674
2.7248088720007217,1.290989010989011,0.4899633699633699,0.70996336996337
2.7313386120003997,1.290989010989011,0.4899633699633699,0.70996336996337
2.7358922109997366,1.290989010989011,0.4899633699633699,0.70996336996337
2.7361273159986013,1.290989010989011,0.4899633699633699,0.70996336996337
2.7450092419967405,1.3522344322344322,0.4859340659340659,0.3142857142857142
2.7517483119954704,1.3522344322344322,0.4859340659340659,0.3142857142857142
2.756472193999798,1.3522344322344322,0.4859340659340659,0.3142857142857142
2.7624647119955625,1.3522344322344322,0.4859340659340659,0.3142857142857142
2.772631234001892,1.3522344322344322,0.4859340659340659,0.3142857142857142
2.777837076995638,1.714065934065934,0.3432967032967033,0.19179487179487179
2.781090035001398,1.714065934065934,0.3432967032967033,0.19179487179487179
2.7819296379966545,1.5827106227106227,0.224029304029304,0.5431501831501832
2.7828695380012505,1.2023443223443222,0.15311355311355312,0.3263736263736263
2.784658735996345,1.2023443223443222,0.15311355311355312,0.3263736263736263
2.7879816450004,0.7583150183150182,0.15311355311355312,0.4488644688644688
2.78887449499598,0.7583150183150182,0.15311355311355312,0.4488644688644688
2.7905950319982367,0.7583150183150182,0.15311355311355312,0.4488644688644688
2.7946312189960736,0.7583150183150182,0.15311355311355312,0.4488644688644688
2.797947867999028,1.477142857142857,0.6712820512820512,0.14344322344322344
2.7987979559984524,0.5665201465201465,0.23531135531135527,0.2224175824175824
2.8005266559994197,0.5665201465201465,0.23531135531135527,0.2224175824175824
2.8040575859995442,1.2652014652014651,0.3312087912087912,0.7599267399267399
2.8043174569975235,1.2652014652014651,0.3312087912087912,0.7599267399267399
2.8130489379982464,1.2652014652014651,0.3312087912087912,0.7599267399267399
2.8198725639958866,1.2652014652014651,0.3312087912087912,0.7599267399267399
2.823783112995443,1.2652014652014651,0.3312087912087912,0.7599267399267399
2.827420365996659,1.2652014652014651,0.3312087912087912,0.7599267399267399
2.8340711029959493,2.3200732600732596,1.1789743589743589,0.6495238095238095
2.8415143429956515,2.3200732600732596,1.1789743589743589,0.6495238095238095
2.847769469000923,2.3200732600732596,1.1789743589743589,0.6495238095238095
2.8551544069996453,2.3200732600732596,1.1789743589743589,0.6495238095238095
2.8613669330006815,2.3200732600732596,1.1789743589743589,0.6495238095238095
2.8649725430004764,2.3200732600732596,1.1789743589743589,0.6495238095238095
2.8651291630012565,2.3200732600732596,1.1789743589743589,0.6495238095238095
2.8727175349995377,2.481245421245421,1.1435164835164835,1.4215384615384616
2.8775941470012185,0.5068864468864469,0.9299633699633699,1.3167765567765568
2.8808857559997705,1.9687179487179485,1.0653479853479852,1.3393406593406594
2.8825712379984907,1.9687179487179485,1.0653479853479852,1.3393406593406594
2.8860895319958217,1.9687179487179485,1.0653479853479852,1.3393406593406594
2.886333577000187,2.2040293040293037,1.2563369963369961,2.1266666666666665
2.8924977259957814,2.2040293040293037,1.2563369963369961,2.1266666666666665
2.8964585329958936,2.2040293040293037,1.2563369963369961,2.1266666666666665
2.902149597997777,2.2040293040293037,1.2563369963369961,2.1266666666666665
2.902457798998512,3.008278388278388,1.5254945054945055,0.5721611721611721
2.907553730001382,3.008278388278388,1.5254945054945055,0.5721611721611721
2.9108040150022134,3.008278388278388,1.5254945054945055,0.5721611721611721
2.9117803139961325,3.008278388278388,1.5254945054945055,0.5721611721611721
2.9127262749971123,3.008278388278388,1.5254945054945055,0.5721611721611721
2.9136861419974593,3.008278388278388,1.5254945054945055,0.5721611721611721
2.915336304999073,3.008278388278388,1.5254945054945055,0.5721611721611721
2.9194463019957766,3.008278388278388,1.5254945054945055,0.5721611721611721
2.9252577660008683,1.7237362637362637,0.7027106227106227,0.4512820512820513
2.929281416996673,0.913040293040293,0.47142857142857136,1.5303296703296703
2.9325271749985404,2.797142857142857,1.3723809523809525,0.6994871794871794
2.933400765999977,0.3441025641025641,1.0919413919413918,2.1766300366300366
2.9375365059968317,1.5416117216117216,0.9621978021978022,2.2443223443223443
2.937843708998116,1.5416117216117216,0.9621978021978022,2.2443223443223443
2.9441545739973662,1.5416117216117216,0.9621978021978022,2.2443223443223443
2.9473026049963664,1.5416117216117216,0.9621978021978022,2.2443223443223443
2.950234862997604,1.5416117216117216,0.9621978021978022,2.2443223443223443
2.953200003998063,1.5416117216117216,0.9621978021978022,2.2443223443223443
2.955364367000584,1.5416117216117216,0.9621978021978022,2.2443223443223443
2.955646123002225,1.5416117216117216,0.9621978021978022,2.2443223443223443
2.960339331999421,1.5416117216117216,0.9621978021978022,2.2443223443223443
2.9605065479991026,1.5416117216117216,0.9621978021978022,2.2443223443223443
2.9653231100019184,1.5416117216117216,0.9621978021978022,2.2443223443223443
2.9654415199984214,1.5416117216117216,0.9621978021978022,2.2443223443223443
2.971517635996861,1.5416117216117216,0.9621978021978022,2.2443223443223443
2.976586443997803,1.5416117216117216,0.9621978021978022,2.2443223443223443
2.9796135569995386,0.6197069597069597,0.29816849816849816,0.5568498168498168
2.982283607001591,0.6197069597069597,0.29816849816849816,0.5568498168498168
2.991441803998896,0.6197069597069597,0.29816849816849816,0.5568498168498168
2.998066487001779,0.6197069597069597,0.29816849816849816,0.5568498168498168
3.004685366002377,2.0662271062271063,0.8211721611721612,0.3199267399267399
3.0091701409983216,2.0662271062271063,0.8211721611721612,0.3199267399267399
3.0094344659955823,2.0662271062271063,0.8211721611721612,0.3199267399267399
3.01743200099736,2.0662271062271063,0.8211721611721612,0.3199267399267399
3.0224687509980868,2.0662271062271063,0.8211721611721612,0.3199267399267399
3.0267115050010034,2.432893772893773,0.9372161172161171,0.39003663003663
3.02950849699846,2.432893772893773,0.9372161172161171,0.39003663003663
3.033103278001363,2.432893772893773,0.9372161172161171,0.39003663003663
3.0332709239955875,1.3143589743589743,1.083076923076923,2.581978021978022
3.04064534400095,1.3143589743589743,1.083076923076923,2.581978021978022
3.0454831559982267,1.1467399267399265,0.419047619047619,1.0742124542124543
3.052288958002464,1.1467399267399265,0.419047619047619,1.0742124542124543
3.0570374879971496,1.1467399267399265,0.419047619047619,1.0742124542124543
3.063711073999002,1.498901098901099,0.6213186813186813,0.9638095238095238
3.068302938998386,1.498901098901099,0.6213186813186813,0.9638095238095238
3.0685530549963005,1.498901098901099,0.6213186813186813,0.9638095238095238
3.074851227000181,2.4159706959706955,1.2934065934065933,0.365054945054945
3.0784072230017046,2.4159706959706955,1.2934065934065933,0.365054945054945
3.0869364099999075,2.4159706959706955,1.2934065934065933,0.365054945054945
3.0949531180012855,2.4159706959706955,1.2934065934065933,0.365054945054945
3.099247047000972,0.9581684981684981,0.3779487179487179,0.20227106227106226
3.10200906299724,0.9581684981684981,0.3779487179487179,0.20227106227106226
3.1063814049994107,0.9581684981684981,0.3779487179487179,0.20227106227106226
3.1066383459983626,0.9581684981684981,0.3779487179487179,0.20227106227106226
3.111741916000028,0.9581684981684981,0.3779487179487179,0.20227106227106226
3.1176301449959283,1.0983882783882783,1.0395604395604394,2.0114285714285716
3.126462526997784,1.0983882783882783,1.0395604395604394,2.0114285714285716
3.1311786279984517,1.0983882783882783,1.0395604395604394,2.0114285714285716
3.1313701210019644,1.0983882783882783,1.0395604395604394,2.0114285714285716
3.137732336996123,1.0983882783882783,1.0395604395604394,2.0114285714285716
3.1414433710015146,0.9871794871794871,0.28527472527472525,0.052380952380952375
3.146313288001693,0.9871794871794871,0.28527472527472525,0.052380952380952375
3.1527947669965215,0.9871794871794871,0.28527472527472525,0.052380952380952375
3.1572880949970568,0.9871794871794871,0.28527472527472525,0.052380952380952375
3.157496906002052,0.9871794871794871,0.28527472527472525,0.052380952380952375
3.162287813000148,0.9871794871794871,0.28527472527472525,0.052380952380952375
3.162449508999998,0.9871794871794871,0.28527472527472525,0.052380952380952375
3.1670624960024725,0.9871794871794871,0.28527472527472525,0.052380952380952375
3.1680657990000327,0.9871794871794871,0.28527472527472525,0.052380952380952375
3.1696728609967977,0.9871794871794871,0.28527472527472525,0.052380952380952375
3.1741663229986443,0.9871794871794871,0.28527472527472525,0.052380952380952375
3.174471710000944,0.9871794871794871,0.28527472527472525,0.052380952380952375
3.179256222996628,0.9871794871794871,0.28527472527472525,0.052380952380952375
3.1794292769991443,0.9871794871794871,0.28527472527472525,0.052380952380952375
3.1858940859965514,0.9871794871794871,0.28527472527472525,0.052380952380952375
3.190082758999779,0.9871794871794871,0.28527472527472525,0.052380952380952375
3.192451417002303,0.9871794871794871,0.28527472527472525,0.052380952380952375
3.192624948998855,0.5173626373626373,1.0983882783882783,1.46021978021978
3.1973464359980426,0.5173626373626373,1.0983882783882783,1.46021978021978
3.19827574500232,0.5173626373626373,1.0983882783882783,1.46021978021978
3.198574740999902,0.5173626373626373,1.0983882783882783,1.46021978021978
3.2050533709989395,0.5173626373626373,1.0983882783882783,1.46021978021978
3.208551764000731,0.5173626373626373,1.0983882783882783,1.46021978021978
3.213961750996532,3.026007326007326,1.44007326007326,0.772014652014652
3.2188992649971624,3.026007326007326,1.44007326007326,0.772014652014652
3.222540411996306,3.026007326007326,1.44007326007326,0.772014652014652
3.2280911289999494,1.5093772893772892,0.2071062271062271,0.7083516483516483
3.2283407479990274,1.5093772893772892,0.2071062271062271,0.7083516483516483
3.2357006649981486,1.5093772893772892,0.2071062271062271,0.7083516483516483
3.2402245159973972,0.8082783882783882,0.8953113553113552,1.037948717948718
3.2404257469970617,0.8082783882783882,0.8953113553113552,1.037948717948718
3.245136965000711,0.8082783882783882,0.8953113553113552,1.037948717948718
3.245308081000985,2.1685714285714286,1.2780952380952382,2.1758241758241756
3.2499144969988265,2.1685714285714286,1.2780952380952382,2.1758241758241756
3.2501724530011415,2.6843223443223443,1.373992673992674,0.7736263736263735
3.2563371470023412,2.6843223443223443,1.373992673992674,0.7736263736263735
3.260279738002282,1.9010256410256408,0.9468864468864467,1.3602930402930402
3.2641808330008644,1.1161172161172161,0.3167032967032967,0.28849816849816845
3.2683110340003623,0.7293040293040293,0.10315018315018315,0.17487179487179486
3.272896998998476,0.7293040293040293,0.10315018315018315,0.17487179487179486
3.2782522939960472,0.7293040293040293,0.10315018315018315,0.17487179487179486
3.2791469969961327,0.7293040293040293,0.10315018315018315,0.17487179487179486
3.2814871200025664,0.7293040293040293,0.10315018315018315,0.17487179487179486
3.281643347996578,0.7293040293040293,0.10315018315018315,0.17487179487179486
3.2895271989982575,0.7293040293040293,0.10315018315018315,0.17487179487179486
3.294263903000683,2.194358974358974,0.6148717948717949,0.7349450549450549
3.294484366000688,0.5632967032967032,1.0685714285714285,1.7116483516483516
3.2991627090013935,0.5632967032967032,1.0685714285714285,1.7116483516483516
3.300011649997032,0.5632967032967032,1.0685714285714285,1.7116483516483516
3.3030080710013863,0.5632967032967032,1.0685714285714285,1.7116483516483516
3.3064727789969766,0.5632967032967032,1.0685714285714285,1.7116483516483516
3.31112514599954,2.216117216117216,0.7131868131868132,0.8372893772893772
3.3112815049971687,2.216117216117216,0.7131868131868132,0.8372893772893772
3.3158734449971234,2.216117216117216,0.7131868131868132,0.8372893772893772
3.316210012002557,1.6068864468864468,0.929157509157509,1.4658608058608058
3.3233934109957772,1.6068864468864468,0.929157509157509,1.4658608058608058
3.3274761529974057,1.2257142857142858,0.2208058608058608,0.5149450549450549
3.331215008998697,1.2257142857142858,0.2208058608058608,0.5149450549450549
3.3376021340009174,1.2257142857142858,0.2208058608058608,0.5149450549450549
3.3432785350014456,1.4706959706959708,1.0742124542124543,1.8679853479853479
3.348986999997578,1.4706959706959708,1.0742124542124543,1.8679853479853479
3.349221881995618,1.7164835164835166,0.3884249084249084,0.4786813186813187
3.355242598001496,1.7164835164835166,0.3884249084249084,0.4786813186813187
3.3599681060004514,1.7164835164835166,0.3884249084249084,0.4786813186813187
3.3600835019969963,1.7164835164835166,0.3884249084249084,0.4786813186813187
3.3654367170020123,1.7164835164835166,0.3884249084249084,0.4786813186813187
3.3685373370026355,1.7164835164835166,0.3884249084249084,0.4786813186813187
3.370826735001174,1.9034432234432233,0.4899633699633699,0.6285714285714284
3.3711329310026485,1.9034432234432233,0.4899633699633699,0.6285714285714284
3.3766071749996627,1.9034432234432233,0.4899633699633699,0.6285714285714284
3.377562490000855,1.4513553113553113,0.8727472527472527,1.3949450549450548
3.378553862996341,1.4513553113553113,0.8727472527472527,1.3949450549450548
3.3794652249998762,1.4513553113553113,0.8727472527472527,1.3949450549450548
3.381172825000249,1.4513553113553113,0.8727472527472527,1.3949450549450548
3.3843023800000083,1.4513553113553113,0.8727472527472527,1.3949450549450548
3.3880813880023197,1.4513553113553113,0.8727472527472527,1.3949450549450548
3.392504197996459,1.4513553113553113,0.8727472527472527,1.3949450549450548
3.392666712999926,1.4513553113553113,0.8727472527472527,1.3949450549450548
3.3982811649984797,1.4513553113553113,0.8727472527472527,1.3949450549450548
3.3992553019998013,0.95010989010989,0.47706959706959706,0.4029304029304029
3.400173119000101,0.95010989010989,0.47706959706959706,0.4029304029304029
3.402098758997454,0.95010989010989,0.47706959706959706,0.4029304029304029
3.4048586810022243,0.95010989010989,0.47706959706959706,0.4029304029304029
3.4084766680025496,0.95010989010989,0.47706959706959706,0.4029304029304029
3.412280992997694,1.7422710622710622,0.32395604395604394,0.14989010989010987
3.416784856999584,1.7422710622710622,0.32395604395604394,0.14989010989010987
3.419049146999896,1.7422710622710622,0.32395604395604394,0.14989010989010987
3.427560028998414,1.7422710622710622,0.32395604395604394,0.14989010989010987
3.433490121002251,0.8445421245421244,0.4222710622710622,1.1459340659340658
3.4413635269957012,0.8445421245421244,0.4222710622710622,1.1459340659340658
3.446640722002485,0.8445421245421244,0.4222710622710622,1.1459340659340658
3.449390861998836,0.8445421245421244,0.4222710622710622,1.1459340659340658
3.4563588929959224,0.8445421245421244,0.4222710622710622,1.1459340659340658
3.459932890997152,1.3224175824175823,0.7841025641025641,0.8743589743589744
3.4600492829995346,1.3224175824175823,0.7841025641025641,0.8743589743589744
3.464734993998718,1.3224175824175823,0.7841025641025641,0.8743589743589744
3.4649613209985546,1.3224175824175823,0.7841025641025641,0.8743589743589744
3.4725479479966452,2.1750183150183147,1.3562637362637362,1.9155311355311355
3.4768401519977488,2.1750183150183147,1.3562637362637362,1.9155311355311355
3.478742458995839,2.1750183150183147,1.3562637362637362,1.9155311355311355
3.481433184002526,2.1750183150183147,1.3562637362637362,1.9155311355311355
3.486144492002495,2.1750183150183147,1.3562637362637362,1.9155311355311355
3.4942904449999332,1.1112820512820514,0.6406593406593406,1.3191941391941393
3.499613039995893,1.1112820512820514,0.6406593406593406,1.3191941391941393
3.502781884999422,1.1112820512820514,0.6406593406593406,1.3191941391941393
3.504250810998201,1.1112820512820514,0.6406593406593406,1.3191941391941393
3.5100536809986806,0.8115018315018314,0.2635164835164835,0.9267399267399267
3.516048780998972,1.6745787545787545,0.763956043956044,0.43435897435897436
3.523017239996989,1.6745787545787545,0.763956043956044,0.43435897435897436
3.5269643909996375,1.0484249084249082,0.3344322344322344,0.2635164835164835
3.5316118499977165,1.0484249084249082,0.3344322344322344,0.2635164835164835
3.531822546996409,0.7615384615384615,1.0782417582417583,1.5931868131868132
3.537218573001155,0.7615384615384615,1.0782417582417583,1.5931868131868132
3.5388819459985825,0.7615384615384615,1.0782417582417583,1.5931868131868132
3.5421735499985516,0.7615384615384615,1.0782417582417583,1.5931868131868132
3.5437638759976835,1.3836630036630035,0.28769230769230764,0.8646886446886447
3.547637391995522,1.3836630036630035,0.28769230769230764,0.8646886446886447
3.551661660996615,2.3378021978021977,1.1983150183150182,2.1709890109890106
3.557398099997954,2.3378021978021977,1.1983150183150182,2.1709890109890106
3.562590076995548,1.32,0.4754578754578754,0.166007326007326
3.5649324729965883,1.4924542124542124,0.20227106227106226,0.6205128205128204
3.5651174840022577,1.4924542124542124,0.20227106227106226,0.6205128205128204
3.5730378520020167,1.4924542124542124,0.20227106227106226,0.6205128205128204
3.5769706549981493,0.25223443223443226,1.0073260073260073,1.5166300366300365
3.5814616810021107,0.25223443223443226,1.0073260073260073,1.5166300366300365
3.5823210929956986,0.25223443223443226,1.0073260073260073,1.5166300366300365
3.5840728389957803,0.25223443223443226,1.0073260073260073,1.5166300366300365
3.589459506001731,0.25223443223443226,1.0073260073260073,1.5166300366300365
3.589670937995834,0.25223443223443226,1.0073260073260073,1.5166300366300365
3.595726965002541,0.25223443223443226,1.0073260073260073,1.5166300366300365
3.5958350119981333,0.25223443223443226,1.0073260073260073,1.5166300366300365
3.600654117995873,0.25223443223443226,1.0073260073260073,1.5166300366300365
3.608475802000612,0.25223443223443226,1.0073260073260073,1.5166300366300365
3.613064110999403,1.5545054945054944,0.9412454212454211,2.0017582417582416
3.613943411000946,1.5545054945054944,0.9412454212454211,2.0017582417582416
3.6158133119970444,1.5545054945054944,0.9412454212454211,2.0017582417582416
3.6193212809957913,1.5545054945054944,0.9412454212454211,2.0017582417582416
3.625351137998223,1.5545054945054944,0.9412454212454211,2.0017582417582416
3.6298193379989243,1.5545054945054944,0.9412454212454211,2.0017582417582416
3.630097378998471,1.5545054945054944,0.9412454212454211,2.0017582417582416
3.635309072997188,1.5545054945054944,0.9412454212454211,2.0017582417582416
3.6403949250016012,1.5545054945054944,0.9412454212454211,2.0017582417582416
3.6419583599999896,1.5545054945054944,0.9412454212454211,2.0017582417582416
3.646408339998743,1.5545054945054944,0.9412454212454211,2.0017582417582416
3.647393507999368,0.6398534798534798,0.1378021978021978,0.35619047619047617
3.6482988900024793,0.6398534798534798,0.1378021978021978,0.35619047619047617
3.649906002996431,0.6398534798534798,0.1378021978021978,0.35619047619047617
3.6581992720020935,0.6398534798534798,0.1378021978021978,0.35619047619047617
3.6628588439998566,0.6398534798534798,0.1378021978021978,0.35619047619047617
3.663134488000651,0.6398534798534798,0.1378021978021978,0.35619047619047617
3.6699894339981256,0.6398534798534798,0.1378021978021978,0.35619047619047617
3.676393351997831,1.9034432234432233,0.5197802197802197,0.18857142857142856
3.6809284729970386,1.9034432234432233,0.5197802197802197,0.18857142857142856
3.689039960001537,1.9034432234432233,0.5197802197802197,0.18857142857142856
3.693374172995391,1.9034432234432233,0.5197802197802197,0.18857142857142856
3.6942809480024152,1.9034432234432233,0.5197802197802197,0.18857142857142856
3.6958982889991603,1.9034432234432233,0.5197802197802197,0.18857142857142856
3.6998042179984623,1.9034432234432233,0.5197802197802197,0.18857142857142856
3.7076703540005838,1.4038095238095236,0.26673992673992675,0.5713553113553113
3.713148725000792,1.4038095238095236,0.26673992673992675,0.5713553113553113
3.713473334995797,1.4038095238095236,0.26673992673992675,0.5713553113553113
3.7188186470011715,1.4038095238095236,0.26673992673992675,0.5713553113553113
3.721925466998073,0.8872527472527472,0.2498168498168498,0.09186813186813186
3.7236011720015085,1.1918681318681317,0.2191941391941392,0.46417582417582415
3.729506518000562,1.1918681318681317,0.2191941391941392,0.46417582417582415
3.7363056289977976,1.8236630036630037,1.2039560439560437,0.722051282051282
3.741649627001607,1.8236630036630037,1.2039560439560437,0.722051282051282
3.7419521369956783,0.8783882783882784,0.14586080586080585,0.4279120879120879
3.7471706489959615,0.8783882783882784,0.14586080586080585,0.4279120879120879
3.751054487998772,0.8783882783882784,0.14586080586080585,0.4279120879120879
3.757926516002044,0.8783882783882784,0.14586080586080585,0.4279120879120879
3.7611333910026588,0.8783882783882784,0.14586080586080585,0.4279120879120879
3.7627471609957865,0.8783882783882784,0.14586080586080585,0.4279120879120879
3.768977678999363,0.8783882783882784,0.14586080586080585,0.4279120879120879
3.7740597570009413,2.071868131868132,1.2007326007326007,2.2048351648351647
3.775634560995968,1.4932600732600732,1.0363369963369962,0.8332600732600732
3.7795957529961015,1.4932600732600732,1.0363369963369962,0.8332600732600732
3.7834867900019162,1.4932600732600732,1.0363369963369962,0.8332600732600732
3.7895759629973327,1.4932600732600732,1.0363369963369962,0.8332600732600732
3.793524440996407,1.4932600732600732,1.0363369963369962,0.8332600732600732
3.7973547860019607,1.4932600732600732,1.0363369963369962,0.8332600732600732
3.803621631996066,0.8743589743589744,0.4794871794871795,1.0266666666666666
3.8068494249964715,0.8743589743589744,0.4794871794871795,1.0266666666666666
3.8085581659979653,0.8743589743589744,0.4794871794871795,1.0266666666666666
3.811669089998759,0.8743589743589744,0.4794871794871795,1.0266666666666666
3.8133307559983223,0.8743589743589744,0.4794871794871795,1.0266666666666666
3.8172370019965456,1.3014652014652013,0.9920146520146519,2.1105494505494504
3.8233140660013305,1.3014652014652013,0.9920146520146519,2.1105494505494504
3.8264703620006912,1.3014652014652013,0.9920146520146519,2.1105494505494504
3.8281494460024987,1.3014652014652013,0.9920146520146519,2.1105494505494504
3.832800183998188,1.3014652014652013,0.9920146520146519,2.1105494505494504
3.8329320269986056,0.4851282051282051,0.9984615384615383,1.83010989010989
3.8425302100004046,0.4851282051282051,0.9984615384615383,1.83010989010989
3.847728807995736,0.4851282051282051,0.9984615384615383,1.83010989010989
3.8524800359955407,1.7334065934065934,1.2015384615384614,2.6190476190476186
3.859700059001625,1.7334065934065934,1.2015384615384614,2.6190476190476186
3.8645554350005114,1.7334065934065934,1.2015384615384614,2.6190476190476186
3.8727234050020343,1.7334065934065934,1.2015384615384614,2.6190476190476186
3.879746229999,1.7334065934065934,1.2015384615384614,2.6190476190476186
3.88367485699564,1.7334065934065934,1.2015384615384614,2.6190476190476186
3.88931569000124,1.7334065934065934,1.2015384615384614,2.6190476190476186
3.8938885850002407,1.7334065934065934,1.2015384615384614,2.6190476190476186
3.894308135000756,1.7334065934065934,1.2015384615384614,2.6190476190476186
3.8983828039999935,1.7334065934065934,1.2015384615384614,2.6190476190476186
3.9014313299994683,1.7334065934065934,1.2015384615384614,2.6190476190476186
3.9044249369981117,0.759120879120879,0.18695970695970696,0.581025641025641
3.9075137339968933,0.759120879120879,0.18695970695970696,0.581025641025641
3.9084668869982124,0.759120879120879,0.18695970695970696,0.581025641025641
3.9100487300020177,0.759120879120879,0.18695970695970696,0.581025641025641
3.914609646999452,0.759120879120879,0.18695970695970696,0.581025641025641
3.9149473889992805,0.759120879120879,0.18695970695970696,0.581025641025641
3.9220517770008883,0.759120879120879,0.18695970695970696,0.581025641025641
3.925960747001227,0.759120879120879,0.18695970695970696,0.581025641025641
3.930032461998053,0.759120879120879,0.18695970695970696,0.581025641025641
3.9328091529969242,1.5077655677655677,0.3167032967032967,0.303003663003663
3.938812467000389,1.5077655677655677,0.3167032967032967,0.303003663003663
3.94243099099549,1.5077655677655677,0.3167032967032967,0.303003663003663
3.9478834940018714,0.6317948717948718,0.13296703296703297,0.14344322344322344
3.949499153000943,2.028351648351648,1.1781684981684981,2.4127472527472524
3.9566640760021983,2.028351648351648,1.1781684981684981,2.4127472527472524
3.9611179119965527,2.028351648351648,1.1781684981684981,2.4127472527472524
3.96148371900199,2.028351648351648,1.1781684981684981,2.4127472527472524
3.9660706569993636,2.028351648351648,1.1781684981684981,2.4127472527472524
3.966310411997256,2.028351648351648,1.1781684981684981,2.4127472527472524
3.972742837999249,2.028351648351648,1.1781684981684981,2.4127472527472524
3.9766113570003654,2.028351648351648,1.1781684981684981,2.4127472527472524
3.9811287429984077,2.028351648351648,1.1781684981684981,2.4127472527472524
3.9819808600004762,2.028351648351648,1.1781684981684981,2.4127472527472524
3.983601184998406,2.028351648351648,1.1781684981684981,2.4127472527472524
3.9875963059967034,2.028351648351648,1.1781684981684981,2.4127472527472524
3.9918163379988982,2.028351648351648,1.1781684981684981,2.4127472527472524
3.992703490999702,0.3312087912087912,1.0178021978021978,1.8027106227106224
3.994317846998456,0.3312087912087912,1.0178021978021978,1.8027106227106224
3.998277398997743,0.3312087912087912,1.0178021978021978,1.8027106227106224
4.002966116000607,0.3312087912087912,1.0178021978021978,1.8027106227106224
4.014379419997567,0.90014652014652,0.18695970695970696,0.4819047619047619
4.032522335997783,0.90014652014652,0.18695970695970696,0.4819047619047619
4.033028669000487,0.90014652014652,0.18695970695970696,0.4819047619047619
4.0433877739997115,0.90014652014652,0.18695970695970696,0.4819047619047619
4.056930981001642,0.7849084249084248,0.25787545787545785,0.07252747252747253
4.070688514002541,0.7849084249084248,0.25787545787545785,0.07252747252747253
4.085372189001646,1.3659340659340657,0.6003663003663003,0.2836630036630036
4.098043976002373,0.9517216117216116,0.46336996336996333,0.5818315018315018
4.1074669169975095,0.9517216117216116,0.46336996336996333,0.5818315018315018
4.114568161996431,0.6994871794871794,0.1692307692307692,0.32798534798534795
4.119561913001235,0.9605860805860806,0.7558974358974359,1.1273992673992674
4.124158526996325,0.9605860805860806,0.7558974358974359,1.1273992673992674
4.124335508000513,0.9605860805860806,0.7558974358974359,1.1273992673992674
4.1298871239996515,0.9605860805860806,0.7558974358974359,1.1273992673992674
4.131127838001703,0.9605860805860806,0.7558974358974359,1.1273992673992674
4.13956981299998,0.9605860805860806,0.7558974358974359,1.1273992673992674
4.146613094002532,0.9605860805860806,0.7558974358974359,1.1273992673992674
4.152300786998239,0.9605860805860806,0.7558974358974359,1.1273992673992674
4.160582630000135,0.9605860805860806,0.7558974358974359,1.1273992673992674
4.167623298999388,0.9605860805860806,0.7558974358974359,1.1273992673992674
4.173300167996786,2.033186813186813,0.9621978021978022,1.216849816849817
4.182535624000593,2.033186813186813,0.9621978021978022,1.216849816849817
4.1905764210023335,2.033186813186813,0.9621978021978022,1.216849816849817
4.195558932995482,2.033186813186813,0.9621978021978022,1.216849816849817
4.2040570480021415,2.033186813186813,0.9621978021978022,1.216849816849817
4.208468001997971,2.033186813186813,0.9621978021978022,1.216849816849817
4.208688674996665,2.033186813186813,0.9621978021978022,1.216849816849817
4.213548105995869,2.033186813186813,0.9621978021978022,1.216849816849817
4.219763102999423,2.033186813186813,0.9621978021978022,1.216849816849817
4.223667562997434,2.033186813186813,0.9621978021978022,1.216849816849817
4.227604093000991,2.033186813186813,0.9621978021978022,1.216849816849817
4.232325026998296,2.033186813186813,0.9621978021978022,1.216849816849817
4.239723808997951,2.033186813186813,0.9621978021978022,1.216849816849817
4.245113749995653,0.8372893772893772,0.2796336996336996,0.19824175824175824
4.245993240001553,0.8372893772893772,0.2796336996336996,0.19824175824175824
4.247622135000711,0.8372893772893772,0.2796336996336996,0.19824175824175824
4.2507861479971325,0.8372893772893772,0.2796336996336996,0.19824175824175824
4.25391224300256,0.921098901098901,0.9315750915750916,1.0347252747252746
4.254832637998334,0.921098901098901,0.9315750915750916,1.0347252747252746
4.255796979996376,0.921098901098901,0.9315750915750916,1.0347252747252746
4.257492092998291,0.921098901098901,0.9315750915750916,1.0347252747252746
4.260644811998645,0.921098901098901,0.9315750915750916,1.0347252747252746
4.262300547998166,0.921098901098901,0.9315750915750916,1.0347252747252746
4.266170301001694,0.921098901098901,0.9315750915750916,1.0347252747252746
4.2717558779986575,0.5181684981684981,0.1668131868131868,0.40534798534798533
4.272685536998324,0.7019047619047618,1.037948717948718,1.3087179487179486
4.274341810996702,0.7019047619047618,1.037948717948718,1.3087179487179486
4.277548608995858,0.7019047619047618,1.037948717948718,1.3087179487179486
4.278786365997803,0.7019047619047618,1.037948717948718,1.3087179487179486
4.279050723998807,0.7019047619047618,1.037948717948718,1.3087179487179486
4.288921389997995,0.7019047619047618,1.037948717948718,1.3087179487179486
4.296029249999265,1.967106227106227,1.1644688644688646,1.4916483516483516
4.300321262999205,1.967106227106227,1.1644688644688646,1.4916483516483516
4.3022736749990145,1.967106227106227,1.1644688644688646,1.4916483516483516
4.3059547299999394,1.967106227106227,1.1644688644688646,1.4916483516483516
4.3112909920018865,1.967106227106227,1.1644688644688646,1.4916483516483516
4.31158126599621,1.967106227106227,1.1644688644688646,1.4916483516483516
4.316197200998431,1.967106227106227,1.1644688644688646,1.4916483516483516
4.316434711996408,1.967106227106227,1.1644688644688646,1.4916483516483516
4.324913768999977,1.967106227106227,1.1644688644688646,1.4916483516483516
4.330940790998284,1.7043956043956046,0.9557509157509158,0.48835164835164835
4.337151328996697,0.1402197802197802,1.0242490842490841,1.1032234432234431
4.34039992900216,0.5616849816849817,0.3352380952380952,0.02095238095238095
4.340681777001009,0.5616849816849817,0.3352380952380952,0.02095238095238095
4.34607436999795,0.5616849816849817,0.3352380952380952,0.02095238095238095
4.348357652997947,0.5616849816849817,0.3352380952380952,0.02095238095238095
4.348558675999811,0.5616849816849817,0.3352380952380952,0.02095238095238095
4.355616720000398,0.5616849816849817,0.3352380952380952,0.02095238095238095
4.359517609998875,0.5616849816849817,0.3352380952380952,0.02095238095238095
4.3640085169972735,1.494065934065934,0.7293040293040293,0.224029304029304
4.364891186996829,1.494065934065934,0.7293040293040293,0.224029304029304
4.3658037849963875,1.494065934065934,0.7293040293040293,0.224029304029304
4.367652294997242,1.494065934065934,0.7293040293040293,0.224029304029304
4.371915734001959,1.494065934065934,0.7293040293040293,0.224029304029304
4.372257654998975,0.5439560439560439,1.062930402930403,1.0363369963369962
4.3772591649976675,0.5439560439560439,1.062930402930403,1.0363369963369962
4.381120120997366,0.9057875457875458,0.5133333333333333,0.4657875457875458
4.38864348900097,0.9057875457875458,0.5133333333333333,0.4657875457875458
4.393063278999762,1.8526739926739926,1.2627838827838826,1.232967032967033
4.394018478997168,1.8526739926739926,1.2627838827838826,1.232967032967033
4.39496674399561,1.8526739926739926,1.2627838827838826,1.232967032967033
4.395891863001452,1.8526739926739926,1.2627838827838826,1.232967032967033
4.397549975001311,1.8526739926739926,1.2627838827838826,1.232967032967033
4.4011518729967065,1.8526739926739926,1.2627838827838826,1.232967032967033
4.401704637995863,1.8526739926739926,1.2627838827838826,1.232967032967033
4.404345507995458,1.8526739926739926,1.2627838827838826,1.232967032967033
4.409164792996307,0.6575824175824176,0.18776556776556774,0.42388278388278383
4.413859947002493,0.6575824175824176,0.18776556776556774,0.42388278388278383
4.424807087001682,0.6575824175824176,0.18776556776556774,0.42388278388278383
4.430703373000142,0.6575824175824176,0.18776556776556774,0.42388278388278383
4.430814995001128,0.6575824175824176,0.18776556776556774,0.42388278388278383
4.439440943999216,0.6575824175824176,0.18776556776556774,0.42388278388278383
4.444708955001261,0.6575824175824176,0.18776556776556774,0.42388278388278383
4.447019097999146,0.6575824175824176,0.18776556776556774,0.42388278388278383
4.447223133996886,0.6575824175824176,0.18776556776556774,0.42388278388278383
4.452458519001084,0.6575824175824176,0.18776556776556774,0.42388278388278383
4.455204170000798,0.6575824175824176,0.18776556776556774,0.42388278388278383
4.458472434998839,0.6575824175824176,0.18776556776556774,0.42388278388278383
4.459393628996622,0.6575824175824176,0.18776556776556774,0.42388278388278383
4.460348030996101,1.1024175824175824,0.415018315018315,0.8252014652014652
4.462001781997969,1.1024175824175824,0.415018315018315,0.8252014652014652
4.465823300997727,1.1024175824175824,0.415018315018315,0.8252014652014652
4.470663615000376,1.1024175824175824,0.415018315018315,0.8252014652014652
4.47637299499911,1.1024175824175824,0.415018315018315,0.8252014652014652
4.476573316998838,1.1024175824175824,0.415018315018315,0.8252014652014652
4.483615623001242,0.8566300366300367,0.3586080586080586,0.29010989010989013
4.489337161001458,0.8566300366300367,0.3586080586080586,0.29010989010989013
4.489548799996555,1.598021978021978,0.3553846153846154,0.03868131868131868
4.498642476995883,1.598021978021978,0.3553846153846154,0.03868131868131868
4.507389008998871,1.324029304029304,0.9694505494505494,1.0315018315018314
4.512358111001959,0.7365567765567765,0.13457875457875457,0.28446886446886444
4.518088466000336,2.6682051282051282,1.3482051282051282,0.4827106227106227
4.518371195001237,2.6682051282051282,1.3482051282051282,0.4827106227106227
4.527252369000053,2.6682051282051282,1.3482051282051282,0.4827106227106227
4.534188313999039,0.7567032967032966,0.1555311355311355,0.2063003663003663
4.5410872630018275,0.7567032967032966,0.1555311355311355,0.2063003663003663
4.546562946001359,0.7567032967032966,0.1555311355311355,0.2063003663003663
4.546882367998478,0.7567032967032966,0.1555311355311355,0.2063003663003663
4.557178069997462,0.7567032967032966,0.1555311355311355,0.2063003663003663
4.565407855996455,0.7567032967032966,0.1555311355311355,0.2063003663003663
4.573090111000056,0.7567032967032966,0.1555311355311355,0.2063003663003663
4.578419735000352,0.7567032967032966,0.1555311355311355,0.2063003663003663
4.579606095001509,0.7567032967032966,0.1555311355311355,0.2063003663003663
4.5798885760013945,0.7567032967032966,0.1555311355311355,0.2063003663003663
4.590020721996552,1.0580952380952382,0.2224175824175824,0.4496703296703296
4.597954377997667,0.7107692307692308,0.12974358974358974,0.33926739926739924
4.6048521179982345,0.7107692307692308,0.12974358974358974,0.33926739926739924
4.610099491001165,0.7107692307692308,0.12974358974358974,0.33926739926739924
4.611182975997508,1.1725274725274726,0.4964102564102564,0.34007326007326005
4.611500849998265,1.1725274725274726,0.4964102564102564,0.34007326007326005
4.619570786002441,1.1725274725274726,0.4964102564102564,0.34007326007326005
4.624074052997457,1.1725274725274726,0.4964102564102564,0.34007326007326005
4.624273126995831,1.1725274725274726,0.4964102564102564,0.34007326007326005
4.630703390001145,1.1725274725274726,0.4964102564102564,0.34007326007326005
4.637166184002126,2.141172161172161,0.5866666666666667,0.5632967032967032
4.6408382750014425,0.28930402930402926,0.24417582417582417,0.04029304029304029
4.646218342000793,0.28930402930402926,0.24417582417582417,0.04029304029304029
4.6477739670008305,0.6019780219780219,0.1378021978021978,0.24739926739926738
4.654045440001937,0.6019780219780219,0.1378021978021978,0.24739926739926738
4.658747023000615,0.8735531135531135,0.9750915750915751,1.0959706959706959
4.666106122000201,0.8735531135531135,0.9750915750915751,1.0959706959706959
4.673522140998102,0.8735531135531135,0.9750915750915751,1.0959706959706959
4.6777814279994345,0.8735531135531135,0.9750915750915751,1.0959706959706959
4.679578349001531,0.8735531135531135,0.9750915750915751,1.0959706959706959
4.682087905996013,0.8735531135531135,0.9750915750915751,1.0959706959706959
4.682236496002588,0.8735531135531135,0.9750915750915751,1.0959706959706959
4.6894320950013935,0.8735531135531135,0.9750915750915751,1.0959706959706959
4.693779642002482,1.9767765567765565,0.6390476190476191,0.5012454212454212
4.69553305899899,1.9767765567765565,0.6390476190476191,0.5012454212454212
4.698053574000369,1.9767765567765565,0.6390476190476191,0.5012454212454212
4.706430188998638,1.0024908424908423,0.3449084249084249,0.09589743589743589
4.7125016689969925,1.0024908424908423,0.3449084249084249,0.09589743589743589
4.717717920997529,0.9686446886446887,0.9178754578754579,1.1354578754578755
4.7229108339961385,0.9686446886446887,0.9178754578754579,1.1354578754578755
4.723181223998836,0.6769230769230768,0.11443223443223444,0.30864468864468864
4.7302779289966566,0.6769230769230768,0.11443223443223444,0.30864468864468864
4.735813785002392,0.5149450549450549,1.0613186813186812,1.2740659340659342
4.736068214995612,0.5149450549450549,1.0613186813186812,1.2740659340659342
4.745296923996648,0.5149450549450549,1.0613186813186812,1.2740659340659342
4.7545343449965,0.5149450549450549,1.0613186813186812,1.2740659340659342
4.759456191000936,0.5149450549450549,1.0613186813186812,1.2740659340659342
4.764004773998749,0.5149450549450549,1.0613186813186812,1.2740659340659342
4.765743315998407,0.5149450549450549,1.0613186813186812,1.2740659340659342
4.768401982997602,0.5149450549450549,1.0613186813186812,1.2740659340659342
4.772966719996475,0.5149450549450549,1.0613186813186812,1.2740659340659342
4.773190424995846,0.5149450549450549,1.0613186813186812,1.2740659340659342
4.778033361995767,0.5149450549450549,1.0613186813186812,1.2740659340659342
4.782900933001656,0.5149450549450549,1.0613186813186812,1.2740659340659342
4.783019597001839,0.7244688644688644,0.16197802197802197,0.32556776556776557
4.790473250999639,0.7244688644688644,0.16197802197802197,0.32556776556776557
4.7944678330022725,2.5304029304029303,1.4586080586080585,0.5753846153846153
4.798230439999315,2.5304029304029303,1.4586080586080585,0.5753846153846153
4.805709465996188,2.5304029304029303,1.4586080586080585,0.5753846153846153
4.810813951997261,2.5304029304029303,1.4586080586080585,0.5753846153846153
4.815459847995953,2.5304029304029303,1.4586080586080585,0.5753846153846153
4.824043118998816,2.5304029304029303,1.4586080586080585,0.5753846153846153
4.828852341997845,2.5304029304029303,1.4586080586080585,0.5753846153846153
4.833770129000186,1.373992673992674,0.5923076923076923,0.40534798534798533
4.84170697099762,1.373992673992674,0.5923076923076923,0.40534798534798533
4.847511301995837,1.6318681318681318,0.253040293040293,0.43032967032967034
4.847625764996337,1.6318681318681318,0.253040293040293,0.43032967032967034
4.855395111997495,1.6318681318681318,0.253040293040293,0.43032967032967034
4.859515108000778,1.6318681318681318,0.253040293040293,0.43032967032967034
4.86190786199586,1.6318681318681318,0.253040293040293,0.43032967032967034
4.862153957998089,1.6318681318681318,0.253040293040293,0.43032967032967034
4.867152530998283,1.6318681318681318,0.253040293040293,0.43032967032967034
4.873613609997847,1.6318681318681318,0.253040293040293,0.43032967032967034
4.877499704001821,1.6318681318681318,0.253040293040293,0.43032967032967034
4.882192179000413,1.6318681318681318,0.253040293040293,0.43032967032967034
4.882292554997548,1.6318681318681318,0.253040293040293,0.43032967032967034
4.889979298997787,1.6318681318681318,0.253040293040293,0.43032967032967034
4.894516909997037,1.6318681318681318,0.253040293040293,0.43032967032967034
4.894902191997971,1.6318681318681318,0.253040293040293,0.43032967032967034
4.899507187001291,1.6318681318681318,0.253040293040293,0.43032967032967034
4.899879154996597,1.6318681318681318,0.253040293040293,0.43032967032967034
4.9068565420020605,1.6318681318681318,0.253040293040293,0.43032967032967034
4.910739970000577,0.6495238095238095,0.12893772893772892,0.40534798534798533
4.9152677379970555,0.6495238095238095,0.12893772893772892,0.40534798534798533
4.915446033999615,0.6495238095238095,0.12893772893772892,0.40534798534798533
4.923404802997538,0.6495238095238095,0.12893772893772892,0.40534798534798533
4.928040366001369,0.6495238095238095,0.12893772893772892,0.40534798534798533
4.928349253998022,0.6495238095238095,0.12893772893772892,0.40534798534798533
4.9329407879995415,0.6495238095238095,0.12893772893772892,0.40534798534798533
4.934422831996926,0.49882783882783877,0.9742857142857142,1.2007326007326007
4.940584634001425,0.49882783882783877,0.9742857142857142,1.2007326007326007
4.943812336001429,2.5247619047619043,1.311135531135531,0.18534798534798536
4.945518430999073,0.9396336996336996,0.11846153846153845,0.18695970695970696
4.948601249998319,0.9396336996336996,0.11846153846153845,0.18695970695970696
4.95235211399995,1.6415384615384614,0.6326007326007326,0.6559706959706959
4.9603279669972835,0.7824908424908424,1.0016849816849815,1.378021978021978
4.965712769997481,1.796263736263736,0.25465201465201465,0.6922344322344323
4.968216579996806,1.796263736263736,0.25465201465201465,0.6922344322344323
4.97786277999694,1.796263736263736,0.25465201465201465,0.6922344322344323
4.986491663999914,0.8356776556776556,0.2756043956043956,0.0821978021978022
4.991239672999654,0.8356776556776556,0.2756043956043956,0.0821978021978022
4.997879358001228,0.8131135531135532,1.075018315018315,1.2466666666666666
5.004039252002258,0.7131868131868132,0.332014652014652,0.03868131868131868
5.007464317997801,0.7131868131868132,0.332014652014652,0.03868131868131868
5.00768834399787,2.054139194139194,0.43355311355311354,0.9146520146520146
5.013219595995906,2.054139194139194,0.43355311355311354,0.9146520146520146
5.0142177430025185,2.054139194139194,0.43355311355311354,0.9146520146520146
5.0151764979964355,2.054139194139194,0.43355311355311354,0.9146520146520146
5.01689618799719,2.054139194139194,0.43355311355311354,0.9146520146520146
5.020167178998236,2.054139194139194,0.43355311355311354,0.9146520146520146
5.020403306996741,2.054139194139194,0.43355311355311354,0.9146520146520146
5.025123305000307,2.054139194139194,0.43355311355311354,0.9146520146520146
5.025329074000183,2.054139194139194,0.43355311355311354,0.9146520146520146
5.030383908000658,2.054139194139194,0.43355311355311354,0.9146520146520146
5.034597972000483,2.054139194139194,0.43355311355311354,0.9146520146520146
5.036488740995992,1.3369230769230769,0.6543589743589743,0.8163369963369963
5.039489367001806,1.3369230769230769,0.6543589743589743,0.8163369963369963
5.041317816001538,1.3369230769230769,0.6543589743589743,0.8163369963369963
5.044721464000759,1.3369230769230769,0.6543589743589743,0.8163369963369963
5.045031349000055,2.0396336996336997,1.2434432234432233,2.0436630036630037
5.050444827997126,2.0396336996336997,1.2434432234432233,2.0436630036630037
5.05224953799916,0.27238095238095233,1.0323076923076921,1.2337728937728938
5.054809390996525,0.27238095238095233,1.0323076923076921,1.2337728937728938
5.06040285799827,0.27238095238095233,1.0323076923076921,1.2337728937728938
5.061466758001188,0.27238095238095233,1.0323076923076921,1.2337728937728938
5.062430019999738,0.27238095238095233,1.0323076923076921,1.2337728937728938
5.063422498998989,0.27238095238095233,1.0323076923076921,1.2337728937728938
5.064412613995955,0.27238095238095233,1.0323076923076921,1.2337728937728938
5.065420232000179,0.27238095238095233,1.0323076923076921,1.2337728937728938
5.066510215998278,0.27238095238095233,1.0323076923076921,1.2337728937728938
5.066821847001847,0.27238095238095233,1.0323076923076921,1.2337728937728938
5.072984380996786,0.27238095238095233,1.0323076923076921,1.2337728937728938
5.07678452199616,0.27238095238095233,1.0323076923076921,1.2337728937728938
5.081884293998883,0.27238095238095233,1.0323076923076921,1.2337728937728938
5.08764063000126,0.27238095238095233,1.0323076923076921,1.2337728937728938
5.0958132529995055,0.27238095238095233,1.0323076923076921,1.2337728937728938
5.102210883000225,0.27238095238095233,1.0323076923076921,1.2337728937728938
5.105587307996757,1.3627106227106225,0.1692307692307692,0.6463003663003662
5.105875429995649,1.3627106227106225,0.1692307692307692,0.6463003663003662
5.110634422999283,1.3627106227106225,0.1692307692307692,0.6463003663003662
5.110910816998512,1.3627106227106225,0.1692307692307692,0.6463003663003662
5.116094972996507,1.3627106227106225,0.1692307692307692,0.6463003663003662
5.119825244997628,1.3627106227106225,0.1692307692307692,0.6463003663003662
5.123942974998499,1.6729670329670328,0.14586080586080585,0.8848351648351648
5.126870906002296,1.0113553113553113,0.3473260073260073,1.075018315018315
5.12979760899907,1.0113553113553113,0.3473260073260073,1.075018315018315
5.13280475600186,1.0113553113553113,0.3473260073260073,1.075018315018315
5.136127204001241,1.0113553113553113,0.3473260073260073,1.075018315018315
5.136347702995408,1.0113553113553113,0.3473260073260073,1.075018315018315
5.141388677999203,1.0113553113553113,0.3473260073260073,1.075018315018315
5.145352116996946,1.0113553113553113,0.3473260073260073,1.075018315018315
5.149508452996088,1.6592673992673992,1.0274725274725274,1.775311355311355
5.152185776001716,1.2660073260073261,0.5157509157509157,0.415018315018315
5.156431313997018,1.2660073260073261,0.5157509157509157,0.415018315018315
5.158862930999021,1.2660073260073261,0.5157509157509157,0.415018315018315
5.164933448002557,1.2660073260073261,0.5157509157509157,0.415018315018315
5.170158743996581,1.2660073260073261,0.5157509157509157,0.415018315018315
5.173636202001944,0.43113553113553116,0.8026373626373626,1.444102564102564
5.179841981000209,0.43113553113553116,0.8026373626373626,1.444102564102564
5.1839396380019025,0.43113553113553116,0.8026373626373626,1.444102564102564
5.185971517996222,1.046007326007326,0.14827838827838827,0.43435897435897436
5.186879071996373,1.046007326007326,0.14827838827838827,0.43435897435897436
5.187820309001836,1.046007326007326,0.14827838827838827,0.43435897435897436
5.190147898996656,1.046007326007326,0.14827838827838827,0.43435897435897436
5.190270387000055,1.046007326007326,0.14827838827838827,0.43435897435897436
5.195887556998059,1.046007326007326,0.14827838827838827,0.43435897435897436
5.1968265140021686,1.046007326007326,0.14827838827838827,0.43435897435897436
5.1977840889958316,1.046007326007326,0.14827838827838827,0.43435897435897436
5.198701663000975,1.046007326007326,0.14827838827838827,0.43435897435897436
5.200340657997003,1.046007326007326,0.14827838827838827,0.43435897435897436
5.2036383759987075,1.046007326007326,0.14827838827838827,0.43435897435897436
5.204616819995863,1.046007326007326,0.14827838827838827,0.43435897435897436
5.205624570000509,1.046007326007326,0.14827838827838827,0.43435897435897436
5.206448851000459,1.046007326007326,0.14827838827838827,0.43435897435897436
5.208054203998472,1.046007326007326,0.14827838827838827,0.43435897435897436
5.2125899419988855,1.046007326007326,0.14827838827838827,0.43435897435897436
5.21344195799611,1.3127472527472526,0.9613919413919414,1.6592673992673992
5.21506606299954,1.3127472527472526,0.9613919413919414,1.6592673992673992
5.218997958996624,1.3127472527472526,0.9613919413919414,1.6592673992673992
5.222881611000048,1.3127472527472526,0.9613919413919414,1.6592673992673992
5.2260191250024945,1.3127472527472526,0.9613919413919414,1.6592673992673992
5.228463829000248,1.3127472527472526,0.9613919413919414,1.6592673992673992
5.234094528001151,1.3127472527472526,0.9613919413919414,1.6592673992673992
5.234986220995779,0.17406593406593407,1.0935531135531134,1.701978021978022
5.23665236600209,0.17406593406593407,1.0935531135531134,1.701978021978022
5.240262100996915,0.17406593406593407,1.0935531135531134,1.701978021978022
5.245722155996191,0.17406593406593407,1.0935531135531134,1.701978021978022
5.246599616002641,0.17406593406593407,1.0935531135531134,1.701978021978022
5.24819198899786,1.7043956043956046,0.6293772893772893,0.5737728937728938
5.252674151000974,1.7043956043956046,0.6293772893772893,0.5737728937728938
5.253554591996362,0.6132600732600733,0.9855677655677655,1.8526739926739926
5.254466533995583,0.6132600732600733,0.9855677655677655,1.8526739926739926
5.256029222997313,0.6132600732600733,0.9855677655677655,1.8526739926739926
5.260541358002229,0.6132600732600733,0.9855677655677655,1.8526739926739926
5.261413729000196,0.6132600732600733,0.9855677655677655,1.8526739926739926
5.263117349000822,0.6132600732600733,0.9855677655677655,1.8526739926739926
5.266587067002547,0.9517216117216116,0.2063003663003663,0.6382417582417582
5.266874339999049,0.9517216117216116,0.2063003663003663,0.6382417582417582
5.271899362996919,0.9517216117216116,0.2063003663003663,0.6382417582417582
5.276635279995389,0.9517216117216116,0.2063003663003663,0.6382417582417582
5.2768634269959875,0.9517216117216116,0.2063003663003663,0.6382417582417582
5.281483409999055,0.9517216117216116,0.2063003663003663,0.6382417582417582
5.281600388996594,0.9517216117216116,0.2063003663003663,0.6382417582417582
5.287031883999589,0.9517216117216116,0.2063003663003663,0.6382417582417582
5.291424789997109,2.274945054945055,0.9436630036630036,1.6713553113553112
5.291622782002378,2.274945054945055,0.9436630036630036,1.6713553113553112
5.299839731997054,1.4304029304029304,0.7284981684981684,1.008131868131868
5.30539396200038,1.4304029304029304,0.7284981684981684,1.008131868131868
5.306971748999786,1.4304029304029304,0.7284981684981684,1.008131868131868
5.311455055001716,1.4304029304029304,0.7284981684981684,1.008131868131868
5.311827584999264,1.4304029304029304,0.7284981684981684,1.008131868131868
5.316435437001928,1.4304029304029304,0.7284981684981684,1.008131868131868
5.316601892001927,1.1934798534798534,0.32476190476190475,0.2482051282051282
5.323265403996629,1.1934798534798534,0.32476190476190475,0.2482051282051282
5.328352439995797,1.1934798534798534,0.32476190476190475,0.2482051282051282
5.331390911997005,1.1934798534798534,0.32476190476190475,0.2482051282051282
5.334989255999972,1.1934798534798534,0.32476190476190475,0.2482051282051282
5.342143041001691,1.1934798534798534,0.32476190476190475,0.2482051282051282
5.347044784997706,1.1934798534798534,0.32476190476190475,0.2482051282051282
5.352750297999592,1.1934798534798534,0.32476190476190475,0.2482051282051282
5.36187426700053,0.5165567765567766,0.7204395604395604,0.6986813186813187
5.370475623996754,0.5165567765567766,0.7204395604395604,0.6986813186813187
5.375892552998266,0.5165567765567766,0.7204395604395604,0.6986813186813187
5.376230800000485,0.9339926739926739,0.4383882783882784,0.4319413919413919
5.385188460997597,0.9339926739926739,0.4383882783882784,0.4319413919413919
5.390538303996436,0.9339926739926739,0.4383882783882784,0.4319413919413919
5.390906119995634,0.9339926739926739,0.4383882783882784,0.4319413919413919
5.39648008000222,0.9339926739926739,0.4383882783882784,0.4319413919413919
5.396711335997679,0.9339926739926739,0.4383882783882784,0.4319413919413919
5.404392218995781,0.9339926739926739,0.4383882783882784,0.4319413919413919
5.409036404002109,0.9339926739926739,0.4383882783882784,0.4319413919413919
5.409181060997071,2.5247619047619043,0.5600732600732601,0.3352380952380952
5.414108017997933,2.5247619047619043,0.5600732600732601,0.3352380952380952
5.421144451000146,2.5247619047619043,0.5600732600732601,0.3352380952380952
5.425453406001907,2.5247619047619043,0.5600732600732601,0.3352380952380952
5.426326084998436,2.5247619047619043,0.5600732600732601,0.3352380952380952
5.428052417002618,2.5247619047619043,0.5600732600732601,0.3352380952380952
5.431248414999573,2.5247619047619043,0.5600732600732601,0.3352380952380952
5.433064762997674,2.5247619047619043,0.5600732600732601,0.3352380952380952
5.437641208998684,2.5247619047619043,0.5600732600732601,0.3352380952380952
5.444092238001758,2.5247619047619043,0.5600732600732601,0.3352380952380952
5.448409812997852,2.5247619047619043,0.5600732600732601,0.3352380952380952
5.449310593001428,2.5247619047619043,0.5600732600732601,0.3352380952380952
5.451881321001565,2.5247619047619043,0.5600732600732601,0.3352380952380952
5.458197517997178,2.5247619047619043,0.5600732600732601,0.3352380952380952
5.462256362996413,2.5247619047619043,0.5600732600732601,0.3352380952380952
5.465364657000464,2.5247619047619043,0.5600732600732601,0.3352380952380952
5.467864477999683,2.5247619047619043,0.5600732600732601,0.3352380952380952
5.474966804002179,2.5247619047619043,0.5600732600732601,0.3352380952380952
5.479172200000903,2.5247619047619043,0.5600732600732601,0.3352380952380952
5.481851122996886,2.8358241758241753,1.3852747252747253,0.8034432234432234
5.487800139002502,2.8358241758241753,1.3852747252747253,0.8034432234432234
5.492175801002304,2.8358241758241753,1.3852747252747253,0.8034432234432234
5.492516304999299,2.8358241758241753,1.3852747252747253,0.8034432234432234
5.4972542870018515,2.8358241758241753,1.3852747252747253,0.8034432234432234
5.4976154979958665,2.8358241758241753,1.3852747252747253,0.8034432234432234
5.502728446997935,2.8358241758241753,1.3852747252747253,0.8034432234432234
5.506245602002309,0.5439560439560439,0.28527472527472525,0.9283516483516483
5.513094722999085,0.5439560439560439,0.28527472527472525,0.9283516483516483
5.517571081996721,0.5439560439560439,0.28527472527472525,0.9283516483516483
5.5189000539976405,0.5439560439560439,0.28527472527472525,0.9283516483516483
5.525392547999218,0.5439560439560439,0.28527472527472525,0.9283516483516483
5.529210020999017,1.0492307692307692,0.14989010989010987,0.8679120879120878
5.535987686998851,1.0492307692307692,0.14989010989010987,0.8679120879120878
5.5424019929996575,1.0492307692307692,0.14989010989010987,0.8679120879120878
5.547370228996442,1.0452014652014652,0.2361172161172161,0.27802197802197803
5.552739427999768,1.0452014652014652,0.2361172161172161,0.27802197802197803
5.5555950830021175,1.0452014652014652,0.2361172161172161,0.27802197802197803
5.557225047996326,1.0452014652014652,0.2361172161172161,0.27802197802197803
5.564190976001555,1.0452014652014652,0.2361172161172161,0.27802197802197803
5.570283679997374,1.0452014652014652,0.2361172161172161,0.27802197802197803
5.574438835996261,1.0452014652014652,0.2361172161172161,0.27802197802197803
5.575887910999882,1.0452014652014652,0.2361172161172161,0.27802197802197803
5.583588656998472,1.0452014652014652,0.2361172161172161,0.27802197802197803
5.591408449996379,0.5802197802197803,0.45772893772893775,0.024175824175824173
5.595264955998573,2.1556776556776556,0.6148717948717949,0.7961904761904761
5.602667590996134,2.1556776556776556,0.6148717948717949,0.7961904761904761
5.609045876000891,2.1556776556776556,0.6148717948717949,0.7961904761904761
5.61257829600072,1.0613186813186812,0.4198534798534798,0.47465201465201456
5.612682122999104,1.0613186813186812,0.4198534798534798,0.47465201465201456
5.6206961540010525,1.0613186813186812,0.4198534798534798,0.47465201465201456
5.628334583998367,1.701978021978022,1.1136996336996337,0.5318681318681319
5.632526647001214,1.701978021978022,1.1136996336996337,0.5318681318681319
5.634946801998012,1.701978021978022,1.1136996336996337,0.5318681318681319
5.644516644002579,1.701978021978022,1.1136996336996337,0.5318681318681319
5.649914068002545,1.701978021978022,1.1136996336996337,0.5318681318681319
5.653503968998848,2.289450549450549,0.8679120879120878,0.11443223443223444
5.661512667000352,2.289450549450549,0.8679120879120878,0.11443223443223444
5.666024860998732,2.289450549450549,0.8679120879120878,0.11443223443223444
5.667868985998211,2.289450549450549,0.8679120879120878,0.11443223443223444
5.671700056998816,2.289450549450549,0.8679120879120878,0.11443223443223444
5.675730394999846,0.3618315018315018,0.9122344322344322,0.9364102564102563
5.678681694997067,0.3618315018315018,0.9122344322344322,0.9364102564102563
5.682017020997591,1.4336263736263737,0.6068131868131869,0.2063003663003663
5.682265181996627,1.4336263736263737,0.6068131868131869,0.2063003663003663
5.691156460998172,1.4336263736263737,0.6068131868131869,0.2063003663003663
5.695793754995975,2.2483516483516484,0.4786813186813187,0.21516483516483517
5.696105481998529,0.8856410256410255,0.3876190476190476,0.028205128205128206
5.703079956998408,0.8856410256410255,0.3876190476190476,0.028205128205128206
5.7089671979993,0.8856410256410255,0.3876190476190476,0.028205128205128206
5.712790858997323,1.543223443223443,0.9186813186813186,0.7156043956043956
5.7202650280014495,1.4908424908424909,0.755091575091575,0.5600732600732601
5.726390422001714,1.4908424908424909,0.755091575091575,0.5600732600732601
5.7303271389973816,2.025128205128205,1.3884981684981685,1.216043956043956
5.735622161002539,2.025128205128205,1.3884981684981685,1.216043956043956
5.738758261002658,2.025128205128205,1.3884981684981685,1.216043956043956
5.739691356997355,2.9599267399267397,1.523882783882784,0.38278388278388276
5.74061807399994,2.9599267399267397,1.523882783882784,0.38278388278388276
5.74159317700105,2.9599267399267397,1.523882783882784,0.38278388278388276
5.742502820998197,2.9599267399267397,1.523882783882784,0.38278388278388276
5.743408305999765,0.5858608058608058,0.16278388278388278,0.03626373626373627
5.74503113800165,0.5858608058608058,0.16278388278388278,0.03626373626373627
5.75002226200013,0.5858608058608058,0.16278388278388278,0.03626373626373627
5.756171599001391,1.6931135531135528,0.7019047619047618,0.28205128205128205
5.75937644700025,1.6931135531135528,0.7019047619047618,0.28205128205128205
5.760322648995498,1.2506959706959706,1.2837362637362637,0.4351648351648352
5.763110410000081,1.2506959706959706,1.2837362637362637,0.4351648351648352
5.7685775849968195,1.2506959706959706,1.2837362637362637,0.4351648351648352
5.775847341996268,2.3627838827838827,0.8437362637362636,1.9654945054945054
5.780555851997633,1.120952380952381,1.2821245421245422,1.1201465201465202
5.780908192995412,1.120952380952381,1.2821245421245422,1.1201465201465202
5.787808337001479,1.120952380952381,1.2821245421245422,1.1201465201465202
5.792161899000348,1.120952380952381,1.2821245421245422,1.1201465201465202
5.792459019998205,1.120952380952381,1.2821245421245422,1.1201465201465202
5.797109546998399,1.120952380952381,1.2821245421245422,1.1201465201465202
5.797485673996562,1.120952380952381,1.2821245421245422,1.1201465201465202
5.803521338995779,1.120952380952381,1.2821245421245422,1.1201465201465202
5.806128126998374,1.120952380952381,1.2821245421245422,1.1201465201465202
5.812603487996967,1.120952380952381,1.2821245421245422,1.1201465201465202
5.816620644996874,1.7285714285714286,1.0983882783882783,0.7784615384615384
5.823073195002507,1.7285714285714286,1.0983882783882783,0.7784615384615384
5.828044811998552,1.062930402930403,0.17406593406593407,0.23208791208791207
5.831445944000734,1.062930402930403,0.17406593406593407,0.23208791208791207
5.831598566001048,1.062930402930403,0.17406593406593407,0.23208791208791207
5.8400650460025645,1.062930402930403,0.17406593406593407,0.23208791208791207
5.844743752000795,1.062930402930403,0.17406593406593407,0.23208791208791207
5.844993678998435,1.062930402930403,0.17406593406593407,0.23208791208791207
5.849737660995743,1.062930402930403,0.17406593406593407,0.23208791208791207
5.84989264899923,2.7504029304029305,1.4674725274725273,1.0572893772893772
5.8567646619994775,0.5858608058608058,1.2273260073260073,1.3369230769230769
5.860612251999555,0.6535531135531135,0.15956043956043955,0.5963369963369963
5.8662579329975415,0.6535531135531135,0.15956043956043955,0.5963369963369963
5.86732632300118,2.573113553113553,0.6962637362637363,0.9799267399267398
5.867729970996152,2.573113553113553,0.6962637362637363,0.9799267399267398
5.8729180399968755,2.573113553113553,0.6962637362637363,0.9799267399267398
5.876326578996668,2.573113553113553,0.6962637362637363,0.9799267399267398
5.876596025002073,0.9904029304029303,0.5197802197802197,0.40776556776556777
