time,emg1,emg2,emg3
0.03011328800494084,0.7196336996336996,0.1555311355311355,0.6857875457875457
0.030853183001454454,0.7196336996336996,0.1555311355311355,0.6857875457875457
0.03615328500018222,0.7196336996336996,0.1555311355311355,0.6857875457875457
0.03641394000442233,0.7196336996336996,0.1555311355311355,0.6857875457875457
0.047261497005820274,0.7196336996336996,0.1555311355311355,0.6857875457875457
0.05649534000258427,0.7196336996336996,0.1555311355311355,0.6857875457875457
0.06345164100639522,0.8034432234432234,0.4383882783882784,0.850989010989011
0.07028123800409958,0.8034432234432234,0.4383882783882784,0.850989010989011
0.07631343800312607,0.8034432234432234,0.4383882783882784,0.850989010989011
0.07979343199986033,0.8034432234432234,0.4383882783882784,0.850989010989011
0.0800962640059879,0.8034432234432234,0.4383882783882784,0.850989010989011
0.0859026630059816,0.8034432234432234,0.4383882783882784,0.850989010989011
0.09527974400407402,0.8034432234432234,0.4383882783882784,0.850989010989011
0.10259127800236456,0.7808791208791208,0.35135531135531134,0.3884249084249084
0.10795054500340484,0.747032967032967,0.2651282051282051,0.2224175824175824
0.10827595200680662,1.494871794871795,0.47062271062271055,0.4126007326007326
0.11725535900040995,1.494871794871795,0.47062271062271055,0.4126007326007326
0.12414429400087101,1.494871794871795,0.47062271062271055,0.4126007326007326
0.129254553001374,1.494871794871795,0.47062271062271055,0.4126007326007326
0.13191896600619657,0.9468864468864467,0.3465201465201465,0.03223443223443223
0.13865134300431237,0.9468864468864467,0.3465201465201465,0.03223443223443223
0.1459245430014562,0.9621978021978022,0.4383882783882784,0.7035164835164834
0.1503293850037153,0.9621978021978022,0.4383882783882784,0.7035164835164834
0.1512105950023397,0.9621978021978022,0.4383882783882784,0.7035164835164834
0.15281676100130426,0.9621978021978022,0.4383882783882784,0.7035164835164834
0.15657813400321174,0.9621978021978022,0.4383882783882784,0.7035164835164834
0.16252277600142406,2.332967032967033,1.1265934065934065,0.06205128205128205
0.17112793500564294,2.5948717948717945,1.203150183150183,0.10073260073260072
0.1775211680069333,2.5948717948717945,1.203150183150183,0.10073260073260072
0.18235260200162884,0.1772893772893773,0.2248351648351648,0.09992673992673992
0.18537811800342752,0.1772893772893773,0.2248351648351648,0.09992673992673992
0.1883282480048365,0.1772893772893773,0.2248351648351648,0.09992673992673992
0.1914555300027132,0.1772893772893773,0.2248351648351648,0.09992673992673992
0.19455018800363177,0.1772893772893773,0.2248351648351648,0.09992673992673992
0.19607683900539996,0.1772893772893773,0.2248351648351648,0.09992673992673992
0.20186140300211264,0.1772893772893773,0.2248351648351648,0.09992673992673992
0.21060446400224464,1.806739926739927,0.1555311355311355,0.7647619047619048
0.21737480000592768,1.806739926739927,0.1555311355311355,0.7647619047619048
0.2242345690028742,1.806739926739927,0.1555311355311355,0.7647619047619048
0.23074786500365008,1.806739926739927,0.1555311355311355,0.7647619047619048
0.23401351000211434,1.806739926739927,0.1555311355311355,0.7647619047619048
0.2349538000053144,1.806739926739927,0.1555311355311355,0.7647619047619048
0.23587360200326657,1.806739926739927,0.1555311355311355,0.7647619047619048
0.23920952600019518,0.6801465201465201,0.24901098901098898,0.2917216117216117
0.23963082900445443,0.6801465201465201,0.24901098901098898,0.2917216117216117
0.24494396000227425,0.6801465201465201,0.24901098901098898,0.2917216117216117
0.24659983400488272,0.6801465201465201,0.24901098901098898,0.2917216117216117
0.2504878550025751,0.6801465201465201,0.24901098901098898,0.2917216117216117
0.2567495070034056,0.6608058608058608,0.9605860805860806,1.4529670329670328
0.26108744000521256,0.6608058608058608,0.9605860805860806,1.4529670329670328
0.2619964660043479,0.6608058608058608,0.9605860805860806,1.4529670329670328
0.26293052800610894,0.6608058608058608,0.9605860805860806,1.4529670329670328
0.26473056100076064,0.6608058608058608,0.9605860805860806,1.4529670329670328
0.26727389600273455,2.0428571428571427,1.244249084249084,2.295091575091575
0.2675188610010082,2.0428571428571427,1.244249084249084,2.295091575091575
0.2722493350011064,2.0428571428571427,1.244249084249084,2.295091575091575
0.2791927400030545,2.0428571428571427,1.244249084249084,2.295091575091575
0.28320426000573207,2.0428571428571427,1.244249084249084,2.295091575091575
0.2891085440060124,2.2225641025641028,1.2265201465201465,2.4909157509157507
0.2946743550055544,2.2225641025641028,1.2265201465201465,2.4909157509157507
0.29488160199980484,2.2225641025641028,1.2265201465201465,2.4909157509157507
0.2996998020025785,2.2225641025641028,1.2265201465201465,2.4909157509157507
0.29991022600006545,2.2225641025641028,1.2265201465201465,2.4909157509157507
0.3054388119999203,2.2225641025641028,1.2265201465201465,2.4909157509157507
0.3069684310030425,2.2225641025641028,1.2265201465201465,2.4909157509157507
0.3110177720009233,2.2225641025641028,1.2265201465201465,2.4909157509157507
0.31348115000582766,2.2225641025641028,1.2265201465201465,2.4909157509157507
0.31911802400281886,2.2225641025641028,1.2265201465201465,2.4909157509157507
0.3194162760046311,2.2225641025641028,1.2265201465201465,2.4909157509157507
0.3267229840057553,2.2225641025641028,1.2265201465201465,2.4909157509157507
0.3308361750023323,2.2225641025641028,1.2265201465201465,2.4909157509157507
0.33405913400201825,2.2225641025641028,1.2265201465201465,2.4909157509157507
0.33498624400090193,2.2225641025641028,1.2265201465201465,2.4909157509157507
0.33594974700099556,2.2225641025641028,1.2265201465201465,2.4909157509157507
0.336909164005192,2.2225641025641028,1.2265201465201465,2.4909157509157507
0.33973122099996544,2.2225641025641028,1.2265201465201465,2.4909157509157507
0.34326134900038596,2.2225641025641028,1.2265201465201465,2.4909157509157507
0.34901891800109297,2.2225641025641028,1.2265201465201465,2.4909157509157507
0.3491531899999245,2.2225641025641028,1.2265201465201465,2.4909157509157507
0.35547278900048696,2.2225641025641028,1.2265201465201465,2.4909157509157507
0.3605353530001594,2.2225641025641028,1.2265201465201465,2.4909157509157507
0.3622795390037936,1.1072527472527471,0.1692307692307692,0.6237362637362637
0.36628841000492685,1.1072527472527471,0.1692307692307692,0.6237362637362637
0.3702178570019896,1.1072527472527471,0.1692307692307692,0.6237362637362637
0.3768159620012739,0.24336996336996336,0.8864468864468864,1.4336263736263737
0.38090088900207775,0.9219047619047619,0.5536263736263736,0.06769230769230769
0.38333765900461003,0.9219047619047619,0.5536263736263736,0.06769230769230769
0.38356495200423524,0.8566300366300367,0.14666666666666667,0.5906959706959707
0.38915824200375937,0.8566300366300367,0.14666666666666667,0.5906959706959707
0.39054239300457994,1.6076923076923075,0.73010989010989,1.199120879120879
0.39631472900509834,1.6076923076923075,0.73010989010989,1.199120879120879
0.4010605210060021,1.6076923076923075,0.73010989010989,1.199120879120879
0.4012191570000141,1.6076923076923075,0.73010989010989,1.199120879120879
0.4087597700054175,1.6076923076923075,0.73010989010989,1.199120879120879
0.41290249099984067,1.6076923076923075,0.73010989010989,1.199120879120879
0.4154023730006884,1.3723809523809525,1.0355311355311354,2.0646153846153843
0.4219421730012982,1.3723809523809525,1.0355311355311354,2.0646153846153843
0.42633125800057314,1.3723809523809525,1.0355311355311354,2.0646153846153843
0.4266550400061533,2.6585347985347987,0.9315750915750916,2.0267399267399266
0.4315993480049656,2.6585347985347987,0.9315750915750916,2.0267399267399266
0.4317333370054257,2.6585347985347987,0.9315750915750916,2.0267399267399266
0.4364870260033058,2.6585347985347987,0.9315750915750916,2.0267399267399266
0.4462203490038519,0.8308424908424907,0.4013186813186813,0.22725274725274724
0.4562245410052128,2.4554578754578755,1.1676923076923076,0.5447619047619047
0.46370124000532087,2.4554578754578755,1.1676923076923076,0.5447619047619047
0.4685456220031483,2.4554578754578755,1.1676923076923076,0.5447619047619047
0.47541410000121687,2.4554578754578755,1.1676923076923076,0.5447619047619047
0.47884368400264066,1.1096703296703296,0.5600732600732601,0.9444688644688644
0.4791632460037363,1.1096703296703296,0.5600732600732601,0.9444688644688644
0.48415246700460557,1.1096703296703296,0.5600732600732601,0.9444688644688644
0.4901455180006451,1.1096703296703296,0.5600732600732601,0.9444688644688644
0.4950062420030008,1.1096703296703296,0.5600732600732601,0.9444688644688644
0.49983447300473927,1.008131868131868,0.42468864468864465,0.8356776556776556
0.5076289560020086,1.008131868131868,0.42468864468864465,0.8356776556776556
0.5114087000038126,1.008131868131868,0.42468864468864465,0.8356776556776556
0.516283190001559,1.8317216117216117,1.0935531135531134,0.8711355311355311
0.5219854880051571,1.8317216117216117,1.0935531135531134,0.8711355311355311
0.5222113039999385,1.5013186813186812,0.7389743589743589,0.14424908424908423
0.5281514270027401,1.5013186813186812,0.7389743589743589,0.14424908424908423
0.5328567820033641,2.8277655677655673,1.5585347985347984,2.3386080586080586
0.5390818750020117,1.4835897435897436,0.7857142857142856,1.1830036630036629
0.5435505550049129,1.4835897435897436,0.7857142857142856,1.1830036630036629
0.5438529560051393,0.850989010989011,0.13619047619047617,0.4279120879120879
0.5486689420067705,2.996996336996337,1.3288644688644689,2.0098168498168496
0.5545167450036388,2.996996336996337,1.3288644688644689,2.0098168498168496
0.5547944950012607,2.996996336996337,1.3288644688644689,2.0098168498168496
0.5609309230057988,2.996996336996337,1.3288644688644689,2.0098168498168496
0.5649278380005853,2.996996336996337,1.3288644688644689,2.0098168498168496
0.5709425430031843,2.996996336996337,1.3288644688644689,2.0098168498168496
0.575834326002223,2.872893772893773,1.3546520146520145,0.6986813186813187
0.5792000060027931,2.872893772893773,1.3546520146520145,0.6986813186813187
0.5794278340035817,2.872893772893773,1.3546520146520145,0.6986813186813187
0.5858156790054636,2.872893772893773,1.3546520146520145,0.6986813186813187
0.592467091002618,2.234652014652015,1.2853479853479852,1.926007326007326
0.5957742530008545,2.234652014652015,1.2853479853479852,1.926007326007326
0.5966747930069687,2.234652014652015,1.2853479853479852,1.926007326007326
0.5985004480025964,2.234652014652015,1.2853479853479852,1.926007326007326
0.6009677130059572,2.234652014652015,1.2853479853479852,1.926007326007326
0.6011818900005892,2.234652014652015,1.2853479853479852,1.926007326007326
0.6087157210058649,2.234652014652015,1.2853479853479852,1.926007326007326
0.6128546810068656,2.834212454212454,1.2579487179487179,1.814798534798535
0.6161831660065218,1.4972893772893772,0.958974358974359,1.2378021978021978
0.6171122810046654,1.4972893772893772,0.958974358974359,1.2378021978021978
0.6180509630066808,1.4972893772893772,0.958974358974359,1.2378021978021978
0.6189745590017992,1.4972893772893772,0.958974358974359,1.2378021978021978
0.62112018600601,1.4972893772893772,0.958974358974359,1.2378021978021978
0.6217975590043352,1.4972893772893772,0.958974358974359,1.2378021978021978
0.6256562740018126,1.4972893772893772,0.958974358974359,1.2378021978021978
0.6284029120070045,1.4972893772893772,0.958974358974359,1.2378021978021978
0.6348531130061019,1.4972893772893772,0.958974358974359,1.2378021978021978
0.6406510090018855,1.806739926739927,0.8671062271062271,0.9920146520146519
0.6474761240024236,1.806739926739927,0.8671062271062271,0.9920146520146519
0.6534963680023793,1.806739926739927,0.8671062271062271,0.9920146520146519
0.6610048100046697,1.806739926739927,0.8671062271062271,0.9920146520146519
0.6654644830050529,1.7624175824175823,0.842124542124542,0.11362637362637362
0.6657853830038221,0.7518681318681318,0.18695970695970696,0.7204395604395604
0.6718177590009873,0.7518681318681318,0.18695970695970696,0.7204395604395604
0.6786601820058422,0.7518681318681318,0.18695970695970696,0.7204395604395604
0.6827107210046961,0.7518681318681318,0.18695970695970696,0.7204395604395604
0.6866436199998134,1.9372893772893773,1.1104761904761904,2.112161172161172
0.6922017120014061,2.639194139194139,1.2845421245421245,2.211282051282051
0.699718075004057,1.4465201465201465,0.7454212454212454,1.6632967032967032
0.7057100070014712,2.473992673992674,1.3691575091575092,0.14263736263736262
0.7114120309997816,2.473992673992674,1.3691575091575092,0.14263736263736262
0.7174457070068456,2.473992673992674,1.3691575091575092,0.14263736263736262
0.7249018400034402,2.473992673992674,1.3691575091575092,0.14263736263736262
0.7289996000035899,2.473992673992674,1.3691575091575092,0.14263736263736262
0.7307414430033532,2.473992673992674,1.3691575091575092,0.14263736263736262
0.7339281360036694,2.473992673992674,1.3691575091575092,0.14263736263736262
0.7356284280031105,2.473992673992674,1.3691575091575092,0.14263736263736262
0.741039181004453,2.473992673992674,1.3691575091575092,0.14263736263736262
0.7413594280005782,2.2128937728937728,1.070989010989011,0.13941391941391942
0.747955611004727,2.2128937728937728,1.070989010989011,0.13941391941391942
0.7539563669997733,2.2128937728937728,1.070989010989011,0.13941391941391942
0.7601574569998775,1.5504761904761903,0.726080586080586,1.0113553113553113
0.7634064530066098,1.5504761904761903,0.726080586080586,1.0113553113553113
0.7643674999999348,1.041978021978022,0.16036630036630037,0.5294505494505495
0.7660823520054691,1.041978021978022,0.16036630036630037,0.5294505494505495
0.7693519220047165,1.041978021978022,0.16036630036630037,0.5294505494505495
0.7719962660048623,1.041978021978022,0.16036630036630037,0.5294505494505495
0.7779852760068025,1.5536996336996336,0.9227106227106227,1.1596336996336996
0.7813880880057695,0.9033699633699634,0.47142857142857136,1.1112820512820514
0.7822673340051551,0.9033699633699634,0.47142857142857136,1.1112820512820514
0.7839371520021814,0.9033699633699634,0.47142857142857136,1.1112820512820514
0.7886600560013903,0.9033699633699634,0.47142857142857136,1.1112820512820514
0.7952343100041617,0.9033699633699634,0.47142857142857136,1.1112820512820514
0.7992825210021692,0.9033699633699634,0.47142857142857136,1.1112820512820514
0.8024636150003062,0.9033699633699634,0.47142857142857136,1.1112820512820514
0.804586101003224,0.9033699633699634,0.47142857142857136,1.1112820512820514
0.8060696270040353,0.9033699633699634,0.47142857142857136,1.1112820512820514
0.8115894930015202,0.9033699633699634,0.47142857142857136,1.1112820512820514
0.812481901004503,0.9033699633699634,0.47142857142857136,1.1112820512820514
0.8141331300066668,0.9033699633699634,0.47142857142857136,1.1112820512820514
0.8181705310053076,0.34007326007326005,0.26109890109890105,0.09992673992673992
0.8226750070025446,0.34007326007326005,0.26109890109890105,0.09992673992673992
0.8229656820039963,0.34007326007326005,0.26109890109890105,0.09992673992673992
0.8284925050029415,2.4135531135531134,1.3498168498168497,2.121831501831502
0.828749381005764,2.4135531135531134,1.3498168498168497,2.121831501831502
0.833424834003381,2.4135531135531134,1.3498168498168497,2.121831501831502
0.8336169700050959,2.4135531135531134,1.3498168498168497,2.121831501831502
0.83978442800435,2.4135531135531134,1.3498168498168497,2.121831501831502
0.8439653890018235,2.4135531135531134,1.3498168498168497,2.121831501831502
0.8464204820047598,2.4135531135531134,1.3498168498168497,2.121831501831502
0.8520348450038,2.4135531135531134,1.3498168498168497,2.121831501831502
0.8523936290002894,1.9010256410256408,1.2595604395604394,1.5448351648351648
0.8597840319998795,1.9010256410256408,1.2595604395604394,1.5448351648351648
0.8639713110023877,1.9010256410256408,1.2595604395604394,1.5448351648351648
0.8677719670013175,1.9010256410256408,1.2595604395604394,1.5448351648351648
0.8743817760041566,1.9010256410256408,1.2595604395604394,1.5448351648351648
0.8782454280008096,1.9010256410256408,1.2595604395604394,1.5448351648351648
0.8822078950033756,1.9010256410256408,1.2595604395604394,1.5448351648351648
0.8860714020047453,1.9010256410256408,1.2595604395604394,1.5448351648351648
0.8921994770062156,1.9010256410256408,1.2595604395604394,1.5448351648351648
0.8956494760059286,1.5496703296703296,0.954945054945055,0.8856410256410255
0.8957935910002561,0.4383882783882784,0.3046153846153846,0.052380952380952375
0.9013770790043054,0.4383882783882784,0.3046153846153846,0.052380952380952375
0.9021917900026892,0.4383882783882784,0.3046153846153846,0.052380952380952375
0.9043638020011713,0.4383882783882784,0.3046153846153846,0.052380952380952375
0.906828070001211,0.4383882783882784,0.3046153846153846,0.052380952380952375
0.9115022710029734,0.4383882783882784,0.3046153846153846,0.052380952380952375
0.9116982300038217,0.4383882783882784,0.3046153846153846,0.052380952380952375
0.9164703700007522,0.4383882783882784,0.3046153846153846,0.052380952380952375
0.9165762280026684,0.4383882783882784,0.3046153846153846,0.052380952380952375
0.9231374880037038,0.4383882783882784,0.3046153846153846,0.052380952380952375
0.9276183860056335,0.4383882783882784,0.3046153846153846,0.052380952380952375
0.9279127420013538,2.8745054945054944,0.9339926739926739,0.4778754578754579
0.9321189270049217,2.8745054945054944,0.9339926739926739,0.4778754578754579
0.9345255630032625,2.8745054945054944,0.9339926739926739,0.4778754578754579
0.934650089002389,2.8745054945054944,0.9339926739926739,0.4778754578754579
0.9451238100009505,2.8745054945054944,0.9339926739926739,0.4778754578754579
0.9508890690049157,2.8745054945054944,0.9339926739926739,0.4778754578754579
0.9617966960067861,2.8745054945054944,0.9339926739926739,0.4778754578754579
0.9717130480057676,1.2877655677655677,0.30622710622710625,0.24256410256410255
0.9786852410034044,1.2877655677655677,0.30622710622710625,0.24256410256410255
0.9834082870002021,1.9235897435897436,0.12813186813186814,0.5576556776556777
0.9836083860063809,1.9235897435897436,0.12813186813186814,0.5576556776556777
0.9894170670013409,1.9235897435897436,0.12813186813186814,0.5576556776556777
0.9973523770022439,1.9235897435897436,0.12813186813186814,0.5576556776556777
1.0027622300040093,1.9235897435897436,0.12813186813186814,0.5576556776556777
1.0054909830068937,1.9235897435897436,0.12813186813186814,0.5576556776556777
1.0107040889997734,1.9235897435897436,0.12813186813186814,0.5576556776556777
1.01319916400098,1.9235897435897436,0.12813186813186814,0.5576556776556777
1.017976795003051,1.9235897435897436,0.12813186813186814,0.5576556776556777
1.0269989300068119,1.9235897435897436,0.12813186813186814,0.5576556776556777
1.0327329179999651,1.9235897435897436,0.12813186813186814,0.5576556776556777
1.0329203410001355,1.9235897435897436,0.12813186813186814,0.5576556776556777
1.0420735350053292,1.9235897435897436,0.12813186813186814,0.5576556776556777
1.0496224620001158,1.9235897435897436,0.12813186813186814,0.5576556776556777
1.0580230280029355,1.9235897435897436,0.12813186813186814,0.5576556776556777
1.0639024210031494,1.9235897435897436,0.12813186813186814,0.5576556776556777
1.0708551770003396,1.9235897435897436,0.12813186813186814,0.5576556776556777
1.077046139005688,1.9235897435897436,0.12813186813186814,0.5576556776556777
1.082094451005105,0.7631501831501831,0.3779487179487179,0.09025641025641025
1.0870080610038713,0.7631501831501831,0.3779487179487179,0.09025641025641025
1.091688325002906,0.7631501831501831,0.3779487179487179,0.09025641025641025
1.0970269919998827,1.3933333333333333,0.8646886446886447,0.9525274725274724
1.1000993620036752,1.3933333333333333,0.8646886446886447,0.9525274725274724
1.102467124001123,2.302344322344322,1.1902564102564102,0.365054945054945
1.1027243480057223,2.302344322344322,1.1902564102564102,0.365054945054945
1.1086054280021926,2.302344322344322,1.1902564102564102,0.365054945054945
1.1141933890030487,2.302344322344322,1.1902564102564102,0.365054945054945
1.1151716190070147,2.302344322344322,1.1902564102564102,0.365054945054945
1.1161180020062602,2.302344322344322,1.1902564102564102,0.365054945054945
1.1163967790052993,2.302344322344322,1.1902564102564102,0.365054945054945
1.1214165020064684,2.302344322344322,1.1902564102564102,0.365054945054945
1.1255251120019238,2.302344322344322,1.1902564102564102,0.365054945054945
1.1288288790019578,2.3845421245421243,0.6495238095238095,0.6777289377289377
1.129739268006233,2.3845421245421243,0.6495238095238095,0.6777289377289377
1.13150217000657,2.3845421245421243,0.6495238095238095,0.6777289377289377
1.1349885290037491,2.3845421245421243,0.6495238095238095,0.6777289377289377
1.1351894899999024,2.3845421245421243,0.6495238095238095,0.6777289377289377
1.1402431780006737,2.3845421245421243,0.6495238095238095,0.6777289377289377
1.144931067006837,2.3845421245421243,0.6495238095238095,0.6777289377289377
1.1450838420059881,2.3845421245421243,0.6495238095238095,0.6777289377289377
1.1520354860040243,2.3845421245421243,0.6495238095238095,0.6777289377289377
1.1560880739998538,2.3845421245421243,0.6495238095238095,0.6777289377289377
1.1612582190064131,1.248278388278388,0.5737728937728938,0.527032967032967
1.164092855004128,1.248278388278388,0.5737728937728938,0.527032967032967
1.167687785004091,2.0186813186813186,1.1668864468864468,1.5254945054945055
1.1780447700002696,2.0186813186813186,1.1668864468864468,1.5254945054945055
1.187133581006492,1.696336996336996,0.9573626373626374,1.012161172161172
1.1952929560065968,1.696336996336996,0.9573626373626374,1.012161172161172
1.2019165010060533,1.696336996336996,0.9573626373626374,1.012161172161172
1.2065334990038536,1.3836630036630035,0.1555311355311355,0.448058608058608
1.2132253600066178,1.3836630036630035,0.1555311355311355,0.448058608058608
1.2190557780049858,1.3836630036630035,0.1555311355311355,0.448058608058608
1.2236518770005205,0.38358974358974357,0.32153846153846155,0.5157509157509157
1.2238839520068723,0.38358974358974357,0.32153846153846155,0.5157509157509157
1.2285812090049149,0.38358974358974357,0.32153846153846155,0.5157509157509157
1.229431466999813,2.5747252747252745,1.1032234432234431,1.4416849816849817
1.2311895090024336,2.5747252747252745,1.1032234432234431,1.4416849816849817
1.2344936570007121,2.5747252747252745,1.1032234432234431,1.4416849816849817
1.2347679780068574,2.5747252747252745,1.1032234432234431,1.4416849816849817
1.239389131005737,2.5747252747252745,1.1032234432234431,1.4416849816849817
1.2402795310044894,2.5747252747252745,1.1032234432234431,1.4416849816849817
1.2419264170021052,2.5747252747252745,1.1032234432234431,1.4416849816849817
1.2452163140042103,2.5747252747252745,1.1032234432234431,1.4416849816849817
1.2461322830058634,2.5747252747252745,1.1032234432234431,1.4416849816849817
1.2477653180030757,2.5747252747252745,1.1032234432234431,1.4416849816849817
1.2510693150034058,2.5747252747252745,1.1032234432234431,1.4416849816849817
1.2520241880047251,2.5747252747252745,1.1032234432234431,1.4416849816849817
1.2530270060015027,2.5747252747252745,1.1032234432234431,1.4416849816849817
1.253948430006858,2.5747252747252745,1.1032234432234431,1.4416849816849817
1.2548491699999431,2.5747252747252745,1.1032234432234431,1.4416849816849817
1.2564491340017412,2.5747252747252745,1.1032234432234431,1.4416849816849817
1.2606040130049223,2.5747252747252745,1.1032234432234431,1.4416849816849817
1.2630893280002056,2.5747252747252745,1.1032234432234431,1.4416849816849817
1.2679026100013289,2.5747252747252745,1.1032234432234431,1.4416849816849817
1.268042294002953,2.5747252747252745,1.1032234432234431,1.4416849816849817
1.2727278720049071,2.5747252747252745,1.1032234432234431,1.4416849816849817
1.2728915760017117,1.0508424908424907,0.9968498168498168,1.6584615384615384
1.2775572820028174,1.0508424908424907,0.9968498168498168,1.6584615384615384
1.2777696320044925,1.0508424908424907,0.9968498168498168,1.6584615384615384
1.2826118049997604,1.0508424908424907,0.9968498168498168,1.6584615384615384
1.2883439260040177,1.0508424908424907,0.9968498168498168,1.6584615384615384
1.2885372990058386,1.0508424908424907,0.9968498168498168,1.6584615384615384
1.2931263760037837,1.0508424908424907,0.9968498168498168,1.6584615384615384
1.2940156050026417,1.0508424908424907,0.9968498168498168,1.6584615384615384
1.295015494004474,1.0508424908424907,0.9968498168498168,1.6584615384615384
1.2966055880024214,1.0508424908424907,0.9968498168498168,1.6584615384615384
1.3004049220035085,1.0508424908424907,0.9968498168498168,1.6584615384615384
1.3049102460063295,1.0508424908424907,0.9968498168498168,1.6584615384615384
1.305196084002091,1.0508424908424907,0.9968498168498168,1.6584615384615384
1.3104547820039443,1.0508424908424907,0.9968498168498168,1.6584615384615384
1.3129501140065258,1.0508424908424907,0.9968498168498168,1.6584615384615384
1.318336750002345,1.0508424908424907,0.9968498168498168,1.6584615384615384
1.3199417290015845,2.274945054945055,1.357069597069597,0.36666666666666664
1.3237931660041795,2.274945054945055,1.357069597069597,0.36666666666666664
1.3285432600023341,2.274945054945055,1.357069597069597,0.36666666666666664
1.3287059890062665,2.9824908424908423,0.7905494505494506,1.2668131868131869
1.3335660900047515,2.9824908424908423,0.7905494505494506,1.2668131868131869
1.3337055570009397,1.0532600732600732,0.4867399267399267,0.8106959706959707
1.3384437040003831,1.0532600732600732,0.4867399267399267,0.8106959706959707
1.3387611330035725,1.0532600732600732,0.4867399267399267,0.8106959706959707
1.343334875004075,1.0532600732600732,0.4867399267399267,0.8106959706959707
1.3436868090066127,1.0016849816849815,0.1241025641025641,0.8252014652014652
1.349592376005603,2.6246886446886446,1.3425641025641024,2.44981684981685
1.3591688770029577,0.10395604395604395,0.9984615384615383,1.506959706959707
1.366172314999858,0.10395604395604395,0.9984615384615383,1.506959706959707
1.3707928140065633,0.10395604395604395,0.9984615384615383,1.506959706959707
1.371072207002726,2.589230769230769,1.1193406593406594,0.606007326007326
1.3766305080062011,2.589230769230769,1.1193406593406594,0.606007326007326
1.376987146002648,2.589230769230769,1.1193406593406594,0.606007326007326
1.385432277005748,2.589230769230769,1.1193406593406594,0.606007326007326
1.3908300660041277,2.589230769230769,1.1193406593406594,0.606007326007326
1.3917538290043012,2.589230769230769,1.1193406593406594,0.606007326007326
1.3933392940016347,2.589230769230769,1.1193406593406594,0.606007326007326
1.397354600005201,2.589230769230769,1.1193406593406594,0.606007326007326
1.4013829100003932,2.589230769230769,1.1193406593406594,0.606007326007326
1.4037061670023832,2.589230769230769,1.1193406593406594,0.606007326007326
1.4039189640025143,2.589230769230769,1.1193406593406594,0.606007326007326
1.4086690390031436,2.589230769230769,1.1193406593406594,0.606007326007326
1.4095360550054465,2.589230769230769,1.1193406593406594,0.606007326007326
1.4112465460057138,2.589230769230769,1.1193406593406594,0.606007326007326
1.414555248004035,2.589230769230769,1.1193406593406594,0.606007326007326
1.4154699800055823,2.589230769230769,1.1193406593406594,0.606007326007326
1.4170868620058172,2.589230769230769,1.1193406593406594,0.606007326007326
1.421224121004343,2.589230769230769,1.1193406593406594,0.606007326007326
1.4244581570019363,2.589230769230769,1.1193406593406594,0.606007326007326
1.4253683210044983,2.589230769230769,1.1193406593406594,0.606007326007326
1.4270046140009072,2.589230769230769,1.1193406593406594,0.606007326007326
1.430942862003576,2.589230769230769,1.1193406593406594,0.606007326007326
1.4356920740028727,1.1048351648351646,1.0452014652014652,1.506959706959707
1.4443759570058319,0.9573626373626374,0.606007326007326,1.00007326007326
1.4509202810004354,0.8372893772893772,0.14424908424908423,0.32073260073260074
1.4554226649997872,0.8372893772893772,0.14424908424908423,0.32073260073260074
1.4557962970066,0.8372893772893772,0.14424908424908423,0.32073260073260074
1.4627592120014015,1.311135531135531,0.1772893772893773,0.5794139194139193
1.4676526360053685,1.3127472527472526,0.4657875457875458,0.7816849816849816
1.4740532499999972,1.9574358974358974,1.1338461538461537,2.095238095238095
1.4793214650053415,1.9574358974358974,1.1338461538461537,2.095238095238095
1.4819902060044114,1.9268131868131868,0.8928937728937728,0.25787545787545785
1.4856272640026873,0.9098168498168498,0.13296703296703297,0.18373626373626373
1.4941596630014828,1.598021978021978,0.7333333333333333,1.4030036630036629
1.5001505020045443,0.6809523809523809,1.0999999999999999,1.2498901098901098
1.506527746001666,0.6809523809523809,1.0999999999999999,1.2498901098901098
1.5124021490046289,0.855018315018315,0.13054945054945052,0.1829304029304029
1.5205301330061047,0.855018315018315,0.13054945054945052,0.1829304029304029
1.5276486620059586,0.855018315018315,0.13054945054945052,0.1829304029304029
1.53311414700147,0.855018315018315,0.13054945054945052,0.1829304029304029
1.53333642600046,0.6446886446886446,0.78007326007326,0.7043223443223443
1.541632541004219,0.6446886446886446,0.78007326007326,0.7043223443223443
1.5482499850040767,0.6591941391941392,0.32798534798534795,0.5093040293040293
1.5540821610047715,0.9509157509157508,0.32798534798534795,0.2248351648351648
1.5598058940013289,0.14989010989010987,0.30945054945054945,0.25465201465201465
1.5693884500069544,2.5602197802197804,1.3788278388278388,0.14747252747252745
1.577093114006857,2.5602197802197804,1.3788278388278388,0.14747252747252745
1.5831184460039367,2.5602197802197804,1.3788278388278388,0.14747252747252745
1.5886750320059946,1.4304029304029304,0.14908424908424908,0.7776556776556776
1.589009833005548,1.904249084249084,0.6092307692307692,1.016996336996337
1.596150106001005,1.904249084249084,0.6092307692307692,1.016996336996337
1.6020698960055597,1.904249084249084,0.6092307692307692,1.016996336996337
1.6073833130067214,1.904249084249084,0.6092307692307692,1.016996336996337
1.6084703520027688,1.904249084249084,0.6092307692307692,1.016996336996337
1.6087566090063774,1.904249084249084,0.6092307692307692,1.016996336996337
1.6165834150015144,1.904249084249084,0.6092307692307692,1.016996336996337
1.6242656630056445,1.904249084249084,0.6092307692307692,1.016996336996337
1.6315055250015575,0.5842490842490843,0.1643956043956044,0.3578021978021978
1.6372792660040432,0.5842490842490843,0.1643956043956044,0.3578021978021978
1.6454690509999637,0.776043956043956,0.6172893772893773,1.0226373626373626
1.651239697006531,0.95010989010989,0.7752380952380952,1.755164835164835
1.66006648199982,0.95010989010989,0.7752380952380952,1.755164835164835
1.6651360930045485,0.95010989010989,0.7752380952380952,1.755164835164835
1.6679761830018833,0.95010989010989,0.7752380952380952,1.755164835164835
1.671259030001238,1.6423443223443224,0.5592673992673992,1.1314285714285715
1.6722610630022245,1.6423443223443224,0.5592673992673992,1.1314285714285715
1.673157680001168,1.6423443223443224,0.5592673992673992,1.1314285714285715
1.674128886006656,1.6423443223443224,0.5592673992673992,1.1314285714285715
1.6760504490011954,1.6423443223443224,0.5592673992673992,1.1314285714285715
1.6770003140045446,1.6423443223443224,0.5592673992673992,1.1314285714285715
1.678752510000777,1.6423443223443224,0.5592673992673992,1.1314285714285715
1.682089920002909,1.6423443223443224,0.5592673992673992,1.1314285714285715
1.6824413900030777,1.506153846153846,0.1265201465201465,0.6833699633699634
1.68764243300393,1.506153846153846,0.1265201465201465,0.6833699633699634
1.6907859980055946,0.8485714285714284,0.2627106227106227,0.6801465201465201
1.6924488570002723,0.8485714285714284,0.2627106227106227,0.6801465201465201
1.6963757980047376,0.8485714285714284,0.2627106227106227,0.6801465201465201
1.7009188880037982,0.8485714285714284,0.2627106227106227,0.6801465201465201
1.7017898370031617,0.8485714285714284,0.2627106227106227,0.6801465201465201
1.7033185590044013,0.8485714285714284,0.2627106227106227,0.6801465201465201
1.708104417004506,0.8485714285714284,0.2627106227106227,0.6801465201465201
1.7129260800065822,1.087106227106227,0.38278388278388276,1.0580952380952382
1.7187276940021547,1.087106227106227,0.38278388278388276,1.0580952380952382
1.718913982003869,1.087106227106227,0.38278388278388276,1.0580952380952382
1.7244989300015732,1.087106227106227,0.38278388278388276,1.0580952380952382
1.7256998350057984,0.6616117216117217,0.30864468864468864,1.2845421245421245
1.7258936160069425,0.6616117216117217,0.30864468864468864,1.2845421245421245
1.7351981700048782,0.6616117216117217,0.30864468864468864,1.2845421245421245
1.7412482320069103,0.6616117216117217,0.30864468864468864,1.2845421245421245
1.7473230850009713,0.6616117216117217,0.30864468864468864,1.2845421245421245
1.7535635990061564,0.6616117216117217,0.30864468864468864,1.2845421245421245
1.7598751020050258,0.21032967032967032,0.2175824175824176,0.253040293040293
1.764509648004605,0.21032967032967032,0.2175824175824176,0.253040293040293
1.7646530470010475,0.21032967032967032,0.2175824175824176,0.253040293040293
1.7740342570032226,2.0396336996336997,1.0290842490842491,2.694798534798535
1.780635887000244,2.0396336996336997,1.0290842490842491,2.694798534798535
1.78635364100046,2.0396336996336997,1.0290842490842491,2.694798534798535
1.7962978620053036,2.0396336996336997,1.0290842490842491,2.694798534798535
1.804319620001479,2.0396336996336997,1.0290842490842491,2.694798534798535
1.8101262920026784,2.0396336996336997,1.0290842490842491,2.694798534798535
1.81849381000211,2.0396336996336997,1.0290842490842491,2.694798534798535
1.8245154690011987,2.0396336996336997,1.0290842490842491,2.694798534798535
1.8300340800051345,2.0396336996336997,1.0290842490842491,2.694798534798535
1.8302828460000455,2.0396336996336997,1.0290842490842491,2.694798534798535
1.838408180999977,2.0396336996336997,1.0290842490842491,2.694798534798535
1.8442806160019245,2.0396336996336997,1.0290842490842491,2.694798534798535
1.8504067280009622,0.8131135531135532,0.31186813186813184,1.1588278388278386
1.8548940710024908,0.8131135531135532,0.31186813186813184,1.1588278388278386
1.8551342170030694,0.8131135531135532,0.31186813186813184,1.1588278388278386
1.8630769370065536,0.8131135531135532,0.31186813186813184,1.1588278388278386
1.8699189010003465,0.8131135531135532,0.31186813186813184,1.1588278388278386
1.875710568005161,0.8131135531135532,0.31186813186813184,1.1588278388278386
1.8817398050014162,0.8131135531135532,0.31186813186813184,1.1588278388278386
1.8854236740007764,1.8236630036630037,0.9573626373626374,0.5036630036630036
1.885523914002988,1.8236630036630037,0.9573626373626374,0.5036630036630036
1.8904722900042543,1.8236630036630037,0.9573626373626374,0.5036630036630036
1.8947318680002354,0.5125274725274725,0.8977289377289376,1.3506227106227104
1.896894424004131,0.5125274725274725,0.8977289377289376,1.3506227106227104
1.8980140860003303,0.826007326007326,0.3537728937728937,0.9525274725274724
1.8982811930036405,0.826007326007326,0.3537728937728937,0.9525274725274724
1.9037776050026878,0.826007326007326,0.3537728937728937,0.9525274725274724
1.904574122003396,0.826007326007326,0.3537728937728937,0.9525274725274724
1.906660605003708,2.5747252747252745,1.0967765567765566,2.1758241758241756
1.9075525400039623,2.5747252747252745,1.0967765567765566,2.1758241758241756
1.9090949560049921,2.5747252747252745,1.0967765567765566,2.1758241758241756
1.9133106900044368,2.5747252747252745,1.0967765567765566,2.1758241758241756
1.9161954390001483,2.5747252747252745,1.0967765567765566,2.1758241758241756
1.9197050670045428,2.5747252747252745,1.0967765567765566,2.1758241758241756
1.9198598900038633,2.5747252747252745,1.0967765567765566,2.1758241758241756
1.9247279150004033,2.5747252747252745,1.0967765567765566,2.1758241758241756
1.9295348550003837,2.22981684981685,0.8195604395604396,1.2523076923076921
1.9296668820024934,2.22981684981685,0.8195604395604396,1.2523076923076921
1.9338795290022972,2.22981684981685,0.8195604395604396,1.2523076923076921
1.9360866860006354,2.22981684981685,0.8195604395604396,1.2523076923076921
1.936939370003529,2.22981684981685,0.8195604395604396,1.2523076923076921
1.9384488499999861,2.22981684981685,0.8195604395604396,1.2523076923076921
1.9426967580002383,2.22981684981685,0.8195604395604396,1.2523076923076921
1.9448785330023384,1.361098901098901,0.14586080586080585,0.726080586080586
1.9457091150034103,1.361098901098901,0.14586080586080585,0.726080586080586
1.9479262770037167,1.361098901098901,0.14586080586080585,0.726080586080586
1.9487184720055666,1.361098901098901,0.14586080586080585,0.726080586080586
1.9508780940013821,1.361098901098901,0.14586080586080585,0.726080586080586
1.9517069930006983,1.361098901098901,0.14586080586080585,0.726080586080586
1.9538927660032641,1.361098901098901,0.14586080586080585,0.726080586080586
1.9547531560019706,1.361098901098901,0.14586080586080585,0.726080586080586
1.9563274990068749,1.361098901098901,0.14586080586080585,0.726080586080586
1.9647419640023145,1.361098901098901,0.14586080586080585,0.726080586080586
1.9696784690022469,1.361098901098901,0.14586080586080585,0.726080586080586
1.9742221220003557,0.3457142857142857,0.6463003663003662,0.850989010989011
1.9750508310025907,0.3457142857142857,0.6463003663003662,0.850989010989011
1.9766757180041168,0.3457142857142857,0.6463003663003662,0.850989010989011
1.9805564710040926,0.3457142857142857,0.6463003663003662,0.850989010989011
1.9846615430069505,1.1008058608058606,0.14747252747252745,0.5326739926739926
1.9869931990033365,1.1008058608058606,0.14747252747252745,0.5326739926739926
1.987276390005718,1.1008058608058606,0.14747252747252745,0.5326739926739926
1.992704867006978,1.1008058608058606,0.14747252747252745,0.5326739926739926
1.9936191140004667,1.1008058608058606,0.14747252747252745,0.5326739926739926
1.9954241320010624,1.0693772893772893,0.5536263736263736,0.7518681318681318
1.9985758239999996,1.0693772893772893,0.5536263736263736,0.7518681318681318
1.9994507230003364,1.0693772893772893,0.5536263736263736,0.7518681318681318
2.0010681730054785,1.0693772893772893,0.5536263736263736,0.7518681318681318
2.005089810001664,0.7454212454212454,0.12571428571428572,0.3457142857142857
2.0089911150062107,0.6575824175824176,0.13538461538461538,0.33282051282051284
2.012180038000224,0.6575824175824176,0.13538461538461538,0.33282051282051284
2.014633570004662,0.6575824175824176,0.13538461538461538,0.33282051282051284
2.01474872000108,0.6575824175824176,0.13538461538461538,0.33282051282051284
2.019961083002272,0.6575824175824176,0.13538461538461538,0.33282051282051284
2.023881439003162,0.6575824175824176,0.13538461538461538,0.33282051282051284
2.0270915440050885,0.6575824175824176,0.13538461538461538,0.33282051282051284
2.029367863004154,0.6575824175824176,0.13538461538461538,0.33282051282051284
2.029643426001712,0.6575824175824176,0.13538461538461538,0.33282051282051284
2.0350136370034306,0.6575824175824176,0.13538461538461538,0.33282051282051284
2.037352313003794,0.6575824175824176,0.13538461538461538,0.33282051282051284
2.03763663200516,0.6575824175824176,0.13538461538461538,0.33282051282051284
2.0426738610040047,0.6575824175824176,0.13538461538461538,0.33282051282051284
2.046803290002572,0.6575824175824176,0.13538461538461538,0.33282051282051284
2.049635086004855,1.0194139194139193,0.5213919413919413,0.4585347985347985
2.0531073689999175,1.846227106227106,1.0097435897435898,0.6986813186813187
2.0533827240069513,1.846227106227106,1.0097435897435898,0.6986813186813187
2.0582614280065172,1.846227106227106,1.0097435897435898,0.6986813186813187
2.0631958110025153,1.846227106227106,1.0097435897435898,0.6986813186813187
2.0674642290032352,1.846227106227106,1.0097435897435898,0.6986813186813187
2.0696712160060997,1.846227106227106,1.0097435897435898,0.6986813186813187
2.070496741005627,1.846227106227106,1.0097435897435898,0.6986813186813187
2.0726185100065777,1.846227106227106,1.0097435897435898,0.6986813186813187
2.073444019006274,1.846227106227106,1.0097435897435898,0.6986813186813187
2.075555448005616,1.846227106227106,1.0097435897435898,0.6986813186813187
2.0763951879998785,1.846227106227106,1.0097435897435898,0.6986813186813187
2.078578450003988,1.846227106227106,1.0097435897435898,0.6986813186813187
2.079427705000853,1.846227106227106,1.0097435897435898,0.6986813186813187
2.08091099900048,1.846227106227106,1.0097435897435898,0.6986813186813187
2.0850211280048825,1.846227106227106,1.0097435897435898,0.6986813186813187
2.0878352350046043,1.846227106227106,1.0097435897435898,0.6986813186813187
2.091936970005918,1.846227106227106,1.0097435897435898,0.6986813186813187
2.0953794380038744,1.846227106227106,1.0097435897435898,0.6986813186813187
2.0961386610069894,1.846227106227106,1.0097435897435898,0.6986813186813187
2.098241390005569,1.846227106227106,1.0097435897435898,0.6986813186813187
2.0990820470033213,1.846227106227106,1.0097435897435898,0.6986813186813187
2.1006266140029766,1.846227106227106,1.0097435897435898,0.6986813186813187
2.1053952450020006,1.846227106227106,1.0097435897435898,0.6986813186813187
2.105621973001689,1.846227106227106,1.0097435897435898,0.6986813186813187
2.110326673006057,1.846227106227106,1.0097435897435898,0.6986813186813187
2.110496264001995,1.846227106227106,1.0097435897435898,0.6986813186813187
2.115221138999914,1.846227106227106,1.0097435897435898,0.6986813186813187
2.1154072640056256,1.846227106227106,1.0097435897435898,0.6986813186813187
2.1202192880009534,1.846227106227106,1.0097435897435898,0.6986813186813187
2.12032513700251,1.448131868131868,0.2345054945054945,0.6052014652014651
2.125603692002187,1.448131868131868,0.2345054945054945,0.6052014652014651
2.1278052699999535,1.448131868131868,0.2345054945054945,0.6052014652014651
2.128104354000243,1.448131868131868,0.2345054945054945,0.6052014652014651
2.132924710000225,1.448131868131868,0.2345054945054945,0.6052014652014651
2.1330851940001594,0.5326739926739926,0.8348717948717947,1.6230036630036628
2.1379704070059233,0.5326739926739926,0.8348717948717947,1.6230036630036628
2.1380799600010505,0.5326739926739926,0.8348717948717947,1.6230036630036628
2.143030142004136,0.5326739926739926,0.8348717948717947,1.6230036630036628
2.1479157930007204,0.5326739926739926,0.8348717948717947,1.6230036630036628
2.1533712560049025,0.5326739926739926,0.8348717948717947,1.6230036630036628
2.154987001005793,1.3425641025641024,0.6946520146520146,1.216849816849817
2.1587456690031104,1.3425641025641024,0.6946520146520146,1.216849816849817
2.1637973040051293,1.3836630036630035,0.7284981684981684,0.03868131868131868
2.1680848380055977,1.3836630036630035,0.7284981684981684,0.03868131868131868
2.1703883490044973,1.3836630036630035,0.7284981684981684,0.03868131868131868
2.1711944100024994,1.3836630036630035,0.7284981684981684,0.03868131868131868
2.17333690700616,1.3836630036630035,0.7284981684981684,0.03868131868131868
2.174176145999809,1.3836630036630035,0.7284981684981684,0.03868131868131868
2.175709180002741,1.3836630036630035,0.7284981684981684,0.03868131868131868
2.1799073940055678,1.3836630036630035,0.7284981684981684,0.03868131868131868
2.1821665540046524,1.3836630036630035,0.7284981684981684,0.03868131868131868
2.183013239002321,1.3836630036630035,0.7284981684981684,0.03868131868131868
2.184540066002228,1.3836630036630035,0.7284981684981684,0.03868131868131868
2.188726353000675,2.036410256410256,1.0153846153846153,2.8583882783882784
2.1909158620037488,2.036410256410256,1.0153846153846153,2.8583882783882784
2.1917146270061494,2.036410256410256,1.0153846153846153,2.8583882783882784
2.193837787002849,2.036410256410256,1.0153846153846153,2.8583882783882784
2.195273501005431,2.036410256410256,1.0153846153846153,2.8583882783882784
2.2002151050037355,2.036410256410256,1.0153846153846153,2.8583882783882784
2.2044644950001384,2.036410256410256,1.0153846153846153,2.8583882783882784
2.2065726230066502,2.036410256410256,1.0153846153846153,2.8583882783882784
2.2080971190007403,1.7527472527472527,0.5149450549450549,1.5375824175824175
2.211714581004344,1.7527472527472527,0.5149450549450549,1.5375824175824175
2.211822775003384,1.7527472527472527,0.5149450549450549,1.5375824175824175
2.216655170006561,1.7527472527472527,0.5149450549450549,1.5375824175824175
2.22149529800663,1.7527472527472527,0.5149450549450549,1.5375824175824175
2.2216720690048533,1.7527472527472527,0.5149450549450549,1.5375824175824175
2.226464923005551,1.7527472527472527,0.5149450549450549,1.5375824175824175
2.2313468790016486,0.8783882783882784,0.30139194139194136,0.5761904761904761
2.2315097730024718,0.8783882783882784,0.30139194139194136,0.5761904761904761
2.2362730050008395,0.8783882783882784,0.30139194139194136,0.5761904761904761
2.236434933001874,0.8783882783882784,0.30139194139194136,0.5761904761904761
2.24135871600447,0.8783882783882784,0.30139194139194136,0.5761904761904761
2.2458461630012607,0.8783882783882784,0.30139194139194136,0.5761904761904761
2.2467079760026536,0.8783882783882784,0.30139194139194136,0.5761904761904761
2.2483118220043252,0.8783882783882784,0.30139194139194136,0.5761904761904761
2.2528826350026065,0.8783882783882784,0.30139194139194136,0.5761904761904761
2.253725848000613,0.8783882783882784,0.30139194139194136,0.5761904761904761
2.255349882005248,0.8783882783882784,0.30139194139194136,0.5761904761904761
2.259954357003153,0.8783882783882784,0.30139194139194136,0.5761904761904761
2.260115693003172,0.8783882783882784,0.30139194139194136,0.5761904761904761
2.265578448001179,0.8783882783882784,0.30139194139194136,0.5761904761904761
2.267253554004128,0.8783882783882784,0.30139194139194136,0.5761904761904761
2.2711800840042997,0.8783882783882784,0.30139194139194136,0.5761904761904761
2.2751012460066704,0.8783882783882784,0.30139194139194136,0.5761904761904761
2.278883721002785,0.8783882783882784,0.30139194139194136,0.5761904761904761
2.284140488001867,0.8783882783882784,0.30139194139194136,0.5761904761904761
2.2881160310062114,0.9484981684981684,0.5737728937728938,2.432087912087912
2.291979371002526,0.9484981684981684,0.5737728937728938,2.432087912087912
2.295940756004711,0.9484981684981684,0.5737728937728938,2.432087912087912
2.299822758002847,0.776043956043956,0.3892307692307692,1.2587545787545786
2.304588684004557,0.776043956043956,0.3892307692307692,1.2587545787545786
2.3047904960039887,0.8969230769230768,0.14908424908424908,1.0572893772893772
2.3094719940054347,0.8969230769230768,0.14908424908424908,1.0572893772893772
2.3096588820044417,0.8969230769230768,0.14908424908424908,1.0572893772893772
2.314988993006409,0.8969230769230768,0.14908424908424908,1.0572893772893772
2.3170603530015796,0.8969230769230768,0.14908424908424908,1.0572893772893772
2.317961788001412,0.8969230769230768,0.14908424908424908,1.0572893772893772
2.3194181290018605,0.8969230769230768,0.14908424908424908,1.0572893772893772
2.3195707550039515,0.8969230769230768,0.14908424908424908,1.0572893772893772
2.324470128005487,0.8969230769230768,0.14908424908424908,1.0572893772893772
2.329305013001431,0.8969230769230768,0.14908424908424908,1.0572893772893772
2.3294135670003016,0.8969230769230768,0.14908424908424908,1.0572893772893772
2.334126459005347,0.8969230769230768,0.14908424908424908,1.0572893772893772
2.3343228610028746,0.8969230769230768,0.14908424908424908,1.0572893772893772
2.3391907940022065,0.8969230769230768,0.14908424908424908,1.0572893772893772
2.339324373002455,0.8969230769230768,0.14908424908424908,1.0572893772893772
2.344095088003087,0.8969230769230768,0.14908424908424908,1.0572893772893772
2.3442729730013525,0.8969230769230768,0.14908424908424908,1.0572893772893772
2.349110021001252,0.8969230769230768,0.14908424908424908,1.0572893772893772
2.3539586610058905,0.8969230769230768,0.14908424908424908,1.0572893772893772
2.3587915600000997,0.7204395604395604,0.41098901098901097,2.0476923076923077
2.3589289110022946,0.8276190476190476,0.4254945054945055,0.22564102564102564
2.364071629002865,1.4626373626373625,0.1926007326007326,1.2917948717948717
2.367865743006405,1.244249084249084,0.15472527472527473,0.9678388278388278
2.3724181500001578,1.244249084249084,0.15472527472527473,0.9678388278388278
2.3727129550024983,1.244249084249084,0.15472527472527473,0.9678388278388278
2.378303768004116,1.244249084249084,0.15472527472527473,0.9678388278388278
2.3786119210053585,1.244249084249084,0.15472527472527473,0.9678388278388278
2.3832891630008817,1.244249084249084,0.15472527472527473,0.9678388278388278
2.38352493000275,1.244249084249084,0.15472527472527473,0.9678388278388278
2.389044620002096,1.244249084249084,0.15472527472527473,0.9678388278388278
2.3901215940059046,1.244249084249084,0.15472527472527473,0.9678388278388278
2.390445762001036,1.244249084249084,0.15472527472527473,0.9678388278388278
2.3957008910001605,1.244249084249084,0.15472527472527473,0.9678388278388278
2.39801350000198,1.244249084249084,0.15472527472527473,0.9678388278388278
2.398282033005671,1.244249084249084,0.15472527472527473,0.9678388278388278
2.4031784270046046,1.244249084249084,0.15472527472527473,0.9678388278388278
2.4086015460052295,1.244249084249084,0.15472527472527473,0.9678388278388278
2.4101291420010966,1.244249084249084,0.15472527472527473,0.9678388278388278
2.4145495660050074,1.244249084249084,0.15472527472527473,0.9678388278388278
2.415408279004623,1.244249084249084,0.15472527472527473,0.9678388278388278
2.416954052001529,1.244249084249084,0.15472527472527473,0.9678388278388278
2.42070884500572,1.244249084249084,0.15472527472527473,0.9678388278388278
2.424933795002289,1.244249084249084,0.15472527472527473,0.9678388278388278
2.4271206470002653,1.244249084249084,0.15472527472527473,0.9678388278388278
2.42862590700679,1.2772893772893772,0.3424908424908425,1.3046886446886445
2.4328651360046933,1.2772893772893772,0.3424908424908425,1.3046886446886445
2.4352071700050146,1.2772893772893772,0.3424908424908425,1.3046886446886445
2.4354722640055115,1.2772893772893772,0.3424908424908425,1.3046886446886445
2.440374021003663,1.2772893772893772,0.3424908424908425,1.3046886446886445
2.446058137000364,1.2772893772893772,0.3424908424908425,1.3046886446886445
2.446191800001543,1.2772893772893772,0.3424908424908425,1.3046886446886445
2.451635208002699,1.2772893772893772,0.3424908424908425,1.3046886446886445
2.453402727005596,1.2772893772893772,0.3424908424908425,1.3046886446886445
2.4564723030052846,1.220879120879121,0.6769230769230768,1.6358974358974359
2.45880591400055,1.220879120879121,0.6769230769230768,1.6358974358974359
2.4590126700059045,1.220879120879121,0.6769230769230768,1.6358974358974359
2.4638754630068433,1.220879120879121,0.6769230769230768,1.6358974358974359
2.46398840600159,1.220879120879121,0.6769230769230768,1.6358974358974359
2.468810355007008,1.220879120879121,0.6769230769230768,1.6358974358974359
2.468916760000866,1.220879120879121,0.6769230769230768,1.6358974358974359
2.473706430006132,1.220879120879121,0.6769230769230768,1.6358974358974359
2.47932905300695,1.220879120879121,0.6769230769230768,1.6358974358974359
2.480360613000812,1.220879120879121,0.6769230769230768,1.6358974358974359
2.4812273000061396,1.220879120879121,0.6769230769230768,1.6358974358974359
2.4828566540018073,1.220879120879121,0.6769230769230768,1.6358974358974359
2.4868569070022204,1.220879120879121,0.6769230769230768,1.6358974358974359
2.4901094200031366,1.220879120879121,0.6769230769230768,1.6358974358974359
2.4912173970005824,1.220879120879121,0.6769230769230768,1.6358974358974359
2.4921187670042855,1.220879120879121,0.6769230769230768,1.6358974358974359
2.49301316600031,1.220879120879121,0.6769230769230768,1.6358974358974359
2.4946668170014163,1.5931868131868132,0.8252014652014652,2.2918681318681315
2.4984974180042627,1.5931868131868132,0.8252014652014652,2.2918681318681315
2.5031051490004756,1.5931868131868132,0.8252014652014652,2.2918681318681315
2.503289094005595,1.5931868131868132,0.8252014652014652,2.2918681318681315
2.5081438970009913,1.5931868131868132,0.8252014652014652,2.2918681318681315
2.513753662002273,1.5931868131868132,0.8252014652014652,2.2918681318681315
2.5140178159999778,1.278901098901099,0.7051282051282051,1.8075457875457877
2.5186609720039996,1.278901098901099,0.7051282051282051,1.8075457875457877
2.5189409750018967,1.278901098901099,0.7051282051282051,1.8075457875457877
2.5241676900041057,1.278901098901099,0.7051282051282051,1.8075457875457877
2.527195885006222,1.278901098901099,0.7051282051282051,1.8075457875457877
2.530258668004535,1.278901098901099,0.7051282051282051,1.8075457875457877
2.532598928002699,1.278901098901099,0.7051282051282051,1.8075457875457877
2.5328089200047543,1.4336263736263737,0.7631501831501831,1.9437362637362636
2.5373825750066317,1.4336263736263737,0.7631501831501831,1.9437362637362636
2.539029464001942,1.4336263736263737,0.7631501831501831,1.9437362637362636
2.54303564800648,1.4336263736263737,0.7631501831501831,1.9437362637362636
2.546235969006375,1.4336263736263737,0.7631501831501831,1.9437362637362636
2.5480482500061044,1.4336263736263737,0.7631501831501831,1.9437362637362636
2.550448680005502,1.4336263736263737,0.7631501831501831,1.9437362637362636
2.5506860860041343,1.4336263736263737,0.7631501831501831,1.9437362637362636
2.5553211010046653,1.4336263736263737,0.7631501831501831,1.9437362637362636
2.5555563690068084,1.4336263736263737,0.7631501831501831,1.9437362637362636
2.5608280100059346,1.4336263736263737,0.7631501831501831,1.9437362637362636
2.5632066990001476,1.4336263736263737,0.7631501831501831,1.9437362637362636
2.563431088005018,0.49399267399267394,0.14263736263736262,0.36747252747252745
2.5683420590066817,0.49399267399267394,0.14263736263736262,0.36747252747252745
2.572548870004539,0.49399267399267394,0.14263736263736262,0.36747252747252745
2.5747488740016706,0.49399267399267394,0.14263736263736262,0.36747252747252745
2.576214003005589,0.49399267399267394,0.14263736263736262,0.36747252747252745
2.581103037002322,0.49399267399267394,0.14263736263736262,0.36747252747252745
2.585872465002467,1.2184615384615385,0.18776556776556774,0.4802930402930403
2.586082626999996,1.2184615384615385,0.18776556776556774,0.4802930402930403
2.5909888800015324,1.2184615384615385,0.18776556776556774,0.4802930402930403
2.595124093000777,1.2184615384615385,0.18776556776556774,0.4802930402930403
2.598623983001744,1.2184615384615385,0.18776556776556774,0.4802930402930403
2.5989263460069196,1.2184615384615385,0.18776556776556774,0.4802930402930403
2.6037620450006216,1.2184615384615385,0.18776556776556774,0.4802930402930403
2.6038838189997477,0.7953846153846154,0.12249084249084248,0.7687912087912088
2.6086171200004173,0.7953846153846154,0.12249084249084248,0.7687912087912088
2.6087803420014097,0.7953846153846154,0.12249084249084248,0.7687912087912088
2.6135958540035062,0.7953846153846154,0.12249084249084248,0.7687912087912088
2.6137412230018526,0.7953846153846154,0.12249084249084248,0.7687912087912088
2.618465659004869,0.7953846153846154,0.12249084249084248,0.7687912087912088
2.618780308002897,0.7953846153846154,0.12249084249084248,0.7687912087912088
2.6236308430015924,0.7953846153846154,0.12249084249084248,0.7687912087912088
2.6237503250013106,0.7953846153846154,0.12249084249084248,0.7687912087912088
2.6294010800047545,0.7953846153846154,0.12249084249084248,0.7687912087912088
2.62976605300355,2.3458608058608057,1.1830036630036629,3.1815384615384614
2.634263374005968,0.4593406593406593,0.8606593406593407,1.6713553113553112
2.635185673003434,0.4593406593406593,0.8606593406593407,1.6713553113553112
2.636047765001422,0.4593406593406593,0.8606593406593407,1.6713553113553112
2.637610317004146,0.4593406593406593,0.8606593406593407,1.6713553113553112
2.6421902620058972,0.4593406593406593,0.8606593406593407,1.6713553113553112
2.6424219620021177,1.4126739926739926,0.12813186813186814,0.942051282051282
2.647826990003523,1.4126739926739926,0.12813186813186814,0.942051282051282
2.6494884280036786,1.4126739926739926,0.12813186813186814,0.942051282051282
2.652555343003769,1.4126739926739926,0.12813186813186814,0.942051282051282
2.6557693100039614,1.4126739926739926,0.12813186813186814,0.942051282051282
2.657319392004865,1.4126739926739926,0.12813186813186814,0.942051282051282
2.6618960880005034,2.071062271062271,1.2821245421245422,0.15472527472527473
2.6621836470003473,2.071062271062271,1.2821245421245422,0.15472527472527473
2.6671251360021415,2.071062271062271,1.2821245421245422,0.15472527472527473
2.6720918320061173,2.181465201465201,1.1773626373626374,3.3
2.6765224170012516,2.181465201465201,1.1773626373626374,3.3
2.677397725004994,2.181465201465201,1.1773626373626374,3.3
2.679014556000766,2.181465201465201,1.1773626373626374,3.3
2.683382284005347,2.181465201465201,1.1773626373626374,3.3
2.684907993003435,0.6777289377289377,0.14586080586080585,0.7413919413919414
2.6894300780040794,0.6777289377289377,0.14586080586080585,0.7413919413919414
2.690287643003103,0.6777289377289377,0.14586080586080585,0.7413919413919414
2.6918680600065272,0.6777289377289377,0.14586080586080585,0.7413919413919414
2.695568612005445,0.6777289377289377,0.14586080586080585,0.7413919413919414
2.7008167870008037,0.6777289377289377,0.14586080586080585,0.7413919413919414
2.703783929006022,0.6777289377289377,0.14586080586080585,0.7413919413919414
2.707528094004374,0.6777289377289377,0.14586080586080585,0.7413919413919414
2.7120018180066836,0.6777289377289377,0.14586080586080585,0.7413919413919414
2.7123224060051143,0.6777289377289377,0.14586080586080585,0.7413919413919414
2.7179752760057454,0.6777289377289377,0.14586080586080585,0.7413919413919414
2.7180808920020354,0.6777289377289377,0.14586080586080585,0.7413919413919414
2.724173803006124,0.6777289377289377,0.14586080586080585,0.7413919413919414
2.729001126004732,0.9565567765567766,0.09831501831501832,0.7832967032967032
2.7339662370068254,0.9565567765567766,0.09831501831501832,0.7832967032967032
2.7381812300009187,0.9565567765567766,0.09831501831501832,0.7832967032967032
2.7406019730042317,0.9565567765567766,0.09831501831501832,0.7832967032967032
2.746324234001804,0.9565567765567766,0.09831501831501832,0.7832967032967032
2.746594216005178,2.402271062271062,1.211208791208791,3.3
2.7530376490030903,2.402271062271062,1.211208791208791,3.3
2.7574489870021353,2.402271062271062,1.211208791208791,3.3
2.7584190590059734,2.402271062271062,1.211208791208791,3.3
2.7593640080012847,2.402271062271062,1.211208791208791,3.3
2.7611273970032926,2.402271062271062,1.211208791208791,3.3
2.764379385000211,2.402271062271062,1.211208791208791,3.3
2.765394225003547,2.402271062271062,1.211208791208791,3.3
2.765764780000609,2.402271062271062,1.211208791208791,3.3
2.7747950789998868,2.402271062271062,1.211208791208791,3.3
2.7811876890045824,0.9678388278388278,0.5278388278388277,1.8365567765567765
2.787280552001903,0.9678388278388278,0.5278388278388277,1.8365567765567765
2.793572437003604,1.0734065934065933,0.3352380952380952,0.8389010989010988
2.798962429005769,1.0734065934065933,0.3352380952380952,0.8389010989010988
2.799358010001015,1.0734065934065933,0.3352380952380952,0.8389010989010988
2.80655581800238,1.0734065934065933,0.3352380952380952,0.8389010989010988
2.814001263002865,0.7236630036630036,0.2498168498168498,1.3764102564102565
2.8176371900044614,1.0605128205128205,0.8147252747252747,2.314432234432234
2.8279463940052665,1.0605128205128205,0.8147252747252747,2.314432234432234
2.8386268650065176,1.6334798534798534,0.18615384615384614,1.1112820512820514
2.8473152890001074,1.6334798534798534,0.18615384615384614,1.1112820512820514
2.85271294600534,1.6334798534798534,0.18615384615384614,1.1112820512820514
2.8572824290022254,2.2201465201465203,1.2087912087912087,0.7945787545787546
2.8648623840053915,2.2201465201465203,1.2087912087912087,0.7945787545787546
2.872983594003017,2.5706959706959704,1.2224908424908425,0.1378021978021978
2.8792939560007653,2.5706959706959704,1.2224908424908425,0.1378021978021978
2.8826322430031723,2.5706959706959704,1.2224908424908425,0.1378021978021978
2.8829000030018506,0.419047619047619,0.10637362637362638,0.3763369963369963
2.8908760940030334,0.419047619047619,0.10637362637362638,0.3763369963369963
2.895074463005585,0.9758974358974358,0.4085714285714286,0.38681318681318677
2.8975522630062187,0.9758974358974358,0.4085714285714286,0.38681318681318677
2.9046936360027757,0.9758974358974358,0.4085714285714286,0.38681318681318677
2.9096345200014184,0.9758974358974358,0.4085714285714286,0.38681318681318677
2.913798598005087,0.9758974358974358,0.4085714285714286,0.38681318681318677
2.9172166740027023,0.8243956043956043,0.49882783882783877,1.1435164835164835
2.9173955690057483,0.8243956043956043,0.49882783882783877,1.1435164835164835
2.924251616001129,0.8243956043956043,0.49882783882783877,1.1435164835164835
2.928956299001584,0.8243956043956043,0.49882783882783877,1.1435164835164835
2.93599759600329,0.8243956043956043,0.49882783882783877,1.1435164835164835
2.94279138300044,0.8243956043956043,0.49882783882783877,1.1435164835164835
2.9481677080038935,0.850989010989011,0.14908424908424908,0.6197069597069597
2.949688323002192,1.1709157509157508,0.33926739926739924,1.016996336996337
2.9567534680027165,2.6585347985347987,1.270842490842491,0.7115750915750916
2.9625160659998073,0.8759706959706959,0.4778754578754579,1.4835897435897436
2.9626426350005204,0.8147252747252747,0.1104029304029304,0.7671794871794871
2.9709463930048514,0.8147252747252747,0.1104029304029304,0.7671794871794871
2.9788665500018396,2.468351648351648,0.9033699633699634,2.6875457875457873
2.9858471560000908,2.468351648351648,0.9033699633699634,2.6875457875457873
2.994086173006508,2.468351648351648,0.9033699633699634,2.6875457875457873
3.001517455006251,2.468351648351648,0.9033699633699634,2.6875457875457873
3.01082903900533,2.468351648351648,0.9033699633699634,2.6875457875457873
3.0184522030031076,2.468351648351648,0.9033699633699634,2.6875457875457873
3.0255721430003177,0.29978021978021974,0.28285714285714286,0.3997069597069597
3.030313567003759,0.6253479853479853,0.15794871794871795,1.0315018315018314
3.039594837006007,0.6253479853479853,0.15794871794871795,1.0315018315018314
3.048900712004979,0.6253479853479853,0.15794871794871795,1.0315018315018314
3.056275976006873,2.095238095238095,1.1185347985347984,3.3
3.0611003960002563,2.095238095238095,1.1185347985347984,3.3
3.0668461340028443,2.095238095238095,1.1185347985347984,3.3
3.0770498020065133,0.6358241758241758,0.13296703296703297,0.39809523809523806
3.085735533000843,1.6584615384615384,0.8566300366300367,2.581172161172161
3.092912795000302,1.6584615384615384,0.8566300366300367,2.581172161172161
3.0975302110018674,1.6584615384615384,0.8566300366300367,2.581172161172161
3.0978256160015007,1.6584615384615384,0.8566300366300367,2.581172161172161
3.106367208005395,1.6584615384615384,0.8566300366300367,2.581172161172161
3.111982298003568,1.6584615384615384,0.8566300366300367,2.581172161172161
3.1228051810030593,1.6584615384615384,0.8566300366300367,2.581172161172161
3.129700910001702,1.6584615384615384,0.8566300366300367,2.581172161172161
3.1345415270043304,1.6584615384615384,0.8566300366300367,2.581172161172161
3.1435112000035588,1.6584615384615384,0.8566300366300367,2.581172161172161
3.1491375570039963,0.9057875457875458,0.49802197802197795,0.12087912087912088
3.1493379170060507,2.1524542124542125,0.73010989010989,2.0686446886446883
3.156653637001,0.7712087912087912,0.9283516483516483,1.9598534798534797
3.16132863900566,1.1322344322344322,0.6035897435897435,1.3361172161172161
3.1614620520049357,1.1322344322344322,0.6035897435897435,1.3361172161172161
3.1663166750004166,1.1322344322344322,0.6035897435897435,1.3361172161172161
3.176644159000716,1.1322344322344322,0.6035897435897435,1.3361172161172161
3.1846796320023714,1.1322344322344322,0.6035897435897435,1.3361172161172161
3.1947396180039505,1.1322344322344322,0.6035897435897435,1.3361172161172161
3.201712802001566,1.1322344322344322,0.6035897435897435,1.3361172161172161
3.2109062830058974,1.398168498168498,0.1523076923076923,0.9323809523809523
3.217568703003053,2.181465201465201,1.2063736263736262,3.2774358974358972
3.2240071240012185,2.181465201465201,1.2063736263736262,3.2774358974358972
3.2287993440040736,2.181465201465201,1.2063736263736262,3.2774358974358972
3.2357990110031096,0.8912820512820512,0.7131868131868132,1.0226373626373626
3.2422496950021014,1.5609523809523809,0.9428571428571427,2.341025641025641
3.2475091710002744,1.5609523809523809,0.9428571428571427,2.341025641025641
3.250482864001242,1.5609523809523809,0.9428571428571427,2.341025641025641
3.2521103770050104,1.5609523809523809,0.9428571428571427,2.341025641025641
3.258432749003987,1.5609523809523809,0.9428571428571427,2.341025641025641
3.2632089500039,1.5609523809523809,0.9428571428571427,2.341025641025641
3.271241403002932,1.5609523809523809,0.9428571428571427,2.341025641025641
3.278209839001647,2.294285714285714,1.1016117216117214,3.2049084249084245
3.2836236500006635,0.8203663003663003,0.3287912087912088,1.1378754578754577
3.284009055001661,0.8203663003663003,0.3287912087912088,1.1378754578754577
3.2934974470044835,0.8203663003663003,0.3287912087912088,1.1378754578754577
3.3011146030039527,0.8203663003663003,0.3287912087912088,1.1378754578754577
3.3097645900052157,0.8203663003663003,0.3287912087912088,1.1378754578754577
3.3179422530010925,2.1589010989010986,0.6712820512820512,2.133919413919414
3.3258183200014173,2.1589010989010986,0.6712820512820512,2.133919413919414
3.333144183001423,2.1589010989010986,0.6712820512820512,2.133919413919414
3.339869562005333,0.4448351648351648,0.7808791208791208,1.90021978021978
3.345975449999969,1.3619047619047617,0.684981684981685,0.03223443223443223
3.3510587780037895,2.3265201465201466,1.24021978021978,3.3
3.3565308170000208,2.532820512820513,1.2772893772893772,0.8002197802197801
3.3665846880030585,0.8582417582417583,0.3505494505494505,0.788937728937729
3.376166951005871,0.8582417582417583,0.3505494505494505,0.788937728937729
3.3841837200016016,0.7776556776556776,0.9581684981684981,2.0775091575091573
3.391663377005898,0.7776556776556776,0.9581684981684981,2.0775091575091573
3.3973309690045426,0.7776556776556776,0.9581684981684981,2.0775091575091573
3.4043885260034585,0.90014652014652,0.47062271062271055,0.21838827838827837
3.4109274160000496,0.90014652014652,0.47062271062271055,0.21838827838827837
3.4163119180011563,2.2032234432234428,1.058901098901099,0.5133333333333333
3.418447335003293,2.2032234432234428,1.058901098901099,0.5133333333333333
3.4188306810028735,2.2032234432234428,1.058901098901099,0.5133333333333333
3.4284262010041857,2.2032234432234428,1.058901098901099,0.5133333333333333
3.434591843004455,2.2032234432234428,1.058901098901099,0.5133333333333333
3.4409152770022047,2.2032234432234428,1.058901098901099,0.5133333333333333
3.446291147003649,2.2032234432234428,1.058901098901099,0.5133333333333333
3.4474588580051204,0.6471062271062271,0.11765567765567764,0.3811721611721612
3.447698844000115,0.6471062271062271,0.11765567765567764,0.3811721611721612
3.455563815005007,0.6471062271062271,0.11765567765567764,0.3811721611721612
3.4615827230009018,0.8888644688644688,0.942051282051282,2.111355311355311
3.467608471000858,0.8888644688644688,0.942051282051282,2.111355311355311
3.4742880650010193,2.1476190476190475,1.2152380952380952,3.2790476190476188
3.480012397005339,2.1476190476190475,1.2152380952380952,3.2790476190476188
3.4872660920009366,2.1476190476190475,1.2152380952380952,3.2790476190476188
3.493947034003213,2.1476190476190475,1.2152380952380952,3.2790476190476188
3.4999140170039027,2.1476190476190475,1.2152380952380952,3.2790476190476188
3.5048695010045776,1.3256410256410256,0.6680586080586081,0.06608058608058608
3.5102704800010542,1.3256410256410256,0.6680586080586081,0.06608058608058608
3.5119267150002997,1.2337728937728938,0.45369963369963373,0.9057875457875458
3.5155107230020803,1.2337728937728938,0.45369963369963373,0.9057875457875458
3.515714775006927,0.7841025641025641,0.4698168498168498,1.6439560439560439
3.523905371002911,0.7841025641025641,0.4698168498168498,1.6439560439560439
3.5304003360070055,1.4819780219780219,0.7172161172161172,0.5681318681318681
3.5358857550018,1.4819780219780219,0.7172161172161172,0.5681318681318681
3.536155357003736,0.9839560439560439,0.502051282051282,1.4046153846153846
3.5448025400037295,0.9839560439560439,0.502051282051282,1.4046153846153846
3.5517063360020984,0.90014652014652,0.08542124542124542,0.6608058608058608
3.5579642040029285,1.295018315018315,0.43677655677655675,1.2176556776556777
3.5621412260006764,1.295018315018315,0.43677655677655675,1.2176556776556777
3.564982191004674,1.295018315018315,0.43677655677655675,1.2176556776556777
3.569792997004697,1.295018315018315,0.43677655677655675,1.2176556776556777
3.5768154480028898,1.295018315018315,0.43677655677655675,1.2176556776556777
3.5809987770044245,1.295018315018315,0.43677655677655675,1.2176556776556777
3.5835491930047283,1.3353113553113554,0.13457875457875457,0.8638827838827838
3.591682717000367,1.3353113553113554,0.13457875457875457,0.8638827838827838
3.599860936003097,1.3353113553113554,0.13457875457875457,0.8638827838827838
3.6076678820027155,1.4046153846153846,0.697069597069597,0.12893772893772892
3.612610157004383,1.4046153846153846,0.697069597069597,0.12893772893772892
3.617123262003588,1.4046153846153846,0.697069597069597,0.12893772893772892
3.617551811003068,1.0717948717948718,0.3843956043956044,1.3973626373626373
3.6230645980031113,1.0717948717948718,0.3843956043956044,1.3973626373626373
3.6301605450062198,1.0717948717948718,0.3843956043956044,1.3973626373626373
3.6374492550021387,1.0717948717948718,0.3843956043956044,1.3973626373626373
3.6439006900036475,1.0717948717948718,0.3843956043956044,1.3973626373626373
3.6485334090029937,1.0717948717948718,0.3843956043956044,1.3973626373626373
3.6558049290033523,1.0717948717948718,0.3843956043956044,1.3973626373626373
3.6620682290013065,0.1797069597069597,0.776043956043956,1.5569230769230769
3.6675636720028706,0.6390476190476191,0.3884249084249084,0.307032967032967
3.667805347002286,0.6390476190476191,0.3884249084249084,0.307032967032967
3.6755727250056225,0.6390476190476191,0.3884249084249084,0.307032967032967
3.682307800001581,0.6213186813186813,0.9178754578754579,1.5746520146520147
3.6889027550059836,0.4657875457875458,0.24659340659340656,0.6382417582417582
3.693494830004056,0.8219780219780219,0.40534798534798533,0.4802930402930403
3.6936781520053046,0.8219780219780219,0.40534798534798533,0.4802930402930403
3.6998676889998023,0.8219780219780219,0.40534798534798533,0.4802930402930403
3.7064711840066593,0.8219780219780219,0.40534798534798533,0.4802930402930403
3.7113687630044296,0.8219780219780219,0.40534798534798533,0.4802930402930403
3.716929982001602,0.8219780219780219,0.40534798534798533,0.4802930402930403
3.7171500060067046,0.8219780219780219,0.40534798534798533,0.4802930402930403
3.7258700780002982,0.8219780219780219,0.40534798534798533,0.4802930402930403
3.7306103540031472,0.8219780219780219,0.40534798534798533,0.4802930402930403
3.730846227001166,0.8219780219780219,0.40534798534798533,0.4802930402930403
3.7361669830061146,0.8219780219780219,0.40534798534798533,0.4802930402930403
3.7410296850066516,0.8219780219780219,0.40534798534798533,0.4802930402930403
3.745245016005356,1.0983882783882783,0.5697435897435897,0.21194139194139192
3.7467925520031713,2.5199267399267398,0.9855677655677655,2.851941391941392
3.7525095820019487,2.5199267399267398,0.9855677655677655,2.851941391941392
3.7609726120062987,2.5199267399267398,0.9855677655677655,2.851941391941392
3.7691765150011634,2.5199267399267398,0.9855677655677655,2.851941391941392
3.776575394003885,2.5199267399267398,0.9855677655677655,2.851941391941392
3.7836287560057826,1.0903296703296703,0.6019780219780219,1.569010989010989
3.789817939999921,1.0903296703296703,0.6019780219780219,1.569010989010989
3.7941914700058987,2.1685714285714286,1.1846153846153846,3.2403663003663
3.794522907002829,1.2257142857142858,0.7397802197802198,1.6592673992673992
3.801324818006833,1.2257142857142858,0.7397802197802198,1.6592673992673992
3.8089097920019412,0.9356043956043956,0.25868131868131866,0.5737728937728938
3.813407237001229,0.9356043956043956,0.25868131868131866,0.5737728937728938
3.8137342360059847,1.4207326007326007,0.8590476190476191,1.975164835164835
3.8197950620015035,1.4207326007326007,0.8590476190476191,1.975164835164835
3.8248690310065285,1.4207326007326007,0.8590476190476191,1.975164835164835
3.8287018800037913,1.4207326007326007,0.8590476190476191,1.975164835164835
3.8329914130008547,1.4207326007326007,0.8590476190476191,1.975164835164835
3.83337596700585,1.4207326007326007,0.8590476190476191,1.975164835164835
3.8409498190012528,1.4207326007326007,0.8590476190476191,1.975164835164835
3.845860404006089,1.4207326007326007,0.8590476190476191,1.975164835164835
3.8504235740037984,2.1508424908424906,0.8485714285714284,1.8824908424908422
3.8508450350054773,2.1508424908424906,0.8485714285714284,1.8824908424908422
3.856357155003934,2.1508424908424906,0.8485714285714284,1.8824908424908422
3.864945630004513,2.1508424908424906,0.8485714285714284,1.8824908424908422
3.8740283799997997,2.1508424908424906,0.8485714285714284,1.8824908424908422
3.8801081130004604,2.1508424908424906,0.8485714285714284,1.8824908424908422
3.885640399006661,2.1508424908424906,0.8485714285714284,1.8824908424908422
3.8859436480051954,2.313626373626373,1.1475457875457875,3.3
3.893505815001845,1.8365567765567765,0.6003663003663003,2.033186813186813
3.9010999700039974,1.8365567765567765,0.6003663003663003,2.033186813186813
3.908865967001475,1.153186813186813,0.6471062271062271,0.17406593406593407
3.9137790450040484,2.4216117216117214,1.1676923076923076,3.3
3.9197871550059062,2.4216117216117214,1.1676923076923076,3.3
3.9252497690031305,2.4216117216117214,1.1676923076923076,3.3
3.925510805005615,2.4216117216117214,1.1676923076923076,3.3
3.93276254900411,2.4216117216117214,1.1676923076923076,3.3
3.9406860650051385,1.543223443223443,0.809084249084249,2.1516483516483516
3.9466036440062453,0.5076923076923077,0.3263736263736263,0.43435897435897436
3.9548175480013015,0.5076923076923077,0.3263736263736263,0.43435897435897436
3.9605672739999136,0.5076923076923077,0.3263736263736263,0.43435897435897436
3.960676083006547,0.5076923076923077,0.3263736263736263,0.43435897435897436
3.9691178790017148,1.1145054945054944,0.15633699633699633,0.7728205128205128
3.9765291220028303,1.913919413919414,1.2724542124542124,3.2524542124542126
3.983490927006642,1.696336996336996,0.9186813186813186,2.317655677655677
3.98954989300546,1.7769230769230768,1.116923076923077,3.1098168498168497
3.994635549002851,2.2958974358974356,1.2265201465201465,0.7518681318681318
3.9974826790057705,2.2958974358974356,1.2265201465201465,0.7518681318681318
4.004066947003594,2.2958974358974356,1.2265201465201465,0.7518681318681318
4.009245815999748,1.353040293040293,0.1643956043956044,0.8695238095238095
4.013240396001493,1.353040293040293,0.1643956043956044,0.8695238095238095
4.016193827003008,1.353040293040293,0.1643956043956044,0.8695238095238095
4.019360193000466,1.353040293040293,0.1643956043956044,0.8695238095238095
4.021165276004467,0.4810989010989011,0.2208058608058608,0.6777289377289377
4.026061076001497,0.4810989010989011,0.2208058608058608,0.6777289377289377
4.030512015000568,0.4810989010989011,0.2208058608058608,0.6777289377289377
4.030967501006671,0.4496703296703296,0.8066666666666666,1.7164835164835166
4.037275467002473,0.4496703296703296,0.8066666666666666,1.7164835164835166
4.041862788006256,0.7558974358974359,0.3852014652014652,1.3675457875457875
4.052101032000792,1.4231501831501832,0.15472527472527473,0.9509157509157508
4.0620208620021,1.4231501831501832,0.15472527472527473,0.9509157509157508
4.070788570999866,0.6358241758241758,0.15633699633699633,0.6583882783882784
4.080933591001667,0.6358241758241758,0.15633699633699633,0.6583882783882784
4.090488276000542,0.9098168498168498,0.5133333333333333,1.6818315018315015
4.09921232600027,1.5569230769230769,0.9098168498168498,2.378095238095238
4.107305059005739,1.5569230769230769,0.9098168498168498,2.378095238095238
4.112004296002851,0.7792673992673992,0.43435897435897436,1.7366300366300367
4.117135006999888,2.415164835164835,1.3232234432234433,0.759120879120879
4.126457743004721,2.415164835164835,1.3232234432234433,0.759120879120879
4.134567093002261,0.7792673992673992,0.4488644688644688,0.585054945054945
4.1419423170009395,0.7792673992673992,0.4488644688644688,0.585054945054945
4.148412017006194,0.7792673992673992,0.4488644688644688,0.585054945054945
4.154439950005326,1.514212454212454,0.9307692307692307,2.9945787545787543
4.161175930006721,1.514212454212454,0.9307692307692307,2.9945787545787543
4.16542046500399,1.514212454212454,0.9307692307692307,2.9945787545787543
4.167119093006477,1.514212454212454,0.9307692307692307,2.9945787545787543
4.174463246999949,1.514212454212454,0.9307692307692307,2.9945787545787543
4.179873003005923,1.514212454212454,0.9307692307692307,2.9945787545787543
4.180112594003731,1.4932600732600732,0.1813186813186813,1.0057142857142858
4.1877393380054855,1.4932600732600732,0.1813186813186813,1.0057142857142858
4.195633028000884,1.4932600732600732,0.1813186813186813,1.0057142857142858
4.201462968005217,1.4932600732600732,0.1813186813186813,1.0057142857142858
4.212333993003995,1.4932600732600732,0.1813186813186813,1.0057142857142858
4.220621069005574,1.4932600732600732,0.1813186813186813,1.0057142857142858
4.228627014002996,1.4932600732600732,0.1813186813186813,1.0057142857142858
4.235091727001418,1.4932600732600732,0.1813186813186813,1.0057142857142858
4.241770429005555,1.4932600732600732,0.1813186813186813,1.0057142857142858
4.247044555006141,0.8719413919413919,0.29413919413919415,0.9041758241758242
4.249600469003781,0.8719413919413919,0.29413919413919415,0.9041758241758242
4.258788502003881,0.5479853479853479,0.7849084249084248,1.755164835164835
4.267389393004123,1.1676923076923076,0.8904761904761904,2.318461538461538
4.27607415500097,0.8582417582417583,0.506080586080586,0.0709157509157509
4.284017553000012,0.8582417582417583,0.506080586080586,0.0709157509157509
4.290819918001944,0.8582417582417583,0.506080586080586,0.0709157509157509
4.295017247000942,2.1443956043956045,1.1596336996336996,3.3
4.297798165003769,2.1443956043956045,1.1596336996336996,3.3
4.301240031003545,2.1443956043956045,1.1596336996336996,3.3
4.301493704006134,2.1443956043956045,1.1596336996336996,3.3
4.307896555001207,2.1443956043956045,1.1596336996336996,3.3
4.311294418002944,2.1443956043956045,1.1596336996336996,3.3
4.3116251780011225,2.1443956043956045,1.1596336996336996,3.3
4.316359574004309,2.1443956043956045,1.1596336996336996,3.3
4.316559072001837,2.1443956043956045,1.1596336996336996,3.3
4.3252999000033014,2.1443956043956045,1.1596336996336996,3.3
4.33344985700387,2.1443956043956045,1.1596336996336996,3.3
4.3416948710000725,2.1443956043956045,1.1596336996336996,3.3
4.347407577006379,2.1443956043956045,1.1596336996336996,3.3
4.357996005004679,1.573846153846154,1.02021978021978,2.9301098901098896
4.367197568004485,1.573846153846154,1.02021978021978,2.9301098901098896
4.37830667700473,1.3852747252747253,0.6301831501831501,0.8638827838827838
4.386982064999756,1.3852747252747253,0.6301831501831501,0.8638827838827838
4.39512370400189,0.5955311355311355,0.36344322344322344,0.9331868131868131
4.402289985002426,0.9186813186813186,0.42630036630036633,1.5246886446886447
4.410481389000779,0.9186813186813186,0.42630036630036633,1.5246886446886447
4.4176786900061416,0.9186813186813186,0.42630036630036633,1.5246886446886447
4.425765248000971,0.9186813186813186,0.42630036630036633,1.5246886446886447
4.432816344000457,0.7268864468864469,0.14344322344322344,0.49802197802197795
4.439460704001249,1.0145787545787546,0.8791941391941391,1.9501831501831501
4.445256473001791,1.1789743589743589,0.6680586080586081,0.7518681318681318
4.452711246005492,1.1789743589743589,0.6680586080586081,0.7518681318681318
4.460123314005614,2.3813186813186813,1.1967032967032967,0.7841025641025641
4.465928025005269,0.42710622710622714,0.24901098901098898,0.45772893772893775
4.475738892004301,0.42710622710622714,0.24901098901098898,0.45772893772893775
4.483362192004279,0.42710622710622714,0.24901098901098898,0.45772893772893775
4.490877377000288,0.42710622710622714,0.24901098901098898,0.45772893772893775
4.495090401003836,1.896190476190476,1.1032234432234431,0.8147252747252747
4.49757395600318,1.896190476190476,1.1032234432234431,0.8147252747252747
4.50402473500435,0.9984615384615383,0.5197802197802197,1.0935531135531134
4.50838875300542,0.9984615384615383,0.5197802197802197,1.0935531135531134
4.509344588004751,1.8397802197802198,0.9887912087912087,0.39809523809523806
4.510303175004083,1.8397802197802198,0.9887912087912087,0.39809523809523806
4.511319673001708,1.8397802197802198,0.9887912087912087,0.39809523809523806
4.512269575003302,1.8397802197802198,0.9887912087912087,0.39809523809523806
4.51324712800124,1.8397802197802198,0.9887912087912087,0.39809523809523806
4.514213614005712,1.8397802197802198,0.9887912087912087,0.39809523809523806
4.515159490001679,1.8397802197802198,0.9887912087912087,0.39809523809523806
4.516789331006294,0.20307692307692307,0.2715750915750916,0.43677655677655675
4.521109862005687,0.20307692307692307,0.2715750915750916,0.43677655677655675
4.523653646007006,2.1137728937728935,1.3095238095238093,0.15472527472527473
4.528681838004559,2.1137728937728935,1.3095238095238093,0.15472527472527473
4.532450085003802,2.1137728937728935,1.3095238095238093,0.15472527472527473
4.5390764710027725,0.1805128205128205,0.842124542124542,1.1693040293040293
4.542979147001461,0.1805128205128205,0.842124542124542,1.1693040293040293
4.546234389999881,0.1805128205128205,0.842124542124542,1.1693040293040293
4.547165758005576,0.1805128205128205,0.842124542124542,1.1693040293040293
4.548283155003446,0.1805128205128205,0.842124542124542,1.1693040293040293
4.548534954003117,0.1805128205128205,0.842124542124542,1.1693040293040293
4.5545456770050805,0.1805128205128205,0.842124542124542,1.1693040293040293
4.5606797550062765,0.1805128205128205,0.842124542124542,1.1693040293040293
4.5665416280025966,0.1805128205128205,0.842124542124542,1.1693040293040293
4.5758231450017774,1.684249084249084,0.6334065934065934,1.7148717948717949
4.583765138006129,1.6874725274725273,0.8719413919413919,3.0276190476190474
4.592998153006192,1.6874725274725273,0.8719413919413919,3.0276190476190474
4.599878384004114,1.0226373626373626,0.5931135531135531,0.1095970695970696
4.607623087002139,1.0226373626373626,0.5931135531135531,0.1095970695970696
4.61379546700482,1.0226373626373626,0.5931135531135531,0.1095970695970696
4.618324361006671,2.1089377289377285,1.2732600732600732,0.5729670329670329
4.618613272999937,0.7309157509157509,0.49479853479853475,1.1378754578754577
4.628097444001469,0.7309157509157509,0.49479853479853475,1.1378754578754577
4.635771589004435,0.7309157509157509,0.49479853479853475,1.1378754578754577
4.643718312006968,0.9887912087912087,0.763956043956044,1.5786813186813187
4.650037780003913,1.2273260073260073,0.12571428571428572,0.6648351648351648
4.656267146005121,1.2273260073260073,0.12571428571428572,0.6648351648351648
4.660711315002118,0.8316483516483516,0.9227106227106227,1.8953846153846152
4.671253496002464,0.8316483516483516,0.9227106227106227,1.8953846153846152
4.679204797001148,0.8316483516483516,0.9227106227106227,1.8953846153846152
4.688119723003183,0.5649084249084249,0.32476190476190475,0.386007326007326
4.696011672000168,0.5649084249084249,0.32476190476190475,0.386007326007326
4.702112124003179,0.5649084249084249,0.32476190476190475,0.386007326007326
4.707104296001489,0.8139194139194139,0.11282051282051282,0.7228571428571429
4.711143467000511,0.8139194139194139,0.11282051282051282,0.7228571428571429
4.714151361004042,0.8139194139194139,0.11282051282051282,0.7228571428571429
4.718229406003957,0.8139194139194139,0.11282051282051282,0.7228571428571429
4.7201907400012715,0.8139194139194139,0.11282051282051282,0.7228571428571429
4.722062867003842,1.3594871794871795,0.1402197802197802,0.7575091575091575
4.72403712200321,1.3594871794871795,0.1402197802197802,0.7575091575091575
4.725596366006357,1.3594871794871795,0.1402197802197802,0.7575091575091575
4.732534139002382,1.3594871794871795,0.1402197802197802,0.7575091575091575
4.739547443001356,1.3594871794871795,0.1402197802197802,0.7575091575091575
4.7451551020058105,0.7043223443223443,0.25787545787545785,1.1435164835164835
4.745411570002034,0.7043223443223443,0.25787545787545785,1.1435164835164835
4.754787568999745,0.7043223443223443,0.25787545787545785,1.1435164835164835
4.76457389400457,1.6391208791208791,1.012161172161172,0.6680586080586081
4.772874921000039,2.1484249084249085,1.4223443223443224,0.1829304029304029
4.780392211003345,0.1402197802197802,0.7276923076923076,1.6286446886446886
4.788664589999826,0.5737728937728938,0.14908424908424908,0.06043956043956044
4.795124320000468,0.5737728937728938,0.14908424908424908,0.06043956043956044
4.801026961002208,0.5737728937728938,0.14908424908424908,0.06043956043956044
4.808376021006552,1.3135531135531133,0.17809523809523808,0.7558974358974359
4.814499660002184,1.3135531135531133,0.17809523809523808,0.7558974358974359
4.82089969500521,0.9557509157509158,0.4722344322344322,1.0621245421245422
4.825546670006588,0.9557509157509158,0.4722344322344322,1.0621245421245422
4.833455061001587,0.9557509157509158,0.4722344322344322,1.0621245421245422
4.841762654003105,0.9557509157509158,0.4722344322344322,1.0621245421245422
4.849137424003857,0.9364102564102563,0.20227106227106226,0.5205860805860806
4.856887593006832,0.9364102564102563,0.20227106227106226,0.5205860805860806
4.8615027260020724,1.0387545787545787,0.17164835164835165,1.133040293040293
4.861750726005994,1.423956043956044,0.8026373626373626,0.05399267399267399
4.870141485000204,1.423956043956044,0.8026373626373626,0.05399267399267399
4.876676094005234,1.145128205128205,0.6906227106227106,0.32476190476190475
4.883093691001704,1.4102564102564101,0.415018315018315,0.6471062271062271
4.888993921005749,1.4102564102564101,0.415018315018315,0.6471062271062271
4.894510537000315,1.2539194139194139,0.3457142857142857,1.9888644688644685
4.8946749700044165,0.4319413919413919,0.40534798534798533,1.2353846153846153
4.9016287500053295,0.4319413919413919,0.40534798534798533,1.2353846153846153
4.90822282100271,1.3473992673992674,0.15956043956043955,0.8969230769230768
4.913298088002193,1.3473992673992674,0.15956043956043955,0.8969230769230768
4.9161398190044565,1.3473992673992674,0.15956043956043955,0.8969230769230768
4.920640866002941,1.3473992673992674,0.15956043956043955,0.8969230769230768
4.920865173000493,1.3473992673992674,0.15956043956043955,0.8969230769230768
4.928207444005238,1.3473992673992674,0.15956043956043955,0.8969230769230768
4.932555956002034,0.5890842490842491,0.13054945054945052,0.2175824175824176
4.933460043001105,0.5890842490842491,0.13054945054945052,0.2175824175824176
4.935346979000315,0.5890842490842491,0.13054945054945052,0.2175824175824176
4.939049596003315,0.5890842490842491,0.13054945054945052,0.2175824175824176
4.946554407004442,0.5890842490842491,0.13054945054945052,0.2175824175824176
4.953409749999992,0.5890842490842491,0.13054945054945052,0.2175824175824176
4.958710745006101,0.5890842490842491,0.13054945054945052,0.2175824175824176
4.960205200004566,2.3007326007326006,1.3627106227106225,0.11765567765567764
4.967659973000991,2.3007326007326006,1.3627106227106225,0.11765567765567764
4.973337846000504,2.3007326007326006,1.3627106227106225,0.11765567765567764
4.97924779800087,2.3007326007326006,1.3627106227106225,0.11765567765567764
4.986737940002058,2.3007326007326006,1.3627106227106225,0.11765567765567764
4.993468701002712,1.0371428571428571,0.29736263736263735,1.0073260073260073
4.99896272100159,1.0371428571428571,0.29736263736263735,1.0073260073260073
4.9992609480032115,1.0371428571428571,0.29736263736263735,1.0073260073260073
5.0090952150058,1.0371428571428571,0.29736263736263735,1.0073260073260073
5.017017789003148,1.0371428571428571,0.29736263736263735,1.0073260073260073
5.025833459003479,1.0371428571428571,0.29736263736263735,1.0073260073260073
5.031709587005025,0.7623443223443224,0.1095970695970696,0.8816117216117215
5.038489315003972,1.0524542124542122,0.7317216117216117,2.054139194139194
5.044004510004015,1.0524542124542122,0.7317216117216117,2.054139194139194
5.051041092003288,1.0524542124542122,0.7317216117216117,2.054139194139194
5.057617318001576,1.0524542124542122,0.7317216117216117,2.054139194139194
5.063692545001686,1.0524542124542122,0.7317216117216117,2.054139194139194
5.068323022002005,0.7663736263736264,0.18454212454212454,0.4126007326007326
5.075623122000252,0.9758974358974358,0.5657142857142857,0.20065934065934066
5.082104170003731,0.942051282051282,0.9235164835164835,2.2024175824175822
5.089271793003718,0.942051282051282,0.9235164835164835,2.2024175824175822
5.095672477000335,0.942051282051282,0.9235164835164835,2.2024175824175822
5.101141807004751,0.942051282051282,0.9235164835164835,2.2024175824175822
5.1014882440067595,1.4368498168498167,0.5600732600732601,0.8066666666666666
5.110867043003964,1.4368498168498167,0.5600732600732601,0.8066666666666666
5.118029075005325,1.71003663003663,0.8437362637362636,2.644029304029304
5.127132411005732,1.71003663003663,0.8437362637362636,2.644029304029304
5.136095065005065,1.71003663003663,0.8437362637362636,2.644029304029304
5.1403381310010445,1.71003663003663,0.8437362637362636,2.644029304029304
5.145057705005456,1.71003663003663,0.8437362637362636,2.644029304029304
5.149423429000308,1.71003663003663,0.8437362637362636,2.644029304029304
5.150365600005898,1.71003663003663,0.8437362637362636,2.644029304029304
5.153265199005546,1.71003663003663,0.8437362637362636,2.644029304029304
5.155567442001484,1.71003663003663,0.8437362637362636,2.644029304029304
5.155668511004478,0.2248351648351648,0.3046153846153846,0.9533333333333331
5.162701411005401,0.2248351648351648,0.3046153846153846,0.9533333333333331
5.168511654002941,0.2248351648351648,0.3046153846153846,0.9533333333333331
5.176017060002778,1.236996336996337,0.7808791208791208,3.3
5.183977469001547,1.539194139194139,1.1902564102564102,2.5803663003663004
5.192497634001484,1.539194139194139,1.1902564102564102,2.5803663003663004
5.19922351900459,1.539194139194139,1.1902564102564102,2.5803663003663004
5.20468199300376,1.539194139194139,1.1902564102564102,2.5803663003663004
5.20493693100434,1.539194139194139,1.1902564102564102,2.5803663003663004
5.21300939500361,1.539194139194139,1.1902564102564102,2.5803663003663004
5.219743465000647,1.539194139194139,1.1902564102564102,2.5803663003663004
5.225482136003848,0.5890842490842491,0.26593406593406593,1.7116483516483516
5.232717133003462,2.242710622710623,0.8356776556776556,3.3
5.240298858007009,2.242710622710623,0.8356776556776556,3.3
5.246067361003952,2.242710622710623,0.8356776556776556,3.3
5.253109814002528,2.242710622710623,0.8356776556776556,3.3
5.260133339004824,2.242710622710623,0.8356776556776556,3.3
5.265465107004275,2.242710622710623,0.8356776556776556,3.3
5.267045318003511,2.242710622710623,0.8356776556776556,3.3
5.272713755002769,2.242710622710623,0.8356776556776556,3.3
5.281735629003379,1.224102564102564,1.012967032967033,0.6736996336996337
5.293845983003848,1.224102564102564,1.012967032967033,0.6736996336996337
5.3015218090004055,1.224102564102564,1.012967032967033,0.6736996336996337
5.308307997001975,2.0847619047619044,1.1805860805860806,0.03626373626373627
5.313970351002354,2.0847619047619044,1.1805860805860806,0.03626373626373627
5.321185567001521,2.0847619047619044,1.1805860805860806,0.03626373626373627
5.32730585399986,2.0847619047619044,1.1805860805860806,0.03626373626373627
5.333400240000628,2.0847619047619044,1.1805860805860806,0.03626373626373627
5.339722591001191,2.0847619047619044,1.1805860805860806,0.03626373626373627
5.345226024001022,2.0847619047619044,1.1805860805860806,0.03626373626373627
5.345481309006573,2.0847619047619044,1.1805860805860806,0.03626373626373627
5.353859746006492,2.0847619047619044,1.1805860805860806,0.03626373626373627
5.3612568830067175,2.0847619047619044,1.1805860805860806,0.03626373626373627
5.368004059004306,2.0847619047619044,1.1805860805860806,0.03626373626373627
5.375523124006577,2.0847619047619044,1.1805860805860806,0.03626373626373627
5.382748590003757,1.303076923076923,0.5874725274725274,3.094505494505494
5.390623036000761,1.303076923076923,0.5874725274725274,3.094505494505494
5.3974281970004085,1.303076923076923,0.5874725274725274,3.094505494505494
5.402798082002846,1.775311355311355,0.718021978021978,3.3
5.406568772006722,1.775311355311355,0.718021978021978,3.3
5.409483188006561,1.775311355311355,0.718021978021978,3.3
5.413362562001566,1.775311355311355,0.718021978021978,3.3
5.416377528999874,1.6254212454212453,0.8614652014652014,3.3
5.420164332004788,0.9758974358974358,0.4585347985347985,2.929304029304029
5.425663058005739,0.9758974358974358,0.4585347985347985,2.929304029304029
5.433944111005985,0.9758974358974358,0.4585347985347985,2.929304029304029
5.4445264610039885,0.9758974358974358,0.4585347985347985,2.929304029304029
5.453844716001186,0.9758974358974358,0.4585347985347985,2.929304029304029
5.459290625003632,0.9758974358974358,0.4585347985347985,2.929304029304029
5.460163305004244,0.9758974358974358,0.4585347985347985,2.929304029304029
5.462122875003843,0.9758974358974358,0.4585347985347985,2.929304029304029
5.463811740002711,0.9758974358974358,0.4585347985347985,2.929304029304029
5.467184657005419,0.9758974358974358,0.4585347985347985,2.929304029304029
5.46811632700701,2.406300366300366,0.9436630036630036,2.5602197802197804
5.47021064600267,2.406300366300366,0.9436630036630036,2.5602197802197804
5.470573040001909,2.406300366300366,0.9436630036630036,2.5602197802197804
5.4782976520000375,2.406300366300366,0.9436630036630036,2.5602197802197804
5.484148390001792,1.598021978021978,0.8953113553113552,3.3
5.492203019006411,0.5584615384615385,0.11604395604395604,0.7421978021978022
5.497333572006028,0.5584615384615385,0.11604395604395604,0.7421978021978022
5.506510405000881,0.6237362637362637,0.2868864468864469,2.5038095238095237
5.511526138005138,1.4997069597069597,0.5423443223443223,3.3
5.517706475002342,1.4997069597069597,0.5423443223443223,3.3
5.524728873002459,1.4997069597069597,0.5423443223443223,3.3
5.530111491003481,1.4997069597069597,0.5423443223443223,3.3
5.531227835002937,1.4997069597069597,0.5423443223443223,3.3
5.531528054001683,1.4997069597069597,0.5423443223443223,3.3
5.539708994001558,1.4997069597069597,0.5423443223443223,3.3
5.543344151999918,1.4997069597069597,0.5423443223443223,3.3
5.552659671004221,1.4997069597069597,0.5423443223443223,3.3
5.562201360000472,1.4997069597069597,0.5423443223443223,3.3
5.571990230004303,0.6906227106227106,0.22805860805860806,2.3764835164835163
5.580523354001343,0.6906227106227106,0.22805860805860806,2.3764835164835163
5.589773584004433,1.0258608058608059,0.17326007326007326,1.0572893772893772
5.596981160000723,1.2192673992673992,0.7897435897435897,3.3
5.602714338005171,0.8646886446886447,0.4214652014652014,3.2331135531135526
5.6117236640056944,0.8646886446886447,0.4214652014652014,3.2331135531135526
5.619635246002872,0.8646886446886447,0.4214652014652014,3.2331135531135526
5.6274846350061125,0.8646886446886447,0.4214652014652014,3.2331135531135526
5.634756354003912,0.6422710622710622,0.166007326007326,1.7728937728937728
5.640913725001155,0.6422710622710622,0.166007326007326,1.7728937728937728
5.644617511999968,1.3812454212454213,0.1643956043956044,0.9122344322344322
5.655876082004397,1.3812454212454213,0.1643956043956044,0.9122344322344322
5.66393317800248,1.7237362637362637,1.087106227106227,0.2175824175824176
5.671644218004076,0.8364835164835164,0.13538461538461538,1.3361172161172161
5.677419922001718,1.3224175824175823,0.8235897435897436,3.3
5.684360729006585,1.0242490842490841,0.5109157509157509,3.3
5.691428344005544,1.0242490842490841,0.5109157509157509,3.3
5.6971834970026975,1.0242490842490841,0.5109157509157509,3.3
5.703172287001507,1.1435164835164835,0.618095238095238,1.5504761904761903
5.710384765006893,1.1435164835164835,0.618095238095238,1.5504761904761903
5.716418946001795,1.3127472527472526,0.3618315018315018,3.3
5.7229472730032285,1.3127472527472526,0.3618315018315018,3.3
5.727769427001476,1.3127472527472526,0.3618315018315018,3.3
5.734495244003483,1.9727472527472525,0.5947252747252747,2.5626373626373624
5.740256094002689,1.9727472527472525,0.5947252747252747,2.5626373626373624
5.749971873003233,0.917069597069597,0.3932600732600733,3.3
5.761493042002257,0.917069597069597,0.3932600732600733,3.3
5.7727762820068165,0.917069597069597,0.3932600732600733,3.3
5.779585426003905,2.2169230769230768,1.1064468864468864,2.5715018315018314
5.783575041001313,2.2169230769230768,1.1064468864468864,2.5715018315018314
5.790891065000324,2.2169230769230768,1.1064468864468864,2.5715018315018314
5.795963987002324,0.43274725274725273,0.8735531135531135,2.639194139194139
5.799701718002325,0.43274725274725273,0.8735531135531135,2.639194139194139
5.806395595005597,0.43274725274725273,0.8735531135531135,2.639194139194139
5.8125152320062625,0.43274725274725273,0.8735531135531135,2.639194139194139
5.816104661003919,0.43274725274725273,0.8735531135531135,2.639194139194139
5.825832488000742,0.43274725274725273,0.8735531135531135,2.639194139194139
5.8316679390045465,0.6841758241758242,0.10315018315018315,0.9702564102564102
5.841095834002772,1.3788278388278388,0.5141391941391941,2.548937728937729
5.849846429002355,1.3788278388278388,0.5141391941391941,2.548937728937729
5.857283488003304,0.7325274725274724,0.1386080586080586,1.4126739926739926
5.86128602300596,1.5609523809523809,0.8469597069597068,3.3
5.865494319004938,1.5609523809523809,0.8469597069597068,3.3
5.867229613002564,1.5609523809523809,0.8469597069597068,3.3
5.873668643005658,1.5609523809523809,0.8469597069597068,3.3
5.87935991500126,1.4336263736263737,1.0194139194139193,0.10637362637362638
5.888403916003881,0.8743589743589744,0.4802930402930403,3.3
5.895158319006441,0.9984615384615383,0.1813186813186813,0.9775091575091575
5.901266719003615,0.9984615384615383,0.1813186813186813,0.9775091575091575
5.907899491001444,0.9984615384615383,0.1813186813186813,0.9775091575091575
5.913235220003116,0.9984615384615383,0.1813186813186813,0.9775091575091575
5.915104844003508,0.9984615384615383,0.1813186813186813,0.9775091575091575
5.916728377000254,0.9984615384615383,0.1813186813186813,0.9775091575091575
5.926008813003136,0.9984615384615383,0.1813186813186813,0.9775091575091575
5.933529596004519,0.9984615384615383,0.1813186813186813,0.9775091575091575
5.942625952004164,0.9984615384615383,0.1813186813186813,0.9775091575091575
5.948342311006854,2.2282051282051283,1.2756776556776557,0.5673260073260072
5.948550865003199,1.0435897435897434,0.6495238095238095,2.1750183150183147
5.9584473710056045,1.0435897435897434,0.6495238095238095,2.1750183150183147
5.965514230003464,1.0435897435897434,0.6495238095238095,2.1750183150183147
5.9738165010057855,2.4087179487179484,0.9944322344322343,2.5602197802197804
5.9802784560015425,2.4087179487179484,0.9944322344322343,2.5602197802197804
5.987893771001836,0.448058608058608,0.26109890109890105,2.6303296703296706
5.993516457005171,0.448058608058608,0.26109890109890105,2.6303296703296706
5.993726112006698,2.025128205128205,1.1177289377289377,0.6422710622710622
5.99986251500377,2.025128205128205,1.1177289377289377,0.6422710622710622
6.007426840005792,2.1024908424908424,1.1821978021978021,1.0548717948717947
6.014128269001958,2.1024908424908424,1.1821978021978021,1.0548717948717947
6.020105483003135,2.1024908424908424,1.1821978021978021,1.0548717948717947
6.026146059004532,1.8164102564102564,1.0097435897435898,1.058901098901099
6.031965792004485,1.8164102564102564,1.0097435897435898,1.058901098901099
6.039387317003275,1.8164102564102564,1.0097435897435898,1.058901098901099
6.04648518000613,1.8164102564102564,1.0097435897435898,1.058901098901099
6.051429066006676,1.8164102564102564,1.0097435897435898,1.058901098901099
6.056260205004946,2.1838827838827837,1.224102564102564,1.0685714285714285
6.060491121002997,0.8364835164835164,0.3884249084249084,3.0034432234432233
6.063004831004946,0.8364835164835164,0.3884249084249084,3.0034432234432233
6.069935193001584,0.8364835164835164,0.3884249084249084,3.0034432234432233
6.075095690001035,0.8364835164835164,0.3884249084249084,3.0034432234432233
6.079374471002666,1.0693772893772893,0.48754578754578753,3.3
6.080936776001181,1.0693772893772893,0.48754578754578753,3.3
6.087103642006696,1.0693772893772893,0.48754578754578753,3.3
6.091994745002012,1.4126739926739926,0.4391941391941392,3.3
6.096271964001062,1.4126739926739926,0.4391941391941392,3.3
6.097898286003328,1.4126739926739926,0.4391941391941392,3.3
6.1018222290003905,1.4126739926739926,0.4391941391941392,3.3
6.107584984005371,1.4126739926739926,0.4391941391941392,3.3
6.114698539000528,1.4126739926739926,0.4391941391941392,3.3
6.122228610001912,1.4126739926739926,0.4391941391941392,3.3
6.127676470001461,1.4126739926739926,0.4391941391941392,3.3
6.128035671004909,1.4126739926739926,0.4391941391941392,3.3
6.137478204000217,1.4126739926739926,0.4391941391941392,3.3
6.145706464005343,1.4126739926739926,0.4391941391941392,3.3
6.155210656004783,1.4126739926739926,0.4391941391941392,3.3
6.16328831800638,1.4126739926739926,0.4391941391941392,3.3
6.1695613770061755,1.079047619047619,0.7172161172161172,1.4650549450549448
6.1738807240035385,1.079047619047619,0.7172161172161172,1.4650549450549448
6.17511324500083,1.079047619047619,0.7172161172161172,1.4650549450549448
6.1752916510013165,1.079047619047619,0.7172161172161172,1.4650549450549448
6.181905447003373,1.079047619047619,0.7172161172161172,1.4650549450549448
6.186780195006577,1.079047619047619,0.7172161172161172,1.4650549450549448
6.1933093370025745,0.8493772893772893,0.16197802197802197,1.7253479853479854
6.197698492003838,0.8493772893772893,0.16197802197802197,1.7253479853479854
6.197926942004415,0.47142857142857136,0.2627106227106227,2.4465934065934065
6.206411826002295,0.47142857142857136,0.2627106227106227,2.4465934065934065
6.214195173000917,0.9106227106227106,0.11846153846153845,1.0854945054945053
6.223304793005809,0.9106227106227106,0.11846153846153845,1.0854945054945053
6.230312394000066,0.7325274725274724,0.3231501831501831,1.9308424908424908
6.235601647000294,0.7325274725274724,0.3231501831501831,1.9308424908424908
6.239019918000849,0.7325274725274724,0.3231501831501831,1.9308424908424908
6.247588348000136,0.7325274725274724,0.3231501831501831,1.9308424908424908
6.254756087000715,1.1725274725274726,0.3312087912087912,3.3
6.260698755002522,0.32717948717948714,0.8630769230769231,1.2974358974358973
6.263884694002627,0.32717948717948714,0.8630769230769231,1.2974358974358973
6.264829589003057,0.32717948717948714,0.8630769230769231,1.2974358974358973
6.267044912005076,0.32717948717948714,0.8630769230769231,1.2974358974358973
6.2673457660057466,0.32717948717948714,0.8630769230769231,1.2974358974358973
6.273268471006304,0.32717948717948714,0.8630769230769231,1.2974358974358973
6.279345999006182,0.32717948717948714,0.8630769230769231,1.2974358974358973
6.284293500000786,0.32717948717948714,0.8630769230769231,1.2974358974358973
6.288459883005999,0.32717948717948714,0.8630769230769231,1.2974358974358973
6.291137983003864,1.261172161172161,0.3352380952380952,3.3
6.296669137002027,1.261172161172161,0.3352380952380952,3.3
6.296948194001743,1.261172161172161,0.3352380952380952,3.3
6.303530625002168,1.261172161172161,0.3352380952380952,3.3
6.3069803660037,1.261172161172161,0.3352380952380952,3.3
6.307150364002155,2.3885714285714283,0.5520146520146519,2.5521611721611723
6.3150425820058445,1.1830036630036629,0.7091575091575092,1.8728205128205127
6.3228344680028385,1.1830036630036629,0.7091575091575092,1.8728205128205127
6.328454063004756,1.1830036630036629,0.7091575091575092,1.8728205128205127
6.3296880690031685,1.1830036630036629,0.7091575091575092,1.8728205128205127
6.337059941004554,1.1830036630036629,0.7091575091575092,1.8728205128205127
6.344280945006176,1.1830036630036629,0.7091575091575092,1.8728205128205127
6.34989794100693,1.1830036630036629,0.7091575091575092,1.8728205128205127
6.35719285900268,1.1830036630036629,0.7091575091575092,1.8728205128205127
6.362430401000893,1.1830036630036629,0.7091575091575092,1.8728205128205127
6.3651515190067585,1.1830036630036629,0.7091575091575092,1.8728205128205127
6.36982225200336,1.8808791208791207,1.2410256410256408,2.561025641025641
6.369954421003058,1.8808791208791207,1.2410256410256408,2.561025641025641
6.375367457003449,1.8808791208791207,1.2410256410256408,2.561025641025641
6.378196783000021,1.8808791208791207,1.2410256410256408,2.561025641025641
6.380903709003178,1.8808791208791207,1.2410256410256408,2.561025641025641
6.38445800300542,1.216849816849817,0.16036630036630037,1.0411721611721612
6.384676032001153,1.216849816849817,0.16036630036630037,1.0411721611721612
6.389517137002258,1.216849816849817,0.16036630036630037,1.0411721611721612
6.39872370500234,1.216849816849817,0.16036630036630037,1.0411721611721612
6.405250008006988,1.216849816849817,0.16036630036630037,1.0411721611721612
6.411013583005115,0.49238095238095236,0.17084249084249084,0.9065934065934066
6.417809148006199,0.49238095238095236,0.17084249084249084,0.9065934065934066
6.421454909002932,0.49238095238095236,0.17084249084249084,0.9065934065934066
6.428596097000991,0.49238095238095236,0.17084249084249084,0.9065934065934066
6.43430612400698,0.49238095238095236,0.17084249084249084,0.9065934065934066
6.441200949004269,0.49238095238095236,0.17084249084249084,0.9065934065934066
6.44707990000461,0.49238095238095236,0.17084249084249084,0.9065934065934066
6.454845122003462,2.3926007326007324,0.6503296703296703,2.552967032967033
6.461409095005365,2.3926007326007324,0.6503296703296703,2.552967032967033
6.467318019000231,1.1499633699633698,0.07333333333333333,0.8695238095238095
6.472607532006805,0.8066666666666666,0.49399267399267394,1.6125274725274723
6.475113939006405,0.8066666666666666,0.49399267399267394,1.6125274725274723
6.47963914200227,0.8066666666666666,0.49399267399267394,1.6125274725274723
6.480558207003924,0.8066666666666666,0.49399267399267394,1.6125274725274723
6.483287528004439,0.8066666666666666,0.49399267399267394,1.6125274725274723
6.487799305003136,0.8066666666666666,0.49399267399267394,1.6125274725274723
6.487943995001842,0.8066666666666666,0.49399267399267394,1.6125274725274723
6.494483739006682,0.8066666666666666,0.49399267399267394,1.6125274725274723
6.500115243004984,0.8066666666666666,0.49399267399267394,1.6125274725274723
6.506159824006318,0.8066666666666666,0.49399267399267394,1.6125274725274723
6.511339253003825,0.9839560439560439,0.15633699633699633,0.8405128205128204
6.513667802006239,0.9839560439560439,0.15633699633699633,0.8405128205128204
6.514067193005758,0.9839560439560439,0.15633699633699633,0.8405128205128204
6.519936504002544,0.9839560439560439,0.15633699633699633,0.8405128205128204
6.5269920070059015,0.7252747252747253,0.4802930402930403,1.1257875457875457
6.533971343000303,0.7252747252747253,0.4802930402930403,1.1257875457875457
6.539701012006844,0.7252747252747253,0.4802930402930403,1.1257875457875457
6.539910645005875,1.7479120879120877,0.9879853479853479,0.7824908424908424
6.546520333002263,1.7479120879120877,0.9879853479853479,0.7824908424908424
6.55222653200326,1.7479120879120877,0.9879853479853479,0.7824908424908424
6.557423093006946,2.407106227106227,1.303076923076923,0.14505494505494507
6.56003749500087,2.407106227106227,1.303076923076923,0.14505494505494507
6.56498770500184,2.407106227106227,1.303076923076923,0.14505494505494507
6.570638715005771,2.407106227106227,1.303076923076923,0.14505494505494507
6.570845735004696,2.407106227106227,1.303076923076923,0.14505494505494507
6.575466526002856,1.174139194139194,0.8332600732600732,3.3
6.575763689004816,1.0097435897435898,0.614065934065934,3.3
6.580388701004267,1.0097435897435898,0.614065934065934,3.3
6.5806571720022475,1.0097435897435898,0.614065934065934,3.3
6.586371637000411,1.0097435897435898,0.614065934065934,3.3
6.586573805005173,1.0097435897435898,0.614065934065934,3.3
6.593877778002934,1.0097435897435898,0.614065934065934,3.3
6.599094840006728,1.3095238095238093,1.1306227106227105,3.3
6.6025378680060385,1.3095238095238093,1.1306227106227105,3.3
6.608390729001258,1.3095238095238093,1.1306227106227105,3.3
6.613718954002252,1.3095238095238093,1.1306227106227105,3.3
6.6175197750053485,1.3095238095238093,1.1306227106227105,3.3
6.621738234003715,1.3095238095238093,1.1306227106227105,3.3
6.622945270006312,1.3095238095238093,1.1306227106227105,3.3
6.623147556005279,1.3095238095238093,1.1306227106227105,3.3
6.629753844004881,1.3095238095238093,1.1306227106227105,3.3
6.6347173230024055,2.3087912087912086,0.7083516483516483,2.54974358974359
6.639393608005776,2.3087912087912086,0.7083516483516483,2.54974358974359
6.646241110000119,1.0605128205128205,0.51010989010989,1.0701831501831502
6.651201518005109,1.0605128205128205,0.51010989010989,1.0701831501831502
6.657442633004393,0.8630769230769231,0.850989010989011,3.3
6.662147035000089,0.8630769230769231,0.850989010989011,3.3
6.670321089004574,0.7534798534798535,0.11765567765567764,1.0806593406593406
6.677503279002849,0.7534798534798535,0.11765567765567764,1.0806593406593406
6.684142428006453,0.09267399267399268,0.13699633699633698,1.5553113553113551
6.688360632004333,0.09267399267399268,0.13699633699633698,1.5553113553113551
6.689264595006534,0.09267399267399268,0.13699633699633698,1.5553113553113551
6.6908775730044,0.09267399267399268,0.13699633699633698,1.5553113553113551
6.694848490005825,0.09267399267399268,0.13699633699633698,1.5553113553113551
6.699772892003239,0.09267399267399268,0.13699633699633698,1.5553113553113551
6.703924835004727,1.2095970695970695,0.6857875457875457,0.792967032967033
6.706309463006619,1.2095970695970695,0.6857875457875457,0.792967032967033
6.7065766920059104,1.2095970695970695,0.6857875457875457,0.792967032967033
6.713466954002797,1.2095970695970695,0.6857875457875457,0.792967032967033
6.718897200000356,1.2095970695970695,0.6857875457875457,0.792967032967033
6.720370629001991,1.2095970695970695,0.6857875457875457,0.792967032967033
6.726712861003762,1.2095970695970695,0.6857875457875457,0.792967032967033
6.7319748340014485,1.2095970695970695,0.6857875457875457,0.792967032967033
6.734778758000175,0.14505494505494507,0.8808058608058608,2.6327472527472526
6.739566625001316,0.14505494505494507,0.8808058608058608,2.6327472527472526
6.7449371610055096,3.055018315018315,1.44007326007326,0.33684981684981685
6.745251086002099,3.055018315018315,1.44007326007326,0.33684981684981685
6.753046825004276,3.055018315018315,1.44007326007326,0.33684981684981685
6.758706630003871,3.055018315018315,1.44007326007326,0.33684981684981685
6.7588965150061995,3.055018315018315,1.44007326007326,0.33684981684981685
6.763964331003081,3.055018315018315,1.44007326007326,0.33684981684981685
6.768467293004505,3.055018315018315,1.44007326007326,0.33684981684981685
6.768797963006364,3.055018315018315,1.44007326007326,0.33684981684981685
6.773350686002232,3.055018315018315,1.44007326007326,0.33684981684981685
6.773629980001715,3.055018315018315,1.44007326007326,0.33684981684981685
6.7782104080033605,3.055018315018315,1.44007326007326,0.33684981684981685
6.778403877004166,0.8969230769230768,0.4802930402930403,3.0566300366300365
6.783811081004387,2.6327472527472526,1.2861538461538462,0.36344322344322344
6.785628926001664,1.9026373626373623,0.22967032967032966,1.2700366300366301
6.788792129002104,1.9969230769230766,0.9775091575091575,2.552967032967033
6.790328546005185,1.149157509157509,0.5689377289377289,1.3514285714285714
6.794577526001376,1.149157509157509,0.5689377289377289,1.3514285714285714
6.796126797002216,0.21274725274725276,0.22644688644688646,1.6431501831501831
6.800721012004942,0.21274725274725276,0.22644688644688646,1.6431501831501831
6.8010079090017825,0.21274725274725276,0.22644688644688646,1.6431501831501831
6.805603363005503,0.21274725274725276,0.22644688644688646,1.6431501831501831
6.806556329000159,2.4014652014652014,0.6656410256410257,2.5586080586080584
6.808171718999802,2.4014652014652014,0.6656410256410257,2.5586080586080584
6.81201867400523,1.0863003663003663,0.5399267399267399,1.1942857142857142
6.81592176000413,1.5448351648351648,0.5084981684981685,3.3
6.8203957010046,1.5448351648351648,0.5084981684981685,3.3
6.8213033950014506,1.5448351648351648,0.5084981684981685,3.3
6.822980973003723,1.5448351648351648,0.5084981684981685,3.3
6.8282441180053866,0.83003663003663,0.2989743589743589,1.1781684981684981
6.829784811001446,0.83003663003663,0.2989743589743589,1.1781684981684981
6.833601436999743,0.83003663003663,0.2989743589743589,1.1781684981684981
6.840323092001199,2.224981684981685,0.9404395604395603,3.3
6.84426490500482,2.224981684981685,0.9404395604395603,3.3
6.848795879006502,2.9389743589743587,1.7398534798534797,2.548937728937729
6.8490399710062775,2.9389743589743587,1.7398534798534797,2.548937728937729
6.854351126006804,2.9389743589743587,1.7398534798534797,2.548937728937729
6.858648142006132,1.888131868131868,0.7357509157509158,3.3
6.858949075001874,1.888131868131868,0.7357509157509158,3.3
6.865347909006232,1.888131868131868,0.7357509157509158,3.3
6.869963520002784,1.888131868131868,0.7357509157509158,3.3
6.87760821700067,1.888131868131868,0.7357509157509158,3.3
6.883820703005767,1.888131868131868,0.7357509157509158,3.3
6.888759310000751,1.888131868131868,0.7357509157509158,3.3
6.894586160000472,1.888131868131868,0.7357509157509158,3.3
6.900639207000495,1.888131868131868,0.7357509157509158,3.3
6.90540304100432,1.888131868131868,0.7357509157509158,3.3
6.912437259001308,1.888131868131868,0.7357509157509158,3.3
6.917475166999793,1.888131868131868,0.7357509157509158,3.3
6.921610201003205,1.888131868131868,0.7357509157509158,3.3
6.9242324930019095,1.7003663003663,0.929157509157509,0.09428571428571428
6.92955191800138,1.7003663003663,0.929157509157509,0.09428571428571428
6.930818682005338,1.7003663003663,0.929157509157509,0.09428571428571428
6.9388106190017425,1.7003663003663,0.929157509157509,0.09428571428571428
6.9453687770001125,1.7003663003663,0.929157509157509,0.09428571428571428
6.95163688500179,1.7003663003663,0.929157509157509,0.09428571428571428
6.955997909004509,2.848717948717949,0.26593406593406593,3.3
6.95635017099994,2.848717948717949,0.26593406593406593,3.3
6.962252306002483,2.848717948717949,0.26593406593406593,3.3
6.962359791999916,2.848717948717949,0.26593406593406593,3.3
6.967344182005036,2.848717948717949,0.26593406593406593,3.3
6.972908028001257,2.848717948717949,0.26593406593406593,3.3
6.973777720006183,2.848717948717949,0.26593406593406593,3.3
6.975639606003824,2.848717948717949,0.26593406593406593,3.3
6.978032605002227,2.848717948717949,0.26593406593406593,3.3
6.978139760001795,2.848717948717949,0.26593406593406593,3.3
6.985802198003512,2.5054212454212452,1.270842490842491,0.9734798534798534
6.9915030950069195,2.5054212454212452,1.270842490842491,0.9734798534798534
6.997141589003149,2.5054212454212452,1.270842490842491,0.9734798534798534
6.997510239001713,2.5054212454212452,1.270842490842491,0.9734798534798534
7.002708782005357,2.5054212454212452,1.270842490842491,0.9734798534798534
7.006517125002574,2.5054212454212452,1.270842490842491,0.9734798534798534
7.009261218001484,2.5054212454212452,1.270842490842491,0.9734798534798534
7.014744426000107,1.1934798534798534,0.8493772893772893,1.598021978021978
7.015884595006355,1.1934798534798534,0.8493772893772893,1.598021978021978
7.016121587002999,1.1934798534798534,0.8493772893772893,1.598021978021978
7.021135254006367,1.1934798534798534,0.8493772893772893,1.598021978021978
7.025632366006903,1.1934798534798534,0.8493772893772893,1.598021978021978
7.025924953006324,1.1934798534798534,0.8493772893772893,1.598021978021978
7.030534776000422,1.1934798534798534,0.8493772893772893,1.598021978021978
7.031427312002052,1.1934798534798534,0.8493772893772893,1.598021978021978
7.03313036000327,1.1934798534798534,0.8493772893772893,1.598021978021978
7.036205747004715,1.1934798534798534,0.8493772893772893,1.598021978021978
7.038544227005332,1.1934798534798534,0.8493772893772893,1.598021978021978
7.03881355800695,1.1934798534798534,0.8493772893772893,1.598021978021978
7.044958090002183,1.1934798534798534,0.8493772893772893,1.598021978021978
7.048747725006251,1.1934798534798534,0.8493772893772893,1.598021978021978
7.053282765002223,1.8397802197802198,1.1298168498168497,1.1346520146520145
7.053512661004788,0.21274725274725276,1.0854945054945053,1.7164835164835166
7.05878695499996,0.21274725274725276,1.0854945054945053,1.7164835164835166
7.061379070000839,0.21274725274725276,1.0854945054945053,1.7164835164835166
7.068109154002741,0.21274725274725276,1.0854945054945053,1.7164835164835166
7.072032646006846,0.21274725274725276,1.0854945054945053,1.7164835164835166
7.075972628001182,0.3916483516483516,1.3949450549450548,2.411135531135531
7.080496835005761,0.3916483516483516,1.3949450549450548,2.411135531135531
7.082040183006029,0.3916483516483516,1.3949450549450548,2.411135531135531
7.086604526004521,0.3916483516483516,1.3949450549450548,2.411135531135531
7.086813901005371,0.3916483516483516,1.3949450549450548,2.411135531135531
7.091504810006882,0.3916483516483516,1.3949450549450548,2.411135531135531
7.091789393001818,0.3916483516483516,1.3949450549450548,2.411135531135531
7.0970957040044595,0.3916483516483516,1.3949450549450548,2.411135531135531
7.09947648900561,0.3916483516483516,1.3949450549450548,2.411135531135531
7.099644812005863,0.3916483516483516,1.3949450549450548,2.411135531135531
7.1050780350051355,1.4835897435897436,0.2482051282051282,1.0097435897435898
7.10664658099995,1.1145054945054944,0.21355311355311357,0.958974358974359
7.111175011006708,1.1145054945054944,0.21355311355311357,0.958974358974359
7.112056063000637,1.1145054945054944,0.21355311355311357,0.958974358974359
7.113677319000999,1.1145054945054944,0.21355311355311357,0.958974358974359
7.117628557003627,1.1145054945054944,0.21355311355311357,0.958974358974359
7.123460646005697,1.1145054945054944,0.21355311355311357,0.958974358974359
7.1299241590022575,0.469010989010989,0.7494505494505495,1.00007326007326
7.135062283006846,0.469010989010989,0.7494505494505495,1.00007326007326
7.13843066800473,1.0806593406593406,1.9493772893772894,2.54974358974359
7.138625072002469,1.0806593406593406,1.9493772893772894,2.54974358974359
7.145845318002102,1.0806593406593406,1.9493772893772894,2.54974358974359
7.1526388810016215,1.0806593406593406,1.9493772893772894,2.54974358974359
7.15792809100094,1.0806593406593406,1.9493772893772894,2.54974358974359
7.1582958130020415,1.0806593406593406,1.9493772893772894,2.54974358974359
7.164713249003398,1.0806593406593406,1.9493772893772894,2.54974358974359
7.170436280001013,1.0806593406593406,1.9493772893772894,2.54974358974359
7.170684282005823,0.12168498168498168,1.058901098901099,0.9388278388278387
7.177655262006738,0.12168498168498168,1.058901098901099,0.9388278388278387
7.183691969999927,0.3529670329670329,0.9041758241758242,3.1493040293040293
7.188771455003007,0.3529670329670329,0.9041758241758242,3.1493040293040293
7.19338036600675,0.3529670329670329,0.9041758241758242,3.1493040293040293
7.200405941002828,0.05882783882783882,0.8614652014652014,3.3
7.206648472005327,0.05882783882783882,0.8614652014652014,3.3
7.21204519100138,1.6431501831501831,1.3876923076923076,2.5602197802197804
7.212307796005916,1.6431501831501831,1.3876923076923076,2.5602197802197804
7.219142610003473,1.6431501831501831,1.3876923076923076,2.5602197802197804
7.224314070001128,1.6431501831501831,1.3876923076923076,2.5602197802197804
7.2264137730016955,0.7123809523809523,0.19904761904761903,0.35619047619047617
7.22768588100007,0.7123809523809523,0.19904761904761903,0.35619047619047617
7.234862294004415,0.7123809523809523,0.19904761904761903,0.35619047619047617
7.2401790950025315,0.7123809523809523,0.19904761904761903,0.35619047619047617
7.243697641002655,0.5512087912087912,0.809084249084249,1.2974358974358973
7.250900992999959,0.4625641025641025,0.16358974358974357,0.46739926739926735
