time,emg1,emg2,emg3
0.0019181419993401505,2.488498168498168,1.3191941391941393,0.4021245421245421
0.007531427996582352,2.488498168498168,1.3191941391941393,0.4021245421245421
0.030350670996995177,2.488498168498168,1.3191941391941393,0.4021245421245421
0.04250010800024029,2.488498168498168,1.3191941391941393,0.4021245421245421
0.050845393001509365,0.751062271062271,0.7397802197802198,0.051575091575091575
0.05683098200097447,0.751062271062271,0.7397802197802198,0.051575091575091575
0.06224307599768508,0.4867399267399267,0.5254212454212454,0.17567765567765567
0.06414192199736135,0.4867399267399267,0.5254212454212454,0.17567765567765567
0.06691308000154095,0.4867399267399267,0.5254212454212454,0.17567765567765567
0.07129578199965181,0.772014652014652,0.7953846153846154,0.701098901098901
0.07159379799850285,0.772014652014652,0.7953846153846154,0.701098901098901
0.07694408999668667,0.772014652014652,0.7953846153846154,0.701098901098901
0.07875809599499917,0.772014652014652,0.7953846153846154,0.701098901098901
0.0821879809955135,0.772014652014652,0.7953846153846154,0.701098901098901
0.08232024699827889,0.772014652014652,0.7953846153846154,0.701098901098901
0.08882042399636703,0.772014652014652,0.7953846153846154,0.701098901098901
0.09433533999981591,0.8324542124542124,0.5415384615384615,0.12974358974358974
0.09452096300083213,0.8324542124542124,0.5415384615384615,0.12974358974358974
0.09963967400108231,0.8324542124542124,0.5415384615384615,0.12974358974358974
0.10365876399737317,0.8324542124542124,0.5415384615384615,0.12974358974358974
0.10762418300146237,0.8324542124542124,0.5415384615384615,0.12974358974358974
0.1108280240005115,1.0097435897435898,0.31267399267399265,0.13941391941391942
0.11179228899709415,2.5553846153846154,1.4352380952380952,0.6841758241758242
0.11344979299610713,0.386007326007326,1.0572893772893772,0.47062271062271055
0.11745631299709203,0.386007326007326,1.0572893772893772,0.47062271062271055
0.12121593699703226,1.1878388278388277,0.7945787545787546,0.3795604395604395
0.1256637909973506,1.1878388278388277,0.7945787545787546,0.3795604395604395
0.12725358799798414,1.1878388278388277,0.7945787545787546,0.3795604395604395
0.13116757999523543,1.1878388278388277,0.7945787545787546,0.3795604395604395
0.1357477880010265,0.8243956043956043,0.3046153846153846,0.46739926739926735
0.1365631289954763,0.7792673992673992,0.7107692307692308,0.25465201465201465
0.13906052299716976,0.7792673992673992,0.7107692307692308,0.25465201465201465
0.14659751099679852,1.8607326007326006,0.7736263736263735,0.19743589743589743
0.15248729800077854,1.8607326007326006,0.7736263736263735,0.19743589743589743
0.15620469200075604,1.8607326007326006,0.7736263736263735,0.19743589743589743
0.15631018199928803,1.8607326007326006,0.7736263736263735,0.19743589743589743
0.16140614799951436,1.8607326007326006,0.7736263736263735,0.19743589743589743
0.1665386969980318,1.8607326007326006,0.7736263736263735,0.19743589743589743
0.1701857839943841,1.8607326007326006,0.7736263736263735,0.19743589743589743
0.17031158800091362,1.8607326007326006,0.7736263736263735,0.19743589743589743
0.17536151899548713,1.8607326007326006,0.7736263736263735,0.19743589743589743
0.18080367500078864,1.8607326007326006,0.7736263736263735,0.19743589743589743
0.1823624389944598,1.8607326007326006,0.7736263736263735,0.19743589743589743
0.18636326499836287,1.8607326007326006,0.7736263736263735,0.19743589743589743
0.19051426099758828,0.8002197802197801,0.8082783882783882,0.4013186813186813
0.19230327200057218,0.8002197802197801,0.8082783882783882,0.4013186813186813
0.19492317499680212,0.8002197802197801,0.8082783882783882,0.4013186813186813
0.20156183999642963,0.8002197802197801,0.8082783882783882,0.4013186813186813
0.205462379999517,0.8002197802197801,0.8082783882783882,0.4013186813186813
0.2126138789972174,0.8002197802197801,0.8082783882783882,0.4013186813186813
0.2188281859998824,0.8002197802197801,0.8082783882783882,0.4013186813186813
0.2252956800002721,0.8002197802197801,0.8082783882783882,0.4013186813186813
0.23235204500088003,0.8002197802197801,0.8082783882783882,0.4013186813186813
0.23932922699896153,0.5890842490842491,0.8413186813186813,0.3263736263736263
0.2431384049996268,1.3836630036630035,1.079047619047619,0.1821245421245421
0.24770192899450194,0.8864468864468864,0.5399267399267399,0.4142124542124542
0.24800952799705556,0.7583150183150182,0.8526007326007327,0.42388278388278383
0.2533484399973531,0.7583150183150182,0.8526007326007327,0.42388278388278383
0.2557398999997531,0.7583150183150182,0.8526007326007327,0.42388278388278383
0.2559950459981337,0.7583150183150182,0.8526007326007327,0.42388278388278383
0.26155261699750554,0.7583150183150182,0.8526007326007327,0.42388278388278383
0.2618568990001222,0.5254212454212454,0.195018315018315,0.36747252747252745
0.26640344799670856,0.5254212454212454,0.195018315018315,0.36747252747252745
0.2680013649951434,0.9597802197802198,0.9146520146520146,0.5786080586080585
0.27312520900159143,0.8308424908424907,0.4496703296703296,0.05318681318681319
0.27848651499516563,2.6190476190476186,1.2498901098901098,0.73010989010989
0.27873245399678126,2.6190476190476186,1.2498901098901098,0.73010989010989
0.28381291600089753,2.6190476190476186,1.2498901098901098,0.73010989010989
0.28688043099828064,2.6190476190476186,1.2498901098901098,0.73010989010989
0.28994816199701745,2.6190476190476186,1.2498901098901098,0.73010989010989
0.2928424689962412,2.6190476190476186,1.2498901098901098,0.73010989010989
0.29684803699637996,1.1894505494505494,0.8348717948717947,0.4126007326007326
0.30063208299543476,1.1894505494505494,0.8348717948717947,0.4126007326007326
0.30548458699922776,2.245934065934066,1.1821978021978021,0.1821245421245421
0.3121544309979072,2.245934065934066,1.1821978021978021,0.1821245421245421
0.31639956499566324,0.9654212454212454,0.6648351648351648,0.051575091575091575
0.3232687839990831,0.9654212454212454,0.6648351648351648,0.051575091575091575
0.3305421959958039,0.9920146520146519,0.1087912087912088,0.1926007326007326
0.3363157659987337,0.9920146520146519,0.1087912087912088,0.1926007326007326
0.3436723679988063,0.9920146520146519,0.1087912087912088,0.1926007326007326
0.34932985399791505,0.9920146520146519,0.1087912087912088,0.1926007326007326
0.35572396999486955,0.8936996336996336,0.2369230769230769,0.28527472527472525
0.3594899189993157,0.8936996336996336,0.2369230769230769,0.28527472527472525
0.36370489899854874,0.8936996336996336,0.2369230769230769,0.28527472527472525
0.3661750499959453,0.8936996336996336,0.2369230769230769,0.28527472527472525
0.37351336099527543,0.8936996336996336,0.2369230769230769,0.28527472527472525
0.3784014330012724,0.8936996336996336,0.2369230769230769,0.28527472527472525
0.3823252889997093,0.8936996336996336,0.2369230769230769,0.28527472527472525
0.3861121660011122,0.8936996336996336,0.2369230769230769,0.28527472527472525
0.39257507999718655,0.8936996336996336,0.2369230769230769,0.28527472527472525
0.3957830270010163,0.8936996336996336,0.2369230769230769,0.28527472527472525
0.39750785200158134,0.8936996336996336,0.2369230769230769,0.28527472527472525
0.40184570299607003,0.8936996336996336,0.2369230769230769,0.28527472527472525
0.40208603700011736,0.8936996336996336,0.2369230769230769,0.28527472527472525
0.41133873199578375,0.8936996336996336,0.2369230769230769,0.28527472527472525
0.4189531320007518,0.8936996336996336,0.2369230769230769,0.28527472527472525
0.4273612949982635,1.9493772893772894,0.7228571428571429,0.12571428571428572
0.43142770000122255,2.497362637362637,1.3216117216117216,0.18937728937728937
0.4338712799944915,2.497362637362637,1.3216117216117216,0.18937728937728937
0.43398991599678993,2.497362637362637,1.3216117216117216,0.18937728937728937
0.4397469089963124,2.497362637362637,1.3216117216117216,0.18937728937728937
0.4399072339947452,2.497362637362637,1.3216117216117216,0.18937728937728937
0.44484184999600984,2.497362637362637,1.3216117216117216,0.18937728937728937
0.4503923890006263,0.26754578754578756,0.12007326007326008,0.1692307692307692
0.45125782399554737,0.26754578754578756,0.12007326007326008,0.1692307692307692
0.45225630499771796,0.26754578754578756,0.12007326007326008,0.1692307692307692
0.4539118819957366,0.26754578754578756,0.12007326007326008,0.1692307692307692
0.4592154069978278,0.697069597069597,0.6753113553113552,0.12893772893772892
0.46086040899535874,0.697069597069597,0.6753113553113552,0.12893772893772892
0.46423291199607775,0.697069597069597,0.6753113553113552,0.12893772893772892
0.4644231860002037,0.697069597069597,0.6753113553113552,0.12893772893772892
0.4703074239951093,0.697069597069597,0.6753113553113552,0.12893772893772892
0.4765725499964901,0.697069597069597,0.6753113553113552,0.12893772893772892
0.4798402000014903,0.697069597069597,0.6753113553113552,0.12893772893772892
0.4807927930014557,0.697069597069597,0.6753113553113552,0.12893772893772892
0.4824730969994562,0.697069597069597,0.6753113553113552,0.12893772893772892
0.48652882700116606,0.697069597069597,0.6753113553113552,0.12893772893772892
0.49222927099617664,0.697069597069597,0.6753113553113552,0.12893772893772892
0.4982595309993485,1.3272527472527473,0.8074725274725274,0.5794139194139193
0.5024487900009262,1.3272527472527473,0.8074725274725274,0.5794139194139193
0.5058150839977316,1.3272527472527473,0.8074725274725274,0.5794139194139193
0.5060747169991373,1.3272527472527473,0.8074725274725274,0.5794139194139193
0.5113614500005497,1.3272527472527473,0.8074725274725274,0.5794139194139193
0.5130420310015325,1.3272527472527473,0.8074725274725274,0.5794139194139193
0.5163197889996809,1.3272527472527473,0.8074725274725274,0.5794139194139193
0.5173157579993131,1.3272527472527473,0.8074725274725274,0.5794139194139193
0.5182421299978159,1.3272527472527473,0.8074725274725274,0.5794139194139193
0.5198914919965318,1.3272527472527473,0.8074725274725274,0.5794139194139193
0.525837112996669,2.423223443223443,1.3723809523809525,0.20065934065934066
0.5299573849988519,0.16358974358974357,0.15069597069597068,0.06608058608058608
0.5316857159996289,0.16358974358974357,0.15069597069597068,0.06608058608058608
0.5348607179985265,0.16358974358974357,0.15069597069597068,0.06608058608058608
0.5365061709962902,0.16358974358974357,0.15069597069597068,0.06608058608058608
0.5418570429974352,0.16358974358974357,0.15069597069597068,0.06608058608058608
0.5441255629993975,0.16358974358974357,0.15069597069597068,0.06608058608058608
0.5499860439958866,0.16358974358974357,0.15069597069597068,0.06608058608058608
0.550206611995236,0.9621978021978022,0.5906959706959707,0.14989010989010987
0.5553343759966083,0.9621978021978022,0.5906959706959707,0.14989010989010987
0.56003821700142,0.8098901098901098,0.6720879120879121,0.419047619047619
0.5656947870011209,0.8098901098901098,0.6720879120879121,0.419047619047619
0.566681628995866,0.8098901098901098,0.6720879120879121,0.419047619047619
0.5684001639965572,0.8098901098901098,0.6720879120879121,0.419047619047619
0.573135270999046,0.8098901098901098,0.6720879120879121,0.419047619047619
0.5787350539976615,0.11362637362637362,0.8896703296703296,0.49802197802197795
0.5789688219956588,0.11362637362637362,0.8896703296703296,0.49802197802197795
0.5838986669987207,0.11362637362637362,0.8896703296703296,0.49802197802197795
0.5840073360013776,0.11362637362637362,0.8896703296703296,0.49802197802197795
0.5919710969974403,0.11362637362637362,0.8896703296703296,0.49802197802197795
0.5963582139956998,0.8969230769230768,0.792967032967033,0.788937728937729
0.5973225659981836,0.8969230769230768,0.792967032967033,0.788937728937729
0.5976738089957507,0.8969230769230768,0.792967032967033,0.788937728937729
0.6046066240014625,0.12087912087912088,0.09912087912087912,0.27882783882783885
0.6095432069996605,0.12087912087912088,0.09912087912087912,0.27882783882783885
0.61293879099685,0.12087912087912088,0.09912087912087912,0.27882783882783885
0.6138682230011909,0.12087912087912088,0.09912087912087912,0.27882783882783885
0.6155864120009937,0.8453479853479853,0.9202930402930403,0.12732600732600732
0.6190962539985776,0.6736996336996337,0.5842490842490843,0.24175824175824176
0.6263045899977442,0.6736996336996337,0.5842490842490843,0.24175824175824176
0.6309897870014538,0.6736996336996337,0.5842490842490843,0.24175824175824176
0.6311539149974124,0.6736996336996337,0.5842490842490843,0.24175824175824176
0.6413331369985826,0.6736996336996337,0.5842490842490843,0.24175824175824176
0.6467528799985303,1.0758241758241758,0.07655677655677656,0.27802197802197803
0.6476807569997618,0.17084249084249084,0.166007326007326,0.14586080586080585
0.6479417999944417,0.17084249084249084,0.166007326007326,0.14586080586080585
0.6536088659995585,0.17084249084249084,0.166007326007326,0.14586080586080585
0.653832957999839,0.0547985347985348,0.9573626373626374,0.4964102564102564
0.6601241359967389,0.0547985347985348,0.9573626373626374,0.4964102564102564
0.6635596279957099,0.5213919413919413,0.09428571428571428,0.22564102564102564
0.6638722220013733,0.6132600732600733,0.1571428571428571,0.3038095238095238
0.6688221459990018,0.6132600732600733,0.1571428571428571,0.3038095238095238
0.6760470980007085,0.6132600732600733,0.1571428571428571,0.3038095238095238
0.6802611940001952,1.49003663003663,0.14505494505494507,0.33926739926739924
0.6827343330005533,1.3514285714285714,0.6648351648351648,0.13054945054945052
0.6828352269949391,0.5632967032967032,0.2063003663003663,0.34087912087912087
0.6914412569967681,0.5632967032967032,0.2063003663003663,0.34087912087912087
0.6968585549984709,0.5632967032967032,0.2063003663003663,0.34087912087912087
0.6972066559974337,0.5632967032967032,0.2063003663003663,0.34087912087912087
0.703660402999958,0.5632967032967032,0.2063003663003663,0.34087912087912087
0.7090169229995809,0.5632967032967032,0.2063003663003663,0.34087912087912087
0.7099689749957179,0.5632967032967032,0.2063003663003663,0.34087912087912087
0.7109530739980983,0.5632967032967032,0.2063003663003663,0.34087912087912087
0.7119184249968384,0.5632967032967032,0.2063003663003663,0.34087912087912087
0.712912138995307,0.5632967032967032,0.2063003663003663,0.34087912087912087
0.713906387994939,0.8098901098901098,0.9887912087912087,0.39567765567765567
0.7148931970004924,0.8098901098901098,0.9887912087912087,0.39567765567765567
0.7158918809946044,0.8098901098901098,0.9887912087912087,0.39567765567765567
0.7169016909974744,0.8098901098901098,0.9887912087912087,0.39567765567765567
0.7178884620007011,0.8098901098901098,0.9887912087912087,0.39567765567765567
0.718810639998992,0.8098901098901098,0.9887912087912087,0.39567765567765567
0.7200409340002807,0.8098901098901098,0.9887912087912087,0.39567765567765567
0.7202791839954443,0.8098901098901098,0.9887912087912087,0.39567765567765567
0.7264540209944244,0.8098901098901098,0.9887912087912087,0.39567765567765567
0.7322424419980962,0.8098901098901098,0.9887912087912087,0.39567765567765567
0.7396209110011114,0.8098901098901098,0.9887912087912087,0.39567765567765567
0.7438232229978894,0.8098901098901098,0.9887912087912087,0.39567765567765567
0.7455337369974586,0.8098901098901098,0.9887912087912087,0.39567765567765567
0.7487116199990851,0.8098901098901098,0.9887912087912087,0.39567765567765567
0.7511733029969037,0.8098901098901098,0.9887912087912087,0.39567765567765567
0.7583732409984805,0.8098901098901098,0.9887912087912087,0.39567765567765567
0.7625326849956764,0.8098901098901098,0.9887912087912087,0.39567765567765567
0.7650084790002438,0.8098901098901098,0.9887912087912087,0.39567765567765567
0.7713546140003018,0.8098901098901098,0.9887912087912087,0.39567765567765567
0.7764151849987684,0.8098901098901098,0.9887912087912087,0.39567765567765567
0.7796283589996165,0.9186813186813186,0.8872527472527472,0.21999999999999997
0.7806174439974711,0.9186813186813186,0.8872527472527472,0.21999999999999997
0.7815078329949756,0.9186813186813186,0.8872527472527472,0.21999999999999997
0.7831101269985083,0.9186813186813186,0.8872527472527472,0.21999999999999997
0.7874923369963653,0.9186813186813186,0.8872527472527472,0.21999999999999997
0.7906291369945393,0.9186813186813186,0.8872527472527472,0.21999999999999997
0.7909463659962057,0.9186813186813186,0.8872527472527472,0.21999999999999997
0.7970380129991099,0.9186813186813186,0.8872527472527472,0.21999999999999997
0.8011009190013283,0.5963369963369963,0.9428571428571427,0.518974358974359
0.8037585119964206,0.5963369963369963,0.9428571428571427,0.518974358974359
0.8108966239960864,0.332014652014652,0.16358974358974357,0.39406593406593404
0.8173225020000245,0.8243956043956043,0.6745054945054945,0.7768498168498168
0.8231392050001887,1.801098901098901,0.24739926739926738,0.7623443223443224
0.8338512099944637,1.801098901098901,0.24739926739926738,0.7623443223443224
0.8441471559999627,0.8324542124542124,0.49560439560439556,0.5761904761904761
0.8512204629951157,0.8324542124542124,0.49560439560439556,0.5761904761904761
0.8601900989960996,0.8324542124542124,0.49560439560439556,0.5761904761904761
0.8673262929951306,1.0742124542124543,0.767985347985348,0.06688644688644689
0.8735890569951152,0.3618315018315018,0.24014652014652016,0.19824175824175824
0.8798667429946363,0.3618315018315018,0.24014652014652016,0.19824175824175824
0.8851491109962808,0.3618315018315018,0.24014652014652016,0.19824175824175824
0.8867217859951779,0.3618315018315018,0.24014652014652016,0.19824175824175824
0.894830806995742,0.3618315018315018,0.24014652014652016,0.19824175824175824
0.9009259019949241,0.3618315018315018,0.24014652014652016,0.19824175824175824
0.9078516199951991,2.2362637362637363,0.8292307692307692,0.14424908424908423
0.9124576659960439,2.2362637362637363,0.8292307692307692,0.14424908424908423
0.9178048649991979,2.2362637362637363,0.8292307692307692,0.14424908424908423
0.9194441590007045,2.2362637362637363,0.8292307692307692,0.14424908424908423
0.9273210709943669,2.2362637362637363,0.8292307692307692,0.14424908424908423
0.9320172219959204,2.2362637362637363,0.8292307692307692,0.14424908424908423
0.942487615000573,2.2362637362637363,0.8292307692307692,0.14424908424908423
0.9471779169980437,0.29816849816849816,0.14344322344322344,0.2095238095238095
0.9473289390007267,0.9114285714285715,0.7736263736263735,0.4786813186813187
0.9529178320008214,0.9114285714285715,0.7736263736263735,0.4786813186813187
0.9539181309955893,0.5157509157509157,0.9605860805860806,0.5310622710622711
0.9554699500004062,0.5157509157509157,0.9605860805860806,0.5310622710622711
0.9612358519952977,0.5157509157509157,0.9605860805860806,0.5310622710622711
0.9666475759950117,0.42388278388278383,0.12893772893772892,0.24014652014652016
0.9691276509984164,0.42388278388278383,0.12893772893772892,0.24014652014652016
0.9801730079998379,0.42388278388278383,0.12893772893772892,0.24014652014652016
0.9879149209955358,0.42388278388278383,0.12893772893772892,0.24014652014652016
0.9929842229976202,0.5358974358974359,0.17084249084249084,0.3529670329670329
0.995414062999771,0.5358974358974359,0.17084249084249084,0.3529670329670329
0.9955623369969544,0.5358974358974359,0.17084249084249084,0.3529670329670329
1.001052299994626,0.5358974358974359,0.17084249084249084,0.3529670329670329
1.0020040399977006,0.5358974358974359,0.17084249084249084,0.3529670329670329
1.0038207629986573,0.5358974358974359,0.17084249084249084,0.3529670329670329
1.0086035399945104,0.5358974358974359,0.17084249084249084,0.3529670329670329
1.0118922760011628,0.5358974358974359,0.17084249084249084,0.3529670329670329
1.0127768499951344,0.5358974358974359,0.17084249084249084,0.3529670329670329
1.014432913994824,0.5358974358974359,0.17084249084249084,0.3529670329670329
1.0188859759946354,0.5358974358974359,0.17084249084249084,0.3529670329670329
1.0200579759984976,1.228131868131868,0.7196336996336996,0.3489377289377289
1.0203636859951075,1.228131868131868,0.7196336996336996,0.3489377289377289
1.027333550999174,1.228131868131868,0.7196336996336996,0.3489377289377289
1.0312775040001725,0.6148717948717949,0.12168498168498168,0.0693040293040293
1.0357709849995445,0.6148717948717949,0.12168498168498168,0.0693040293040293
1.0373922669969033,0.6148717948717949,0.12168498168498168,0.0693040293040293
1.0421499270014465,0.6148717948717949,0.12168498168498168,0.0693040293040293
1.0474426799992216,0.6148717948717949,0.12168498168498168,0.0693040293040293
1.0498648559951107,0.6148717948717949,0.12168498168498168,0.0693040293040293
1.0499841409982764,0.6148717948717949,0.12168498168498168,0.0693040293040293
1.0593769599945517,0.6148717948717949,0.12168498168498168,0.0693040293040293
1.0641910479971557,0.6148717948717949,0.12168498168498168,0.0693040293040293
1.06982908599457,0.7599267399267399,0.17245421245421244,0.07897435897435898
1.071373961000063,0.7599267399267399,0.17245421245421244,0.07897435897435898
1.0770706990006147,0.7599267399267399,0.17245421245421244,0.07897435897435898
1.0824323369961348,0.23531135531135527,0.34007326007326005,0.17245421245421244
1.0848154519990203,1.3127472527472526,0.13296703296703297,0.3304029304029304
1.0849722860002657,1.3127472527472526,0.13296703296703297,0.3304029304029304
1.096059431998583,2.041245421245421,1.4062271062271061,1.0653479853479852
1.1031538589959382,0.9613919413919414,0.4899633699633699,0.6906227106227106
1.1088466110013542,0.8606593406593407,0.3457142857142857,0.21355311355311357
1.1189833210009965,0.8606593406593407,0.3457142857142857,0.21355311355311357
1.1253836659961962,0.8606593406593407,0.3457142857142857,0.21355311355311357
1.1300945449984283,0.8606593406593407,0.3457142857142857,0.21355311355311357
1.1375437479946413,0.8606593406593407,0.3457142857142857,0.21355311355311357
1.1445912489944021,0.8606593406593407,0.3457142857142857,0.21355311355311357
1.1502315339967026,1.3514285714285714,0.13054945054945052,0.332014652014652
1.1549827470007585,2.233040293040293,1.083076923076923,0.21677655677655677
1.1551407929946436,2.233040293040293,1.083076923076923,0.21677655677655677
1.1619339280005079,2.233040293040293,1.083076923076923,0.21677655677655677
1.1677440880012,2.233040293040293,1.083076923076923,0.21677655677655677
1.1774156100000255,2.233040293040293,1.083076923076923,0.21677655677655677
1.185057096001401,2.233040293040293,1.083076923076923,0.21677655677655677
1.1911948310007574,2.233040293040293,1.083076923076923,0.21677655677655677
1.1945271599979606,2.233040293040293,1.083076923076923,0.21677655677655677
1.1948597769951448,2.233040293040293,1.083076923076923,0.21677655677655677
1.2028681489973678,2.233040293040293,1.083076923076923,0.21677655677655677
1.2107936249958584,0.7373626373626374,0.1418315018315018,0.1829304029304029
1.2176019600010477,0.7373626373626374,0.1418315018315018,0.1829304029304029
1.2231609640002716,0.7373626373626374,0.1418315018315018,0.1829304029304029
1.2303381429956062,0.7526739926739926,0.4005128205128205,0.2651282051282051
1.2343250240010093,0.1958241758241758,1.0057142857142858,0.7357509157509158
1.2383353689947398,0.1958241758241758,1.0057142857142858,0.7357509157509158
1.2421686489979038,0.1958241758241758,1.0057142857142858,0.7357509157509158
1.2465992139987065,1.3232234432234433,0.3191208791208791,0.6914285714285714
1.2476136059995042,1.3232234432234433,0.3191208791208791,0.6914285714285714
1.2484216199954972,1.3232234432234433,0.3191208791208791,0.6914285714285714
1.2499898829992162,1.3232234432234433,0.3191208791208791,0.6914285714285714
1.2547748840006534,1.3232234432234433,0.3191208791208791,0.6914285714285714
1.2600903809943702,1.3232234432234433,0.3191208791208791,0.6914285714285714
1.263060655001027,1.5383882783882783,0.8348717948717947,0.19985347985347984
1.266053594998084,1.5383882783882783,0.8348717948717947,0.19985347985347984
1.2683203389970004,1.5383882783882783,0.8348717948717947,0.19985347985347984
1.2686676469966187,1.5383882783882783,0.8348717948717947,0.19985347985347984
1.273427346997778,1.5383882783882783,0.8348717948717947,0.19985347985347984
1.2736067609948805,1.5383882783882783,0.8348717948717947,0.19985347985347984
1.2783404439978767,1.5383882783882783,0.8348717948717947,0.19985347985347984
1.2785210039946833,1.5383882783882783,0.8348717948717947,0.19985347985347984
1.2859202479958185,1.5383882783882783,0.8348717948717947,0.19985347985347984
1.290903344997787,1.5383882783882783,0.8348717948717947,0.19985347985347984
1.2942963909954415,1.5383882783882783,0.8348717948717947,0.19985347985347984
1.2946357869950589,1.5383882783882783,0.8348717948717947,0.19985347985347984
1.3032820769949467,1.5383882783882783,0.8348717948717947,0.19985347985347984
1.3079269189984188,1.5383882783882783,0.8348717948717947,0.19985347985347984
1.3082324849965516,1.7326007326007327,0.755091575091575,0.09347985347985348
1.3165251309983432,1.7326007326007327,0.755091575091575,0.09347985347985348
1.3235803339994163,1.7326007326007327,0.755091575091575,0.09347985347985348
1.330185535000055,1.7326007326007327,0.755091575091575,0.09347985347985348
1.3350100349998684,1.7326007326007327,0.755091575091575,0.09347985347985348
1.3437687149998965,1.7326007326007327,0.755091575091575,0.09347985347985348
1.3497024079988478,0.718021978021978,0.17326007326007326,0.19018315018315018
1.3583426279947162,2.382930402930403,1.2224908424908425,0.7373626373626374
1.3683892260014545,2.382930402930403,1.2224908424908425,0.7373626373626374
1.376512445996923,2.382930402930403,1.2224908424908425,0.7373626373626374
1.3813352809956996,2.382930402930403,1.2224908424908425,0.7373626373626374
1.3877283609981532,2.382930402930403,1.2224908424908425,0.7373626373626374
1.3913701819983544,2.382930402930403,1.2224908424908425,0.7373626373626374
1.4013566840003477,2.382930402930403,1.2224908424908425,0.7373626373626374
1.4086939269982395,2.382930402930403,1.2224908424908425,0.7373626373626374
1.413415218994487,2.382930402930403,1.2224908424908425,0.7373626373626374
1.4227278619946446,2.382930402930403,1.2224908424908425,0.7373626373626374
1.4306794820004143,2.382930402930403,1.2224908424908425,0.7373626373626374
1.4369929609965766,2.382930402930403,1.2224908424908425,0.7373626373626374
1.4435615689944825,2.382930402930403,1.2224908424908425,0.7373626373626374
1.4492555879987776,2.382930402930403,1.2224908424908425,0.7373626373626374
1.4494938930001808,2.382930402930403,1.2224908424908425,0.7373626373626374
1.4574320709944004,2.382930402930403,1.2224908424908425,0.7373626373626374
1.4644166250000126,2.382930402930403,1.2224908424908425,0.7373626373626374
1.4702533559975564,0.7978021978021977,0.1378021978021978,0.17809523809523808
1.4775351459975354,0.7978021978021977,0.1378021978021978,0.17809523809523808
1.4851496659975965,0.7978021978021977,0.1378021978021978,0.17809523809523808
1.4920430109996232,0.7978021978021977,0.1378021978021978,0.17809523809523808
1.4971984129952034,0.6438827838827839,1.016190476190476,0.8195604395604396
1.499871064996114,0.6438827838827839,1.016190476190476,0.8195604395604396
1.5053149349987507,0.6438827838827839,1.016190476190476,0.8195604395604396
1.5055826879979577,0.6438827838827839,1.016190476190476,0.8195604395604396
1.5133547149962396,0.6438827838827839,1.016190476190476,0.8195604395604396
1.5209180589954485,0.6438827838827839,1.016190476190476,0.8195604395604396
1.5279529449981055,0.7349450549450549,0.356996336996337,0.07897435897435898
1.5338247219988261,0.5407326007326007,0.15956043956043955,0.18534798534798536
1.539482551997935,0.5407326007326007,0.15956043956043955,0.18534798534798536
1.5397105059964815,0.5407326007326007,0.15956043956043955,0.18534798534798536
1.548863051997614,0.5407326007326007,0.15956043956043955,0.18534798534798536
1.5549739049965865,0.5407326007326007,0.15956043956043955,0.18534798534798536
1.559095995995449,0.5407326007326007,0.15956043956043955,0.18534798534798536
1.5608439999996335,0.5246153846153846,0.4351648351648352,0.19340659340659339
1.566475375999289,0.5246153846153846,0.4351648351648352,0.19340659340659339
1.5750323039974319,0.7518681318681318,0.15311355311355312,0.2925274725274725
1.5830590379991918,1.311135531135531,1.3103296703296703,1.0282783882783881
1.5903579049991095,1.311135531135531,1.3103296703296703,1.0282783882783881
1.5951009240015992,2.4989743589743587,1.3675457875457875,0.8534065934065934
1.5996825939946575,1.145128205128205,1.1048351648351646,0.763956043956044
1.5999213999966742,1.145128205128205,1.1048351648351646,0.763956043956044
1.6047034169969265,1.145128205128205,1.1048351648351646,0.763956043956044
1.6049070049994043,1.145128205128205,1.1048351648351646,0.763956043956044
1.60982670699741,1.145128205128205,1.1048351648351646,0.763956043956044
1.6146325919980882,0.9855677655677655,0.5028571428571429,0.518974358974359
1.6199584169953596,0.9855677655677655,0.5028571428571429,0.518974358974359
1.6229815109982155,0.9855677655677655,0.5028571428571429,0.518974358974359
1.625406462000683,0.7615384615384615,0.16117216117216115,0.2643223443223443
1.6256635609970544,0.7615384615384615,0.16117216117216115,0.2643223443223443
1.6307905119974748,0.7615384615384615,0.16117216117216115,0.2643223443223443
1.6347772029985208,0.7615384615384615,0.16117216117216115,0.2643223443223443
1.6385228379949694,0.7615384615384615,0.16117216117216115,0.2643223443223443
1.638615193995065,0.7615384615384615,0.16117216117216115,0.2643223443223443
1.644488983998599,0.7615384615384615,0.16117216117216115,0.2643223443223443
1.652301048998197,0.49882783882783877,0.15794871794871795,0.07252747252747253
1.6591021929998533,2.22981684981685,1.0435897435897434,0.15794871794871795
1.6623533519959892,2.22981684981685,1.0435897435897434,0.15794871794871795
1.6639249799991376,2.22981684981685,1.0435897435897434,0.15794871794871795
1.6680575649952516,2.22981684981685,1.0435897435897434,0.15794871794871795
1.6708160919952206,2.22981684981685,1.0435897435897434,0.15794871794871795
1.6749965589988278,2.22981684981685,1.0435897435897434,0.15794871794871795
1.6778234059966053,1.2547252747252746,1.203150183150183,1.0315018315018314
1.6813458789983997,1.2547252747252746,1.203150183150183,1.0315018315018314
1.6815621119967545,1.2547252747252746,1.203150183150183,1.0315018315018314
1.6863504239954636,1.2547252747252746,1.203150183150183,1.0315018315018314
1.6865107549965614,1.2547252747252746,1.203150183150183,1.0315018315018314
1.6913931219969527,1.2547252747252746,1.203150183150183,1.0315018315018314
1.6962421869975515,1.2547252747252746,1.203150183150183,1.0315018315018314
1.7013420949951978,1.838168498168498,1.2595604395604394,1.187032967032967
1.7047607599961339,1.838168498168498,1.2595604395604394,1.187032967032967
1.7049981739983195,1.838168498168498,1.2595604395604394,1.187032967032967
1.7099092319986084,1.838168498168498,1.2595604395604394,1.187032967032967
1.7154871999955503,1.8623443223443221,0.9702564102564102,0.5173626373626373
1.717357142995752,1.8623443223443221,0.9702564102564102,0.5173626373626373
1.7196886919991812,1.8623443223443221,0.9702564102564102,0.5173626373626373
1.7199087150002015,1.228937728937729,0.718021978021978,0.13941391941391942
1.7254610329982825,1.228937728937729,0.718021978021978,0.13941391941391942
1.7270510259986622,0.9509157509157508,0.1515018315018315,0.5657142857142857
1.7317584679985885,0.9509157509157508,0.1515018315018315,0.5657142857142857
1.7319321389950346,0.9509157509157508,0.1515018315018315,0.5657142857142857
1.73710761199618,0.9509157509157508,0.1515018315018315,0.5657142857142857
1.740966617995582,0.6519413919413919,0.5560439560439561,0.6688644688644688
1.7447702909994405,0.6519413919413919,0.5560439560439561,0.6688644688644688
1.7491537940004491,1.7301831501831502,1.510989010989011,1.9389010989010989
1.7500440219955635,1.7301831501831502,1.510989010989011,1.9389010989010989
1.751603904995136,1.7301831501831502,1.510989010989011,1.9389010989010989
1.7560303049976937,1.7301831501831502,1.510989010989011,1.9389010989010989
1.7569785089945071,1.7301831501831502,1.510989010989011,1.9389010989010989
1.7578863140006433,1.7301831501831502,1.510989010989011,1.9389010989010989
1.7594532639996032,1.7301831501831502,1.510989010989011,1.9389010989010989
1.7639947290008422,1.7301831501831502,1.510989010989011,1.9389010989010989
1.7642742329990142,0.5761904761904761,0.24498168498168496,0.46739926739926735
1.769528229997377,0.5761904761904761,0.24498168498168496,0.46739926739926735
1.773307413997827,2.331355311355311,1.3723809523809525,0.8139194139194139
1.7779069370008074,2.331355311355311,1.3723809523809525,0.8139194139194139
1.7781183830011287,1.4819780219780219,0.73010989010989,0.9307692307692307
1.7832895620013005,1.4819780219780219,0.73010989010989,0.9307692307692307
1.785971356999653,1.0685714285714285,0.19018315018315018,0.43274725274725273
1.7907254669989925,1.0685714285714285,0.19018315018315018,0.43274725274725273
1.790921473999333,1.0685714285714285,0.19018315018315018,0.43274725274725273
1.7956235899982858,1.0685714285714285,0.19018315018315018,0.43274725274725273
1.7959531669985154,1.0685714285714285,0.19018315018315018,0.43274725274725273
1.8008563539988245,1.0685714285714285,0.19018315018315018,0.43274725274725273
1.8055422019970138,1.3578754578754577,0.16117216117216115,0.7059340659340658
1.8058488859969657,1.3578754578754577,0.16117216117216115,0.7059340659340658
1.8105937739965157,1.3578754578754577,0.16117216117216115,0.7059340659340658
1.8107622539973818,1.3578754578754577,0.16117216117216115,0.7059340659340658
1.8154893050013925,1.3578754578754577,0.16117216117216115,0.7059340659340658
1.8157528929950786,1.6971428571428568,1.1628571428571428,0.7446153846153846
1.8204248379988712,1.6971428571428568,1.1628571428571428,0.7446153846153846
1.8206876999975066,1.6971428571428568,1.1628571428571428,0.7446153846153846
1.8254231649989379,1.261172161172161,0.18373626373626373,0.7405860805860806
1.8255749370000558,1.261172161172161,0.18373626373626373,0.7405860805860806
1.8308362389943795,1.261172161172161,0.18373626373626373,0.7405860805860806
1.8337951349967625,1.261172161172161,0.18373626373626373,0.7405860805860806
1.8368143510015216,1.261172161172161,0.18373626373626373,0.7405860805860806
1.8399929259976489,1.261172161172161,0.18373626373626373,0.7405860805860806
1.8416597059986088,1.261172161172161,0.18373626373626373,0.7405860805860806
1.8454260919970693,1.261172161172161,0.18373626373626373,0.7405860805860806
1.8498483619987383,1.261172161172161,0.18373626373626373,0.7405860805860806
1.851555458997609,1.261172161172161,0.18373626373626373,0.7405860805860806
1.8555025440000463,1.261172161172161,0.18373626373626373,0.7405860805860806
1.8585946669991245,1.261172161172161,0.18373626373626373,0.7405860805860806
1.8608238349988824,1.261172161172161,0.18373626373626373,0.7405860805860806
1.8610293349993299,1.261172161172161,0.18373626373626373,0.7405860805860806
1.8662772140014567,1.261172161172161,0.18373626373626373,0.7405860805860806
1.8686491249973187,1.261172161172161,0.18373626373626373,0.7405860805860806
1.8688465759987594,1.261172161172161,0.18373626373626373,0.7405860805860806
1.873657258998719,1.261172161172161,0.18373626373626373,0.7405860805860806
1.8737473949950072,1.261172161172161,0.18373626373626373,0.7405860805860806
1.8785631819991977,1.261172161172161,0.18373626373626373,0.7405860805860806
1.8833804649984813,1.075018315018315,0.7164102564102564,0.10073260073260072
1.883497399998305,1.398168498168498,0.1668131868131868,0.7397802197802198
1.8882562409999082,1.398168498168498,0.1668131868131868,0.7397802197802198
1.8931025589990895,1.398168498168498,0.1668131868131868,0.7397802197802198
1.8932179080002243,2.103296703296703,1.5013186813186812,2.2523809523809524
1.8980025649943855,2.103296703296703,1.5013186813186812,2.2523809523809524
1.8981311269963044,1.1628571428571428,0.7857142857142856,0.5350915750915751
1.9028937709954334,1.1628571428571428,0.7857142857142856,0.5350915750915751
1.9030048839995288,1.1628571428571428,0.7857142857142856,0.5350915750915751
1.9077936569956364,1.1628571428571428,0.7857142857142856,0.5350915750915751
1.9079262209997978,1.1628571428571428,0.7857142857142856,0.5350915750915751
1.9125992830013274,1.1628571428571428,0.7857142857142856,0.5350915750915751
1.9127865609989385,1.1628571428571428,0.7857142857142856,0.5350915750915751
1.9174684989993693,1.1628571428571428,0.7857142857142856,0.5350915750915751
1.9177482079976471,1.1628571428571428,0.7857142857142856,0.5350915750915751
1.9224407029978465,0.6567765567765567,0.42388278388278383,0.026593406593406595
1.9226694749959279,1.6463736263736264,0.8389010989010988,0.39809523809523806
1.9273622879991308,1.6463736263736264,0.8389010989010988,0.39809523809523806
1.9275042799999937,1.6463736263736264,0.8389010989010988,0.39809523809523806
1.932228612000472,1.6463736263736264,0.8389010989010988,0.39809523809523806
1.9323416529950919,1.6463736263736264,0.8389010989010988,0.39809523809523806
1.9371613479961525,1.6463736263736264,0.8389010989010988,0.39809523809523806
1.9375034190015867,1.6463736263736264,0.8389010989010988,0.39809523809523806
1.9422814059944358,1.6463736263736264,0.8389010989010988,0.39809523809523806
1.9423924430011539,1.6463736263736264,0.8389010989010988,0.39809523809523806
1.9471370609971927,1.6463736263736264,0.8389010989010988,0.39809523809523806
1.94731824399787,1.6463736263736264,0.8389010989010988,0.39809523809523806
1.952122694994614,1.6463736263736264,0.8389010989010988,0.39809523809523806
1.9568889759975718,1.6463736263736264,0.8389010989010988,0.39809523809523806
1.957215014997928,1.6463736263736264,0.8389010989010988,0.39809523809523806
1.9619856700010132,1.6463736263736264,0.8389010989010988,0.39809523809523806
1.9621088489948306,1.6463736263736264,0.8389010989010988,0.39809523809523806
1.9668208129951381,1.6463736263736264,0.8389010989010988,0.39809523809523806
1.9670424419964547,2.723003663003663,1.394139194139194,1.2313553113553113
1.9718136949959444,2.723003663003663,1.394139194139194,1.2313553113553113
1.9719126720010536,2.723003663003663,1.394139194139194,1.2313553113553113
1.9760615909981425,1.494871794871795,1.3063003663003663,1.2337728937728938
1.978884926000319,1.494871794871795,1.3063003663003663,1.2337728937728938
1.9823621440009447,1.494871794871795,1.3063003663003663,1.2337728937728938
1.9826235289947363,1.494871794871795,1.3063003663003663,1.2337728937728938
1.9873737050002092,1.494871794871795,1.3063003663003663,1.2337728937728938
1.9875087779946625,1.494871794871795,1.3063003663003663,1.2337728937728938
1.9922366739992867,1.494871794871795,1.3063003663003663,1.2337728937728938
1.992373105000297,1.494871794871795,1.3063003663003663,1.2337728937728938
1.9974281409959076,1.494871794871795,1.3063003663003663,1.2337728937728938
2.0013851659969077,1.494871794871795,1.3063003663003663,1.2337728937728938
2.0052521839970723,1.494871794871795,1.3063003663003663,1.2337728937728938
2.009120325994445,1.494871794871795,1.3063003663003663,1.2337728937728938
2.013011422001,1.494871794871795,1.3063003663003663,1.2337728937728938
2.0175329679987044,1.7438827838827837,1.4013919413919413,1.1201465201465202
2.017818266998802,1.7438827838827837,1.4013919413919413,1.1201465201465202
2.022128035001515,1.7438827838827837,1.4013919413919413,1.1201465201465202
2.024315741000464,1.7438827838827837,1.4013919413919413,1.1201465201465202
2.025189952997607,0.8880586080586079,0.2627106227106227,0.4432234432234432
2.0266421569976956,0.8880586080586079,0.2627106227106227,0.4432234432234432
2.0307952989969635,0.8880586080586079,0.2627106227106227,0.4432234432234432
2.033631111997238,0.8880586080586079,0.2627106227106227,0.4432234432234432
2.03780551199452,0.8880586080586079,0.2627106227106227,0.4432234432234432
2.0406494310009293,0.8880586080586079,0.2627106227106227,0.4432234432234432
2.0447595989971887,0.8880586080586079,0.2627106227106227,0.4432234432234432
2.047621755998989,0.8880586080586079,0.2627106227106227,0.4432234432234432
2.051134944995283,0.8880586080586079,0.2627106227106227,0.4432234432234432
2.0514135049961624,0.8880586080586079,0.2627106227106227,0.4432234432234432
2.056196726996859,0.8880586080586079,0.2627106227106227,0.4432234432234432
2.0563117089986918,0.8880586080586079,0.2627106227106227,0.4432234432234432
2.0611039099967456,0.8880586080586079,0.2627106227106227,0.4432234432234432
2.061230301995238,1.6834432234432233,0.8759706959706959,0.0709157509157509
2.065981990999717,1.6834432234432233,0.8759706959706959,0.0709157509157509
2.0662045019998914,1.6834432234432233,0.8759706959706959,0.0709157509157509
2.0710447739984374,1.6834432234432233,0.8759706959706959,0.0709157509157509
2.075756370999443,1.6834432234432233,0.8759706959706959,0.0709157509157509
2.0760024519986473,1.6834432234432233,0.8759706959706959,0.0709157509157509
2.0808479830011493,1.6834432234432233,0.8759706959706959,0.0709157509157509
2.0809652089956217,0.8638827838827838,0.6487179487179486,0.5939194139194138
2.0856622559949756,0.8638827838827838,0.6487179487179486,0.5939194139194138
2.08589533099439,0.9388278388278387,0.1652014652014652,0.5632967032967032
2.090748155998881,0.9388278388278387,0.1652014652014652,0.5632967032967032
2.0948538439988624,0.9388278388278387,0.1652014652014652,0.5632967032967032
2.097913391997281,0.9388278388278387,0.1652014652014652,0.5632967032967032
2.1002556839957833,0.8896703296703296,0.43355311355311354,0.07655677655677656
2.1004981949954526,0.8896703296703296,0.43355311355311354,0.07655677655677656
2.1055912079973496,0.8896703296703296,0.43355311355311354,0.07655677655677656
2.1093500790011603,0.8896703296703296,0.43355311355311354,0.07655677655677656
2.1148351230003755,0.8896703296703296,0.43355311355311354,0.07655677655677656
2.1163454799971078,2.2443223443223443,1.5246886446886447,1.9050549450549448
2.120103367997217,2.2443223443223443,1.5246886446886447,1.9050549450549448
2.124865323996346,2.2443223443223443,1.5246886446886447,1.9050549450549448
2.130260238998744,0.9839560439560439,0.19985347985347984,0.5552380952380952
2.1325100709946128,0.9839560439560439,0.19985347985347984,0.5552380952380952
2.132805772998836,0.9839560439560439,0.19985347985347984,0.5552380952380952
2.13800129199808,0.9839560439560439,0.19985347985347984,0.5552380952380952
2.1419636200007517,0.9839560439560439,0.19985347985347984,0.5552380952380952
2.1450850519977394,0.9839560439560439,0.19985347985347984,0.5552380952380952
2.1473340390002704,0.9839560439560439,0.19985347985347984,0.5552380952380952
2.147682505994453,2.9567032967032967,1.846227106227106,2.760879120879121
2.1522785919951275,2.9567032967032967,1.846227106227106,2.760879120879121
2.1526263900013873,2.9567032967032967,1.846227106227106,2.760879120879121
2.157313088995579,2.9567032967032967,1.846227106227106,2.760879120879121
2.157522497996979,1.5464468864468863,1.1435164835164835,1.4868131868131869
2.162350218000938,1.5464468864468863,1.1435164835164835,1.4868131868131869
2.1671557890003896,1.5464468864468863,1.1435164835164835,1.4868131868131869
2.172664131001511,1.5464468864468863,1.1435164835164835,1.4868131868131869
2.1743153930001426,1.5464468864468863,1.1435164835164835,1.4868131868131869
2.1781659019979998,1.5464468864468863,1.1435164835164835,1.4868131868131869
2.182037787999434,0.5495970695970696,0.49560439560439556,0.8534065934065934
2.186636786995223,0.5495970695970696,0.49560439560439556,0.8534065934065934
2.1868705870001577,0.5495970695970696,0.49560439560439556,0.8534065934065934
2.1916293999966,0.5495970695970696,0.49560439560439556,0.8534065934065934
2.191897071999847,0.5495970695970696,0.49560439560439556,0.8534065934065934
2.1972403729960206,0.5495970695970696,0.49560439560439556,0.8534065934065934
2.198847776999173,0.5495970695970696,0.49560439560439556,0.8534065934065934
2.2032735909961048,0.8131135531135532,0.38278388278388276,0.10637362637362638
2.203582884998468,0.8131135531135532,0.38278388278388276,0.10637362637362638
2.20868732699455,0.8131135531135532,0.38278388278388276,0.10637362637362638
2.212552067001525,0.8131135531135532,0.38278388278388276,0.10637362637362638
2.2177303680000477,0.8131135531135532,0.38278388278388276,0.10637362637362638
2.2206912440015003,0.8131135531135532,0.38278388278388276,0.10637362637362638
2.223019574994396,0.8131135531135532,0.38278388278388276,0.10637362637362638
2.223291452995909,0.8131135531135532,0.38278388278388276,0.10637362637362638
2.2284925159983686,0.8131135531135532,0.38278388278388276,0.10637362637362638
2.2316095649948693,2.723003663003663,1.9187545787545788,2.710915750915751
2.233150009997189,1.1241758241758242,1.3014652014652013,1.9308424908424908
2.236998786996992,1.1241758241758242,1.3014652014652013,1.9308424908424908
2.2415450970001984,1.1241758241758242,1.3014652014652013,1.9308424908424908
2.241842101997463,1.1241758241758242,1.3014652014652013,1.9308424908424908
2.2462908899979084,1.1241758241758242,1.3014652014652013,1.9308424908424908
2.247818705996906,0.8284249084249083,0.24014652014652016,0.5649084249084249
2.253241510996304,0.8284249084249083,0.24014652014652016,0.5649084249084249
2.2555318779996014,1.5464468864468863,1.2563369963369961,1.3465934065934064
2.2557390419970034,0.6454945054945055,0.6019780219780219,0.14908424908424908
2.2611103980016196,0.6454945054945055,0.6019780219780219,0.14908424908424908
2.2635123699947144,0.6454945054945055,0.6019780219780219,0.14908424908424908
2.2636655589958536,0.6454945054945055,0.6019780219780219,0.14908424908424908
2.268859814001189,0.6454945054945055,0.6019780219780219,0.14908424908424908
2.2727439399968716,0.6454945054945055,0.6019780219780219,0.14908424908424908
2.277288025994494,0.4005128205128205,1.112893772893773,1.4465201465201465
2.2775659639955848,0.4005128205128205,1.112893772893773,1.4465201465201465
2.2822359109995887,0.4005128205128205,1.112893772893773,1.4465201465201465
2.2823998349995236,0.4005128205128205,1.112893772893773,1.4465201465201465
2.2880236669952865,0.4005128205128205,1.112893772893773,1.4465201465201465
2.2882873529961216,1.2756776556776557,0.6164835164835165,0.11604395604395604
2.2938352019991726,1.2756776556776557,0.6164835164835165,0.11604395604395604
2.2954818649959634,1.8172161172161172,1.282930402930403,1.2104029304029302
2.2987120319958194,1.8172161172161172,1.282930402930403,1.2104029304029302
2.3002903859960497,1.8172161172161172,1.282930402930403,1.2104029304029302
2.304248232001555,1.8172161172161172,1.282930402930403,1.2104029304029302
2.3081036579969805,1.8172161172161172,1.282930402930403,1.2104029304029302
2.312503608998668,1.8172161172161172,1.282930402930403,1.2104029304029302
2.314203791000182,1.5528937728937728,1.3457875457875457,1.6544322344322344
2.3172112519969232,1.5528937728937728,1.3457875457875457,1.6544322344322344
2.3204410929974983,1.5528937728937728,1.3457875457875457,1.6544322344322344
2.3220034599944483,1.5528937728937728,1.3457875457875457,1.6544322344322344
2.3258305689960252,1.3264468864468864,0.1402197802197802,0.8284249084249083
2.3304008319973946,1.3264468864468864,0.1402197802197802,0.8284249084249083
2.331276587996399,1.3264468864468864,0.1402197802197802,0.8284249084249083
2.332219404997886,1.3264468864468864,0.1402197802197802,0.8284249084249083
2.3337963509984547,1.3264468864468864,0.1402197802197802,0.8284249084249083
2.337700345000485,1.3264468864468864,0.1402197802197802,0.8284249084249083
2.341571411998302,1.3264468864468864,0.1402197802197802,0.8284249084249083
2.346029237996845,1.3264468864468864,0.1402197802197802,0.8284249084249083
2.3468985539948335,1.3264468864468864,0.1402197802197802,0.8284249084249083
2.3484548720007297,1.3264468864468864,0.1402197802197802,0.8284249084249083
2.3527989639987936,1.3264468864468864,0.1402197802197802,0.8284249084249083
2.354525502996694,1.3264468864468864,0.1402197802197802,0.8284249084249083
2.3584478839984513,2.1476190476190475,1.5722344322344322,2.04043956043956
2.362919603001501,0.8824175824175824,0.5149450549450549,0.07655677655677656
2.3638074199989205,0.8824175824175824,0.5149450549450549,0.07655677655677656
2.365371266998409,0.8824175824175824,0.5149450549450549,0.07655677655677656
2.3699683679951704,0.8824175824175824,0.5149450549450549,0.07655677655677656
2.3703358950006077,0.8824175824175824,0.5149450549450549,0.07655677655677656
2.374965972994687,0.8824175824175824,0.5149450549450549,0.07655677655677656
2.3757655389999854,0.8824175824175824,0.5149450549450549,0.07655677655677656
2.3780041559948586,0.8824175824175824,0.5149450549450549,0.07655677655677656
2.378255525996792,0.8824175824175824,0.5149450549450549,0.07655677655677656
2.3835450539991143,0.8824175824175824,0.5149450549450549,0.07655677655677656
2.3866990050009917,0.8824175824175824,0.5149450549450549,0.07655677655677656
2.389076859995839,0.8824175824175824,0.5149450549450549,0.07655677655677656
2.389238095995097,0.8824175824175824,0.5149450549450549,0.07655677655677656
2.3945310069975676,0.8824175824175824,0.5149450549450549,0.07655677655677656
2.3977779159977217,0.8582417582417583,0.5826373626373627,0.42952380952380953
2.3987099549995037,0.9662271062271062,0.6374358974358975,0.9992673992673992
2.4003704360002303,0.9662271062271062,0.6374358974358975,0.9992673992673992
2.4035634309984744,0.9662271062271062,0.6374358974358975,0.9992673992673992
2.4059469849962625,0.9662271062271062,0.6374358974358975,0.9992673992673992
2.406219261996739,0.9662271062271062,0.6374358974358975,0.9992673992673992
2.4114854449944687,0.9662271062271062,0.6374358974358975,0.9992673992673992
2.413723637997464,0.9662271062271062,0.6374358974358975,0.9992673992673992
2.4145222840015776,0.9662271062271062,0.6374358974358975,0.9992673992673992
2.4166526010012603,0.9662271062271062,0.6374358974358975,0.9992673992673992
2.4174672230001306,0.9662271062271062,0.6374358974358975,0.9992673992673992
2.419588268996449,0.9662271062271062,0.6374358974358975,0.9992673992673992
2.420462285997928,2.473186813186813,1.2627838827838826,0.1555311355311355
2.422537108999677,1.6616849816849815,0.7002930402930403,0.7325274725274724
2.424001950996171,1.6616849816849815,0.7002930402930403,0.7325274725274724
2.428204577998258,1.6616849816849815,0.7002930402930403,0.7325274725274724
2.43154879299982,1.6616849816849815,0.7002930402930403,0.7325274725274724
2.431842815996788,2.2362637362637363,1.1684981684981686,1.0476190476190474
2.436440836994734,2.2362637362637363,1.1684981684981686,1.0476190476190474
2.4372754939977312,2.2362637362637363,1.1684981684981686,1.0476190476190474
2.438834736996796,2.2362637362637363,1.1684981684981686,1.0476190476190474
2.442528059000324,2.2362637362637363,1.1684981684981686,1.0476190476190474
2.4474842240015278,2.2362637362637363,1.1684981684981686,1.0476190476190474
2.453072883996356,2.2362637362637363,1.1684981684981686,1.0476190476190474
2.453322326997295,2.3168498168498166,1.2063736263736262,0.7881318681318681
2.4581467780008097,2.3168498168498166,1.2063736263736262,0.7881318681318681
2.4582486930012237,2.3168498168498166,1.2063736263736262,0.7881318681318681
2.463215889998537,2.3168498168498166,1.2063736263736262,0.7881318681318681
2.4671053029960603,2.3168498168498166,1.2063736263736262,0.7881318681318681
2.4710166579970974,2.3168498168498166,1.2063736263736262,0.7881318681318681
2.4755713669947,0.4786813186813187,1.1499633699633698,1.4932600732600732
2.476417803998629,0.4786813186813187,1.1499633699633698,1.4932600732600732
2.478195436997339,0.4786813186813187,1.1499633699633698,1.4932600732600732
2.4806793539974024,0.4786813186813187,1.1499633699633698,1.4932600732600732
2.4808354429987958,2.1605128205128206,1.0572893772893772,0.2602930402930403
2.4852581000013743,2.1605128205128206,1.0572893772893772,0.2602930402930403
2.4861220929960837,2.1605128205128206,1.0572893772893772,0.2602930402930403
2.487715521994687,2.1605128205128206,1.0572893772893772,0.2602930402930403
2.4921867519951775,2.1605128205128206,1.0572893772893772,0.2602930402930403
2.4925123909997637,2.1605128205128206,1.0572893772893772,0.2602930402930403
2.498024649998115,2.1605128205128206,1.0572893772893772,0.2602930402930403
2.499028846999863,2.1605128205128206,1.0572893772893772,0.2602930402930403
2.499343871997553,2.4353113553113555,1.216849816849817,0.16358974358974357
2.504937815996527,2.4353113553113555,1.216849816849817,0.16358974358974357
2.505833265997353,2.4353113553113555,1.216849816849817,0.16358974358974357
2.5068154979962856,2.4353113553113555,1.216849816849817,0.16358974358974357
2.507767254995997,2.4353113553113555,1.216849816849817,0.16358974358974357
2.5093062659943826,1.2047619047619047,0.5802197802197803,0.25868131868131866
2.513082111996482,1.2047619047619047,0.5802197802197803,0.25868131868131866
2.518313718996069,0.2594871794871795,0.8590476190476191,1.2386080586080586
2.520965345996956,0.2594871794871795,0.8590476190476191,1.2386080586080586
2.5255706819953048,0.2594871794871795,0.8590476190476191,1.2386080586080586
2.5264004199998453,0.2594871794871795,0.8590476190476191,1.2386080586080586
2.527933879995544,0.2594871794871795,0.8590476190476191,1.2386080586080586
2.531812859000638,0.2594871794871795,0.8590476190476191,1.2386080586080586
2.5370994760014582,1.2668131868131869,0.7293040293040293,0.61003663003663
2.539508797999588,1.1225641025641024,0.8904761904761904,1.0097435897435898
2.5396575829945505,1.1225641025641024,0.8904761904761904,1.0097435897435898
2.5443937669988372,1.1225641025641024,0.8904761904761904,1.0097435897435898
2.54465282199817,1.2998534798534798,0.17567765567765567,0.954945054945055
2.550040625996189,1.2998534798534798,0.17567765567765567,0.954945054945055
2.550952942998265,0.8703296703296703,0.469010989010989,0.2594871794871795
2.552547016995959,0.8703296703296703,0.469010989010989,0.2594871794871795
2.55671197999618,0.8703296703296703,0.469010989010989,0.2594871794871795
2.559529076999752,0.8703296703296703,0.469010989010989,0.2594871794871795
2.5635182350015384,0.8703296703296703,0.469010989010989,0.2594871794871795
2.5675132629985455,1.5593406593406591,0.10798534798534798,1.162051282051282
2.5713501290010754,1.5593406593406591,0.10798534798534798,1.162051282051282
2.575805987995409,1.5593406593406591,0.10798534798534798,1.162051282051282
2.5767242919973796,1.8889377289377287,1.4723076923076923,1.9106959706959707
2.578447239000525,1.8889377289377287,1.4723076923076923,1.9106959706959707
2.5814926819948596,1.8889377289377287,1.4723076923076923,1.9106959706959707
2.5837817009960418,1.8889377289377287,1.4723076923076923,1.9106959706959707
2.583991125000466,1.8889377289377287,1.4723076923076923,1.9106959706959707
2.5886335839968524,1.8889377289377287,1.4723076923076923,1.9106959706959707
2.589483787996869,1.8889377289377287,1.4723076923076923,1.9106959706959707
2.591232585000398,1.8889377289377287,1.4723076923076923,1.9106959706959707
2.594349096994847,1.8889377289377287,1.4723076923076923,1.9106959706959707
2.5959369970005355,1.8889377289377287,1.4723076923076923,1.9106959706959707
2.599804801000573,1.8889377289377287,1.4723076923076923,1.9106959706959707
2.604452098996262,1.5931868131868132,0.9686446886446887,0.15472527472527473
2.6047526889960864,1.016190476190476,0.15956043956043955,0.8598534798534798
2.6094380949944025,2.3619780219780218,1.814798534798535,3.3
2.609569708998606,2.3619780219780218,1.814798534798535,3.3
2.614219670998864,2.3619780219780218,1.814798534798535,3.3
2.6144013730008737,2.3619780219780218,1.814798534798535,3.3
2.620119437997346,2.3619780219780218,1.814798534798535,3.3
2.6203014950006036,2.3619780219780218,1.814798534798535,3.3
2.625058423000155,2.3619780219780218,1.814798534798535,3.3
2.6252272029960295,2.3619780219780218,1.814798534798535,3.3
2.6301112009969074,2.3619780219780218,1.814798534798535,3.3
2.63490950299456,2.3619780219780218,1.814798534798535,3.3
2.63517279199732,2.3619780219780218,1.814798534798535,3.3
2.6398149320011726,2.3619780219780218,1.814798534798535,3.3
2.6400953420015867,2.3619780219780218,1.814798534798535,3.3
2.644594933000917,2.3619780219780218,1.814798534798535,3.3
2.6461324179981602,0.917069597069597,0.2232234432234432,0.6591941391941392
2.6506655419943854,0.917069597069597,0.2232234432234432,0.6591941391941392
2.6514760439968086,0.917069597069597,0.2232234432234432,0.6591941391941392
2.6530827329988824,0.917069597069597,0.2232234432234432,0.6591941391941392
2.656871738996415,0.917069597069597,0.2232234432234432,0.6591941391941392
2.662449942996318,0.9436630036630036,0.6865934065934066,1.0468131868131867
2.664007131999824,1.1805860805860806,0.25868131868131866,0.7172161172161172
2.6678055759985,0.7542857142857142,0.22805860805860806,0.6833699633699634
2.6731330920010805,0.8566300366300367,0.5318681318681319,0.09106227106227105
2.6754487729995162,0.8566300366300367,0.5318681318681319,0.09106227106227105
2.6762666889990214,0.8566300366300367,0.5318681318681319,0.09106227106227105
2.6778166649964987,0.8566300366300367,0.5318681318681319,0.09106227106227105
2.6830809239982045,0.8566300366300367,0.5318681318681319,0.09106227106227105
2.6860245860007126,0.8566300366300367,0.5318681318681319,0.09106227106227105
2.6890918599965516,0.8566300366300367,0.5318681318681319,0.09106227106227105
2.69143285699829,0.8566300366300367,0.5318681318681319,0.09106227106227105
2.6923479289980605,0.8566300366300367,0.5318681318681319,0.09106227106227105
2.6932388529967284,0.8566300366300367,0.5318681318681319,0.09106227106227105
2.6947680009980104,0.8566300366300367,0.5318681318681319,0.09106227106227105
2.699302458000602,0.8566300366300367,0.5318681318681319,0.09106227106227105
2.6996583009968163,1.1201465201465202,0.8276190476190476,1.6189743589743588
2.704476238999632,1.1201465201465202,0.8276190476190476,1.6189743589743588
2.7101050909986952,1.1201465201465202,0.8276190476190476,1.6189743589743588
2.7110160969969,1.1201465201465202,0.8276190476190476,1.6189743589743588
2.712552742996195,1.1201465201465202,0.8276190476190476,1.6189743589743588
2.717066878998594,1.1201465201465202,0.8276190476190476,1.6189743589743588
2.7172936770002707,1.1201465201465202,0.8276190476190476,1.6189743589743588
2.72209339300025,1.1201465201465202,0.8276190476190476,1.6189743589743588
2.722231211999315,1.1201465201465202,0.8276190476190476,1.6189743589743588
2.7271291770011885,1.1201465201465202,0.8276190476190476,1.6189743589743588
2.7328280239962623,1.1201465201465202,0.8276190476190476,1.6189743589743588
2.7329991279984824,1.1201465201465202,0.8276190476190476,1.6189743589743588
2.7384045849976246,1.1201465201465202,0.8276190476190476,1.6189743589743588
2.7409678129988606,1.1201465201465202,0.8276190476190476,1.6189743589743588
2.745438681995438,1.1201465201465202,0.8276190476190476,1.6189743589743588
2.7462793679951574,1.1201465201465202,0.8276190476190476,1.6189743589743588
2.747835916998156,1.1201465201465202,0.8276190476190476,1.6189743589743588
2.752241794994916,2.0734798534798533,1.1306227106227105,1.7873992673992671
2.753066615994612,0.6164835164835165,1.145128205128205,2.0646153846153843
2.7546233129978646,0.6164835164835165,1.145128205128205,2.0646153846153843
2.7590376759981154,0.6164835164835165,1.145128205128205,2.0646153846153843
2.7593560819950653,0.6164835164835165,1.145128205128205,2.0646153846153843
2.764593952000723,0.6164835164835165,1.145128205128205,2.0646153846153843
2.7675717909951345,0.6801465201465201,0.224029304029304,0.6253479853479853
2.770635273998778,0.6801465201465201,0.224029304029304,0.6253479853479853
2.7729916629978106,2.234652014652015,1.3014652014652013,0.755091575091575
2.7731920169972,2.234652014652015,1.3014652014652013,0.755091575091575
2.7784132249944378,2.234652014652015,1.3014652014652013,0.755091575091575
2.782467569995788,2.234652014652015,1.3014652014652013,0.755091575091575
2.790785594996123,2.234652014652015,1.3014652014652013,0.755091575091575
2.7945296420002705,2.234652014652015,1.3014652014652013,0.755091575091575
2.800017912995827,1.1378754578754577,1.328058608058608,2.103296703296703
2.801592821997474,1.1378754578754577,1.328058608058608,2.103296703296703
2.8059434159949888,1.1378754578754577,1.328058608058608,2.103296703296703
2.806851392000681,1.1378754578754577,1.328058608058608,2.103296703296703
2.8084385839974857,1.1378754578754577,1.328058608058608,2.103296703296703
2.812171318997571,1.1378754578754577,1.328058608058608,2.103296703296703
2.818135297995468,1.1378754578754577,1.328058608058608,2.103296703296703
2.8257707779994234,1.1378754578754577,1.328058608058608,2.103296703296703
2.832412297000701,0.9452747252747251,0.18776556776556774,0.7397802197802198
2.8356554649944883,0.9452747252747251,0.18776556776556774,0.7397802197802198
2.836985244997777,0.9452747252747251,0.18776556776556774,0.7397802197802198
2.8449883069988573,0.9452747252747251,0.18776556776556774,0.7397802197802198
2.851212180998118,0.9452747252747251,0.18776556776556774,0.7397802197802198
2.8580309889948694,0.9452747252747251,0.18776556776556774,0.7397802197802198
2.8624420289997943,0.9452747252747251,0.18776556776556774,0.7397802197802198
2.8637812659944757,0.9452747252747251,0.18776556776556774,0.7397802197802198
2.872236792994954,0.9452747252747251,0.18776556776556774,0.7397802197802198
2.8804417159990408,2.3506959706959707,1.199120879120879,1.4956776556776556
2.8877036689955276,2.3506959706959707,1.199120879120879,1.4956776556776556
2.8936434459974407,2.3506959706959707,1.199120879120879,1.4956776556776556
2.896833417995367,2.3506959706959707,1.199120879120879,1.4956776556776556
2.898479593000957,2.3506959706959707,1.199120879120879,1.4956776556776556
2.902308267999615,2.3506959706959707,1.199120879120879,1.4956776556776556
2.909017533995211,2.3506959706959707,1.199120879120879,1.4956776556776556
2.912968507996993,2.3506959706959707,1.199120879120879,1.4956776556776556
2.917862536996836,2.3506959706959707,1.199120879120879,1.4956776556776556
2.9242397979978705,2.3506959706959707,1.199120879120879,1.4956776556776556
2.9274456079947413,1.5496703296703296,0.7792673992673992,0.166007326007326
2.9290552669990575,1.5496703296703296,0.7792673992673992,0.166007326007326
2.9329346279992023,1.5496703296703296,0.7792673992673992,0.166007326007326
2.938147877001029,1.5496703296703296,0.7792673992673992,0.166007326007326
2.9413989149979898,0.33604395604395604,0.3843956043956044,0.2772161172161172
2.9416705809999257,0.33604395604395604,0.3843956043956044,0.2772161172161172
2.9461472229959327,0.33604395604395604,0.3843956043956044,0.2772161172161172
2.9477467719989363,0.7728205128205128,0.15794871794871795,0.45369963369963373
2.953819668997312,0.7728205128205128,0.15794871794871795,0.45369963369963373
2.9592951410013484,1.6447619047619046,0.8646886446886447,0.7325274725274724
2.9594070890016155,1.6447619047619046,0.8646886446886447,0.7325274725274724
2.964710346001084,1.6447619047619046,0.8646886446886447,0.7325274725274724
2.9676769209982012,2.0267399267399266,1.6810256410256408,2.46029304029304
2.970970736001618,2.0267399267399266,1.6810256410256408,2.46029304029304
2.9712887619971298,2.0267399267399266,1.6810256410256408,2.46029304029304
2.9767782619965146,2.0267399267399266,1.6810256410256408,2.46029304029304
2.9775920329993824,2.0267399267399266,1.6810256410256408,2.46029304029304
2.9791766479975195,2.0267399267399266,1.6810256410256408,2.46029304029304
2.982986600000004,1.7608058608058608,0.8630769230769231,0.5278388278388277
2.9883266019969597,1.7608058608058608,0.8630769230769231,0.5278388278388277
2.9910788950001006,1.7608058608058608,0.8630769230769231,0.5278388278388277
2.9942198599965195,1.7608058608058608,0.8630769230769231,0.5278388278388277
2.995822623001004,1.7608058608058608,0.8630769230769231,0.5278388278388277
3.0003458999999566,1.7608058608058608,0.8630769230769231,0.5278388278388277
3.0006536139990203,1.7608058608058608,0.8630769230769231,0.5278388278388277
3.0093352809999487,1.7608058608058608,0.8630769230769231,0.5278388278388277
3.016018460999476,1.7608058608058608,0.8630769230769231,0.5278388278388277
3.0212994100002106,1.7608058608058608,0.8630769230769231,0.5278388278388277
3.0231957259966293,1.7608058608058608,0.8630769230769231,0.5278388278388277
3.0249479279955267,1.7608058608058608,0.8630769230769231,0.5278388278388277
3.0279475809948053,1.7608058608058608,0.8630769230769231,0.5278388278388277
3.030266034998931,1.7608058608058608,0.8630769230769231,0.5278388278388277
3.0305677079959423,1.7608058608058608,0.8630769230769231,0.5278388278388277
3.0355925420008134,1.7608058608058608,0.8630769230769231,0.5278388278388277
3.044056072998501,1.7608058608058608,0.8630769230769231,0.5278388278388277
3.0498934839997673,1.7608058608058608,0.8630769230769231,0.5278388278388277
3.0595465199949103,0.8268131868131867,0.4899633699633699,0.1112087912087912
3.0642939249955816,0.8268131868131867,0.4899633699633699,0.1112087912087912
3.0721181400003843,0.8268131868131867,0.4899633699633699,0.1112087912087912
3.0794687119996524,1.950989010989011,1.0266666666666666,1.6504029304029304
3.0847906519993558,1.950989010989011,1.0266666666666666,1.6504029304029304
3.085024196996528,1.950989010989011,1.0266666666666666,1.6504029304029304
3.0920536589983385,1.950989010989011,1.0266666666666666,1.6504029304029304
3.097596280997095,1.950989010989011,1.0266666666666666,1.6504029304029304
3.0978408269947977,0.7816849816849816,0.5745787545787545,1.141098901098901
3.1040704469996854,0.7816849816849816,0.5745787545787545,1.141098901098901
3.1091083950013854,0.8799999999999999,0.17245421245421244,0.6769230769230768
3.1117056279981625,0.8799999999999999,0.17245421245421244,0.6769230769230768
3.1172716859946377,0.8799999999999999,0.17245421245421244,0.6769230769230768
3.118854451997322,0.8799999999999999,0.17245421245421244,0.6769230769230768
3.126208146000863,0.8799999999999999,0.17245421245421244,0.6769230769230768
3.1303905979948468,0.8799999999999999,0.17245421245421244,0.6769230769230768
3.1328196589965955,0.8799999999999999,0.17245421245421244,0.6769230769230768
3.1330498780007474,0.8799999999999999,0.17245421245421244,0.6769230769230768
3.140384794998681,1.6455677655677654,1.498095238095238,2.8616117216117214
3.1437606109975604,1.6455677655677654,1.498095238095238,2.8616117216117214
3.143998654995812,1.6455677655677654,1.498095238095238,2.8616117216117214
3.1485777540001436,1.6455677655677654,1.498095238095238,2.8616117216117214
3.148875330996816,1.6455677655677654,1.498095238095238,2.8616117216117214
3.1541118069944787,1.6455677655677654,1.498095238095238,2.8616117216117214
3.158538577998115,1.378021978021978,1.236996336996337,1.7084249084249086
3.164036935995682,1.378021978021978,1.236996336996337,1.7084249084249086
3.165047180998954,1.378021978021978,1.236996336996337,1.7084249084249086
3.1658999680003035,1.378021978021978,1.236996336996337,1.7084249084249086
3.167573368999001,1.378021978021978,1.236996336996337,1.7084249084249086
3.174281034996966,1.378021978021978,1.236996336996337,1.7084249084249086
3.1775199999974575,1.378021978021978,1.236996336996337,1.7084249084249086
3.179139795996889,0.90014652014652,0.8034432234432234,1.656043956043956
3.1837600079961703,0.90014652014652,0.8034432234432234,1.656043956043956
3.183917782000208,0.90014652014652,0.8034432234432234,1.656043956043956
3.1929516379968845,0.90014652014652,0.8034432234432234,1.656043956043956
3.198588107996329,0.90014652014652,0.8034432234432234,1.656043956043956
3.198813461996906,1.1362637362637362,0.585054945054945,0.13054945054945052
3.207891379999637,1.1362637362637362,0.585054945054945,0.13054945054945052
3.2117216589977033,1.1362637362637362,0.585054945054945,0.13054945054945052
3.2172826629976043,1.1362637362637362,0.585054945054945,0.13054945054945052
3.2176671829947736,1.1362637362637362,0.585054945054945,0.13054945054945052
3.223792473996582,0.6487179487179486,0.34007326007326005,0.17487179487179486
3.227519503001531,0.6487179487179486,0.34007326007326005,0.17487179487179486
3.2320975249967887,0.6487179487179486,0.34007326007326005,0.17487179487179486
3.2329776830010815,0.6487179487179486,0.34007326007326005,0.17487179487179486
3.2345893179954146,0.6487179487179486,0.34007326007326005,0.17487179487179486
3.2407407279970357,0.6487179487179486,0.34007326007326005,0.17487179487179486
3.243844935997913,0.6487179487179486,0.34007326007326005,0.17487179487179486
3.24611941799958,0.6487179487179486,0.34007326007326005,0.17487179487179486
3.246344642000622,0.6487179487179486,0.34007326007326005,0.17487179487179486
3.2516336599946953,0.6487179487179486,0.34007326007326005,0.17487179487179486
3.2551506780000636,0.6487179487179486,0.34007326007326005,0.17487179487179486
3.2553418269963004,1.0597069597069597,0.9783150183150182,1.6979487179487176
3.2604945540006156,1.0597069597069597,0.9783150183150182,1.6979487179487176
3.2641530639957637,0.5995604395604395,0.3618315018315018,0.09106227106227105
3.2696737559963367,1.2039560439560437,1.1112820512820514,2.1403663003663005
3.2721727449970786,1.2039560439560437,1.1112820512820514,2.1403663003663005
3.2785067609947873,1.2039560439560437,1.1112820512820514,2.1403663003663005
3.283794532995671,1.2039560439560437,1.1112820512820514,2.1403663003663005
3.2874075090003316,0.506080586080586,0.18695970695970696,0.3892307692307692
3.294474413996795,0.506080586080586,0.18695970695970696,0.3892307692307692
3.2989429109948105,0.506080586080586,0.18695970695970696,0.3892307692307692
3.2991867379969335,0.506080586080586,0.18695970695970696,0.3892307692307692
3.304467174995807,2.465128205128205,1.1983150183150182,0.34087912087912087
3.30763333899813,0.7687912087912088,0.12893772893772892,0.4996336996336996
3.309184498000832,0.7687912087912088,0.12893772893772892,0.4996336996336996
3.313171699999657,0.7027106227106227,0.5423443223443223,0.07333333333333333
3.3168717559965444,0.7027106227106227,0.5423443223443223,0.07333333333333333
3.32512868399499,0.7027106227106227,0.5423443223443223,0.07333333333333333
3.3328783010001644,2.01062271062271,1.0637362637362637,0.3158974358974359
3.340311539999675,2.01062271062271,1.0637362637362637,0.3158974358974359
3.343854127000668,0.4762637362637362,0.5286446886446886,0.9638095238095238
3.3440544249970117,0.4762637362637362,0.5286446886446886,0.9638095238095238
3.348649175000901,0.4762637362637362,0.5286446886446886,0.9638095238095238
3.3489180079996004,0.4762637362637362,0.5286446886446886,0.9638095238095238
3.3564843679996557,0.4762637362637362,0.5286446886446886,0.9638095238095238
3.3597642479944625,0.4762637362637362,0.5286446886446886,0.9638095238095238
3.3606694279951626,0.4762637362637362,0.5286446886446886,0.9638095238095238
3.3622826719947625,0.4762637362637362,0.5286446886446886,0.9638095238095238
3.3663142629957292,0.4762637362637362,0.5286446886446886,0.9638095238095238
3.3714486229946488,0.4762637362637362,0.5286446886446886,0.9638095238095238
3.3750385969979106,2.2362637362637363,0.9855677655677655,0.7035164835164834
3.379968622997694,2.2362637362637363,0.9855677655677655,0.7035164835164834
3.3848778109968407,2.2362637362637363,0.9855677655677655,0.7035164835164834
3.391541885001061,2.2362637362637363,0.9855677655677655,0.7035164835164834
3.3955826399978832,1.2579487179487179,0.7841025641025641,0.5358974358974359
3.398771337000653,1.2579487179487179,0.7841025641025641,0.5358974358974359
3.400422263999644,1.2579487179487179,0.7841025641025641,0.5358974358974359
3.403613686998142,1.2579487179487179,0.7841025641025641,0.5358974358974359
3.406036791995575,1.2579487179487179,0.7841025641025641,0.5358974358974359
3.412614411994582,2.4167765567765565,1.531941391941392,2.436923076923077
3.41642282599787,2.4167765567765565,1.531941391941392,2.436923076923077
3.421672796997882,1.0693772893772893,0.5084981684981685,0.8880586080586079
3.4246555249992525,1.66007326007326,0.7446153846153846,0.13296703296703297
3.4269646979955724,1.66007326007326,0.7446153846153846,0.13296703296703297
3.427147877999232,1.66007326007326,0.7446153846153846,0.13296703296703297
3.43167314499442,1.66007326007326,0.7446153846153846,0.13296703296703297
3.4320132619977812,1.66007326007326,0.7446153846153846,0.13296703296703297
3.4380584489990724,1.66007326007326,0.7446153846153846,0.13296703296703297
3.4433655709945015,1.5657875457875456,1.278901098901099,1.692307692307692
3.444373974998598,0.9904029304029303,0.14102564102564102,0.6317948717948718
3.4452680780013907,0.9904029304029303,0.14102564102564102,0.6317948717948718
3.4468216889945325,0.9904029304029303,0.14102564102564102,0.6317948717948718
3.4512245820005774,0.9904029304029303,0.14102564102564102,0.6317948717948718
3.452143028996943,0.9904029304029303,0.14102564102564102,0.6317948717948718
3.4531126619986026,0.9904029304029303,0.14102564102564102,0.6317948717948718
3.4560803970016423,0.9904029304029303,0.14102564102564102,0.6317948717948718
3.4571958259984967,0.9904029304029303,0.14102564102564102,0.6317948717948718
3.4575291569999536,0.9904029304029303,0.14102564102564102,0.6317948717948718
3.46221373899607,0.9904029304029303,0.14102564102564102,0.6317948717948718
3.4623964429993066,0.9904029304029303,0.14102564102564102,0.6317948717948718
3.4678722159951576,0.9904029304029303,0.14102564102564102,0.6317948717948718
3.4695644509993144,0.8888644688644688,0.5084981684981685,0.11443223443223444
3.4748527400006424,0.8888644688644688,0.5084981684981685,0.11443223443223444
3.475169838995498,0.8888644688644688,0.5084981684981685,0.11443223443223444
3.483492938998097,0.386007326007326,0.5028571428571429,0.8526007326007327
3.491221215001133,0.386007326007326,0.5028571428571429,0.8526007326007327
3.4979145399993286,0.386007326007326,0.5028571428571429,0.8526007326007327
3.5026593809961923,0.386007326007326,0.5028571428571429,0.8526007326007327
3.5100814100005664,0.8727472527472527,0.14263736263736262,0.6116483516483516
3.516707757000404,0.1112087912087912,1.062930402930403,1.6705494505494505
3.5229378789954353,0.1112087912087912,1.062930402930403,1.6705494505494505
3.526200683998468,1.1709157509157508,0.18615384615384614,0.9356043956043956
3.5276093290012795,1.1709157509157508,0.18615384615384614,0.9356043956043956
3.5327989239958697,1.1709157509157508,0.18615384615384614,0.9356043956043956
3.5351450849993853,1.1709157509157508,0.18615384615384614,0.9356043956043956
3.5353985510009807,1.1709157509157508,0.18615384615384614,0.9356043956043956
3.542713613998785,1.1709157509157508,0.18615384615384614,0.9356043956043956
3.547174144994642,1.1709157509157508,0.18615384615384614,0.9356043956043956
3.548017544999311,1.1709157509157508,0.18615384615384614,0.9356043956043956
3.549599689999013,1.1709157509157508,0.18615384615384614,0.9356043956043956
3.557129321998218,0.5818315018315018,0.6946520146520146,1.1934798534798534
3.560348653998517,0.5350915750915751,0.4472527472527472,0.24256410256410255
3.563137271994492,0.5350915750915751,0.4472527472527472,0.24256410256410255
3.5670132899977034,0.5350915750915751,0.4472527472527472,0.24256410256410255
3.5738039930001833,0.5350915750915751,0.4472527472527472,0.24256410256410255
3.5773479970011977,0.3739194139194139,1.1467399267399265,1.8728205128205127
3.577565355997649,0.3739194139194139,1.1467399267399265,1.8728205128205127
3.5830153279966908,0.3739194139194139,1.1467399267399265,1.8728205128205127
3.5848538099962752,0.3739194139194139,1.1467399267399265,1.8728205128205127
3.5905282989988336,0.3739194139194139,1.1467399267399265,1.8728205128205127
3.5952644719945965,0.3739194139194139,1.1467399267399265,1.8728205128205127
3.600964348996058,0.3739194139194139,1.1467399267399265,1.8728205128205127
3.6012494879978476,0.3739194139194139,1.1467399267399265,1.8728205128205127
3.6103472100003273,0.3739194139194139,1.1467399267399265,1.8728205128205127
3.6143726149966824,0.3739194139194139,1.1467399267399265,1.8728205128205127
3.619048346001364,0.3739194139194139,1.1467399267399265,1.8728205128205127
3.6193550499956473,0.3739194139194139,1.1467399267399265,1.8728205128205127
3.6251498199999332,0.3739194139194139,1.1467399267399265,1.8728205128205127
3.6297169899989967,0.6430769230769231,0.20307692307692307,0.9662271062271062
3.630094073996588,1.684249084249084,1.070989010989011,1.4070329670329669
3.635589010998956,1.684249084249084,1.070989010989011,1.4070329670329669
3.6362037399958353,1.684249084249084,1.070989010989011,1.4070329670329669
3.640177440000116,1.684249084249084,1.070989010989011,1.4070329670329669
3.6430299089988694,1.684249084249084,1.070989010989011,1.4070329670329669
3.646682496997528,1.684249084249084,1.070989010989011,1.4070329670329669
3.6469782019994454,1.6624908424908424,1.543223443223443,3.043736263736264
3.651362397999037,1.6624908424908424,1.543223443223443,3.043736263736264
3.65162255299947,1.6624908424908424,1.543223443223443,3.043736263736264
3.658614599997236,1.6624908424908424,1.543223443223443,3.043736263736264
3.6623931569993147,1.6624908424908424,1.543223443223443,3.043736263736264
3.6677601859992137,2.1395604395604395,1.003296703296703,0.5447619047619047
3.6699520709953504,2.1395604395604395,1.003296703296703,0.5447619047619047
3.6703611569973873,2.1395604395604395,1.003296703296703,0.5447619047619047
3.677436902995396,2.1395604395604395,1.003296703296703,0.5447619047619047
3.6825630070015904,1.0564835164835162,1.2684249084249084,2.032380952380952
3.6858623619991704,1.0564835164835162,1.2684249084249084,2.032380952380952
3.6933576919982443,1.9622710622710622,1.8019047619047617,3.0493772893772895
3.6978870349994395,0.9154578754578755,1.0016849816849815,1.1967032967032967
3.6987763799988898,0.9154578754578755,1.0016849816849815,1.1967032967032967
3.7013522799970815,0.9154578754578755,1.0016849816849815,1.1967032967032967
3.7079286239968496,0.9154578754578755,1.0016849816849815,1.1967032967032967
3.7110891900010756,0.9154578754578755,1.0016849816849815,1.1967032967032967
3.71268269400025,0.9154578754578755,1.0016849816849815,1.1967032967032967
3.716482889998588,0.9154578754578755,1.0016849816849815,1.1967032967032967
3.7235769929975504,0.9154578754578755,1.0016849816849815,1.1967032967032967
3.726780050994421,0.9154578754578755,1.0016849816849815,1.1967032967032967
3.7283624589981628,0.9154578754578755,1.0016849816849815,1.1967032967032967
3.732097125001019,0.9154578754578755,1.0016849816849815,1.1967032967032967
3.7400165729995933,0.9154578754578755,1.0016849816849815,1.1967032967032967
3.7442487539956346,0.7792673992673992,0.7623443223443224,1.6286446886446886
3.7465001809978276,0.9654212454212454,0.1515018315018315,0.5495970695970696
3.746764228999382,0.9654212454212454,0.1515018315018315,0.5495970695970696
3.752066193999781,0.9654212454212454,0.1515018315018315,0.5495970695970696
3.755285435996484,0.9654212454212454,0.1515018315018315,0.5495970695970696
3.7556970869991346,0.9654212454212454,0.1515018315018315,0.5495970695970696
3.75984739499836,0.9654212454212454,0.1515018315018315,0.5495970695970696
3.7621646159968805,2.581172161172161,1.2498901098901098,0.46417582417582415
3.762513759000285,2.581172161172161,1.2498901098901098,0.46417582417582415
3.7678342039944255,2.581172161172161,1.2498901098901098,0.46417582417582415
3.7712469219986815,2.581172161172161,1.2498901098901098,0.46417582417582415
3.771395791998657,2.581172161172161,1.2498901098901098,0.46417582417582415
3.777412994997576,2.581172161172161,1.2498901098901098,0.46417582417582415
3.78115157999855,2.581172161172161,1.2498901098901098,0.46417582417582415
3.787970994999341,2.581172161172161,1.2498901098901098,0.46417582417582415
3.79329694199987,1.872014652014652,1.6512087912087912,3.092087912087912
3.7937050420005107,0.9654212454212454,1.220879120879121,2.0235164835164836
3.7997360529989237,0.9654212454212454,1.220879120879121,2.0235164835164836
3.8037267760009854,1.1781684981684981,0.1571428571428571,0.95010989010989
3.810348631996021,1.1781684981684981,0.1571428571428571,0.95010989010989
3.8133942669956014,1.9058608058608055,1.696336996336996,3.1573626373626373
3.8172179100001813,1.9058608058608055,1.696336996336996,3.1573626373626373
3.822703833997366,1.9058608058608055,1.696336996336996,3.1573626373626373
3.825264774997777,0.4996336996336996,0.13296703296703297,0.2208058608058608
3.8291435459977947,0.4996336996336996,0.13296703296703297,0.2208058608058608
3.832916055995156,2.116996336996337,1.5585347985347984,2.6827106227106228
3.8394683160004206,0.9694505494505494,1.2007326007326007,1.9268131868131868
3.8428150979962084,0.9694505494505494,1.2007326007326007,1.9268131868131868
3.8431015189999016,0.9694505494505494,1.2007326007326007,1.9268131868131868
3.847845183998288,0.9694505494505494,1.2007326007326007,1.9268131868131868
3.848095622997789,0.9694505494505494,1.2007326007326007,1.9268131868131868
3.8538517150009284,0.9694505494505494,1.2007326007326007,1.9268131868131868
3.8540180619966122,2.5070329670329667,1.3288644688644689,0.7365567765567765
3.8636230869960855,2.5070329670329667,1.3288644688644689,0.7365567765567765
3.8737918689948856,0.90014652014652,0.5375091575091575,0.052380952380952375
3.8813658069993835,0.90014652014652,0.5375091575091575,0.052380952380952375
3.8888741880000453,0.90014652014652,0.5375091575091575,0.052380952380952375
3.893191596995166,2.41032967032967,1.3135531135531133,0.9331868131868131
3.8940601459980826,2.41032967032967,1.3135531135531133,0.9331868131868131
3.8956044579972513,2.41032967032967,1.3135531135531133,0.9331868131868131
3.9001584500001627,2.41032967032967,1.3135531135531133,0.9331868131868131
3.900393484997039,2.41032967032967,1.3135531135531133,0.9331868131868131
3.9104381819997798,2.41032967032967,1.3135531135531133,0.9331868131868131
3.9166903410005034,2.41032967032967,1.3135531135531133,0.9331868131868131
3.9245141389983473,0.3505494505494505,0.42952380952380953,0.08139194139194139
3.9301032799994573,0.3505494505494505,0.42952380952380953,0.08139194139194139
3.9302597759960918,0.3505494505494505,0.42952380952380953,0.08139194139194139
3.936035581995384,0.3505494505494505,0.42952380952380953,0.08139194139194139
3.9374422909968416,0.3505494505494505,0.42952380952380953,0.08139194139194139
3.9427739870006917,0.3505494505494505,0.42952380952380953,0.08139194139194139
3.943682107994391,0.3505494505494505,0.42952380952380953,0.08139194139194139
3.945465848999447,0.3505494505494505,0.42952380952380953,0.08139194139194139
3.948415079001279,0.3505494505494505,0.42952380952380953,0.08139194139194139
3.95096751699748,1.8937728937728935,1.0508424908424907,1.187032967032967
3.9593769389975932,1.8937728937728935,1.0508424908424907,1.187032967032967
3.964649681998708,1.8937728937728935,1.0508424908424907,1.187032967032967
3.9681353679989115,1.8937728937728935,1.0508424908424907,1.187032967032967
3.9684002610010793,1.8937728937728935,1.0508424908424907,1.187032967032967
3.9777738699995098,1.8937728937728935,1.0508424908424907,1.187032967032967
3.983271558994602,1.8937728937728935,1.0508424908424907,1.187032967032967
3.984997236999334,1.5698168498168497,0.19824175824175824,0.7816849816849816
3.9900124759951723,1.5698168498168497,0.19824175824175824,0.7816849816849816
3.992421896000451,1.9743589743589742,1.7366300366300367,1.730989010989011
3.9925986620000913,1.9743589743589742,1.7366300366300367,1.730989010989011
3.997091321994958,1.9743589743589742,1.7366300366300367,1.730989010989011
3.9979709219987853,1.9743589743589742,1.7366300366300367,1.730989010989011
3.9995858929978567,1.9743589743589742,1.7366300366300367,1.730989010989011
4.003675856998598,1.9743589743589742,1.7366300366300367,1.730989010989011
4.008332835997862,1.9743589743589742,1.7366300366300367,1.730989010989011
4.012403378001181,1.5085714285714285,1.8196336996336997,1.826886446886447
4.015607442997862,1.5085714285714285,1.8196336996336997,1.826886446886447
4.017352301998471,1.5085714285714285,1.8196336996336997,1.826886446886447
4.021645805994922,1.5085714285714285,1.8196336996336997,1.826886446886447
4.021984029997839,1.5085714285714285,1.8196336996336997,1.826886446886447
4.02683362300013,1.5085714285714285,1.8196336996336997,1.826886446886447
4.031390604999615,1.5085714285714285,1.8196336996336997,1.826886446886447
4.031603473995347,1.5085714285714285,1.8196336996336997,1.826886446886447
4.038070782000432,1.5085714285714285,1.8196336996336997,1.826886446886447
4.0419265370001085,1.5085714285714285,1.8196336996336997,1.826886446886447
4.045719617999566,1.5085714285714285,1.8196336996336997,1.826886446886447
4.050949336000485,1.5085714285714285,1.8196336996336997,1.826886446886447
4.054626312994515,1.5085714285714285,1.8196336996336997,1.826886446886447
4.059235804998025,1.5085714285714285,1.8196336996336997,1.826886446886447
4.0595744859965635,1.5085714285714285,1.8196336996336997,1.826886446886447
4.064334966999013,1.5085714285714285,1.8196336996336997,1.826886446886447
4.070989417996316,1.5085714285714285,1.8196336996336997,1.826886446886447
4.076619235995167,1.5085714285714285,1.8196336996336997,1.826886446886447
4.076819271998829,1.5085714285714285,1.8196336996336997,1.826886446886447
4.082042704998457,1.5085714285714285,1.8196336996336997,1.826886446886447
4.084333888997207,0.6003663003663003,0.3376556776556776,0.09106227106227105
4.08463765399938,0.6003663003663003,0.3376556776556776,0.09106227106227105
4.092567895000684,0.6003663003663003,0.3376556776556776,0.09106227106227105
4.098304995997751,1.6157509157509156,0.8485714285714284,0.8405128205128204
4.104698855000606,1.6157509157509156,0.8485714285714284,0.8405128205128204
4.108357870994951,1.6157509157509156,0.8485714285714284,0.8405128205128204
4.112879747000989,1.6157509157509156,0.8485714285714284,0.8405128205128204
4.113751610995678,1.6157509157509156,0.8485714285714284,0.8405128205128204
4.115363288998196,1.6157509157509156,0.8485714285714284,0.8405128205128204
4.119309939000232,0.6390476190476191,0.7937728937728937,1.3884981684981685
4.1240678489994025,1.1918681318681317,0.7502564102564102,0.42388278388278383
4.128577938994567,1.1918681318681317,0.7502564102564102,0.42388278388278383
4.1294304659968475,1.1918681318681317,0.7502564102564102,0.42388278388278383
4.131054626996047,1.1918681318681317,0.7502564102564102,0.42388278388278383
4.1347855829953915,1.1918681318681317,0.7502564102564102,0.42388278388278383
4.134903225996823,1.1918681318681317,0.7502564102564102,0.42388278388278383
4.141832128996612,1.1918681318681317,0.7502564102564102,0.42388278388278383
4.145560724995448,0.4158241758241758,0.17084249084249084,0.4545054945054945
4.145667628996307,0.4158241758241758,0.17084249084249084,0.4545054945054945
4.151220526997349,0.4158241758241758,0.17084249084249084,0.4545054945054945
4.152088226997876,0.4158241758241758,0.17084249084249084,0.4545054945054945
4.155632440997579,0.4158241758241758,0.17084249084249084,0.4545054945054945
4.162200161001238,0.4158241758241758,0.17084249084249084,0.4545054945054945
4.165994625000167,0.4158241758241758,0.17084249084249084,0.4545054945054945
4.17459906199656,0.4158241758241758,0.17084249084249084,0.4545054945054945
4.182071103001363,0.4158241758241758,0.17084249084249084,0.4545054945054945
4.187041213001066,0.4158241758241758,0.17084249084249084,0.4545054945054945
4.192912106998847,1.3957509157509156,1.5045421245421244,2.3498901098901097
4.198472235999361,1.5835164835164834,0.9654212454212454,1.1394871794871795
4.209861340998032,2.245128205128205,1.261978021978022,0.24659340659340656
4.215163688997563,2.245128205128205,1.261978021978022,0.24659340659340656
4.218044481000106,1.1185347985347984,0.9783150183150182,1.7108424908424908
4.22495140999672,1.1185347985347984,0.9783150183150182,1.7108424908424908
4.228779559998657,1.1185347985347984,0.9783150183150182,1.7108424908424908
4.233348315996409,1.1185347985347984,0.9783150183150182,1.7108424908424908
4.233745328994701,0.14827838827838827,0.788937728937729,1.9445421245421244
4.240634914000111,0.14827838827838827,0.788937728937729,1.9445421245421244
4.244734071995481,1.9493772893772894,0.8098901098901098,1.2982417582417582
4.247137000995281,1.108058608058608,0.26996336996336995,0.3739194139194139
4.252532981001423,1.7092307692307693,1.083076923076923,0.8743589743589744
4.2564327549989684,1.7092307692307693,1.083076923076923,0.8743589743589744
4.259174977996736,1.7092307692307693,1.083076923076923,0.8743589743589744
4.2622837939998135,1.7092307692307693,1.083076923076923,0.8743589743589744
4.2641745430009905,1.7092307692307693,1.083076923076923,0.8743589743589744
4.2667744790014694,1.7092307692307693,1.083076923076923,0.8743589743589744
4.266993421995721,1.7092307692307693,1.083076923076923,0.8743589743589744
4.272455184996943,1.7092307692307693,1.083076923076923,0.8743589743589744
4.2727665819984395,1.7092307692307693,1.083076923076923,0.8743589743589744
4.278731229998812,1.7092307692307693,1.083076923076923,0.8743589743589744
4.282475255000463,1.7092307692307693,1.083076923076923,0.8743589743589744
4.288925326996832,1.7092307692307693,1.083076923076923,0.8743589743589744
4.293317356998159,1.7092307692307693,1.083076923076923,0.8743589743589744
4.293662585994753,1.7092307692307693,1.083076923076923,0.8743589743589744
4.298511021996092,1.7092307692307693,1.083076923076923,0.8743589743589744
4.309082813000714,1.7092307692307693,1.083076923076923,0.8743589743589744
4.317883023999457,0.5197802197802197,0.16197802197802197,0.1829304029304029
4.324829179997323,0.5197802197802197,0.16197802197802197,0.1829304029304029
4.3285792079987,1.1402930402930402,0.5391208791208791,0.7051282051282051
4.333959121999214,2.4425641025641025,0.5350915750915751,1.6834432234432233
4.336759557001642,0.5487912087912087,0.713992673992674,1.2378021978021978
4.342291796994687,0.5487912087912087,0.713992673992674,1.2378021978021978
4.342435364997073,0.5487912087912087,0.713992673992674,1.2378021978021978
4.3486756079946645,0.5487912087912087,0.713992673992674,1.2378021978021978
4.354731852996338,0.5487912087912087,0.713992673992674,1.2378021978021978
4.360449223997421,0.5487912087912087,0.713992673992674,1.2378021978021978
4.360580205000588,0.5487912087912087,0.713992673992674,1.2378021978021978
4.365041177996318,0.5487912087912087,0.713992673992674,1.2378021978021978
4.366584823997982,0.5487912087912087,0.713992673992674,1.2378021978021978
4.375007853996067,0.5487912087912087,0.713992673992674,1.2378021978021978
4.378909966995707,0.5487912087912087,0.713992673992674,1.2378021978021978
4.382890100001532,2.165347985347985,1.1975091575091574,0.08703296703296703
4.388708753998799,2.165347985347985,1.1975091575091574,0.08703296703296703
4.393678207998164,2.165347985347985,1.1975091575091574,0.08703296703296703
4.397492812000564,2.165347985347985,1.1975091575091574,0.08703296703296703
4.403101559000788,0.3843956043956044,0.755091575091575,1.2498901098901098
4.404620121997141,0.3843956043956044,0.755091575091575,1.2498901098901098
4.410852014996635,0.3843956043956044,0.755091575091575,1.2498901098901098
4.414217919998919,0.3843956043956044,0.755091575091575,1.2498901098901098
4.414557723001053,0.3843956043956044,0.755091575091575,1.2498901098901098
4.419835795000836,0.3843956043956044,0.755091575091575,1.2498901098901098
4.422212457000569,1.3828571428571428,0.11362637362637362,1.3917216117216116
4.428373599999759,1.3828571428571428,0.11362637362637362,1.3917216117216116
4.432322848995682,1.3828571428571428,0.11362637362637362,1.3917216117216116
4.436314072001551,1.3828571428571428,0.11362637362637362,1.3917216117216116
4.442381406995992,1.3828571428571428,0.11362637362637362,1.3917216117216116
4.450381215996458,1.3828571428571428,0.11362637362637362,1.3917216117216116
4.458348125997873,1.3828571428571428,0.11362637362637362,1.3917216117216116
4.465547144995071,1.3828571428571428,0.11362637362637362,1.3917216117216116
4.470413809998718,1.095164835164835,0.12168498168498168,0.6052014652014651
4.476111650998064,2.099267399267399,1.1483516483516483,1.1153113553113554
4.476236227994377,2.099267399267399,1.1483516483516483,1.1153113553113554
4.480822901001375,2.099267399267399,1.1483516483516483,1.1153113553113554
4.481101371995464,2.099267399267399,1.1483516483516483,1.1153113553113554
4.486841418998665,2.099267399267399,1.1483516483516483,1.1153113553113554
4.487066955996852,1.7898168498168496,1.1273992673992674,3.3
4.494066198996734,1.4578021978021978,0.8082783882783882,1.3369230769230769
4.498022946994752,1.4578021978021978,0.8082783882783882,1.3369230769230769
4.503519256999425,0.17003663003663003,0.20065934065934066,1.5085714285714285
4.503764692999539,0.17003663003663003,0.20065934065934066,1.5085714285714285
4.509741424997628,0.17003663003663003,0.20065934065934066,1.5085714285714285
4.5142464469972765,0.17003663003663003,0.20065934065934066,1.5085714285714285
4.5145598119997885,0.17003663003663003,0.20065934065934066,1.5085714285714285
4.520582090997777,0.17003663003663003,0.20065934065934066,1.5085714285714285
4.52740404799988,0.17003663003663003,0.20065934065934066,1.5085714285714285
4.5311777719980455,0.17003663003663003,0.20065934065934066,1.5085714285714285
4.53761693299748,0.17003663003663003,0.20065934065934066,1.5085714285714285
4.541086078999797,0.17003663003663003,0.20065934065934066,1.5085714285714285
4.541319242998725,1.8816849816849814,0.166007326007326,1.274871794871795
4.545939793999423,1.8816849816849814,0.166007326007326,1.274871794871795
4.546821805997752,1.0226373626373626,1.1547985347985346,3.192014652014652
4.548442291998072,1.0935531135531134,0.42065934065934063,2.246739926739927
4.5523106869950425,1.0935531135531134,0.42065934065934063,2.246739926739927
4.557011797995074,1.0935531135531134,0.42065934065934063,2.246739926739927
4.557120234996546,1.0935531135531134,0.42065934065934063,2.246739926739927
4.561646855996514,1.0935531135531134,0.42065934065934063,2.246739926739927
4.562462976995448,0.506080586080586,0.15311355311355312,1.2378021978021978
4.564677053000196,0.506080586080586,0.15311355311355312,1.2378021978021978
4.565495135000674,0.506080586080586,0.15311355311355312,1.2378021978021978
4.567114009994839,0.506080586080586,0.15311355311355312,1.2378021978021978
4.57239407999441,0.506080586080586,0.15311355311355312,1.2378021978021978
4.574833273996774,2.3418315018315017,1.1676923076923076,0.9025641025641026
4.5749508519947995,2.3418315018315017,1.1676923076923076,0.9025641025641026
4.580680567996751,2.3418315018315017,1.1676923076923076,0.9025641025641026
4.580834595995839,0.9372161172161171,0.7357509157509158,0.5745787545787545
4.586118002000148,0.9372161172161171,0.7357509157509158,0.5745787545787545
4.591578332998324,0.9372161172161171,0.7357509157509158,0.5745787545787545
4.591914006996376,0.9372161172161171,0.7357509157509158,0.5745787545787545
4.596756551996805,0.9372161172161171,0.7357509157509158,0.5745787545787545
4.602102936994925,0.24256410256410255,0.5052747252747253,0.06849816849816849
4.606398374999117,0.15069597069597068,0.6084249084249085,0.6873992673992674
4.607974045997253,0.2683516483516483,0.14586080586080585,0.7558974358974359
4.61255766999966,0.2683516483516483,0.14586080586080585,0.7558974358974359
4.617913664995285,0.2683516483516483,0.14586080586080585,0.7558974358974359
4.620525464000821,0.6253479853479853,0.7059340659340658,1.4876190476190476
4.625946572996327,0.6253479853479853,0.7059340659340658,1.4876190476190476
4.626805126994441,2.2797802197802195,1.818827838827839,3.3
4.628404258997762,2.2797802197802195,1.818827838827839,3.3
4.632787456001097,2.2797802197802195,1.818827838827839,3.3
4.633640373998787,0.34813186813186814,1.3385347985347984,1.631062271062271
4.635731267000665,0.34813186813186814,1.3385347985347984,1.631062271062271
4.637122492000344,0.34813186813186814,1.3385347985347984,1.631062271062271
4.642517111999041,0.34813186813186814,1.3385347985347984,1.631062271062271
4.644081300997641,0.34813186813186814,1.3385347985347984,1.631062271062271
4.647839911995106,1.6632967032967032,1.3667399267399267,2.848717948717949
4.6531016919980175,1.6632967032967032,1.3667399267399267,2.848717948717949
4.657553901997744,2.2233699633699633,1.224908424908425,0.47706959706959706
4.657752906001406,2.2233699633699633,1.224908424908425,0.47706959706959706
4.662310911000532,2.2233699633699633,1.224908424908425,0.47706959706959706
4.662654292995285,2.2233699633699633,1.224908424908425,0.47706959706959706
4.668161485999008,2.2233699633699633,1.224908424908425,0.47706959706959706
4.6700079219954205,1.1306227106227105,0.6398534798534798,0.5254212454212454
4.672137288995145,1.1306227106227105,0.6398534798534798,0.5254212454212454
4.6732344740012195,1.1306227106227105,0.6398534798534798,0.5254212454212454
4.673566803998256,1.1306227106227105,0.6398534798534798,0.5254212454212454
4.678754287000629,1.1306227106227105,0.6398534798534798,0.5254212454212454
4.6817838119968656,1.1306227106227105,0.6398534798534798,0.5254212454212454
4.684093691997987,1.1306227106227105,0.6398534798534798,0.5254212454212454
4.684283301001415,1.1306227106227105,0.6398534798534798,0.5254212454212454
4.692156345001422,1.1306227106227105,0.6398534798534798,0.5254212454212454
4.696662636000838,2.8551648351648353,1.9526007326007324,2.8277655677655673
4.699218409994501,0.8751648351648351,0.7067399267399267,1.3764102564102565
4.706805062000058,0.8751648351648351,0.7067399267399267,1.3764102564102565
4.711194468000031,0.5971428571428571,0.13135531135531134,0.7542857142857142
4.711394095000287,0.5971428571428571,0.13135531135531134,0.7542857142857142
4.722012724996603,0.5971428571428571,0.13135531135531134,0.7542857142857142
4.72760335199564,0.7921611721611721,0.5769963369963369,0.8671062271062271
4.728467900000396,0.4762637362637362,0.3642490842490842,0.5681318681318681
4.730095259998052,0.4762637362637362,0.3642490842490842,0.5681318681318681
4.733956885997031,1.4046153846153846,0.9758974358974358,1.207179487179487
4.7406010459963,1.1201465201465202,0.6551648351648351,1.5843223443223442
4.744452464998176,1.1201465201465202,0.6551648351648351,1.5843223443223442
4.749065899995912,1.1201465201465202,0.6551648351648351,1.5843223443223442
4.749321550996683,1.1201465201465202,0.6551648351648351,1.5843223443223442
4.756684633000987,1.1201465201465202,0.6551648351648351,1.5843223443223442
4.760593982995488,1.3288644688644689,1.0315018315018314,2.0573626373626372
4.7643861299948185,1.3288644688644689,1.0315018315018314,2.0573626373626372
4.771118637996551,1.3288644688644689,1.0315018315018314,2.0573626373626372
4.774907557999541,1.3288644688644689,1.0315018315018314,2.0573626373626372
4.778704901997116,1.3288644688644689,1.0315018315018314,2.0573626373626372
4.7842966620009975,1.2563369963369961,0.585054945054945,2.0638095238095238
4.784571830998175,1.2563369963369961,0.585054945054945,2.0638095238095238
4.791785140994762,1.2563369963369961,0.585054945054945,2.0638095238095238
4.796291462997033,1.2563369963369961,0.585054945054945,2.0638095238095238
4.7972414219984785,1.2563369963369961,0.585054945054945,2.0638095238095238
4.798200682998868,1.2563369963369961,0.585054945054945,2.0638095238095238
4.799171180995472,1.2563369963369961,0.585054945054945,2.0638095238095238
4.800053068996931,1.2563369963369961,0.585054945054945,2.0638095238095238
4.801883036998333,1.2563369963369961,0.585054945054945,2.0638095238095238
4.8058739400003105,0.4593406593406593,0.4520879120879121,0.5947252747252747
4.80833670499851,0.4593406593406593,0.4520879120879121,0.5947252747252747
4.813664201996289,0.4593406593406593,0.4520879120879121,0.5947252747252747
4.8174023009996745,0.4593406593406593,0.4520879120879121,0.5947252747252747
4.825170625001192,0.4593406593406593,0.4520879120879121,0.5947252747252747
4.829741752997506,0.4593406593406593,0.4520879120879121,0.5947252747252747
4.830599427994457,0.4593406593406593,0.4520879120879121,0.5947252747252747
4.832236715999898,0.4593406593406593,0.4520879120879121,0.5947252747252747
4.837767913995776,0.4593406593406593,0.4520879120879121,0.5947252747252747
4.838970977994904,0.4593406593406593,0.4520879120879121,0.5947252747252747
4.839167291997001,0.4593406593406593,0.4520879120879121,0.5947252747252747
4.844195628997113,0.4593406593406593,0.4520879120879121,0.5947252747252747
4.848940160998609,0.7131868131868132,0.13296703296703297,0.5504029304029303
4.849149090994615,0.7131868131868132,0.13296703296703297,0.5504029304029303
4.8562129560014,0.7131868131868132,0.13296703296703297,0.5504029304029303
4.861769388000539,0.7131868131868132,0.13296703296703297,0.5504029304029303
4.861982062997413,0.7131868131868132,0.13296703296703297,0.5504029304029303
4.867204542999389,0.7131868131868132,0.13296703296703297,0.5504029304029303
4.873026098997798,0.7131868131868132,0.13296703296703297,0.5504029304029303
4.87845682099578,0.7131868131868132,0.13296703296703297,0.5504029304029303
4.880771211996034,0.7131868131868132,0.13296703296703297,0.5504029304029303
4.880953241001407,0.7131868131868132,0.13296703296703297,0.5504029304029303
4.890101494995179,0.7131868131868132,0.13296703296703297,0.5504029304029303
4.89413102799881,1.0186080586080586,0.7615384615384615,0.19018315018315018
4.897828895998828,1.0186080586080586,0.7615384615384615,0.19018315018315018
4.907201340000029,0.8308424908424907,0.6632234432234432,1.2845421245421245
4.913933960000577,0.8308424908424907,0.6632234432234432,1.2845421245421245
4.917351304000476,1.5754578754578754,0.7873260073260073,2.154065934065934
4.917630070995074,1.5754578754578754,0.7873260073260073,2.154065934065934
4.927846496000711,1.5754578754578754,0.7873260073260073,2.154065934065934
4.934054170997115,1.5754578754578754,0.7873260073260073,2.154065934065934
4.939610918998369,1.5754578754578754,0.7873260073260073,2.154065934065934
4.939896210998995,0.9646153846153847,0.3876190476190476,1.9018315018315015
4.944492991999141,0.9646153846153847,0.3876190476190476,1.9018315018315015
4.944713058997877,0.9646153846153847,0.3876190476190476,1.9018315018315015
4.949927896996087,0.9646153846153847,0.3876190476190476,1.9018315018315015
4.955144391999056,0.9646153846153847,0.3876190476190476,1.9018315018315015
4.956698611997126,1.7817582417582416,0.850989010989011,0.9428571428571427
4.963883020995127,1.7817582417582416,0.850989010989011,0.9428571428571427
4.969497052996303,1.5456410256410256,0.9243223443223443,0.2957509157509157
4.969718861000729,1.5456410256410256,0.9243223443223443,0.2957509157509157
4.974044239999785,1.5456410256410256,0.9243223443223443,0.2957509157509157
4.975625693994516,1.5456410256410256,0.9243223443223443,0.2957509157509157
4.9829048389947275,1.5456410256410256,0.9243223443223443,0.2957509157509157
4.9907459690002725,1.5456410256410256,0.9243223443223443,0.2957509157509157
4.998945813997125,1.5456410256410256,0.9243223443223443,0.2957509157509157
5.00748530599958,1.5456410256410256,0.9243223443223443,0.2957509157509157
5.015682653000113,0.5165567765567766,0.14424908424908423,0.606007326007326
5.024038521994953,0.5165567765567766,0.14424908424908423,0.606007326007326
5.032154107000679,1.9461538461538461,0.7881318681318681,0.10637362637362638
5.0387684689994785,1.9461538461538461,0.7881318681318681,0.10637362637362638
5.04571734899946,1.5867399267399267,0.8679120879120878,0.2377289377289377
5.052888881997205,1.5867399267399267,0.8679120879120878,0.2377289377289377
5.056767478999973,0.7115750915750916,0.6777289377289377,0.7164102564102564
5.061071270996763,0.7115750915750916,0.6777289377289377,0.7164102564102564
5.062000256999454,0.7115750915750916,0.6777289377289377,0.7164102564102564
5.062943746997917,0.7115750915750916,0.6777289377289377,0.7164102564102564
5.063947475995519,0.7115750915750916,0.6777289377289377,0.7164102564102564
5.064891624999291,0.7115750915750916,0.6777289377289377,0.7164102564102564
5.065886306998436,0.7115750915750916,0.6777289377289377,0.7164102564102564
5.067684525994991,0.7115750915750916,0.6777289377289377,0.7164102564102564
5.070756927001639,0.7115750915750916,0.6777289377289377,0.7164102564102564
5.075684196999646,1.6367032967032966,0.8485714285714284,0.0975091575091575
5.080447936001292,1.6367032967032966,0.8485714285714284,0.0975091575091575
5.086337292996177,1.6367032967032966,0.8485714285714284,0.0975091575091575
5.092021177995775,1.6367032967032966,0.8485714285714284,0.0975091575091575
5.099866361997556,1.6367032967032966,0.8485714285714284,0.0975091575091575
5.107161865998933,1.6367032967032966,0.8485714285714284,0.0975091575091575
5.110803971001587,1.6367032967032966,0.8485714285714284,0.0975091575091575
5.111022751996643,0.5761904761904761,0.9654212454212454,1.676190476190476
5.1193027650006115,0.5761904761904761,0.9654212454212454,1.676190476190476
5.1271495149994735,0.5761904761904761,0.9654212454212454,1.676190476190476
5.134433357001399,0.5761904761904761,0.9654212454212454,1.676190476190476
5.143631840997841,1.531941391941392,1.1668864468864468,2.7495970695970695
5.153751031997672,1.8276923076923077,0.9404395604395603,0.0410989010989011
5.1625606609959505,1.8276923076923077,0.9404395604395603,0.0410989010989011
5.168580564997683,1.0879120879120878,0.3529670329670329,1.012161172161172
5.172497159997874,1.0879120879120878,0.3529670329670329,1.012161172161172
5.177754645999812,1.0879120879120878,0.3529670329670329,1.012161172161172
5.17808789099945,1.0879120879120878,0.3529670329670329,1.012161172161172
5.18365746299969,1.93003663003663,0.9887912087912087,0.28205128205128205
5.184489410996321,0.8235897435897436,0.12168498168498168,0.7268864468864469
5.186177518000477,0.8235897435897436,0.12168498168498168,0.7268864468864469
5.190029489000153,0.8235897435897436,0.12168498168498168,0.7268864468864469
5.194570457999362,0.8235897435897436,0.12168498168498168,0.7268864468864469
5.195544123998843,0.8235897435897436,0.12168498168498168,0.7268864468864469
5.196376125997631,0.8235897435897436,0.12168498168498168,0.7268864468864469
5.19808110500162,0.8235897435897436,0.12168498168498168,0.7268864468864469
5.201119687000755,0.8235897435897436,0.12168498168498168,0.7268864468864469
5.203854264997062,0.8235897435897436,0.12168498168498168,0.7268864468864469
5.208363031000772,0.8235897435897436,0.12168498168498168,0.7268864468864469
5.2086738719954155,0.8235897435897436,0.12168498168498168,0.7268864468864469
5.213821441997425,0.8235897435897436,0.12168498168498168,0.7268864468864469
5.216870730997471,1.3691575091575092,1.1193406593406594,2.133919413919414
5.219504086999223,1.3691575091575092,1.1193406593406594,2.133919413919414
5.228617471999314,1.3691575091575092,1.1193406593406594,2.133919413919414
5.237283741000283,1.3691575091575092,1.1193406593406594,2.133919413919414
5.244293003997882,1.3691575091575092,1.1193406593406594,2.133919413919414
5.250207984994631,1.3707692307692307,0.08703296703296703,0.946080586080586
5.25744218199543,1.299047619047619,1.1362637362637362,2.9156043956043955
5.264787403997616,1.299047619047619,1.1362637362637362,2.9156043956043955
5.269521330999851,1.299047619047619,1.1362637362637362,2.9156043956043955
5.269663895996928,1.299047619047619,1.1362637362637362,2.9156043956043955
5.274997219996294,1.299047619047619,1.1362637362637362,2.9156043956043955
5.2766629199977615,1.299047619047619,1.1362637362637362,2.9156043956043955
5.2805090629990445,1.299047619047619,1.1362637362637362,2.9156043956043955
5.284388667001622,1.299047619047619,1.1362637362637362,2.9156043956043955
5.288872402001289,1.299047619047619,1.1362637362637362,2.9156043956043955
5.289129505996243,1.299047619047619,1.1362637362637362,2.9156043956043955
5.2942962140004965,1.299047619047619,1.1362637362637362,2.9156043956043955
5.297262269996281,1.299047619047619,1.1362637362637362,2.9156043956043955
5.299603553998168,1.299047619047619,1.1362637362637362,2.9156043956043955
5.29984284099919,1.299047619047619,1.1362637362637362,2.9156043956043955
5.304356239998015,1.299047619047619,1.1362637362637362,2.9156043956043955
5.305933700001333,1.299047619047619,1.1362637362637362,2.9156043956043955
5.310330082000291,2.3168498168498166,1.0484249084249082,3.3
5.3111973389968625,2.3168498168498166,1.0484249084249082,3.3
5.312117551999108,2.3168498168498166,1.0484249084249082,3.3
5.313708180998219,2.3168498168498166,1.0484249084249082,3.3
5.31762317999528,2.3168498168498166,1.0484249084249082,3.3
5.322055086995533,2.3168498168498166,1.0484249084249082,3.3
5.322387524996884,2.3168498168498166,1.0484249084249082,3.3
5.333425336997607,2.3168498168498166,1.0484249084249082,3.3
5.34186432199931,2.3168498168498166,1.0484249084249082,3.3
5.349044855996908,1.0677655677655677,0.49238095238095236,0.7816849816849816
5.354817070998251,1.0677655677655677,0.49238095238095236,0.7816849816849816
5.360123024998757,0.6132600732600733,0.38358974358974357,1.7027838827838828
5.363163615998928,0.9960439560439559,0.15311355311355312,0.9758974358974358
5.365476567996666,0.5487912087912087,0.15794871794871795,0.9565567765567766
5.365752587997122,0.5487912087912087,0.15794871794871795,0.9565567765567766
5.371025879998342,2.6665934065934067,1.1813919413919414,2.552967032967033
5.374984720998327,2.6665934065934067,1.1813919413919414,2.552967032967033
5.37802437999926,1.2805128205128204,0.7349450549450549,2.868864468864469
5.3798814519977896,1.2805128205128204,0.7349450549450549,2.868864468864469
5.382246116001625,1.2805128205128204,0.7349450549450549,2.868864468864469
5.382551543996669,1.2805128205128204,0.7349450549450549,2.868864468864469
5.391319156995451,0.8816117216117215,0.15956043956043955,1.2474725274725273
5.39779486599582,0.8816117216117215,0.15956043956043955,1.2474725274725273
5.401971234001394,0.8816117216117215,0.15956043956043955,1.2474725274725273
5.405105710997304,0.8816117216117215,0.15956043956043955,1.2474725274725273
5.405471828998998,0.8816117216117215,0.15956043956043955,1.2474725274725273
5.412172258998908,0.8816117216117215,0.15956043956043955,1.2474725274725273
5.41616933199839,0.7494505494505495,0.7172161172161172,0.5890842490842491
5.423675011996238,0.7494505494505495,0.7172161172161172,0.5890842490842491
5.429545665996557,0.7494505494505495,0.7172161172161172,0.5890842490842491
5.436885693998192,0.7494505494505495,0.7172161172161172,0.5890842490842491
5.442368732001341,0.7494505494505495,0.7172161172161172,0.5890842490842491
5.442581042996608,0.7494505494505495,0.7172161172161172,0.5890842490842491
5.4480461579951225,0.7494505494505495,0.7172161172161172,0.5890842490842491
5.448381836999033,0.7494505494505495,0.7172161172161172,0.5890842490842491
5.457965691995923,0.7494505494505495,0.7172161172161172,0.5890842490842491
5.465231040994695,0.7494505494505495,0.7172161172161172,0.5890842490842491
5.470310414995765,1.8333333333333333,1.095164835164835,0.07575091575091575
5.47497773199575,1.8333333333333333,1.095164835164835,0.07575091575091575
5.478724837994378,1.8333333333333333,1.095164835164835,0.07575091575091575
5.483301688000211,1.8333333333333333,1.095164835164835,0.07575091575091575
5.483619947000989,1.8333333333333333,1.095164835164835,0.07575091575091575
5.491130766000424,1.8333333333333333,1.095164835164835,0.07575091575091575
5.49509598199802,1.8333333333333333,1.095164835164835,0.07575091575091575
5.499368646000221,0.6197069597069597,0.4504761904761904,2.166153846153846
5.501117301995691,1.1273992673992674,0.7389743589743589,0.6672527472527472
5.506463141995482,1.1273992673992674,0.7389743589743589,0.6672527472527472
5.507375342996966,1.1273992673992674,0.7389743589743589,0.6672527472527472
5.5082851109982585,1.1273992673992674,0.7389743589743589,0.6672527472527472
5.509854537995125,1.1273992673992674,0.7389743589743589,0.6672527472527472
5.514222409998183,1.1273992673992674,0.7389743589743589,0.6672527472527472
5.51577077699767,1.1273992673992674,0.7389743589743589,0.6672527472527472
5.521759696996014,1.1273992673992674,0.7389743589743589,0.6672527472527472
5.526216423997539,1.804322344322344,0.8469597069597068,0.14827838827838827
5.526406930999656,1.804322344322344,0.8469597069597068,0.14827838827838827
5.531834998000704,1.804322344322344,0.8469597069597068,0.14827838827838827
5.5326927909991355,1.804322344322344,0.8469597069597068,0.14827838827838827
5.535998898994876,1.804322344322344,0.8469597069597068,0.14827838827838827
5.536194202999468,1.804322344322344,0.8469597069597068,0.14827838827838827
5.5417783169978065,1.804322344322344,0.8469597069597068,0.14827838827838827
5.542646658999729,1.804322344322344,0.8469597069597068,0.14827838827838827
5.544194896996487,1.804322344322344,0.8469597069597068,0.14827838827838827
5.549564561995794,1.804322344322344,0.8469597069597068,0.14827838827838827
5.55266072700033,1.804322344322344,0.8469597069597068,0.14827838827838827
5.5537138340005185,1.804322344322344,0.8469597069597068,0.14827838827838827
5.553986407998309,1.804322344322344,0.8469597069597068,0.14827838827838827
5.561667081994528,1.804322344322344,0.8469597069597068,0.14827838827838827
5.566230488999281,1.804322344322344,0.8469597069597068,0.14827838827838827
5.566471881000325,1.804322344322344,0.8469597069597068,0.14827838827838827
5.573421362998488,1.804322344322344,0.8469597069597068,0.14827838827838827
5.577317571995081,1.804322344322344,0.8469597069597068,0.14827838827838827
5.5825219089965685,1.804322344322344,0.8469597069597068,0.14827838827838827
5.586716920995968,1.804322344322344,0.8469597069597068,0.14827838827838827
5.588237036994542,1.804322344322344,0.8469597069597068,0.14827838827838827
5.592592840999714,1.804322344322344,0.8469597069597068,0.14827838827838827
5.59346642899618,1.804322344322344,0.8469597069597068,0.14827838827838827
5.5951527200013516,1.804322344322344,0.8469597069597068,0.14827838827838827
5.598273698997218,0.3892307692307692,0.32717948717948714,0.9734798534798534
5.600539573999413,0.3892307692307692,0.32717948717948714,0.9734798534798534
5.600760708999587,0.3892307692307692,0.32717948717948714,0.9734798534798534
5.609296723996522,0.3892307692307692,0.32717948717948714,0.9734798534798534
5.61632571699738,0.3924542124542124,0.9791208791208791,0.5665201465201465
5.622629827994388,2.07992673992674,1.2515018315018314,1.9799999999999998
5.6262194469964015,2.07992673992674,1.2515018315018314,1.9799999999999998
5.631929928000318,2.07992673992674,1.2515018315018314,1.9799999999999998
5.6321497120006825,2.07992673992674,1.2515018315018314,1.9799999999999998
5.6410453589996905,2.07992673992674,1.2515018315018314,1.9799999999999998
5.6483147269973415,2.07992673992674,1.2515018315018314,1.9799999999999998
5.654929150994576,1.7616117216117215,0.8098901098901098,1.5222710622710622
5.658600621994992,1.843003663003663,1.133040293040293,1.0315018315018314
5.666386643999431,1.843003663003663,1.133040293040293,1.0315018315018314
5.674485702998936,1.796263736263736,1.3643223443223442,1.6512087912087912
5.679180733997782,1.796263736263736,1.3643223443223442,1.6512087912087912
5.679334057997039,1.796263736263736,1.3643223443223442,1.6512087912087912
5.685652209998807,1.796263736263736,1.3643223443223442,1.6512087912087912
5.692334487997869,1.796263736263736,1.3643223443223442,1.6512087912087912
5.695886859000893,1.796263736263736,1.3643223443223442,1.6512087912087912
5.696066258999053,0.7921611721611721,0.48835164835164835,1.0621245421245422
5.703772631997708,0.7921611721611721,0.48835164835164835,1.0621245421245422
5.708436804001394,0.7921611721611721,0.48835164835164835,1.0621245421245422
5.717869230997167,0.7921611721611721,0.48835164835164835,1.0621245421245422
5.727156431996264,0.7921611721611721,0.48835164835164835,1.0621245421245422
5.731671698995342,0.7921611721611721,0.48835164835164835,1.0621245421245422
5.732522576996416,1.9010256410256408,1.195091575091575,0.7671794871794871
5.734799113000918,1.9010256410256408,1.195091575091575,0.7671794871794871
5.73512634600047,1.3232234432234433,0.7252747252747253,0.9194871794871795
5.742599286997574,1.3232234432234433,0.7252747252747253,0.9194871794871795
5.747299762995681,1.3232234432234433,0.7252747252747253,0.9194871794871795
5.747438929996861,1.3232234432234433,0.7252747252747253,0.9194871794871795
5.755360174000089,1.3232234432234433,0.7252747252747253,0.9194871794871795
5.760697628000344,1.3232234432234433,0.7252747252747253,0.9194871794871795
5.7609973329963395,1.3232234432234433,0.7252747252747253,0.9194871794871795
5.76550357099768,1.3232234432234433,0.7252747252747253,0.9194871794871795
5.767117742994742,1.8397802197802198,1.2273260073260073,1.4666666666666666
5.771710253000492,1.8397802197802198,1.2273260073260073,1.4666666666666666
5.771850231998542,1.8397802197802198,1.2273260073260073,1.4666666666666666
5.776395829998364,1.8397802197802198,1.2273260073260073,1.4666666666666666
5.777534927001398,1.8397802197802198,1.2273260073260073,1.4666666666666666
5.777720614998543,1.8397802197802198,1.2273260073260073,1.4666666666666666
5.782203939001192,1.8397802197802198,1.2273260073260073,1.4666666666666666
5.783239946998947,1.3304761904761904,0.10395604395604395,0.22886446886446887
5.783566621001228,1.3304761904761904,0.10395604395604395,0.22886446886446887
5.790682974999072,1.3304761904761904,0.10395604395604395,0.22886446886446887
5.794519167000544,1.3304761904761904,0.10395604395604395,0.22886446886446887
5.798283703996276,1.3304761904761904,0.10395604395604395,0.22886446886446887
5.807003898000403,1.3304761904761904,0.10395604395604395,0.22886446886446887
5.8113855219999095,1.3304761904761904,0.10395604395604395,0.22886446886446887
5.812244617998658,0.942051282051282,0.9750915750915751,0.1652014652014652
5.814207814000838,0.942051282051282,0.9750915750915751,0.1652014652014652
5.816452847000619,0.942051282051282,0.9750915750915751,0.1652014652014652
5.817352591999224,0.942051282051282,0.9750915750915751,0.1652014652014652
5.818371344001207,0.942051282051282,0.9750915750915751,0.1652014652014652
5.820562848995905,1.6495970695970694,1.1483516483516483,0.8598534798534798
5.820769241996459,1.6495970695970694,1.1483516483516483,0.8598534798534798
5.826360799001122,1.6495970695970694,1.1483516483516483,0.8598534798534798
5.8266713060002076,1.6495970695970694,1.1483516483516483,0.8598534798534798
5.831864284999028,1.6495970695970694,1.1483516483516483,0.8598534798534798
5.834466545995383,1.6495970695970694,1.1483516483516483,0.8598534798534798
5.842121508998389,0.805054945054945,0.47062271062271055,0.5117216117216117
5.849127682995459,0.805054945054945,0.47062271062271055,0.5117216117216117
5.854857613994682,0.7276923076923076,0.4488644688644688,0.5608791208791208
5.86181129799661,1.9679120879120877,1.1008058608058606,0.8066666666666666
5.866473046000465,1.3328937728937729,0.1087912087912088,0.1805128205128205
5.866778306000924,1.3328937728937729,0.1087912087912088,0.1805128205128205
5.872964324997156,1.3328937728937729,0.1087912087912088,0.1805128205128205
5.8767829579956015,1.3328937728937729,0.1087912087912088,0.1805128205128205
5.881888600997627,1.3328937728937729,0.1087912087912088,0.1805128205128205
5.885293790997821,0.9315750915750916,0.12732600732600732,0.21274725274725276
5.885584947995085,0.9315750915750916,0.12732600732600732,0.21274725274725276
5.890699951996794,0.9315750915750916,0.12732600732600732,0.21274725274725276
5.894796956999926,0.9315750915750916,0.12732600732600732,0.21274725274725276
5.898815839995223,0.9315750915750916,0.12732600732600732,0.21274725274725276
5.903805303998524,0.9315750915750916,0.12732600732600732,0.21274725274725276
5.908335079999233,0.9315750915750916,0.12732600732600732,0.21274725274725276
5.9138216380015365,0.9315750915750916,0.12732600732600732,0.21274725274725276
5.9167069339964655,1.6915018315018313,1.1813919413919414,0.6591941391941392
5.920839813996281,1.6915018315018313,1.1813919413919414,0.6591941391941392
5.921764678001637,1.6915018315018313,1.1813919413919414,0.6591941391941392
5.92343056199752,1.6915018315018313,1.1813919413919414,0.6591941391941392
5.927296565998404,1.6915018315018313,1.1813919413919414,0.6591941391941392
5.931313736997254,1.6915018315018313,1.1813919413919414,0.6591941391941392
5.934472961998836,1.6915018315018313,1.1813919413919414,0.6591941391941392
5.93709466799919,1.6915018315018313,1.1813919413919414,0.6591941391941392
5.943814359998214,0.6994871794871794,0.4512820512820513,1.091135531135531
5.948280988995975,0.6994871794871794,0.4512820512820513,1.091135531135531
5.949141936995147,0.6994871794871794,0.4512820512820513,1.091135531135531
5.950891631997365,0.6994871794871794,0.4512820512820513,1.091135531135531
5.957017256994732,0.5479853479853479,0.958974358974359,0.03223443223443223
5.960044703999301,0.5479853479853479,0.958974358974359,0.03223443223443223
5.96376958899782,1.24021978021978,0.7478388278388278,0.7486446886446886
5.9713014169974485,2.4909157509157507,1.5045421245421244,1.7172893772893774
5.976951327000279,2.4909157509157507,1.5045421245421244,1.7172893772893774
5.985559198001283,2.4909157509157507,1.5045421245421244,1.7172893772893774
5.9929024199955165,2.4909157509157507,1.5045421245421244,1.7172893772893774
