time,emg1,emg2,emg3
0.001967766998859588,0.0,0.008058608058608058,0.02498168498168498
0.03437504199973773,0.0,0.008058608058608058,0.02498168498168498
0.05200875599985011,0.0,0.008058608058608058,0.02498168498168498
0.05225702499956242,0.0,0.008058608058608058,0.02498168498168498
0.06285471899900585,0.0,0.008058608058608058,0.02498168498168498
0.0718480659998022,0.0,0.008058608058608058,0.02498168498168498
0.07893127299757907,0.0,0.008058608058608058,0.02498168498168498
0.08563002799928654,0.0,0.008058608058608058,0.02498168498168498
0.09133472399844322,0.0,0.008058608058608058,0.02498168498168498
0.09697503200004576,0.0,0.008058608058608058,0.02498168498168498
0.10605606599710882,0.0,0.0,2.813260073260073
0.11564923699916108,0.0,0.0,2.813260073260073
0.122763938998105,0.0,0.0,2.813260073260073
0.12973855899690534,0.0,0.0,2.813260073260073
0.1347657389997039,0.0,0.0,2.813260073260073
0.13816639699871303,0.0,0.0,2.813260073260073
0.14860634899741854,0.0,0.0,2.813260073260073
0.15852627699860022,0.0,0.010476190476190476,0.029816849816849816
0.16785317799804034,0.0,0.010476190476190476,0.029816849816849816
0.17686877999949502,0.0,0.006446886446886447,2.5795604395604395
0.18510765999963041,0.0,0.006446886446886447,2.5795604395604395
0.1928307419984776,0.0,0.010476190476190476,0.1797069597069597
0.20085487799951807,0.0,0.010476190476190476,0.1797069597069597
0.2077427739968698,0.0,0.033846153846153845,3.3
0.2138708169986785,0.0,0.033846153846153845,3.3
0.2187248069967609,0.0,0.0,2.5787545787545785
0.22475625499646412,0.0,0.0,0.846153846153846
0.23240075499779778,0.0,0.0,0.846153846153846
0.23958822899658117,0.0,0.0,0.846153846153846
0.24557487499987474,0.0,0.0016117216117216117,0.7147985347985348
0.2519572779965529,0.0,0.0032234432234432234,0.004835164835164835
0.2577166839982965,0.0,0.00967032967032967,2.5787545787545785
0.2666424739982176,0.0,0.00967032967032967,2.5787545787545785
0.2758656029982376,0.0,0.01934065934065934,0.11443223443223444
0.28577639699869906,0.0,0.01934065934065934,0.11443223443223444
0.29536823299713433,0.0,0.01934065934065934,0.11443223443223444
0.30564685899662436,0.0,0.004029304029304029,1.9477655677655676
0.31416839299708954,0.0,0.004029304029304029,1.9477655677655676
0.3210902989994793,0.0,0.004029304029304029,1.9477655677655676
0.3282821419998072,0.0,0.004029304029304029,1.9477655677655676
0.33613716999752796,0.0,0.004029304029304029,1.9477655677655676
0.34357332499712356,0.0,0.004029304029304029,1.9477655677655676
0.35161408899875823,0.0,0.018534798534798533,0.1772893772893773
0.35928306299683754,0.0,0.018534798534798533,0.1772893772893773
0.3669572389990208,0.0,0.0136996336996337,0.3457142857142857
0.3742691509978613,0.0,0.006446886446886447,0.1797069597069597
0.38209020599970245,0.0,0.006446886446886447,0.1797069597069597
0.38965234799979953,0.0,0.006446886446886447,0.1797069597069597
0.3978603129980911,0.0,0.02095238095238095,2.577948717948718
0.40421079399675364,0.0,0.02095238095238095,2.577948717948718
0.4111084599971946,0.0,0.02095238095238095,2.577948717948718
0.4172924169979524,0.0,0.0,2.5755311355311354
0.4235880529995484,0.0,0.0,2.5755311355311354
0.43085164099829854,0.0,0.0,2.5755311355311354
0.43620680699677905,0.0,0.0,2.577948717948718
0.436508351998782,0.0,0.0,2.577948717948718
0.4448613589993329,0.0,0.0,2.577948717948718
0.4534955199997057,0.0,0.0,2.577948717948718
0.4603739169979235,0.0,0.0,2.577948717948718
0.46685905899721547,0.0,0.0,2.577948717948718
0.47096608199717593,0.0,0.0,2.577948717948718
0.47400211099738954,0.0,0.0,2.577948717948718
0.4742737059968931,0.0,0.0,2.577948717948718
0.4851492119996692,0.0,0.0,2.577948717948718
0.4938865439980873,0.0,0.0032234432234432234,0.17084249084249084
0.5019501129972923,0.0,0.016117216117216115,2.5787545787545785
0.5108328349997464,0.0,0.016117216117216115,2.5787545787545785
0.5191328049986623,0.0,0.016117216117216115,2.5787545787545785
0.5257731139972748,0.0,0.016117216117216115,2.5787545787545785
0.5328031819990429,0.0,0.016117216117216115,2.5787545787545785
0.5382616769966262,0.0,0.016117216117216115,2.5787545787545785
0.5487890869990224,0.0,0.016117216117216115,2.5787545787545785
0.5569051509992278,0.0,0.004029304029304029,0.10073260073260072
0.5661443199969654,0.0,0.004029304029304029,0.10073260073260072
0.5718665669992333,0.0,0.016117216117216115,0.3078388278388278
0.5811505739984568,0.0,0.016117216117216115,0.3078388278388278
0.5875400779987103,0.0,0.016117216117216115,0.3078388278388278
0.5927941509980883,0.0,0.016117216117216115,0.3078388278388278
0.5951614149998932,0.0,0.016117216117216115,0.3078388278388278
0.6017377909993229,0.0,0.016117216117216115,0.3078388278388278
0.6057965219988546,0.0,0.016117216117216115,0.3078388278388278
0.609900215997186,0.0,0.016117216117216115,0.3078388278388278
0.6129431479967025,0.0,0.016117216117216115,0.3078388278388278
0.6142083309969166,0.0,0.004835164835164835,2.5747252747252745
0.6143008319995715,0.0,0.004835164835164835,2.5747252747252745
0.6199321799977042,0.0,0.004835164835164835,2.5747252747252745
0.6208428419995471,0.0,0.004835164835164835,2.5747252747252745
0.6224761839985149,0.0,0.004835164835164835,2.5747252747252745
0.6263605149979412,0.0,0.004835164835164835,2.5747252747252745
0.6314228509982058,0.0,0.004835164835164835,2.5747252747252745
0.6343190759980644,0.0,0.0,2.5763369963369964
0.6375681059980707,0.0,0.0,2.5763369963369964
0.6385982599967974,0.0,0.0,2.5763369963369964
0.6388330739973753,0.0,0.0,2.5763369963369964
0.6460098119969189,0.0,0.0,2.5763369963369964
0.6502644569991389,0.0,0.004029304029304029,0.08864468864468865
0.6519406009974773,0.0,0.004029304029304029,0.08864468864468865
0.6557913239994377,0.0,0.004029304029304029,0.08864468864468865
0.6623539879983582,0.0,0.004029304029304029,0.08864468864468865
0.6661662959995738,0.0,0.004029304029304029,0.08864468864468865
0.6711502999969525,0.0,0.004029304029304029,0.06205128205128205
0.6742552619980415,0.0,0.004029304029304029,0.06205128205128205
0.6768895759996667,0.0,0.004029304029304029,0.06205128205128205
0.6815423989974079,0.0,0.004029304029304029,0.06205128205128205
0.6876245079984074,0.0,0.012893772893772894,0.18373626373626373
0.6915776039968478,0.0,0.012893772893772894,0.18373626373626373
0.6979913719987962,0.0,0.012893772893772894,0.18373626373626373
0.7021978489974572,0.0,0.012893772893772894,0.18373626373626373
0.704668568996567,0.0,0.014505494505494505,0.07252747252747253
0.7113562319973425,0.0,0.014505494505494505,0.07252747252747253
0.7154552929969213,0.0,0.014505494505494505,0.07252747252747253
0.7178471089973755,0.0,0.0,2.5787545787545785
0.7180389909990481,0.0,0.0,2.5787545787545785
0.7228150159971847,0.0,0.0,2.5787545787545785
0.7229726039986417,0.0,0.0,0.048351648351648346
0.7325014859998191,0.0,0.0,0.048351648351648346
0.7376294859968766,0.0,0.0,0.048351648351648346
0.7403779219966964,0.0,0.0,0.048351648351648346
0.7470790379993559,0.0,0.0,0.048351648351648346
0.7515032089977467,0.0,0.00967032967032967,0.06446886446886446
0.7517984629994316,0.0,0.007252747252747252,2.5755311355311354
0.7603804349964776,0.0,0.007252747252747252,2.5755311355311354
0.7666100269998424,0.0,0.007252747252747252,2.5755311355311354
0.7706776659979369,0.0,0.007252747252747252,2.5755311355311354
0.7749076039981446,0.0,0.0,2.5747252747252745
0.7770077549976122,0.0,0.0,2.5747252747252745
0.7772347869977239,0.0,0.0,2.5747252747252745
0.7838912879997224,0.0,0.0,2.5747252747252745
0.7878662089970021,0.0,0.0,2.5747252747252745
0.79223758399894,0.0,0.0,2.5747252747252745
0.7936255199965672,0.0,0.0,2.5747252747252745
0.8019240599969635,0.0,0.0,2.5747252747252745
0.8117200489978131,0.0,0.011282051282051281,1.3417582417582417
0.8190110809991893,0.0,0.0,0.03223443223443223
0.8232212609982525,0.0,0.0,0.03223443223443223
0.8265250039985403,0.0,0.0,0.03223443223443223
0.8266736429977755,0.0,0.0,0.03223443223443223
0.8335384339989105,0.0,0.0,0.03223443223443223
0.8381803969969042,0.0,0.0,0.03223443223443223
0.8384214189973136,0.0,0.0,0.03223443223443223
0.8457112059986684,0.0,0.0,0.03223443223443223
0.8522537799981365,0.0,0.0,0.08058608058608058
0.8576503569966007,0.0,0.0,0.08058608058608058
0.8592513209987374,0.0,0.0,0.08058608058608058
0.864592547997745,0.0,0.0,0.08058608058608058
0.8648384149964841,0.0,0.0,0.08058608058608058
0.8716082759965502,0.0,0.0,0.08058608058608058
0.8775683979984024,0.0,0.0,0.08058608058608058
0.8834291599996504,0.0,0.006446886446886447,1.797069597069597
0.8890397119976114,0.0,0.006446886446886447,1.797069597069597
0.8893202659965027,0.0,0.006446886446886447,1.797069597069597
0.8979523859998153,0.0,0.006446886446886447,1.797069597069597
0.9025990789996285,0.0,0.006446886446886447,1.797069597069597
0.9027988239977276,0.0,0.006446886446886447,1.797069597069597
0.908434088996728,0.0,0.006446886446886447,1.797069597069597
0.9088134949997766,0.0,0.0,2.577948717948718
0.9156273119988327,0.0,0.0,2.577948717948718
0.9205044239970448,0.0,0.0136996336996337,3.3
0.9205861599984928,0.0,0.016117216117216115,0.6720879120879121
0.9270668029967055,0.0,0.016117216117216115,0.6720879120879121
0.9316165179989184,0.0,0.008864468864468863,0.01934065934065934
0.9318036109980312,0.0,0.008864468864468863,0.01934065934065934
0.936793166998541,0.0,0.008864468864468863,0.01934065934065934
0.9407110169995576,0.0,0.008864468864468863,0.01934065934065934
0.9463141849992098,0.0,0.008864468864468863,0.01934065934065934
0.9465221949976694,0.0,0.008864468864468863,0.01934065934065934
0.9517086329979065,0.0,0.008864468864468863,0.01934065934065934
0.9547594989999197,0.0,0.0,2.5787545787545785
0.9564060649972816,0.0,0.0,2.5787545787545785
0.9625405089973356,0.0,0.0,2.5787545787545785
0.9661139699965133,0.0,0.0,2.5787545787545785
0.9718617639991862,0.0,0.0,2.5787545787545785
0.9727426879981067,0.0,0.0,2.5787545787545785
0.9743324909977673,0.0,0.0,2.5787545787545785
0.9802742479987501,0.0,0.0,2.5787545787545785
0.9838989979980397,0.0,0.02336996336996337,0.06446886446886446
0.9894764849996136,0.0,0.02336996336996337,0.06446886446886446
0.9905502399997204,0.0,0.02336996336996337,0.06446886446886446
0.9914678279965301,0.0,0.02336996336996337,0.06446886446886446
0.9930581099979463,0.0,0.02336996336996337,0.06446886446886446
0.9985099479999917,0.0,0.011282051282051281,3.3
0.998714082998049,0.0,0.011282051282051281,3.3
1.0044855599990115,0.0,0.011282051282051281,3.3
1.0045497809987864,0.0,0.004835164835164835,0.0
1.0111843639970175,0.0,0.004835164835164835,0.0
1.0147618189985224,0.0,0.004835164835164835,0.0
1.0148512909981946,0.0,0.0024175824175824176,1.2813186813186812
1.0203951799994684,0.0,0.03626373626373627,0.6076190476190476
1.0212076989992056,0.0,0.0,0.02336996336996337
1.0228173499999684,0.0,0.0,0.02336996336996337
1.0270526579988655,0.0,0.00967032967032967,0.016117216117216115
1.028171793997899,0.0,0.00967032967032967,0.016117216117216115
1.0285184879976441,0.0,0.00967032967032967,0.016117216117216115
1.033544683999935,0.0,0.00967032967032967,0.016117216117216115
1.0382336429975112,0.0,0.0032234432234432234,2.5787545787545785
1.04417456399824,0.0,0.0032234432234432234,2.5787545787545785
1.0499687049996282,0.0,0.004835164835164835,0.0136996336996337
1.0501185719986097,0.0,0.028205128205128206,0.008864468864468863
1.0556268739965162,0.0,0.028205128205128206,0.008864468864468863
1.056709520998993,0.0,0.014505494505494505,2.5763369963369964
1.0569798359974811,0.0,0.014505494505494505,2.5763369963369964
1.0631038169995009,0.0,0.014505494505494505,2.5763369963369964
1.0667723219994514,0.0,0.014505494505494505,2.5763369963369964
1.0723001709993696,0.0,0.014505494505494505,2.5763369963369964
1.0739239669965173,0.0,0.014505494505494505,2.5763369963369964
1.0784244439964823,0.0,0.014505494505494505,2.5763369963369964
1.0786734569992404,0.0,0.014505494505494505,2.5763369963369964
1.0839233039987448,0.0,0.014505494505494505,2.5763369963369964
1.0855857749993447,0.0,0.0,0.0
1.0894361969985766,0.0,0.0,0.0
1.0950452949982719,0.0,0.006446886446886447,2.577142857142857
1.095161172997905,0.0,0.006446886446886447,2.577142857142857
1.101114069999312,0.0,0.006446886446886447,2.577142857142857
1.1049253879973548,0.0,0.006446886446886447,2.577142857142857
1.1095775539979513,0.0,0.008058608058608058,0.05721611721611722
1.1097341569984565,0.0,0.008058608058608058,0.05721611721611722
1.1153216649981914,0.0,0.008058608058608058,0.05721611721611722
1.1170440149981005,0.0,0.008058608058608058,0.05721611721611722
1.1193972579967522,0.0,0.008058608058608058,0.05721611721611722
1.1203634529992996,0.0,0.012893772893772894,0.6938461538461538
1.1206603959981294,0.0,0.012893772893772894,0.6938461538461538
1.1262041299996781,0.0,0.012893772893772894,0.6938461538461538
1.1264962389977882,0.0,0.012893772893772894,0.6938461538461538
1.1314262659980159,0.0,0.012893772893772894,0.6938461538461538
1.137032761998853,0.0,0.012893772893772894,0.6938461538461538
1.1381244249969313,0.0,0.018534798534798533,2.581978021978022
1.138320334997843,0.0,0.018534798534798533,2.581978021978022
1.14387980399988,0.0,0.018534798534798533,2.581978021978022
1.1455343289999291,0.0,0.004029304029304029,0.2683516483516483
1.149465878999763,0.0,0.004029304029304029,0.2683516483516483
1.1536749999977474,0.0,0.004029304029304029,0.2683516483516483
1.1547056499985047,0.0,0.004029304029304029,0.2683516483516483
1.1560248639980273,0.0,0.004029304029304029,0.2683516483516483
1.163828326996736,0.0,0.004029304029304029,0.2683516483516483
1.1703495869987819,0.0,0.011282051282051281,0.11765567765567764
1.1748593599986634,0.0,0.011282051282051281,0.11765567765567764
1.1767439909999666,0.0,0.0,3.3
1.17841632499767,0.0,0.0,3.3
1.1829128839999612,0.0,0.025787545787545788,0.7236630036630036
1.1874719009974797,0.0,0.025787545787545788,0.7236630036630036
1.1876951749982254,0.0,0.025787545787545788,0.7236630036630036
1.1953669439972145,0.0,0.025787545787545788,0.7236630036630036
1.1997015879969695,0.0,0.025787545787545788,0.7236630036630036
1.201319836996845,0.0,0.016117216117216115,0.8034432234432234
1.2052571909989638,0.0,0.016117216117216115,0.8034432234432234
1.2100696049965336,0.0,0.016117216117216115,0.8034432234432234
1.2151605569997628,0.0,0.016117216117216115,0.8034432234432234
1.2177185989967256,0.0,0.020146520146520144,3.3
1.2231310709976242,0.0,0.02095238095238095,0.3884249084249084
1.225532017997466,0.0,0.008864468864468863,0.17164835164835165
1.2310651679981675,0.0,0.008864468864468863,0.17164835164835165
1.232846378999966,0.0,0.008864468864468863,0.17164835164835165
1.2353484999985085,0.0,0.008864468864468863,0.17164835164835165
1.2354389409993018,0.0,0.008864468864468863,0.17164835164835165
1.2410049169993727,0.0,0.0032234432234432234,1.8397802197802198
1.2419686049979646,0.0,0.005641025641025641,0.7478388278388278
1.2428191929975583,0.0,0.005641025641025641,0.7478388278388278
1.2446318529982818,0.0,0.005641025641025641,0.7478388278388278
1.2478442679966975,0.0,0.005641025641025641,0.7478388278388278
1.2493926839997584,0.0,0.005641025641025641,0.7478388278388278
1.2539179849991342,0.0,0.005641025641025641,0.7478388278388278
1.2548294419975718,0.0,0.005641025641025641,0.7478388278388278
1.2556953779967444,0.0,0.005641025641025641,0.7478388278388278
1.2573847839994414,0.0,0.005641025641025641,0.7478388278388278
1.2604479939982411,0.0,0.005641025641025641,0.7478388278388278
1.2619896839969442,0.0,0.005641025641025641,0.7478388278388278
1.2665900839965616,0.0,0.005641025641025641,0.7478388278388278
1.26683263599989,0.0,0.037875457875457874,0.048351648351648346
1.2714566799986642,0.0,0.037875457875457874,0.048351648351648346
1.2715849409978546,0.0,0.037875457875457874,0.048351648351648346
1.2770389580000483,0.0,0.037875457875457874,0.048351648351648346
1.2779228079998575,0.0,0.037875457875457874,0.048351648351648346
1.2795082489974448,0.0,0.037875457875457874,0.048351648351648346
1.2839958399999887,0.0,0.037875457875457874,0.048351648351648346
1.284234065999044,0.0,0.037875457875457874,0.048351648351648346
1.2895389019977301,0.0,0.037875457875457874,0.048351648351648346
1.291113224997389,0.0,0.037875457875457874,0.048351648351648346
1.2950083409996296,0.0,0.037875457875457874,0.048351648351648346
1.29890358099874,0.0,0.008864468864468863,2.5787545787545785
1.3028386869991664,0.0,0.0,1.228937728937729
1.306070593996992,0.0,0.0,1.228937728937729
1.3076836909967824,0.0,0.0,1.228937728937729
1.3115929959967616,0.0,0.0,1.228937728937729
1.3153763189984602,0.0,0.0,1.228937728937729
1.3207469249973656,0.0,0.0,1.228937728937729
1.3231142879994877,0.0,0.0016117216117216117,0.14505494505494507
1.3232900209986838,0.0,0.004835164835164835,0.04351648351648352
1.3289173769990157,0.0,0.004835164835164835,0.04351648351648352
1.3296920499997213,0.0,0.004835164835164835,0.04351648351648352
1.3311994689975108,0.0,0.004835164835164835,0.04351648351648352
1.3353528189982171,0.0,0.004835164835164835,0.04351648351648352
1.337568888997339,0.0,0.004835164835164835,0.04351648351648352
1.3383277079992695,0.0,0.004835164835164835,0.04351648351648352
1.3403896589989017,0.0,0.004835164835164835,0.04351648351648352
1.341184221997537,0.0,0.007252747252747252,0.1104029304029304
1.3426532729972678,0.0,0.007252747252747252,0.1104029304029304
1.347938469996734,0.0,0.007252747252747252,0.1104029304029304
1.3509979489972466,0.0,0.0016117216117216117,0.0419047619047619
1.3533495309966384,0.0,0.0016117216117216117,0.0419047619047619
1.3534877299971413,0.0,0.020146520146520144,2.569084249084249
1.3592244579995167,0.0,0.020146520146520144,2.569084249084249
1.3644982809964858,0.0,0.017728937728937726,0.4778754578754579
1.3674152799976582,0.0,0.01531135531135531,0.0273992673992674
1.369706886998756,0.0,0.0,0.012893772893772894
1.3698949849967903,0.0,0.0,0.012893772893772894
1.3747875559965905,0.0,0.0,0.012893772893772894
1.379172793996986,0.0,0.016117216117216115,3.3
1.3806430909971823,0.0,0.016117216117216115,3.3
1.3856395589973545,0.0,0.016117216117216115,3.3
1.389205157996912,0.0,0.00967032967032967,0.05721611721611722
1.3944076579973625,0.0,0.00967032967032967,0.05721611721611722
1.398579932996654,0.0,0.00967032967032967,0.05721611721611722
1.4015247889983584,0.0,0.008864468864468863,1.286959706959707
1.404410568997264,0.0,0.008864468864468863,1.286959706959707
1.4072733189968858,0.0,0.008058608058608058,0.0136996336996337
1.410202818999096,0.0,0.02336996336996337,0.02336996336996337
1.4131674799973553,0.0,0.02336996336996337,0.02336996336996337
1.4159996779999346,0.0,0.02336996336996337,0.02336996336996337
1.4195834869969985,0.0,0.022564102564102562,1.1378754578754577
1.4197303739965719,0.0,0.00967032967032967,0.78007326007326
1.4246857299986004,0.0,0.00967032967032967,0.78007326007326
1.4297045349994733,0.0,0.00967032967032967,0.78007326007326
1.435536601999047,0.0,0.00967032967032967,0.78007326007326
1.4411461929994402,0.0,0.00967032967032967,0.78007326007326
1.4412991869976395,0.0,0.00967032967032967,0.78007326007326
1.446571144999325,0.0,0.00967032967032967,0.78007326007326
1.4496580619997985,0.0,0.010476190476190476,0.01531135531135531
1.4520267689986213,0.0,0.010476190476190476,0.01531135531135531
1.4521835739978997,0.0,0.010476190476190476,0.01531135531135531
1.4574934749980457,0.0,0.010476190476190476,0.01531135531135531
1.4599774749985954,0.0,0.010476190476190476,0.01531135531135531
1.465671719997772,0.0,0.0,0.13377289377289378
1.466528937999101,0.0,0.0,0.13377289377289378
1.4674757969987695,0.0,0.0,0.13377289377289378
1.468399232999218,0.0,0.0,0.13377289377289378
1.469951200997457,0.0,0.0,0.13377289377289378
1.4738568129978376,0.0,0.0,0.13377289377289378
1.477821178999875,0.0,0.0024175824175824176,2.5787545787545785
1.4815941579981882,0.0,0.0024175824175824176,2.5787545787545785
1.4854346549982438,0.0,0.0024175824175824176,2.5787545787545785
1.4900923279965355,0.0,0.0024175824175824176,2.5787545787545785
1.4953842609975254,0.0,0.0024175824175824176,2.5787545787545785
1.4977480409979762,0.0,0.0024175824175824176,2.5787545787545785
1.4979104789999838,0.0,0.0024175824175824176,2.5787545787545785
1.5031633649996365,0.0,0.0024175824175824176,2.5787545787545785
1.5061429219967977,0.0,0.0024175824175824176,2.5787545787545785
1.5091604769986589,0.0,0.0024175824175824176,2.5787545787545785
1.511475266997877,0.0,0.0024175824175824176,2.5787545787545785
1.511728025998309,0.0,0.0024175824175824176,2.5787545787545785
1.517892463998578,0.0,0.0024175824175824176,2.5787545787545785
1.5236906189966248,0.0,0.0024175824175824176,2.5787545787545785
1.5311291939979128,0.0,0.0024175824175824176,2.5787545787545785
1.5383627049995994,0.0,0.0024175824175824176,2.5795604395604395
1.5440755399977206,0.0,0.005641025641025641,1.5915750915750915
1.5497149739967426,0.0,0.005641025641025641,1.5915750915750915
1.5505324519981514,0.0,0.005641025641025641,1.5915750915750915
1.5521549679979216,0.0,0.0,2.5763369963369964
1.5559785969999211,0.0,0.0,2.5763369963369964
1.5604747429970303,0.0,0.0,2.5763369963369964
1.5607210279995343,0.0,0.004835164835164835,0.49479853479853475
1.566030623998813,0.0,0.004835164835164835,0.49479853479853475
1.568331741997099,0.0,0.004835164835164835,0.49479853479853475
1.5685490959986055,0.0,0.004835164835164835,0.49479853479853475
1.5739298409971525,0.0,0.004835164835164835,0.49479853479853475
1.5747772039976553,0.0,0.004029304029304029,2.5674725274725274
1.5764202029968146,0.0,0.004029304029304029,2.5674725274725274
1.581150373996934,0.0,0.004029304029304029,2.5674725274725274
1.5865040789976774,0.0,0.014505494505494505,0.2796336996336996
1.5888584639978944,0.0,0.0821978021978022,0.02095238095238095
1.5889827569990302,0.0,0.0821978021978022,0.02095238095238095
1.5943996369969682,0.0,0.012893772893772894,2.5787545787545785
1.596065447996807,0.0,0.012893772893772894,2.5787545787545785
1.5998226539995812,0.0,0.045128205128205125,1.1475457875457875
1.6045098019967554,0.0,0.045128205128205125,1.1475457875457875
1.6046990339964395,0.0,0.045128205128205125,1.1475457875457875
1.6104463029987528,0.0,0.045128205128205125,1.1475457875457875
1.6105722909996985,0.0,0.045128205128205125,1.1475457875457875
1.6158661329973256,0.0,0.045128205128205125,1.1475457875457875
1.6181488139991416,0.0,0.0,1.1862271062271061
1.618265082997823,0.0,0.0,1.1862271062271061
1.6236656209985085,0.0,0.0,1.1862271062271061
1.6252583649984444,0.0,0.0,1.1862271062271061
1.6290906219983299,0.0,0.0,1.1862271062271061
1.6336164759995881,0.0,0.0,1.1862271062271061
1.6337564839996048,0.0,0.0,1.1862271062271061
1.639161413997499,0.0,0.0,1.1862271062271061
1.6407582109968644,0.0,0.0,1.1862271062271061
1.6445464419994096,0.0,0.0,1.1862271062271061
1.6498489409968897,0.0,0.0,1.1862271062271061
1.6521127289997821,0.0,0.0,1.1862271062271061
1.652290684000036,0.0,0.0,1.1862271062271061
1.6575778839978739,0.0,0.0,1.1862271062271061
1.6598706400000083,0.0,0.0,1.1862271062271061
1.6600370499982091,0.0,0.0,1.1862271062271061
1.6654212809989986,0.0,0.0,1.1862271062271061
1.6677238489974116,0.0,0.0,1.1862271062271061
1.6679324509968865,0.0,0.0,1.1862271062271061
1.6732696289982414,0.0,0.0,1.1862271062271061
1.6748888499969325,0.0,0.0,1.1862271062271061
1.6786503569965134,0.0,0.0,1.1862271062271061
1.6787269349988492,0.0,0.0,1.1862271062271061
1.6844026359976851,0.0,0.0,1.1862271062271061
1.6845470949992887,0.0,0.02175824175824176,0.0821978021978022
1.6925975979975192,0.0,0.02175824175824176,0.0821978021978022
1.6996776469968609,0.0,0.02175824175824176,0.0821978021978022
1.706758317999629,0.0,0.02175824175824176,0.0821978021978022
1.7135677469996153,0.0,0.011282051282051281,0.025787545787545788
1.7180264279995754,0.0,0.011282051282051281,0.025787545787545788
1.7181308419967536,0.0,0.011282051282051281,0.025787545787545788
1.7242208599964215,0.0,0.011282051282051281,0.025787545787545788
1.7310223369968298,0.0,0.011282051282051281,0.025787545787545788
1.7364812249979877,0.0,0.011282051282051281,0.025787545787545788
1.7367269520000264,0.0,0.011282051282051281,0.025787545787545788
1.7449499309987004,0.0,0.011282051282051281,0.025787545787545788
1.7497205949985073,0.0,0.017728937728937726,0.07252747252747253
1.754564176997519,0.0,0.017728937728937726,0.07252747252747253
1.7546755899966229,0.0,0.0,3.3
1.7606840369990095,0.0,0.03223443223443223,2.013846153846154
1.7673422019979625,0.0,0.03223443223443223,2.013846153846154
1.7736378039990086,0.0,0.03223443223443223,2.013846153846154
1.7798586689968943,0.0,0.012087912087912087,2.577948717948718
1.7855278819988598,0.0,0.016117216117216115,0.4464468864468864
1.795433047998813,0.0,0.0,0.014505494505494505
1.8047311139998783,0.0,0.0,1.4553846153846153
1.8119487529984326,0.0,0.01934065934065934,1.2410256410256408
1.8165785949968267,0.0,0.01934065934065934,1.2410256410256408
1.8257368299964583,0.0,0.01934065934065934,1.2410256410256408
1.8337146319972817,0.0,0.01934065934065934,0.1095970695970696
1.8396456179980305,0.0,0.01934065934065934,0.1095970695970696
1.8452837439981522,0.0,0.01934065934065934,0.1095970695970696
1.8454097979993094,0.0,0.01934065934065934,0.1095970695970696
1.8536959119992389,0.0,0.01934065934065934,0.1095970695970696
1.8599612809994142,0.0,0.01934065934065934,0.1095970695970696
1.8661894339966238,0.0,0.01934065934065934,0.1095970695970696
1.8724351769997156,0.0,0.01934065934065934,0.1095970695970696
1.8783711149990268,0.0,0.01934065934065934,0.1095970695970696
1.8835736279979756,0.0,0.01934065934065934,0.1095970695970696
1.8844806629967934,0.0,0.01934065934065934,0.1095970695970696
1.8853678659979778,0.0,0.01934065934065934,0.1095970695970696
1.8870493939975859,0.0,0.01934065934065934,0.1095970695970696
1.8908221419987967,0.0,0.01934065934065934,0.1095970695970696
1.8954288079985417,0.0,0.01934065934065934,0.1095970695970696
1.8956844659987837,0.0,0.01934065934065934,0.1095970695970696
1.9004586229966662,0.0,0.01934065934065934,0.1095970695970696
1.9061538419991848,0.0,0.0,0.18534798534798536
1.906326601998444,0.0,0.006446886446886447,0.06366300366300366
1.914961795999261,0.0,0.006446886446886447,0.06366300366300366
1.9232055509964994,0.0,0.006446886446886447,0.06366300366300366
1.9306297969997104,0.0,0.006446886446886447,0.06366300366300366
1.9356191959996067,0.0,0.006446886446886447,0.06366300366300366
1.9407899499965424,0.0,0.006446886446886447,0.06366300366300366
1.9410863049997715,0.0,0.006446886446886447,0.06366300366300366
1.9498036919976585,0.0,0.006446886446886447,0.06366300366300366
1.9553775249987666,0.0,0.006446886446886447,0.06366300366300366
1.9557121549987642,0.0,0.006446886446886447,0.06366300366300366
1.962486568998429,0.0,0.006446886446886447,0.06366300366300366
1.968908561997523,0.0,0.006446886446886447,0.06366300366300366
1.9740094819972,0.0,0.006446886446886447,0.06366300366300366
1.9772254979980062,0.0,0.006446886446886447,0.06366300366300366
1.9776266229964676,0.0,0.006446886446886447,0.06366300366300366
1.9868894119972538,0.0,0.006446886446886447,0.06366300366300366
1.9919619029969908,0.0,0.012893772893772894,0.06769230769230769
1.997978700997919,0.0,0.012893772893772894,0.06769230769230769
2.0019749449966184,0.0,0.012893772893772894,0.06769230769230769
2.0054679539971403,0.0,0.0,0.04915750915750916
2.0055863719971967,0.0,0.0,0.04915750915750916
2.0109112489990366,0.0,0.0,0.04915750915750916
2.0134388039987243,0.0,0.02498168498168498,0.03062271062271062
2.0190994319964375,0.0,0.02498168498168498,0.03062271062271062
2.019244028997491,0.0,0.016923076923076923,1.0315018315018314
2.0247066769989033,0.0,0.016923076923076923,1.0315018315018314
2.0263652009998623,0.0,0.0,0.04351648351648352
2.0295294759998797,0.0,0.0,0.04351648351648352
2.030354777998582,0.0,0.0,0.04351648351648352
2.031939426997269,0.0,0.0,0.04351648351648352
2.0357964129980246,0.0,0.0,0.04351648351648352
2.0395416719984496,0.0,0.0,0.04351648351648352
2.0442627809970872,0.0,0.0016117216117216117,0.07252747252747253
2.049972857999819,0.0,0.0016117216117216117,0.07252747252747253
2.050081074998161,0.0,0.0016117216117216117,0.07252747252747253
2.0554576329996053,0.0,0.0016117216117216117,0.07252747252747253
2.056956928998261,0.0,0.0016117216117216117,0.07252747252747253
2.0613997019972885,0.0,0.0016117216117216117,0.07252747252747253
2.0616486679973605,0.0,0.02901098901098901,0.09186813186813186
2.0674586729983275,0.0,0.02901098901098901,0.09186813186813186
2.0780946149970987,0.0,0.02901098901098901,0.09186813186813186
2.08717053899818,0.0,0.02901098901098901,0.09186813186813186
2.0922083479999856,0.0,0.02901098901098901,0.09186813186813186
2.096111327999097,0.0,0.016117216117216115,2.5787545787545785
2.100019079000049,0.0,0.017728937728937726,0.7172161172161172
2.103935842998908,0.0,0.017728937728937726,0.7172161172161172
2.1076590589982516,0.0,0.017728937728937726,0.7172161172161172
2.1131081439998525,0.0,0.017728937728937726,0.7172161172161172
2.114739856999222,0.0,0.017728937728937726,0.7172161172161172
2.1179224489969783,0.0,0.017728937728937726,0.7172161172161172
2.1194890509977995,0.0,0.02336996336996337,0.49076923076923074
2.1260688079964893,0.0,0.02336996336996337,0.49076923076923074
2.131853411996417,0.0,0.0,0.04915750915750916
2.1394007989983947,0.0,0.0,0.04915750915750916
2.1460069909990125,0.0,0.0,0.04915750915750916
2.151762385998154,0.0,0.0,0.04915750915750916
2.1602794409991475,0.0,0.011282051282051281,2.5747252747252745
2.170213948997116,0.0,0.011282051282051281,2.5747252747252745
2.1783975409998675,0.0,0.0,0.008864468864468863
2.185549286998139,0.0,0.029816849816849816,3.3
2.190959704999841,0.0,0.029816849816849816,3.3
2.1911578409999493,0.0,0.00967032967032967,2.5763369963369964
2.1972151409972867,0.0,0.00967032967032967,2.5763369963369964
2.200188729999354,0.0,0.00967032967032967,2.5763369963369964
2.2037558579977485,0.0,0.00967032967032967,2.5763369963369964
2.203931988999102,0.0,0.00967032967032967,2.5763369963369964
2.2087224459974095,0.0,0.00967032967032967,2.5763369963369964
2.213662863996433,0.0,0.00967032967032967,2.5763369963369964
2.2137382679975417,0.0,0.00967032967032967,2.5763369963369964
2.2185617679970164,0.0,0.020146520146520144,2.1871062271062267
2.223650125997665,0.0,0.020146520146520144,2.1871062271062267
2.2277181269964785,0.0,0.020146520146520144,2.1871062271062267
2.2300653969978157,0.0,0.020146520146520144,2.1871062271062267
2.230302498999663,0.0,0.020146520146520144,2.1871062271062267
2.2355773439994664,0.0,0.020146520146520144,2.1871062271062267
2.23875672199938,0.0,0.006446886446886447,1.311135531135531
2.2396130459965207,0.0,0.006446886446886447,1.311135531135531
2.24118814099711,0.0,0.017728937728937726,0.112014652014652
2.2450636209978256,0.0,0.017728937728937726,0.112014652014652
2.2488505319997785,0.0,0.017728937728937726,0.112014652014652
2.253392332997464,0.0,0.017728937728937726,0.112014652014652
2.254934148997563,0.0,0.017728937728937726,0.112014652014652
2.2587362109989044,0.0,0.017728937728937726,0.112014652014652
2.2632070659965393,0.0,0.017728937728937726,0.112014652014652
2.2635366389986302,0.0,0.017728937728937726,0.112014652014652
2.2683408229968336,0.0,0.017728937728937726,0.112014652014652
2.2728963259978627,0.0,0.0024175824175824176,0.017728937728937726
2.273173688998213,0.0,0.0,2.577142857142857
2.2786712349989102,0.0,0.0,2.577142857142857
2.2803821389970835,0.0,0.01934065934065934,0.2747985347985348
2.2837985499973,0.0,0.01934065934065934,0.2747985347985348
2.283894075997523,0.0,0.01934065934065934,0.2747985347985348
2.289515627999208,0.0,0.01934065934065934,0.2747985347985348
2.2897286409970548,0.0,0.0,0.010476190476190476
2.295384308999928,0.0,0.0,0.010476190476190476
2.2955732999980683,0.0,0.0,0.010476190476190476
2.3010375749981904,0.0,0.0,0.010476190476190476
2.3025596979969123,0.0,0.0,0.010476190476190476
2.307025320998946,0.0,0.0,0.010476190476190476
2.307151120996423,0.0,0.0,0.010476190476190476
2.3124427359980473,0.0,0.0,0.010476190476190476
2.3156881889990473,0.0,0.0,0.010476190476190476
2.3159112009998353,0.0,0.016117216117216115,2.2233699633699633
2.3212384789985663,0.0,0.016117216117216115,2.2233699633699633
2.3239076799982286,0.0,0.011282051282051281,0.26915750915750913
2.328383756997937,0.0,0.011282051282051281,0.26915750915750913
2.329211733998818,0.0,0.011282051282051281,0.26915750915750913
2.330931402997521,0.0,0.011282051282051281,0.26915750915750913
2.3341498719964875,0.0,0.0,2.5787545787545785
2.3350454429964884,0.0,0.007252747252747252,3.3
2.336645379997208,0.0,0.007252747252747252,3.3
2.341373091996502,0.0,0.007252747252747252,3.3
2.3414861759993073,0.0,0.007252747252747252,3.3
2.3470594589998655,0.0,0.007252747252747252,3.3
2.3473283589992207,0.0,0.007252747252747252,3.3
2.3523323779991188,0.0,0.007252747252747252,3.3
2.357994151996536,0.0,0.011282051282051281,2.5586080586080584
2.358121997996932,0.0,0.011282051282051281,2.5586080586080584
2.3637896699983685,0.0,0.011282051282051281,2.5586080586080584
2.363871653997194,0.0,0.0,0.0
2.3694036589986354,0.0,0.0,0.0
2.36961271799737,0.0,0.0,0.0
2.3750042369974835,0.0,0.0,0.0
2.376640556998609,0.0,0.0,0.0
2.3805603119981242,0.0,0.0,0.0
2.3843439709999075,0.0,0.0,0.0
2.388570531998994,0.0,0.0,0.0
2.3900633579978603,0.0,0.0,0.0
2.3942665369977476,0.0,0.0,0.0
2.395660409998527,0.0,0.0,0.0
2.3999775579977722,0.0,0.0,0.0
2.402097287998913,0.0,0.0,0.0
2.4028980039984162,0.0,0.0,0.0
2.405074580998189,0.0,0.0,0.0
2.405852011997922,0.0,0.0,0.0
2.4079560989994206,0.0,0.0,0.0
2.4087506189971464,0.0,0.0,0.0
2.4108497639972484,0.0,0.0,0.0
2.411655362997408,0.0,0.0,0.0
2.4138256759979413,0.0,0.0,0.0
2.4141116139981023,0.0,0.022564102564102562,2.54974358974359
2.418988352997985,0.0,0.007252747252747252,2.896263736263736
2.4240016999974614,0.0,0.011282051282051281,0.5028571428571429
2.42893867499879,0.0,0.011282051282051281,0.5028571428571429
2.433282866997615,0.0,0.011282051282051281,0.5028571428571429
2.434824315998412,0.0,0.008058608058608058,2.577948717948718
2.439029909997771,0.0,0.008058608058608058,2.577948717948718
2.441179501998704,0.0,0.008058608058608058,2.577948717948718
2.4419453839982452,0.0,0.008058608058608058,2.577948717948718
2.444052587998158,0.0,0.008058608058608058,2.577948717948718
2.444863375996647,0.0,0.008058608058608058,2.577948717948718
2.447077453998645,0.0,0.008058608058608058,2.577948717948718
2.447321164996538,0.0,0.008058608058608058,2.577948717948718
2.452272451999306,0.0,0.008058608058608058,2.577948717948718
2.4572981929995876,0.0,0.0024175824175824176,2.573919413919414
2.460199642999214,0.0,0.0024175824175824176,2.573919413919414
2.4631001419984386,0.0,0.006446886446886447,0.17406593406593407
2.466669927998737,0.0,0.006446886446886447,0.17406593406593407
2.4668576429976383,0.0,0.0,0.00967032967032967
2.4722131179987628,0.0,0.0,0.00967032967032967
2.4746899549973023,0.0,0.007252747252747252,2.5747252747252745
2.480068085998937,0.0,0.007252747252747252,2.5747252747252745
2.481652195998322,0.0,0.007252747252747252,2.5747252747252745
2.4854346489992167,0.0,0.007252747252747252,2.5747252747252745
2.490507397997135,0.0,0.0,0.012087912087912087
2.495169307996548,0.0,0.0,0.012087912087912087
2.4952345159981633,0.0,0.0,0.012087912087912087
2.500767644000007,0.0,0.0,0.012087912087912087
2.5009214769997925,0.0,0.004029304029304029,0.1104029304029304
2.5057535899977665,0.0,0.004029304029304029,0.1104029304029304
2.505849755998497,0.0,0.004029304029304029,0.1104029304029304
2.5112714349997987,0.0,0.004029304029304029,0.1104029304029304
2.5138710159990296,0.0,0.017728937728937726,2.5787545787545785
2.518618260997755,0.0,0.017728937728937726,2.5787545787545785
2.5187726320000365,0.0,0.017728937728937726,2.5787545787545785
2.523684883999522,0.0,0.017728937728937726,2.5787545787545785
2.527213251996727,0.0,0.008058608058608058,0.012893772893772894
2.5273390779984766,0.0,0.008058608058608058,0.012893772893772894
2.5324271909994422,0.0,0.008058608058608058,0.012893772893772894
2.5352884519998042,0.0,0.0,2.581172161172161
2.5382203129993286,0.0,0.0,2.581172161172161
2.5418159349974303,0.0,0.010476190476190476,0.5608791208791208
2.541928222999559,0.0,0.010476190476190476,0.5608791208791208
2.5468423509992135,0.0,0.010476190476190476,0.5608791208791208
2.5518417049970594,0.0,0.0,1.1717216117216116
2.5558825609987252,0.0,0.0,1.1717216117216116
2.5583288359994185,0.0,0.03948717948717949,3.3
2.5584562869989895,0.0,0.03948717948717949,3.3
2.563938926999981,0.0,0.03948717948717949,3.3
2.565004379997845,0.0,0.03948717948717949,3.3
2.565929848999076,0.0,0.03948717948717949,3.3
2.567020558999502,0.0,0.03948717948717949,3.3
2.5672005919986987,0.0,0.03948717948717949,3.3
2.572902662999695,0.0,0.03948717948717949,3.3
2.5731009129995073,0.0,0.03948717948717949,3.3
2.578393956999207,0.0,0.012893772893772894,3.3
2.581125456999871,0.0,0.012893772893772894,3.3
2.585413377997611,0.0,0.012893772893772894,3.3
2.5871709159982856,0.0,0.012893772893772894,3.3
2.589727443999436,0.0,0.0008058608058608059,0.0
2.5946552009991137,0.0,0.0016117216117216117,2.577948717948718
2.598714250998455,0.0,0.0016117216117216117,2.577948717948718
2.6013938449978014,0.0,0.0016117216117216117,2.577948717948718
2.606058811998082,0.0,0.0016117216117216117,2.577948717948718
2.6061786840000423,0.0,0.0016117216117216117,2.577948717948718
2.6120753429968318,0.0,0.00967032967032967,0.008058608058608058
2.617001550999703,0.0,0.00967032967032967,0.008058608058608058
2.620923506998224,0.0,0.00967032967032967,0.008058608058608058
2.6250713809968147,0.0,0.00967032967032967,0.008058608058608058
2.6275131679976766,0.0,0.00967032967032967,0.008058608058608058
2.62758687799942,0.0,0.00967032967032967,0.008058608058608058
2.633214693996706,0.0,0.00967032967032967,0.008058608058608058
2.6333323319995543,0.0,0.00967032967032967,0.008058608058608058
2.6383497339993482,0.0,0.00967032967032967,0.008058608058608058
2.6425615979969734,0.0,0.00967032967032967,0.008058608058608058
2.6454817369995,0.0,0.0136996336996337,0.1942124542124542
2.649753719997534,0.0,0.0136996336996337,0.1942124542124542
2.6512374409976474,0.0,0.0136996336996337,0.1942124542124542
2.6555045649984095,0.0,0.012893772893772894,2.5787545787545785
2.6576585869988776,0.0,0.012893772893772894,2.5787545787545785
2.6584327239979757,0.0,0.012893772893772894,2.5787545787545785
2.660608895999758,0.0,0.012893772893772894,2.5787545787545785
2.661416383998585,0.0,0.012893772893772894,2.5787545787545785
2.662972094996803,0.0,0.012893772893772894,2.5787545787545785
2.667174572998192,0.0,0.012893772893772894,2.5787545787545785
2.6693994449997263,0.0,0.012893772893772894,2.5787545787545785
2.6709739479993004,0.0,0.012893772893772894,2.5787545787545785
2.6752747430000454,0.0,0.007252747252747252,2.577948717948718
2.676217595999333,0.0,0.007252747252747252,2.577948717948718
2.677168255999277,0.0,0.007252747252747252,2.577948717948718
2.678758994999953,0.0,0.007252747252747252,2.577948717948718
2.6825231529983284,0.0,0.007252747252747252,2.577948717948718
2.687241609997727,0.0,0.007252747252747252,2.577948717948718
2.692636666997714,0.0,0.007252747252747252,2.577948717948718
2.695691856999474,0.0,0.0032234432234432234,2.5763369963369964
2.6973141909984406,0.0,0.0032234432234432234,2.5763369963369964
2.7011768689990276,0.0,0.0032234432234432234,2.5763369963369964
2.7049291169969365,0.0,0.0032234432234432234,2.5763369963369964
2.709461950998957,0.0,0.0032234432234432234,2.5763369963369964
2.7097127479974006,0.0,0.0032234432234432234,2.5763369963369964
2.714950000998215,0.0,0.0136996336996337,2.5763369963369964
2.7179939249981544,0.0,0.0136996336996337,2.5763369963369964
2.719623569999385,0.0,0.0136996336996337,2.5763369963369964
2.7235440679978637,0.0,0.0016117216117216117,0.08703296703296703
2.728035310999985,0.0,0.0016117216117216117,0.08703296703296703
2.7282349769993743,0.0,0.0016117216117216117,0.08703296703296703
2.73358339999686,0.0,0.0016117216117216117,0.08703296703296703
2.734471401996416,0.0,0.0136996336996337,2.577948717948718
2.736135370996635,0.0,0.0136996336996337,2.577948717948718
2.7399225319968536,0.0,0.0136996336996337,2.577948717948718
2.7446357639964845,0.0,0.010476190476190476,0.5157509157509157
2.7447598449980433,0.0,0.010476190476190476,0.5157509157509157
2.750236934996792,0.0,0.010476190476190476,0.5157509157509157
2.7518980809982168,0.0,0.010476190476190476,0.5157509157509157
2.7550240499986103,0.0,0.010476190476190476,0.5157509157509157
2.757296869996935,0.0,0.010476190476190476,0.5157509157509157
2.7574843229995167,0.0,0.010476190476190476,0.5157509157509157
2.762776892999682,0.0,0.010476190476190476,0.5157509157509157
2.765792029997101,0.0,0.010476190476190476,0.5157509157509157
2.768108513999323,0.0,0.010476190476190476,0.5157509157509157
2.768249876997288,0.0,0.010476190476190476,0.5157509157509157
2.7730962639980135,0.0,0.010476190476190476,0.5157509157509157
2.782733689997258,0.0,0.006446886446886447,2.5787545787545785
2.7885720539998147,0.0,0.007252747252747252,2.436117216117216
2.794223028999113,0.0,0.025787545787545788,0.004029304029304029
2.7944215569987136,0.0,0.025787545787545788,0.004029304029304029
2.799917826996534,0.0,0.025787545787545788,0.004029304029304029
2.8007659149989195,0.0,0.025787545787545788,0.004029304029304029
2.802334512998641,0.0,0.025787545787545788,0.004029304029304029
2.8068059729994275,0.0,0.025787545787545788,0.004029304029304029
2.807630787996459,0.0,0.025787545787545788,0.004029304029304029
2.809157546998904,0.0,0.025787545787545788,0.004029304029304029
2.8129062829975737,0.0,0.025787545787545788,0.004029304029304029
2.817294585998752,0.0,0.025787545787545788,0.004029304029304029
2.817618021999806,0.0,0.014505494505494505,0.6962637362637363
2.822813682996639,0.0,0.014505494505494505,0.6962637362637363
2.8258061069973337,0.0,0.014505494505494505,0.6962637362637363
2.8286562579996826,0.0,0.014505494505494505,0.6962637362637363
2.832822452997789,0.0,0.004029304029304029,2.577142857142857
2.8337575789992115,0.0,0.008864468864468863,2.577142857142857
2.8351057299987588,0.0,0.008864468864468863,2.577142857142857
2.8404875449996325,0.0,0.008864468864468863,2.577142857142857
2.8445502769973245,0.0,0.0,0.6833699633699634
2.8476441279999563,0.0,0.0008058608058608059,0.044322344322344324
2.8478417599981185,0.0,0.0008058608058608059,0.044322344322344324
2.853497428997798,0.0,0.0008058608058608059,0.044322344322344324
2.853646890998789,0.0,0.006446886446886447,2.5763369963369964
2.860272702997463,0.0,0.006446886446886447,2.5763369963369964
2.8658847649967356,0.0,0.006446886446886447,2.5763369963369964
2.8767459739974583,0.0,0.008864468864468863,0.1112087912087912
2.8846484099994996,0.0,0.008864468864468863,0.1112087912087912
2.889377074996446,0.0,0.008058608058608058,0.36747252747252745
2.8968657789991994,0.0,0.008058608058608058,0.36747252747252745
2.901699791997089,0.0,0.0136996336996337,2.2088644688644687
2.9018185259992606,0.0,0.0136996336996337,2.2088644688644687
2.9073750619973,0.0,0.0136996336996337,2.2088644688644687
2.909213685998111,0.0,0.0136996336996337,2.2088644688644687
2.9121784509989084,0.0,0.0136996336996337,2.2088644688644687
2.91395855799783,0.0,0.006446886446886447,2.5787545787545785
2.9172792389981623,0.0,0.006446886446886447,2.5787545787545785
2.9175765049985785,0.0,0.006446886446886447,2.5787545787545785
2.9230654279999726,0.0,0.006446886446886447,2.5787545787545785
2.9240216259968292,0.0,0.0,0.0975091575091575
2.9268905329990957,0.0,0.0,0.0975091575091575
2.9292140629986534,0.0,0.0,0.0975091575091575
2.9294325559967547,0.0,0.0,0.0975091575091575
2.9349123399988457,0.0,0.0,0.0975091575091575
2.935802092997619,0.0,0.0,0.0975091575091575
2.9374126650000107,0.0,0.0,0.0975091575091575
2.943579762999434,0.0,0.014505494505494505,0.8566300366300367
2.9476393019976967,0.0,0.0016117216117216117,0.08622710622710622
2.949329979997856,0.0,0.025787545787545788,0.03304029304029304
2.953946862999146,0.0,0.025787545787545788,0.03304029304029304
2.954132971997751,0.0,0.025787545787545788,0.03304029304029304
2.9629142319972743,0.0,0.025787545787545788,0.03304029304029304
2.9701714839975466,0.0,0.004029304029304029,0.007252747252747252
2.975780983997538,0.0,0.004029304029304029,0.007252747252747252
2.9827304179998464,0.0,0.004029304029304029,0.007252747252747252
2.9874472109986527,0.0,0.004029304029304029,0.007252747252747252
2.9875837289982883,0.0,0.004029304029304029,0.007252747252747252
2.996170163998613,0.0,0.025787545787545788,3.1017582417582417
3.000239759996475,0.0,0.025787545787545788,3.1017582417582417
3.0035110989992972,0.0,0.012893772893772894,0.08139194139194139
3.0044132019975223,0.0,0.012893772893772894,0.08139194139194139
3.005444634000014,0.0,0.014505494505494505,0.00967032967032967
3.0063492559966107,0.0,0.014505494505494505,0.00967032967032967
3.0093833429964434,0.0,0.014505494505494505,0.00967032967032967
3.011277909998171,0.0,0.014505494505494505,0.00967032967032967
3.0126491119990533,0.0,0.014505494505494505,0.00967032967032967
3.018341838997003,0.0,0.014505494505494505,0.00967032967032967
3.018539818996942,0.0,0.014505494505494505,0.00967032967032967
3.024058912997134,0.0,0.014505494505494505,0.00967032967032967
3.025869450997561,0.0,0.012893772893772894,0.052380952380952375
3.0296243359989603,0.0,0.012893772893772894,0.052380952380952375
3.032841656997334,0.0,0.012893772893772894,0.052380952380952375
3.0345301879970066,0.0,0.008058608058608058,2.5787545787545785
3.0378600849981012,0.0,0.008058608058608058,2.5787545787545785
3.038149647996761,0.0,0.008058608058608058,2.5787545787545785
3.0454887349987985,0.0,0.008058608058608058,2.5787545787545785
3.0493618909968063,0.0,0.016923076923076923,0.007252747252747252
3.054447036996862,0.0,0.016923076923076923,0.007252747252747252
3.057790938997641,0.0,0.016923076923076923,0.007252747252747252
3.0579927179969673,0.0,0.016923076923076923,0.007252747252747252
3.0683936799978255,0.0,0.016923076923076923,0.007252747252747252
3.0782509769996977,0.0,0.016923076923076923,0.007252747252747252
3.087161928997375,0.0,0.016923076923076923,0.007252747252747252
3.097225661997072,0.0,0.016923076923076923,0.007252747252747252
3.10421612799837,0.0,0.0,2.5787545787545785
3.109724132998963,0.0,0.0,2.5787545787545785
3.1099315919964283,0.0,0.0,2.5787545787545785
3.119103818997246,0.0,0.0,2.5787545787545785
3.1268405969967716,0.0,0.0016117216117216117,0.13135531135531134
3.131624412999372,0.0,0.0,0.0024175824175824176
3.1362077279991354,0.0,0.0,0.0024175824175824176
3.136476124996989,0.0,0.0,0.0024175824175824176
3.1445577389968093,0.0,0.0,0.0024175824175824176
3.1500387889973354,0.0,0.0,0.0024175824175824176
3.15012471099908,0.0,0.0,0.0024175824175824176
3.1558499239981757,0.0,0.0,0.0024175824175824176
3.155971086998761,0.0,0.0,0.0024175824175824176
3.1648940769991896,0.0,0.0,0.0024175824175824176
3.169419015997846,0.0,0.0,0.0024175824175824176
3.169613390997256,0.0,0.0,0.0024175824175824176
3.17711519599834,0.0,0.0,0.0024175824175824176
3.1822306329995627,0.0,0.0,0.0024175824175824176
3.184772354998131,0.0,0.0032234432234432234,0.033846153846153845
3.191934003996721,0.0,0.0032234432234432234,0.033846153846153845
3.197515346997534,0.0,0.008864468864468863,2.577948717948718
3.2030568339978345,0.0,0.010476190476190476,1.3401465201465201
3.20330408999871,0.0,0.010476190476190476,1.3401465201465201
3.210955695998564,0.0,0.010476190476190476,1.3401465201465201
3.215951665999455,0.0,0.004835164835164835,0.0
3.2193044719970203,0.0,0.004835164835164835,0.0
3.219641405998118,0.0,0.004835164835164835,0.0
3.2267480509981397,0.0,0.004835164835164835,0.0
3.2320254949991067,0.0,0.004835164835164835,0.0
3.234758166996471,0.0,0.004835164835164835,0.0
3.2400868339973385,0.0,0.004835164835164835,0.0
3.2403222109969647,0.0,0.004835164835164835,0.0
3.249297010999726,0.0,0.004835164835164835,0.0
3.254829991998122,0.0,0.004835164835164835,0.0
3.2566491379984654,0.0,0.03545787545787545,3.3
3.261281251998298,0.0,0.03545787545787545,3.3
3.265520460998232,0.0,0.0136996336996337,0.4593406593406593
3.267787769997085,0.0,0.014505494505494505,0.0
3.268007944996498,0.0,0.0016117216117216117,3.3
3.2732976009974664,0.0,0.0016117216117216117,3.3
3.278454186998715,0.0,0.01531135531135531,2.577948717948718
3.2795787819995894,0.0,0.014505494505494505,0.7091575091575092
3.279863530999137,0.0,0.014505494505494505,0.7091575091575092
3.284901461996924,0.0,0.014505494505494505,0.7091575091575092
3.2886893469985807,0.0,0.014505494505494505,0.7091575091575092
3.2965738119964954,0.0,0.014505494505494505,0.7091575091575092
3.300520389999292,0.0,0.05963369963369963,2.5787545787545785
3.305089355999371,0.0,0.05963369963369963,2.5787545787545785
3.3052560969990736,0.0,0.05963369963369963,2.5787545787545785
3.3141411539982073,0.0,0.05963369963369963,2.5787545787545785
3.3213527419975435,0.0,0.0,2.577948717948718
3.3282447069977934,0.0,0.0,2.577948717948718
3.333058815998811,0.0,0.0,2.577948717948718
3.337099054999271,0.0,0.0,2.577948717948718
3.339539569999033,0.0,0.0,2.577948717948718
3.3396321779982827,0.0,0.0,2.577948717948718
3.3487578949971066,0.0,0.0,2.577948717948718
3.3546008539997274,0.0,0.016923076923076923,0.08622710622710622
3.364678408997861,0.0,0.007252747252747252,2.718168498168498
3.370461238999269,0.0,0.006446886446886447,0.28285714285714286
3.370618756998738,0.0,0.006446886446886447,0.28285714285714286
3.378319419000036,0.0,0.006446886446886447,0.28285714285714286
3.3840829719993053,0.0,0.006446886446886447,0.28285714285714286
3.388029630998062,0.0,0.006446886446886447,0.28285714285714286
3.3943293069969513,0.0,0.004835164835164835,2.581172161172161
3.3982134549987677,0.0,0.004835164835164835,2.581172161172161
3.402895182996872,0.0,0.011282051282051281,0.4851282051282051
3.402985088996502,0.0,0.012893772893772894,0.06608058608058608
3.4095025139977224,0.0,0.012893772893772894,0.06608058608058608
3.413633738997305,0.0,0.012893772893772894,0.06608058608058608
3.4152534139975614,0.0,0.0,2.561025641025641
3.4195393069967395,0.0,0.0,2.561025641025641
3.4216532979990006,0.0,0.0,2.561025641025641
3.42189807899922,0.0,0.0,2.561025641025641
3.429731925996748,0.0,0.0,2.561025641025641
3.4354234549973626,0.0,0.0,2.561025641025641
3.4355041779999738,0.0,0.0,2.561025641025641
3.4425555859997985,0.0,0.0,2.561025641025641
3.446573103999981,0.0,0.0,2.561025641025641
3.4490208419992996,0.0,0.0,2.561025641025641
3.4550587519988767,0.0,0.0,2.561025641025641
3.4625841539964313,0.0,0.0016117216117216117,2.581172161172161
3.4674355809984263,0.0,0.0016117216117216117,2.581172161172161
3.470635487999971,0.0,0.0008058608058608059,0.0
3.471453844998905,0.0,0.0008058608058608059,0.0
3.473822741998447,0.0,0.0008058608058608059,0.0
3.482950059998984,0.0,0.0008058608058608059,0.0
3.4885020999972767,0.0,0.0008058608058608059,0.0
3.489366843998141,0.0,0.0008058608058608059,0.0
3.4921871769984136,0.0,0.0008058608058608059,0.0
3.496121221996873,0.0,0.0,2.577142857142857
3.4984749809991627,0.0,0.0,2.577142857142857
3.4985936359989864,0.0,0.03223443223443223,0.47465201465201456
3.5040398499986622,0.0,0.03223443223443223,0.47465201465201456
3.5057759239971347,0.0,0.03223443223443223,0.47465201465201456
3.5115091479965486,0.0,0.03223443223443223,0.47465201465201456
3.5156691239972133,0.0,0.03223443223443223,0.47465201465201456
3.5174467459983134,0.0,0.03223443223443223,0.47465201465201456
3.521396795997134,0.0,0.03223443223443223,0.47465201465201456
3.52801928199915,0.0,0.03223443223443223,0.47465201465201456
3.5341788589976204,0.0,0.0,0.052380952380952375
3.5397472259974165,0.0,0.02095238095238095,2.5787545787545785
3.5398930329974974,0.0,0.02095238095238095,2.5787545787545785
3.548768400996778,0.0,0.02095238095238095,2.5787545787545785
3.55360327499875,0.0,0.008058608058608058,0.03142857142857143
3.5614828479992866,0.0,0.008058608058608058,0.03142857142857143
3.5656795949980733,0.0,0.008058608058608058,0.03142857142857143
3.5688205899969034,0.0,0.008058608058608058,0.03142857142857143
3.570522001999052,0.0,0.008058608058608058,0.03142857142857143
3.5751499109974247,0.0,0.020146520146520144,2.577948717948718
3.585942769997928,0.0,0.020146520146520144,2.577948717948718
3.5943050679998123,0.0,0.011282051282051281,0.21999999999999997
3.6000149649989908,0.0,0.016117216117216115,2.5787545787545785
3.6062009099987336,0.0,0.01531135531135531,0.11604395604395604
3.6134922619967256,0.0,0.01531135531135531,0.11604395604395604
3.6193762569964747,0.0,0.01531135531135531,0.11604395604395604
3.626817841999582,0.0,0.017728937728937726,1.2490842490842489
3.6305006189977576,0.0,0.017728937728937726,1.2490842490842489
3.63563006899858,0.0,0.0136996336996337,2.5787545787545785
3.6391337889981514,0.0,0.0136996336996337,2.5787545787545785
3.647058228998503,0.0,0.0136996336996337,2.5787545787545785
3.65181833799943,0.0,0.02498168498168498,0.1087912087912088
3.652030631998059,0.0,0.0,2.5755311355311354
3.658037562996469,0.0,0.0,2.5755311355311354
3.6637416829980793,0.0,0.029816849816849816,1.5545054945054944
3.668831205999595,0.0,0.029816849816849816,1.5545054945054944
3.671977081998193,0.0,0.029816849816849816,1.5545054945054944
3.6729394939975464,0.0,0.029816849816849816,1.5545054945054944
3.675827801998821,0.0,0.026593406593406595,2.5763369963369964
3.6779717249992245,0.0,0.026593406593406595,2.5763369963369964
3.678892719999567,0.0,0.026593406593406595,2.5763369963369964
3.679775032996986,0.0,0.012087912087912087,0.2643223443223443
3.6814521189990046,0.0,0.012087912087912087,0.2643223443223443
3.6853171159964404,0.0,0.005641025641025641,0.025787545787545788
3.688394957996934,0.0,0.005641025641025641,0.025787545787545788
3.6916599869982747,0.0,0.005641025641025641,0.025787545787545788
3.6919667489964922,0.0,0.005641025641025641,0.025787545787545788
3.70173881199662,0.0,0.005641025641025641,0.025787545787545788
3.7090707839997776,0.0,0.005641025641025641,0.025787545787545788
3.7145121899993683,0.0,0.005641025641025641,0.025787545787545788
3.714618725996843,0.0,0.005641025641025641,0.025787545787545788
3.720137074997183,0.0,0.005641025641025641,0.025787545787545788
3.7209443069987174,0.0,0.005641025641025641,0.025787545787545788
3.722663961998478,0.0,0.005641025641025641,0.025787545787545788
3.72910583599878,0.0,0.005641025641025641,0.025787545787545788
3.7329697409986693,0.0,0.005641025641025641,0.025787545787545788
3.7377289599971846,0.0,0.008058608058608058,2.5787545787545785
3.7378159269974276,0.0,0.0136996336996337,0.9243223443223443
3.745134668999526,0.0,0.0032234432234432234,0.6019780219780219
3.749130394997337,0.0,0.0032234432234432234,0.6019780219780219
3.7523345349982264,0.0,0.0032234432234432234,0.6019780219780219
3.7539012109991745,0.0,0.0032234432234432234,0.6019780219780219
3.7582966219997616,0.0,0.0032234432234432234,0.6019780219780219
3.7600795009966532,0.0,0.02095238095238095,1.24021978021978
3.764661752997199,0.0,0.02095238095238095,1.24021978021978
3.770091707996471,0.0,0.02095238095238095,1.24021978021978
3.771532817998377,0.0,0.02095238095238095,1.24021978021978
3.7811564829971758,0.0,0.02095238095238095,1.24021978021978
3.785730091000005,0.0,0.008058608058608058,0.4512820512820513
3.7866063909968943,0.0,0.008058608058608058,0.4512820512820513
3.7882634899979166,0.0,0.008058608058608058,0.4512820512820513
3.794906031998835,0.0,0.008058608058608058,0.4512820512820513
3.7988381209979707,0.0,0.008058608058608058,0.4512820512820513
3.8026880539982812,0.0,0.008058608058608058,0.4512820512820513
3.806537866999861,0.0,0.0016117216117216117,0.13216117216117215
3.811701203998382,0.0,0.010476190476190476,0.010476190476190476
3.813422842998989,0.0,0.010476190476190476,0.010476190476190476
3.816687379996438,0.0,0.010476190476190476,0.010476190476190476
3.8175224359983986,0.0,0.010476190476190476,0.010476190476190476
3.819284434997826,0.0,0.010476190476190476,0.010476190476190476
3.821704090998537,0.0,0.010476190476190476,0.010476190476190476
3.8295644409990928,0.0,0.010476190476190476,0.010476190476190476
3.834345082999789,0.0,0.010476190476190476,0.010476190476190476
3.840461439998762,0.0,0.010476190476190476,0.010476190476190476
3.8461402419998194,0.0,0.005641025641025641,0.30542124542124544
3.8517714219997288,0.0,0.03868131868131868,0.04351648351648352
3.851986625999416,0.0,0.006446886446886447,2.5827838827838825
3.858238282999082,0.0,0.006446886446886447,2.5827838827838825
3.863381003997347,0.0,0.006446886446886447,2.5827838827838825
3.8665292999976373,0.0,0.006446886446886447,2.5827838827838825
3.8674298129990348,0.0,0.0,0.008864468864468863
3.869025175998104,0.0,0.0,0.008864468864468863
3.8729127009974036,0.0,0.0,0.008864468864468863
3.879102900998987,0.0,0.02336996336996337,2.5674725274725274
3.882827079996787,0.0,0.016923076923076923,2.5561904761904763
3.8890770559992234,0.0,0.016923076923076923,2.5561904761904763
3.896976383999572,0.0,0.016923076923076923,2.5561904761904763
3.9013687599981495,0.0,0.0032234432234432234,2.5787545787545785
3.901634934998583,0.0,0.0032234432234432234,2.5787545787545785
3.910631327998999,0.0,0.0032234432234432234,2.5787545787545785
3.914644345997658,0.0,0.0032234432234432234,2.5787545787545785
3.9177260939977714,0.0,0.0032234432234432234,2.5787545787545785
3.9192669709991605,0.0,0.0032234432234432234,2.5787545787545785
3.92406447599933,0.0,0.0032234432234432234,2.5787545787545785
3.931903508997493,0.0,0.0032234432234432234,0.037875457875457874
3.937336442999367,0.0,0.017728937728937726,2.5787545787545785
3.9397337939990393,0.0,0.006446886446886447,2.46029304029304
3.9398784469995007,0.0,0.006446886446886447,2.46029304029304
3.947909816997708,0.0,0.006446886446886447,2.46029304029304
3.952517852998426,0.0,0.006446886446886447,2.46029304029304
3.952668456997344,0.0,0.006446886446886447,2.46029304029304
3.9594457809980668,0.0,0.006446886446886447,2.46029304029304
3.9635377769991464,0.0,0.006446886446886447,2.46029304029304
3.966054399999848,0.0,0.006446886446886447,2.46029304029304
3.971826389999478,0.0,0.006446886446886447,2.46029304029304
3.9796209019987145,0.0,0.006446886446886447,2.46029304029304
3.984368301997165,0.0,0.024175824175824173,0.7857142857142856
3.9844907419974334,0.0,0.024175824175824173,0.7857142857142856
3.9897679229979985,0.0,0.024175824175824173,0.7857142857142856
3.9944403689987666,0.0,0.024175824175824173,0.7857142857142856
4.000717029997759,0.0,0.0032234432234432234,2.5787545787545785
4.0045838429978176,0.0,0.0032234432234432234,2.685934065934066
4.011127619000035,0.0,0.0032234432234432234,2.685934065934066
4.014396455997485,0.0,0.01934065934065934,0.006446886446886447
4.015301098999771,0.0,0.01934065934065934,0.006446886446886447
4.016149686998688,0.0,0.01934065934065934,0.006446886446886447
4.017785954998544,0.0,0.01934065934065934,0.006446886446886447
4.021687042997655,0.0,0.01934065934065934,0.006446886446886447
4.027711365997675,0.0,0.01934065934065934,0.006446886446886447
4.031237646999216,0.0,0.01934065934065934,0.006446886446886447
4.031425353998202,0.0,0.01934065934065934,0.006446886446886447
4.036810856996453,0.0,0.01934065934065934,0.006446886446886447
4.038334593999025,0.0,0.01934065934065934,0.006446886446886447
4.043409105997853,0.0,0.01934065934065934,0.006446886446886447
4.048478194999916,0.0,0.0024175824175824176,0.07816849816849816
4.049882962997799,0.0,0.0024175824175824176,0.07816849816849816
4.057613537999714,0.0,0.0024175824175824176,0.07816849816849816
4.066221689998201,0.0,0.0024175824175824176,0.07816849816849816
4.0732492319984885,0.0,0.0024175824175824176,0.07816849816849816
4.080920046999381,0.0,0.011282051282051281,0.0701098901098901
4.087048579996917,0.0,0.011282051282051281,0.0701098901098901
4.092328409999027,0.0,0.011282051282051281,0.0701098901098901
4.094629005998286,0.0,0.011282051282051281,0.0701098901098901
4.094760065996525,0.0,0.011282051282051281,0.0701098901098901
4.100436018998153,0.0,0.011282051282051281,0.0701098901098901
4.101269619997765,0.0,0.017728937728937726,1.066959706959707
4.102916810999886,0.0,0.017728937728937726,1.066959706959707
4.106811576999462,0.0,0.017728937728937726,1.066959706959707
4.113269136996678,0.0,0.017728937728937726,1.066959706959707
4.117296016996988,0.0,0.017728937728937726,1.066959706959707
4.120453165996878,0.0,0.017728937728937726,1.066959706959707
4.12247723299879,0.0,0.017728937728937726,1.066959706959707
4.124903339998127,0.0,0.017728937728937726,1.066959706959707
4.134035805996973,0.0,0.017728937728937726,1.066959706959707
4.142605868997634,0.0,0.017728937728937726,1.066959706959707
4.14846166499774,0.0,0.017728937728937726,1.066959706959707
4.15233569299744,0.0,0.010476190476190476,0.0
4.158834421999927,0.0,0.014505494505494505,2.5787545787545785
4.163347538997186,0.0,0.004029304029304029,0.2796336996336996
4.16343451099965,0.0,0.004029304029304029,0.2796336996336996
4.169164838996949,0.0,0.004029304029304029,0.2796336996336996
4.169273929997871,0.0,0.004029304029304029,0.2796336996336996
4.175625510997634,0.0,0.004029304029304029,0.2796336996336996
4.179406745999586,0.0,0.0024175824175824176,2.5787545787545785
4.184805045999383,0.0,0.006446886446886447,0.3972893772893773
4.186515946999862,0.0,0.0,0.02336996336996337
4.1899592819972895,0.0,0.0,0.02336996336996337
4.190197559997614,0.0,0.0,0.02336996336996337
4.200051021998661,0.0,0.0,0.02336996336996337
4.205990015998395,0.0,0.0,0.02336996336996337
4.214209936999396,0.0,0.0,0.02336996336996337
4.219362381998508,0.0,0.012893772893772894,2.5755311355311354
4.2233651059978,0.0,0.012893772893772894,2.5755311355311354
4.227655026999855,0.0,0.012893772893772894,2.5755311355311354
4.229337654996925,0.0,0.004835164835164835,0.008058608058608058
4.233687503998226,0.0,0.004835164835164835,0.008058608058608058
4.242972262996773,0.0,0.004835164835164835,0.008058608058608058
4.250088019998657,0.0,0.004835164835164835,0.008058608058608058
4.256278723998548,0.0,0.004835164835164835,0.008058608058608058
4.263162200997613,0.0,0.004835164835164835,0.008058608058608058
4.269390767996811,0.0,0.004835164835164835,0.008058608058608058
4.272714651997376,0.0,0.004835164835164835,0.008058608058608058
4.273671986997215,0.0,0.004835164835164835,0.008058608058608058
4.274979698999232,0.0,0.004835164835164835,0.008058608058608058
4.281923967999319,0.0,0.004835164835164835,0.008058608058608058
4.286733293996804,0.0,0.0008058608058608059,0.6422710622710622
4.286807899999985,0.0,0.0008058608058608059,0.6422710622710622
4.2946447399990575,0.0,0.0008058608058608059,0.6422710622710622
4.300211120997119,0.0,0.0008058608058608059,0.6422710622710622
4.300481733997003,0.0,0.0008058608058608059,0.6422710622710622
4.305984713999351,0.0,0.0008058608058608059,0.6422710622710622
4.306953802999487,0.0,0.0032234432234432234,0.04915750915750916
4.30737047099683,0.0,0.0032234432234432234,0.04915750915750916
4.316428393998649,0.0,0.0032234432234432234,0.04915750915750916
4.321122143999673,0.0,0.004835164835164835,2.5787545787545785
4.321297234997473,0.0,0.004835164835164835,2.5787545787545785
4.3299065889987105,0.0,0.004835164835164835,2.5787545787545785
4.333931956000015,0.0,0.0,2.5795604395604395
4.337119632997201,0.0,0.0,2.5795604395604395
4.33881939999992,0.0,0.0,2.5795604395604395
4.3450719059983385,0.0,0.0,2.5795604395604395
4.348641065997072,0.0,0.0,2.5795604395604395
4.348774864000006,0.0,0.0032234432234432234,3.3
4.354180793998239,0.0,0.0032234432234432234,3.3
4.355705093999859,0.0,0.0032234432234432234,3.3
4.364899385996978,0.0,0.0032234432234432234,3.3
4.368935239999701,0.0,0.0032234432234432234,3.3
4.371425782999722,0.0,0.0,2.577948717948718
4.371514279999246,0.0,0.0,2.577948717948718
4.381025685997884,0.0,0.0,2.577948717948718
4.387421386996721,0.0,0.0,2.577948717948718
4.393915114997071,0.0,0.0,2.577948717948718
4.399773517998256,0.0,0.0,2.577948717948718
4.406964845999028,0.0,0.0,2.577948717948718
4.415120303998265,0.0,0.0016117216117216117,0.03868131868131868
4.4213833209978475,0.0,0.0016117216117216117,0.03868131868131868
4.4279874689964345,0.0,0.016923076923076923,0.1643956043956044
4.432080852999206,0.0,0.016923076923076923,0.1643956043956044
4.4337581639993005,0.0,0.0,2.5755311355311354
4.437560417998611,0.0,0.0,2.5755311355311354
4.4449423879996175,0.0,0.0,2.5755311355311354
4.450895039997704,0.0,0.004029304029304029,0.03706959706959707
4.458842787997128,0.0,0.02095238095238095,0.0419047619047619
4.465251625999372,0.0,0.016923076923076923,0.5931135531135531
4.470565992000047,0.0,0.01531135531135531,0.03706959706959707
4.470816691999062,0.0,0.0008058608058608059,0.004835164835164835
4.480751561997749,0.0,0.0008058608058608059,0.004835164835164835
4.486079288999463,0.0,0.0008058608058608059,0.004835164835164835
4.487710499997775,0.0,0.0008058608058608059,0.004835164835164835
4.492710597998666,0.0,0.0008058608058608059,0.004835164835164835
4.496475705997,0.0,0.0008058608058608059,0.004835164835164835
4.501086498999939,0.0,0.0008058608058608059,0.004835164835164835
4.5067747559987765,0.0,0.0008058608058608059,0.004835164835164835
4.506864910999866,0.0,0.0008058608058608059,0.004835164835164835
4.517868185997941,0.0,0.0008058608058608059,0.004835164835164835
4.524775638998108,0.0,0.0,2.581172161172161
4.529391898999165,0.0,0.0,2.581172161172161
4.52952167499825,0.0,0.0,2.581172161172161
4.535111245997541,0.0,0.0,2.581172161172161
4.535491087997798,0.0,0.0,2.581172161172161
4.5432117719974485,0.0,0.0,2.581172161172161
4.548780929999339,0.0,0.0,2.581172161172161
4.5489909119969525,0.0,0.0,2.581172161172161
4.554423128996859,0.0,0.0,2.581172161172161
4.556819698998879,0.0,0.0,2.581172161172161
4.564714900996478,0.0,0.0,2.581172161172161
4.570161592997465,0.0,0.0,2.581172161172161
4.571960056997341,0.0,0.0,0.022564102564102562
4.576583985999605,0.0,0.0016117216117216117,2.5787545787545785
4.582955581998249,0.0,0.014505494505494505,2.5787545787545785
4.586849031999009,0.0,0.014505494505494505,2.5787545787545785
4.592840453999088,0.0,0.014505494505494505,2.5787545787545785
4.597796627997013,0.0,0.0,2.5755311355311354
4.601692725998873,0.0,0.0,2.5755311355311354
4.60559943899716,0.0,0.0,2.5755311355311354
4.611816635999276,0.0,0.0,2.5755311355311354
4.6151081759999215,0.0,0.0,2.5755311355311354
4.616764251997665,0.0,0.0,2.5755311355311354
4.621958180996444,0.0,0.0,2.5755311355311354
4.625883592998434,0.0,0.006446886446886447,0.03706959706959707
4.629444708996743,0.0,0.006446886446886447,0.03706959706959707
4.63787094899817,0.0,0.006446886446886447,0.03706959706959707
4.645180660998449,0.0,0.006446886446886447,0.03706959706959707
4.649109357997077,0.0,0.006446886446886447,0.03706959706959707
4.653095186997234,0.0,0.006446886446886447,0.03706959706959707
4.658258218998526,0.0,0.006446886446886447,0.03706959706959707
4.660891478997655,0.0,0.025787545787545788,1.5383882783882783
4.665377489996899,0.0,0.025787545787545788,1.5383882783882783
4.665597228999104,0.0,0.006446886446886447,0.04271062271062271
4.671676777998073,0.0,0.006446886446886447,0.04271062271062271
4.677930685997126,0.0,0.006446886446886447,0.04271062271062271
4.681160217998695,0.0,0.0,3.3
4.682735803999094,0.0,0.0,3.3
4.686494991998188,0.0,0.0,3.3
4.68658023199896,0.0,0.0,3.3
4.691764032999345,0.0,0.0,3.3
4.694677165996836,0.0,0.020146520146520144,2.577948717948718
4.697326421999605,0.0,0.020146520146520144,2.577948717948718
4.702194655998028,0.0,0.020146520146520144,2.577948717948718
4.706702173996746,0.0,0.020146520146520144,2.577948717948718
4.707038922999345,0.0,0.020146520146520144,2.577948717948718
4.714339036996535,0.0,0.020146520146520144,2.577948717948718
4.718921886997123,0.0,0.020146520146520144,2.577948717948718
4.719813569998223,0.0,0.020146520146520144,2.577948717948718
4.721526868997898,0.0,0.020146520146520144,2.577948717948718
4.725781962999463,0.0,0.020146520146520144,2.577948717948718
4.72820144599973,0.0,0.0008058608058608059,0.0
4.73329246999856,0.0,0.008058608058608058,2.5787545787545785
4.736423987997114,0.0,0.0,2.5795604395604395
4.738120909998543,0.0,0.0,2.5795604395604395
4.742381923999346,0.0,0.0,2.5795604395604395
4.743571538998367,0.0,0.020146520146520144,0.19340659340659339
4.743786720999196,0.0,0.020146520146520144,0.19340659340659339
4.7493783489990165,0.0,0.020146520146520144,0.19340659340659339
4.749552655997832,0.0,0.020146520146520144,0.19340659340659339
4.755106656997668,0.0,0.020146520146520144,0.19340659340659339
4.7554340999995475,0.0,0.020146520146520144,0.19340659340659339
4.762899423996714,0.0,0.020146520146520144,0.19340659340659339
4.766972264998913,0.0,0.020146520146520144,0.19340659340659339
4.7701193549983145,0.0,0.020146520146520144,0.19340659340659339
4.77172925999912,0.0,0.020146520146520144,0.19340659340659339
4.77872505799678,0.0,0.020146520146520144,0.19340659340659339
4.782840435997059,0.0,0.020146520146520144,0.19340659340659339
4.785982506997243,0.0,0.01531135531135531,0.3594139194139194
4.78772104699965,0.0,0.01531135531135531,0.3594139194139194
4.791422642996622,0.0,0.01531135531135531,0.3594139194139194
4.798019260997535,0.0,0.01531135531135531,0.3594139194139194
4.802127527997072,0.0,0.01531135531135531,0.3594139194139194
4.805767511999875,0.0,0.01531135531135531,0.3594139194139194
4.813079098999879,0.0,0.01531135531135531,0.3594139194139194
4.817701928997849,0.0,0.0,0.008864468864468863
4.81784820699977,0.0,0.0,0.008864468864468863
4.823397003998252,0.0,0.0,0.008864468864468863
4.8277596659972914,0.0,0.0,0.008864468864468863
4.8355832929992175,0.0,0.0,0.008864468864468863
4.841308401999413,0.0,0.011282051282051281,2.6883516483516483
4.8415282999994815,0.0,0.011282051282051281,2.6883516483516483
4.847236914996756,0.0,0.011282051282051281,2.6883516483516483
4.847355725996749,0.0,0.011282051282051281,2.6883516483516483
4.861498168997059,0.0,0.011282051282051281,2.6883516483516483
4.875266785998974,0.0,0.0016117216117216117,0.05721611721611722
4.890752628998598,0.0,0.0016117216117216117,0.05721611721611722
4.899871442998119,0.0,0.004029304029304029,0.01934065934065934
4.91100706799989,0.0,0.004029304029304029,0.01934065934065934
4.921020738998777,0.0,0.004029304029304029,0.01934065934065934
4.930424392998248,0.0,0.008864468864468863,1.7535531135531135
4.935871060999489,0.0,0.008864468864468863,1.7535531135531135
4.936908583997138,0.0,0.008864468864468863,1.7535531135531135
4.937872600999981,0.0,0.008864468864468863,1.7535531135531135
4.93896898699677,0.0,0.008864468864468863,1.7535531135531135
4.939198467996903,0.0,0.008864468864468863,1.7535531135531135
4.948098798999126,0.0,0.008864468864468863,1.7535531135531135
4.953500673997041,0.0,0.007252747252747252,0.02901098901098901
4.954761256998609,0.0,0.0136996336996337,2.5787545787545785
4.966370720998384,0.0,0.0136996336996337,2.5787545787545785
4.972468234998814,0.0,0.02175824175824176,1.6149450549450548
4.978410533996794,0.0,0.02175824175824176,1.6149450549450548
4.983251042998745,0.0,0.007252747252747252,3.3
4.989119899997604,0.0,0.007252747252747252,3.3
4.989377848000004,0.0,0.007252747252747252,3.3
4.997313665997353,0.0,0.007252747252747252,3.3
5.002192492996983,0.0,0.007252747252747252,3.3
5.007143055998313,0.0,0.0024175824175824176,0.07897435897435898
5.014823186997091,0.0,0.012893772893772894,0.07413919413919413
5.019255756997154,0.0,0.03223443223443223,3.3
5.019575306996558,0.0,0.03223443223443223,3.3
5.0273317149985814,0.0,0.03223443223443223,3.3
5.032181390997721,0.0,0.03223443223443223,3.3
5.037267052997777,0.0,0.03223443223443223,3.3
5.0424829079966,0.0,0.03223443223443223,3.3
5.042831889997615,0.0,0.03223443223443223,3.3
5.047269184997276,0.0,0.008864468864468863,0.03545787545787545
5.047569509999448,0.0,0.08703296703296703,0.03868131868131868
5.054798153996671,0.0,0.08703296703296703,0.03868131868131868
5.06181095699867,0.0,0.017728937728937726,2.5755311355311354
5.067724073996942,0.0,0.01934065934065934,3.2895238095238093
5.073181088999263,0.0,0.02095238095238095,0.07172161172161172
5.073331919997145,0.0,0.012893772893772894,2.5787545787545785
5.078696492997551,0.0,0.012893772893772894,2.5787545787545785
5.08110896299695,0.0,0.012893772893772894,2.5787545787545785
5.081191238998144,0.0,0.012893772893772894,2.5787545787545785
5.086736705998192,0.0,0.0,0.11362637362637362
5.088936587999342,0.0,0.0,0.11362637362637362
5.089207066997915,0.0,0.0,0.11362637362637362
5.0967602919990895,0.0,0.0,0.11362637362637362
5.101331774996652,0.0,0.0,0.11362637362637362
5.101507405997836,0.0,0.0,0.11362637362637362
5.107252235997294,0.0,0.0,0.11362637362637362
5.114121755999804,0.0,0.0,0.11362637362637362
5.119003427997086,0.0,0.0,0.11362637362637362
5.12583522299974,0.0,0.004835164835164835,1.1765567765567766
5.129312352997658,0.0,0.004835164835164835,1.1765567765567766
5.1347978039993905,0.0,0.011282051282051281,0.024175824175824173
5.1356892389994755,0.0,0.011282051282051281,0.024175824175824173
5.137790318000043,0.0,0.011282051282051281,0.024175824175824173
5.138727083998674,0.0,0.028205128205128206,2.1750183150183147
5.139886679997289,0.0,0.028205128205128206,2.1750183150183147
5.140260770996974,0.0,0.028205128205128206,2.1750183150183147
5.146395405998192,0.0,0.028205128205128206,2.1750183150183147
5.149581618999946,0.0,0.028205128205128206,2.1750183150183147
5.151206023998384,0.0,0.028205128205128206,2.1750183150183147
5.155006380999112,0.0,0.012893772893772894,2.5787545787545785
5.16350148699712,0.0,0.012893772893772894,2.5787545787545785
5.168956996996712,0.0,0.012893772893772894,2.5787545787545785
5.1705652459968405,0.0,0.012893772893772894,2.5787545787545785
5.173686017998989,0.0,0.012893772893772894,2.5787545787545785
5.176786528998491,0.0,0.012893772893772894,2.5787545787545785
5.17833421299656,0.0,0.012893772893772894,2.5787545787545785
5.182177135997335,0.0,0.012893772893772894,2.5787545787545785
5.186686570999882,0.0,0.017728937728937726,0.1571428571428571
5.186960003997228,0.0,0.017728937728937726,0.1571428571428571
5.192065148999973,0.0,0.017728937728937726,0.1571428571428571
5.19623406699975,0.0,0.0016117216117216117,2.5747252747252745
5.198413268997683,0.0,0.0016117216117216117,2.5747252747252745
5.199528292996547,0.0,0.0016117216117216117,2.5747252747252745
5.200587318999169,0.0,0.0016117216117216117,2.5747252747252745
5.200894451998465,0.0,0.0016117216117216117,2.5747252747252745
5.208841315998143,0.0,0.0016117216117216117,2.5747252747252745
5.213389167998685,0.0,0.03223443223443223,0.044322344322344324
5.214303869997821,0.0,0.03223443223443223,0.044322344322344324
5.215926821998437,0.0,0.03223443223443223,0.044322344322344324
5.219714438997471,0.0,0.03223443223443223,0.044322344322344324
5.225019774999964,0.0,0.03223443223443223,0.044322344322344324
5.227346691997809,0.0,0.03223443223443223,0.044322344322344324
5.227537440998276,0.0,0.03223443223443223,0.044322344322344324
5.232806517997233,0.0,0.03223443223443223,0.044322344322344324
5.235126007999497,0.0,0.03223443223443223,0.044322344322344324
5.235336647998338,0.0,0.03223443223443223,0.044322344322344324
5.2408894679974765,0.0,0.03223443223443223,0.044322344322344324
5.241216536996944,0.0,0.03223443223443223,0.044322344322344324
5.245834402998298,0.0,0.03223443223443223,0.044322344322344324
5.246675301998039,0.0,0.0136996336996337,0.033846153846153845
5.24826681599734,0.0,0.0136996336996337,0.033846153846153845
5.253222757997719,0.0,0.0136996336996337,0.033846153846153845
5.257052809000015,0.0,0.0136996336996337,0.033846153846153845
5.2609233489965845,0.0,0.0136996336996337,0.033846153846153845
5.266284105997329,0.0,0.0008058608058608059,0.5906959706959707
5.2686180689997855,0.0,0.0008058608058608059,0.5906959706959707
5.268818058997567,0.0,0.0008058608058608059,0.5906959706959707
5.2748903459978465,0.0,0.0008058608058608059,0.5906959706959707
5.282006472996727,0.0,0.01934065934065934,2.5787545787545785
5.287695528997574,0.0,0.01934065934065934,2.5787545787545785
5.297048207998159,0.0,0.01934065934065934,2.5787545787545785
5.303749662998598,0.0,0.011282051282051281,2.5763369963369964
5.310511731997394,0.0,0.011282051282051281,2.5763369963369964
5.314489068998228,0.0,0.011282051282051281,2.5763369963369964
5.321927281998796,0.0,0.0,2.5787545787545785
5.328246834997117,0.0,0.008864468864468863,0.07897435897435898
5.334433770000032,0.0,0.008058608058608058,0.01934065934065934
5.340003886998602,0.0,0.0,2.5763369963369964
5.349226013997395,0.0,0.011282051282051281,3.3
5.357085998999537,0.0,0.011282051282051281,3.3
5.363887753999734,0.0,0.01934065934065934,0.971062271062271
5.3705299719986215,0.0,0.0136996336996337,0.04351648351648352
5.378535638999892,0.0,0.0136996336996337,0.04351648351648352
5.384987161996833,0.0,0.0136996336996337,0.04351648351648352
5.392346943997836,0.0,0.004029304029304029,0.03948717948717949
5.396408321998024,0.0,0.004029304029304029,0.03948717948717949
5.400173737998557,0.0,0.004029304029304029,0.03948717948717949
5.404207900999609,0.0,0.006446886446886447,0.3416849816849817
5.408230241999263,0.0,0.0032234432234432234,0.07736263736263736
5.4110798239998985,0.0,0.0032234432234432234,0.07736263736263736
5.41365355799644,0.0,0.0032234432234432234,0.07736263736263736
5.418471508997754,0.0,0.0032234432234432234,2.569084249084249
5.425629339999432,0.0,0.016117216117216115,0.9154578754578755
5.430945673997485,0.0,0.016117216117216115,0.9154578754578755
5.43115427599696,0.0,0.016117216117216115,0.9154578754578755
5.437289013996633,0.0,0.016117216117216115,0.9154578754578755
5.443606098997407,0.0,0.016117216117216115,0.5068864468864469
5.446682512996631,0.0,0.010476190476190476,0.0709157509157509
5.448323431999597,0.0,0.025787545787545788,0.025787545787545788
5.452996530999371,0.0,0.025787545787545788,0.025787545787545788
5.4533568609986105,0.0,0.025787545787545788,0.025787545787545788
5.45897195499856,0.0,0.025787545787545788,0.025787545787545788
5.466065348999109,0.0,0.014505494505494505,3.3
5.471093496998947,0.0,0.014505494505494505,3.3
5.478812774999824,0.0,0.005641025641025641,2.5787545787545785
5.482735346999107,0.0,0.005641025641025641,2.5787545787545785
5.48737181999968,0.0,0.005641025641025641,2.5787545787545785
5.487474582998402,0.0,0.0,0.017728937728937726
5.495137378999061,0.0,0.0,0.017728937728937726
5.499310173996491,0.0,0.0,0.017728937728937726
5.501000921998639,0.0,0.0,0.017728937728937726
5.504163413999777,0.0,0.005641025641025641,0.18615384615384614
5.505815531996632,0.0,0.008864468864468863,0.051575091575091575
5.512026051997964,0.0,0.008864468864468863,0.051575091575091575
5.515313185998821,0.0,0.0,2.577948717948718
5.515594592998241,0.0,0.0,2.577948717948718
5.521179855997616,0.0,0.0,2.577948717948718
5.521433868998429,0.0,0.0,2.577948717948718
5.530140995997499,0.0,0.0,2.577948717948718
5.535101756999211,0.0,0.010476190476190476,0.022564102564102562
5.539896943999338,0.0,0.025787545787545788,2.5787545787545785
5.547787917999813,0.0,0.025787545787545788,2.5787545787545785
5.553305744997488,0.0,0.025787545787545788,2.5787545787545785
5.554164597997442,0.0,0.004029304029304029,2.5787545787545785
5.5559468579995155,0.0,0.004029304029304029,2.5787545787545785
5.560678162997647,0.0,0.004029304029304029,2.5787545787545785
5.564724240997748,0.0,0.004029304029304029,0.43597069597069593
5.566380871998263,0.0,0.01531135531135531,0.04271062271062271
5.5709207839972805,0.0,0.01531135531135531,0.04271062271062271
5.571124325997516,0.0,0.01531135531135531,0.04271062271062271
5.578254480999021,0.0,0.005641025641025641,2.577948717948718
5.581426476997876,0.0,0.005641025641025641,2.577948717948718
5.583792714998708,0.0,0.005641025641025641,2.577948717948718
5.583892061997176,0.0,0.005641025641025641,2.577948717948718
5.589207932996942,0.0,0.005641025641025641,2.577948717948718
5.593903369997861,0.0,0.008058608058608058,3.3
5.598039532997063,0.0,0.008058608058608058,3.3
5.600612449998152,0.0,0.008058608058608058,3.3
5.6051840119980625,0.0,0.008058608058608058,3.3
5.605445257999236,0.0,0.008058608058608058,3.3
5.61524401099814,0.0,0.008058608058608058,3.3
5.620662872999674,0.0,0.0032234432234432234,1.9348717948717948
5.622250217998953,0.0,0.0032234432234432234,1.9348717948717948
5.630303095997078,0.0,0.0032234432234432234,0.06769230769230769
5.6341729079977085,0.0,0.0032234432234432234,0.06769230769230769
5.638011728999118,0.0,0.0032234432234432234,0.06769230769230769
5.643227922999358,0.0,0.0032234432234432234,0.06769230769230769
5.644803784998658,0.0,0.0032234432234432234,0.06769230769230769
5.649976758999401,0.0,0.0032234432234432234,0.06769230769230769
5.65415409599882,0.0,0.0032234432234432234,0.06769230769230769
5.655921595996915,0.0,0.0032234432234432234,0.06769230769230769
5.6611439589978545,0.0,0.0032234432234432234,0.06769230769230769
5.662128777999897,0.0,0.0032234432234432234,0.06769230769230769
5.662951284997689,0.0,0.0032234432234432234,0.06769230769230769
5.664611086998775,0.0,0.0032234432234432234,0.06769230769230769
5.668582706999587,0.0,0.0032234432234432234,0.06769230769230769
5.670955680998304,0.0,0.016923076923076923,0.02901098901098901
5.671111263996863,0.0,0.016923076923076923,0.02901098901098901
5.681936677996418,0.0,0.016923076923076923,0.02901098901098901
5.689182679998339,0.0,0.0016117216117216117,0.311062271062271
5.695555997997872,0.0,0.0016117216117216117,0.311062271062271
5.6990615259965125,0.0,0.004029304029304029,2.5803663003663004
5.69924202099719,0.0,0.004029304029304029,2.5803663003663004
5.704827469999145,0.0,0.004029304029304029,2.5803663003663004
5.70493182899736,0.0,0.0,0.03706959706959707
5.715061548999074,0.0,0.0,0.0
5.720318995998241,0.0,0.0,0.0
5.724565101998451,0.0,0.011282051282051281,1.2772893772893772
5.72740087299826,0.0,0.011282051282051281,1.2772893772893772
5.73094746699644,0.0,0.011282051282051281,1.2772893772893772
5.736684636998689,0.0,0.01934065934065934,2.5787545787545785
5.736797384997772,0.0,0.014505494505494505,2.5594139194139194
5.744980643998133,0.0,0.014505494505494505,2.5594139194139194
5.749592884996673,0.0,0.014505494505494505,2.5594139194139194
5.750004709996574,0.0,0.014505494505494505,2.5594139194139194
5.753870595999615,0.0,0.00967032967032967,2.5747252747252745
5.762013156996545,0.0,0.00967032967032967,2.5747252747252745
5.765356632997282,0.0,0.011282051282051281,1.8051282051282052
5.7662260819997755,0.0,0.016117216117216115,0.03142857142857143
5.76824682899678,0.0,0.016117216117216115,0.03142857142857143
5.770105260999117,0.0,0.004835164835164835,2.5763369963369964
5.77244511799654,0.0,0.004835164835164835,2.5763369963369964
5.772684117997414,0.0,0.004835164835164835,2.5763369963369964
5.782565835997957,0.0,0.004835164835164835,2.5763369963369964
5.791299403997982,0.0,0.022564102564102562,2.5481318681318683
5.796645369999169,0.0,0.022564102564102562,2.5481318681318683
5.797641241999372,0.0,0.022564102564102562,2.5481318681318683
5.798658029998478,0.0,0.022564102564102562,2.5481318681318683
5.800010877999739,0.0,0.022564102564102562,2.5481318681318683
5.80452443899776,0.0,0.022564102564102562,2.5481318681318683
5.805443646997446,0.0,0.022564102564102562,2.5481318681318683
5.806468805996701,0.0,0.022564102564102562,2.5481318681318683
5.806931107999844,0.0,0.022564102564102562,2.5481318681318683
5.8122539869982575,0.0,0.022564102564102562,2.5481318681318683
5.813227794998966,0.0,0.022564102564102562,2.5481318681318683
5.814247794998664,0.0,0.022564102564102562,2.5481318681318683
5.815912867998122,0.0,0.022564102564102562,2.5481318681318683
5.818981882999651,0.0,0.022564102564102562,2.5481318681318683
5.820941259997198,0.0,0.022564102564102562,2.5481318681318683
5.822934488998726,0.0,0.0,0.026593406593406595
5.824751641997864,0.0,0.005641025641025641,0.011282051282051281
5.828687547997106,0.0,0.005641025641025641,0.011282051282051281
5.831252828997094,0.0,0.005641025641025641,0.011282051282051281
5.835277354999562,0.0,0.005641025641025641,0.011282051282051281
5.837705031997757,0.0,0.0,0.5334798534798535
5.837929007997445,0.0,0.029816849816849816,0.2063003663003663
5.846614648999093,0.0,0.029816849816849816,0.2063003663003663
5.851167553999403,0.0,0.0,0.0
5.851468971999566,0.0,0.0,0.0
5.857603249998647,0.0,0.0,0.0
5.864072006999777,0.0,0.0,0.0
5.868179897999653,0.0,0.008058608058608058,0.006446886446886447
5.870612460999837,0.0,0.008058608058608058,0.006446886446886447
5.878452674998698,0.0,0.014505494505494505,2.5795604395604395
5.883355545996892,0.0,0.028205128205128206,0.805054945054945
5.8878670949998195,0.0,0.028205128205128206,0.805054945054945
5.888202352998633,0.0,0.028205128205128206,0.805054945054945
5.896111347999977,0.0,0.028205128205128206,0.805054945054945
5.900155846997222,0.0,0.028205128205128206,0.805054945054945
5.904007939996518,0.0,0.0,0.42952380952380953
5.9101473609989625,0.0,0.0,0.42952380952380953
5.913522597998963,0.0,0.0,0.42952380952380953
5.9143600089992105,0.0,0.0008058608058608059,2.581172161172161
5.915959170997667,0.0,0.018534798534798533,2.56989010989011
5.919764849997591,0.0,0.018534798534798533,2.56989010989011
5.929605818997516,0.0,0.018534798534798533,2.56989010989011
5.935095350996562,0.0,0.004029304029304029,0.0556043956043956
5.935259676996793,0.0,0.012893772893772894,3.3
5.9416414169972995,0.0,0.012893772893772894,3.3
5.947215359999973,0.0,0.012893772893772894,3.3
5.952562475999002,0.0,0.012893772893772894,3.3
5.95567667999785,0.0,0.008864468864468863,2.5747252747252745
5.957738451998011,0.0,0.008864468864468863,2.5747252747252745
5.958033290997264,0.0,0.008864468864468863,2.5747252747252745
5.965156173999276,0.0,0.008864468864468863,2.5747252747252745
5.970334729998285,0.0,0.008864468864468863,2.5747252747252745
5.973641030999715,0.0,0.008864468864468863,2.5747252747252745
5.973936043999856,0.0,0.008864468864468863,2.5747252747252745
5.980071629997838,0.0,0.008864468864468863,2.5747252747252745
5.983318047998182,0.0,0.008864468864468863,2.5747252747252745
5.984212887997273,0.0,0.016923076923076923,0.08058608058608058
5.985785020999174,0.0,0.016923076923076923,0.08058608058608058
5.991442911999911,0.0,0.016923076923076923,0.08058608058608058
5.9916375069988135,0.0,0.016923076923076923,0.08058608058608058
5.9976093679979385,0.0,0.016923076923076923,0.08058608058608058
6.002345106997382,0.0,0.016923076923076923,0.08058608058608058
6.009081025997148,0.0,0.016923076923076923,0.08058608058608058
6.014680250998936,0.0,0.016923076923076923,0.08058608058608058
6.01482073799707,0.0,0.016923076923076923,0.08058608058608058
6.0232204779968015,0.0,0.016923076923076923,0.08058608058608058
6.030952079996496,0.0,0.016923076923076923,0.08058608058608058
6.0372376539999095,0.0,0.0,0.044322344322344324
6.041302574998554,0.0,0.0,0.044322344322344324
6.0439779559965245,0.0,0.0,0.044322344322344324
6.050755629999912,0.0,0.0,0.044322344322344324
6.057423235997703,0.0,0.0,0.044322344322344324
6.063622327998019,0.0,0.0,0.044322344322344324
6.068662370998936,0.0,0.0,0.044322344322344324
6.074866152997856,0.0,0.0,0.044322344322344324
6.079519721999532,0.0,0.0,0.044322344322344324
6.0878003719990375,0.0,0.0,0.044322344322344324
6.096317849998741,0.0,0.0,0.044322344322344324
6.100763292997726,0.0,0.0,0.044322344322344324
6.101018575998751,0.0,0.008058608058608058,1.9397069597069596
6.107111769997573,0.0,0.008058608058608058,1.9397069597069596
6.1127882129985665,0.0,0.008058608058608058,2.5787545787545785
6.112883972997224,0.0,0.008058608058608058,2.5787545787545785
6.117520738996973,0.0,0.008058608058608058,2.5787545787545785
6.117798366998613,0.0,0.008058608058608058,2.5787545787545785
6.123869574999844,0.0,0.008058608058608058,2.5787545787545785
6.131396711996786,0.0,0.008058608058608058,2.5787545787545785
6.136747757998819,0.0,0.008058608058608058,2.5787545787545785
6.136998839996522,0.0,0.008058608058608058,2.5787545787545785
6.145807267999771,0.0,0.008058608058608058,2.5787545787545785
6.15281515499737,0.0,0.00967032967032967,2.5787545787545785
6.16022407499986,0.0,0.0273992673992674,2.577948717948718
6.16620837499795,0.0,0.0273992673992674,2.577948717948718
6.1693399689975195,0.0,0.0273992673992674,2.577948717948718
6.17449948599824,0.0,0.0273992673992674,2.577948717948718
6.178020814997581,0.0,0.0273992673992674,2.577948717948718
6.183353186999739,0.0,0.0273992673992674,2.577948717948718
6.1856826079965685,0.0,0.0273992673992674,2.577948717948718
6.185896372997377,0.0,0.0273992673992674,2.577948717948718
6.191616561998671,0.0,0.0273992673992674,2.577948717948718
6.1917663699969125,0.0,0.0273992673992674,2.577948717948718
6.197825542996725,0.0,0.0273992673992674,2.577948717948718
6.201888781997695,0.0,0.02095238095238095,2.577948717948718
6.204052666998905,0.0,0.02095238095238095,2.577948717948718
6.204350985997735,0.0,0.02095238095238095,2.577948717948718
6.209336771997187,0.0,0.02095238095238095,2.577948717948718
6.213684145997831,0.0,0.02095238095238095,2.577948717948718
6.215182277999702,0.0,0.01934065934065934,2.573919413919414
6.2194546699975035,0.0,0.01934065934065934,2.573919413919414
6.221643590997701,0.0,0.01934065934065934,2.573919413919414
6.2224482169986,0.0,0.018534798534798533,0.11523809523809524
6.224601663998328,0.0,0.018534798534798533,0.11523809523809524
6.226020520996826,0.0,0.018534798534798533,0.11523809523809524
6.232965371997125,0.0,0.018534798534798533,0.11523809523809524
6.239540365997527,0.0,0.024175824175824173,2.5763369963369964
6.2459648349977215,0.0,0.0032234432234432234,0.6342124542124542
6.251607519996469,0.0,0.006446886446886447,0.04996336996336996
6.263531898999645,0.0,0.006446886446886447,0.04996336996336996
6.272845433999464,0.0,0.006446886446886447,0.04996336996336996
6.280338478998601,0.0,0.0,0.07816849816849816
6.28817857499962,0.0,0.0,0.07816849816849816
6.293861060999916,0.0,0.04029304029304029,2.5843956043956045
6.294050710999727,0.0,0.0,3.3
6.3015963660000125,0.0,0.0,3.3
6.309383703999629,0.0,0.0,3.3
6.316921105997608,0.0,0.012893772893772894,2.5787545787545785
6.321142435997899,0.0,0.012893772893772894,2.5787545787545785
6.322549976997834,0.0,0.012893772893772894,2.5787545787545785
6.329408265999518,0.0,0.012893772893772894,2.5787545787545785
6.334135527999024,0.0,0.012893772893772894,2.5787545787545785
6.34117727299963,0.0,0.012893772893772894,2.5787545787545785
6.345646067999041,0.0,0.012893772893772894,2.5787545787545785
6.34588858799907,0.0,0.012893772893772894,2.5787545787545785
6.354488818997197,0.0,0.012893772893772894,2.5787545787545785
6.363130242996704,0.0,0.012893772893772894,2.5787545787545785
6.367390062998311,0.0,0.012893772893772894,2.5787545787545785
6.369662750999851,0.0,0.012893772893772894,2.5787545787545785
6.370479743996839,0.0,0.004835164835164835,2.5747252747252745
6.372049758996582,0.0,0.004835164835164835,2.5747252747252745
6.376552117999381,0.0,0.004835164835164835,2.5747252747252745
6.3768334399974265,0.0,0.0,0.5294505494505495
6.382046517999697,0.0,0.0,0.5294505494505495
6.384310071996879,0.0,0.0,0.5294505494505495
6.385162347996811,0.0,0.0,0.5294505494505495
6.386776756997278,0.0,0.0,0.5294505494505495
6.390990151998267,0.0,0.0,0.5294505494505495
6.393257476996951,0.0,0.0,0.5294505494505495
6.393649147998076,0.0,0.0,0.5294505494505495
6.398267139997188,0.0,0.0,0.5294505494505495
6.39842853799928,0.0,0.0,0.5294505494505495
6.403645508999034,0.0,0.0,0.5294505494505495
6.405815169997368,0.0,0.007252747252747252,0.08542124542124542
6.4073270709995995,0.0,0.0136996336996337,0.03626373626373627
6.412279524000041,0.0,0.007252747252747252,0.07413919413919413
6.416581259996747,0.0,0.007252747252747252,0.07413919413919413
6.418054822999693,0.0,0.011282051282051281,3.3
6.422267252997699,0.0,0.011282051282051281,3.3
6.424498978998599,0.0,0.004835164835164835,0.025787545787545788
6.42530520299988,0.0,0.004835164835164835,0.025787545787545788
6.427461580999079,0.0,0.004835164835164835,0.025787545787545788
6.428878228998656,0.0,0.004835164835164835,0.025787545787545788
6.433267809999961,0.0,0.004835164835164835,0.025787545787545788
6.4349740329998895,0.0,0.00967032967032967,2.5642490842490844
6.4380305129998305,0.0,0.00967032967032967,2.5642490842490844
6.440493327998411,0.0,0.00967032967032967,2.5642490842490844
6.44580462399972,0.0,0.00967032967032967,2.5642490842490844
6.448338786998647,0.0,0.00967032967032967,2.5642490842490844
6.453837154997018,0.0,0.00967032967032967,2.5642490842490844
6.454859896999551,0.0,0.00967032967032967,2.5642490842490844
6.455685458997323,0.0,0.00967032967032967,2.5642490842490844
6.45741831599662,0.0,0.00967032967032967,2.5642490842490844
6.459784252998361,0.0,0.00967032967032967,2.5642490842490844
6.460007867997774,0.0,0.00967032967032967,2.5642490842490844
6.465579941999749,0.0,0.00967032967032967,2.5642490842490844
6.466370679998363,0.0,0.00967032967032967,2.5642490842490844
6.46790753499954,0.0,0.00967032967032967,2.5642490842490844
6.472174658996664,0.0,0.00967032967032967,2.5642490842490844
6.474424112999259,0.0,0.01531135531135531,2.5795604395604395
6.475265589997434,0.0,0.01531135531135531,2.5795604395604395
6.476790616998187,0.0,0.01531135531135531,2.5795604395604395
6.481685701997776,0.0,0.01531135531135531,2.5795604395604395
6.48659242299982,0.0,0.01531135531135531,2.5795604395604395
6.491459719996783,0.0,0.01934065934065934,0.0419047619047619
6.496329087000049,0.0,0.01934065934065934,0.0419047619047619
6.501393504997395,0.0,0.01934065934065934,0.0419047619047619
6.506291705998592,0.0,0.01934065934065934,0.0419047619047619
6.509921079999913,0.0,0.011282051282051281,0.03626373626373627
6.514804974998697,0.0,0.011282051282051281,0.03626373626373627
6.514980334999564,0.0,0.011282051282051281,0.03626373626373627
6.519913552998332,0.0,0.011282051282051281,0.03626373626373627
6.524088801998005,0.0,0.011282051282051281,0.03626373626373627
6.5261850119968585,0.0,0.011282051282051281,0.03626373626373627
6.527016828997148,0.0,0.011282051282051281,0.03626373626373627
6.528530007999507,0.0,0.011282051282051281,0.03626373626373627
6.533461618997535,0.0,0.011282051282051281,0.03626373626373627
6.537656365999283,0.0,0.011282051282051281,0.03626373626373627
6.539833697999711,0.0,0.006446886446886447,1.4803663003663003
6.540083040999889,0.0,0.006446886446886447,1.4803663003663003
6.545002075999946,0.0,0.006446886446886447,1.4803663003663003
6.549910061999981,0.0,0.006446886446886447,1.4803663003663003
6.550050838999596,0.0,0.0,2.581172161172161
6.5550061269968865,0.0,0.0,2.581172161172161
6.558787652997125,0.0,0.0,2.581172161172161
6.563152574999549,0.0,0.0,2.581172161172161
6.564059048996569,0.0,0.0,2.581172161172161
6.565040485998907,0.0,0.0,2.581172161172161
6.565923670998018,0.0,0.0,2.581172161172161
6.5683215979988745,0.0,0.0,2.581172161172161
6.573826601998007,0.0,0.0,2.581172161172161
6.57546610099962,0.0,0.0,2.581172161172161
6.57872422699802,0.0,0.0,2.7826373626373626
6.580305136998504,0.0,0.0,2.7826373626373626
6.584314477997395,0.0,0.0,2.7826373626373626
6.588299716997426,0.0,0.0,0.03706959706959707
6.590737571998034,0.0,0.0,0.03706959706959707
6.596073287997569,0.0,0.0,0.03706959706959707
6.597638928997185,0.0,0.0,0.03706959706959707
6.602095583999471,0.0,0.0,0.03706959706959707
6.603593125997577,0.0,0.0,0.03706959706959707
6.607806519998121,0.0,0.004835164835164835,0.017728937728937726
6.610636032997718,0.0,0.004835164835164835,0.017728937728937726
6.61347796499831,0.0,0.004835164835164835,0.017728937728937726
6.6170458999986295,0.0,0.0,1.622197802197802
6.621983402998012,0.0,0.0,1.622197802197802
6.626227775999723,0.0,0.0,1.622197802197802
6.62848101399868,0.0,0.005641025641025641,0.0
6.628711610999744,0.0,0.005641025641025641,0.0
6.63365376299771,0.0,0.005641025641025641,0.0
6.63857629499762,0.0,0.0024175824175824176,2.5763369963369964
6.643459882998286,0.0,0.010476190476190476,0.13457875457875457
6.647622333999607,0.0,0.010476190476190476,0.13457875457875457
6.6505483469991304,0.0,0.010476190476190476,0.13457875457875457
6.6540963539991935,0.0,0.010476190476190476,0.13457875457875457
6.6542897789986455,0.0,0.010476190476190476,0.13457875457875457
6.659285422996618,0.0,0.010476190476190476,0.13457875457875457
6.662928676996671,0.0,0.010476190476190476,0.13457875457875457
6.663003884998034,0.0,0.0024175824175824176,0.04029304029304029
6.667901701999654,0.0,0.0,0.0273992673992674
6.672529063998809,0.0,0.020146520146520144,3.3
6.6727716739987954,0.0,0.020146520146520144,3.3
6.678375254999992,0.0,0.020146520146520144,3.3
6.678600575996825,0.0,0.020146520146520144,3.3
6.684133090999239,0.0,0.020146520146520144,3.3
6.684442501999001,0.0,0.020146520146520144,3.3
6.689478551998036,0.0,0.020146520146520144,3.3
6.693125126999803,0.0,0.020146520146520144,3.3
6.698051340998063,0.0,0.020146520146520144,3.3
6.703439993998472,0.0,0.020146520146520144,3.3
6.705221357999108,0.0,0.020146520146520144,3.3
6.70779754799878,0.0,0.020146520146520144,3.3
6.713076500996976,0.0,0.020146520146520144,3.3
6.716236321997712,0.0,0.020146520146520144,3.3
6.717793555999378,0.0,0.020146520146520144,3.3
6.722267257999192,0.0,0.0,0.2715750915750916
6.7225903299986385,0.0,0.0,0.2715750915750916
6.728108241997688,0.0,0.0,0.03304029304029304
6.7290398469995125,0.0,0.0,0.03304029304029304
6.7300252099994395,0.0,0.0,0.03304029304029304
6.730934240997158,0.0,0.0,0.03304029304029304
6.731821975998173,0.0,0.0,0.03304029304029304
6.733401194996986,0.0,0.0,0.03304029304029304
6.737343209999381,0.0,0.0,2.5513553113553114
6.741342535999138,0.0,0.0,2.5513553113553114
6.74460551899756,0.0,0.0,2.5513553113553114
6.745513687998027,0.0,0.0,2.5513553113553114
6.7472313059988664,0.0,0.0,2.5513553113553114
6.749811350997334,0.0,0.0,2.5513553113553114
6.755479571998876,0.0,0.0,2.5513553113553114
6.755601158998616,0.0,0.0,2.5513553113553114
6.7610360519975075,0.0,0.0,2.5513553113553114
6.761887224998645,0.0,0.0,2.5513553113553114
6.763568115999078,0.0,0.0,2.5513553113553114
6.767954084996745,0.0,0.0,2.5513553113553114
6.768723339999269,0.0,0.0,2.5513553113553114
6.770935316999385,0.0,0.011282051282051281,2.5763369963369964
6.771727219998866,0.0,0.012087912087912087,2.5787545787545785
6.773927833997732,0.0,0.012087912087912087,2.5787545787545785
6.77473283099971,0.0,0.012087912087912087,2.5787545787545785
6.777019678997021,0.0,0.01934065934065934,2.4780219780219777
6.777147099997819,0.0,0.01934065934065934,2.4780219780219777
6.782177703997149,0.0,0.01934065934065934,2.4780219780219777
6.786290188996645,0.0,0.01934065934065934,2.4780219780219777
6.789511922997917,0.0,0.01934065934065934,2.4780219780219777
6.790395555999567,0.0,0.01934065934065934,2.4780219780219777
6.792025218997878,0.0,0.01934065934065934,2.4780219780219777
6.795940789997985,0.0,0.01934065934065934,2.4780219780219777
6.799695619996783,0.0,0.01934065934065934,2.4780219780219777
6.805318050999631,0.0,0.01934065934065934,2.4780219780219777
6.805442042998038,0.0,0.01934065934065934,2.4780219780219777
6.81115802199929,0.0,0.01934065934065934,2.4780219780219777
6.816580619997694,0.0,0.012893772893772894,2.5787545787545785
6.818294592998427,0.0,0.029816849816849816,1.402197802197802
6.821608532998653,0.0,0.029816849816849816,1.402197802197802
6.8224656129968935,0.0,0.0,0.1523076923076923
6.824198919999617,0.0,0.011282051282051281,0.06849816849816849
6.827363698997942,0.0,0.011282051282051281,0.06849816849816849
6.828956129997096,0.0,0.011282051282051281,0.06849816849816849
6.832908908996615,0.0,0.011282051282051281,0.06849816849816849
6.836814300997503,0.0,0.011282051282051281,0.06849816849816849
6.839867366998078,0.0,0.011282051282051281,0.06849816849816849
6.842315794998285,0.0,0.011282051282051281,0.06849816849816849
6.847921708998911,0.0,0.011282051282051281,0.06849816849816849
6.848026341998775,0.0,0.011282051282051281,0.06849816849816849
6.852988353999535,0.0,0.011282051282051281,0.06849816849816849
6.857183660998999,0.0,0.011282051282051281,0.06849816849816849
6.858681436999177,0.0,0.007252747252747252,1.423956043956044
6.863687671997468,0.0,0.007252747252747252,1.423956043956044
6.867684236996865,0.0,0.0,0.00967032967032967
6.870781521000026,0.0,0.0,0.00967032967032967
6.87312515099984,0.0,0.0032234432234432234,2.5763369963369964
6.873286014997575,0.0,0.0032234432234432234,2.5763369963369964
6.878794158998062,0.0,0.0032234432234432234,2.5763369963369964
6.8797312379974755,0.0,0.0032234432234432234,2.5763369963369964
6.880718653999793,0.0,0.0032234432234432234,2.5763369963369964
6.8822610689967405,0.0,0.008864468864468863,0.07736263736263736
6.886926664999919,0.0,0.008864468864468863,0.07736263736263736
6.892069447996619,0.0,0.0,0.0
6.894918150999729,0.0,0.014505494505494505,2.581172161172161
6.897832575999928,0.0,0.014505494505494505,2.581172161172161
6.900757925999642,0.0,0.014505494505494505,2.581172161172161
6.9039515079966804,0.0,0.014505494505494505,2.581172161172161
6.904836520996469,0.0,0.014505494505494505,2.581172161172161
6.9064914749978925,0.0,0.014505494505494505,2.581172161172161
6.9105647029973625,0.0,0.014505494505494505,2.581172161172161
6.913559853997867,0.0,0.0136996336996337,2.577142857142857
6.915889398998843,0.0,0.0136996336996337,2.577142857142857
6.916022343997611,0.0,0.0136996336996337,2.577142857142857
6.921401453997532,0.0,0.0136996336996337,2.577142857142857
6.9237194409979566,0.0,0.0273992673992674,0.5890842490842491
6.9238521799998125,0.0,0.007252747252747252,0.025787545787545788
6.929059494999819,0.0,0.007252747252747252,0.025787545787545788
6.9316064629965695,0.0,0.0,2.5787545787545785
6.937153016999218,0.0,0.0,2.5787545787545785
6.938810964998993,0.0,0.0,2.5787545787545785
6.942688110997551,0.0,0.0,2.5787545787545785
6.946511123998789,0.0,0.004029304029304029,0.05802197802197802
6.951815432999865,0.0,0.004029304029304029,0.05802197802197802
6.9541499959996145,0.0,0.004029304029304029,0.05802197802197802
6.954287259999546,0.0,0.004029304029304029,0.05802197802197802
6.959636029998364,0.0,0.004029304029304029,0.05802197802197802
6.961994106997736,0.0,0.004029304029304029,0.05802197802197802
6.962094445996627,0.0,0.004029304029304029,0.05802197802197802
6.968081325998355,0.0,0.0,0.25142857142857145
6.972585633997369,0.0,0.0,0.25142857142857145
6.972831599996425,0.0,0.0,0.25142857142857145
6.97838771899842,0.0,0.0,0.25142857142857145
6.980015562996414,0.0,0.0,0.25142857142857145
6.983893787997658,0.0,0.0,0.25142857142857145
6.987864364997222,0.0,0.0024175824175824176,0.06769230769230769
6.992030727997189,0.0,0.0016117216117216117,0.026593406593406595
6.994452212999022,0.0,0.016923076923076923,0.06769230769230769
6.99454536399935,0.0,0.016923076923076923,0.06769230769230769
6.999945655999909,0.0,0.016923076923076923,0.06769230769230769
7.0015610579976055,0.0,0.0032234432234432234,0.0016117216117216117
7.006196305999765,0.0,0.0032234432234432234,0.0016117216117216117
7.011774526999943,0.0,0.0032234432234432234,0.0016117216117216117
7.011975587996858,0.0,0.0032234432234432234,0.0016117216117216117
7.017542273999425,0.0,0.0032234432234432234,0.0016117216117216117
7.017788742999983,0.0,0.0032234432234432234,0.0016117216117216117
7.022670478996588,0.0,0.0032234432234432234,0.0016117216117216117
7.0272536979973665,0.0,0.0032234432234432234,0.0016117216117216117
7.027468397998746,0.0,0.0032234432234432234,0.0016117216117216117
7.032784323997475,0.0,0.0032234432234432234,0.0016117216117216117
7.03445254899998,0.0,0.0032234432234432234,0.0016117216117216117
7.037503361996642,0.0,0.0032234432234432234,0.0016117216117216117
7.039091194998036,0.0,0.0032234432234432234,0.0016117216117216117
7.042942627998855,0.0,0.0032234432234432234,0.0016117216117216117
7.046771230998274,0.0,0.0032234432234432234,0.0016117216117216117
7.0505564189988945,0.0,0.0032234432234432234,0.0016117216117216117
7.055234754996491,0.0,0.0032234432234432234,0.0016117216117216117
7.055330954997771,0.0,0.012893772893772894,2.573113553113553
7.06093585799681,0.0,0.012893772893772894,2.573113553113553
7.061893637997855,0.0,0.012893772893772894,2.573113553113553
7.062151047997759,0.0,0.012893772893772894,2.573113553113553
7.067542668999522,0.0,0.012893772893772894,2.573113553113553
7.0691625849976845,0.0,0.012893772893772894,2.573113553113553
7.072969656997884,0.0,0.006446886446886447,2.5787545787545785
7.078356818998145,0.0,0.006446886446886447,2.5787545787545785
7.080626623999706,0.0,0.006446886446886447,2.5787545787545785
7.080862717997661,0.0,0.006446886446886447,2.5787545787545785
7.088941646998137,0.0,0.006446886446886447,2.5787545787545785
7.097028265998233,0.0,0.006446886446886447,2.5787545787545785
7.1021445659971505,0.0,0.006446886446886447,2.5723076923076924
7.1030508859985275,0.0,0.0,0.06688644688644689
7.104666115999862,0.0,0.0,0.06688644688644689
7.108461293999426,0.0,0.012893772893772894,0.018534798534798533
7.11304485599976,0.0,0.012893772893772894,0.018534798534798533
7.113262884999131,0.0,0.012893772893772894,0.018534798534798533
7.118745389998367,0.0,0.012893772893772894,0.018534798534798533
7.120356523999362,0.0,0.03465201465201465,0.5786080586080585
7.124126212998817,0.0,0.03465201465201465,0.5786080586080585
7.127920487997471,0.0,0.03465201465201465,0.5786080586080585
7.133146375999786,0.0,0.03465201465201465,0.5786080586080585
7.135473765996721,0.0,0.03465201465201465,0.5786080586080585
7.1356339959966135,0.0,0.03465201465201465,0.5786080586080585
7.1409645729982,0.0,0.03465201465201465,0.5786080586080585
7.142520142999274,0.0,0.0,0.0032234432234432234
7.146976245996484,0.0,0.0,0.0032234432234432234
7.148520030998043,0.0,0.0,0.0032234432234432234
7.153232871998625,0.0,0.0,0.0032234432234432234
7.158572613996512,0.0,0.13377289377289378,2.324102564102564
7.161884661996737,0.0,0.13377289377289378,2.324102564102564
7.1627304869980435,0.0,0.13377289377289378,2.324102564102564
7.164311252996413,0.0,0.13377289377289378,2.324102564102564
7.1681253949973325,0.0,0.13377289377289378,2.324102564102564
7.1735940239996125,0.0,0.0016117216117216117,0.0
7.174468016997707,0.0,0.0016117216117216117,0.0
7.176009677998081,0.0,0.0016117216117216117,0.0
7.17974294799933,0.0,0.0016117216117216117,0.0
7.185277675998805,0.0,0.03545787545787545,0.4021245421245421
7.185474994999822,0.0,0.0,0.008864468864468863
7.190886648997548,0.0,0.0,0.008864468864468863
7.1932656499993755,0.0,0.00967032967032967,2.5795604395604395
7.193439792998106,0.0,0.00967032967032967,2.5795604395604395
7.198640630998852,0.0,0.00967032967032967,2.5795604395604395
7.201900064999791,0.0,0.00967032967032967,2.5795604395604395
7.202724198999931,0.0,0.00967032967032967,2.5795604395604395
7.204302688998723,0.0,0.00967032967032967,2.5795604395604395
7.208791196997481,0.0,0.00967032967032967,2.5795604395604395
7.209051535999606,0.0,0.00967032967032967,2.5795604395604395
7.2144796479988145,0.0,0.00967032967032967,2.5795604395604395
7.216193640997517,0.0,0.00967032967032967,2.5795604395604395
7.219349768998654,0.0,0.00967032967032967,2.5795604395604395
7.221076804999029,0.0,0.00967032967032967,2.5795604395604395
7.224176747997262,0.0,0.00967032967032967,2.5795604395604395
7.225800538999465,0.0,0.00967032967032967,2.5795604395604395
7.230431147996569,0.0,0.00967032967032967,2.5795604395604395
7.230625135998707,0.0,0.00967032967032967,2.5795604395604395
7.235389739998936,0.0,0.00967032967032967,2.5795604395604395
7.235550695997517,0.0,0.00967032967032967,2.5795604395604395
7.241087376998621,0.0,0.00967032967032967,2.5795604395604395
7.241355501999351,0.0,0.00967032967032967,2.5795604395604395
7.246959469997819,0.0,0.00967032967032967,2.5795604395604395
7.247762200997386,0.0,0.0,0.0008058608058608059
7.250007588998415,0.0,0.0,0.0008058608058608059
7.250174391996552,0.0,0.0,0.0008058608058608059
7.255470722997416,0.0,0.0,0.0008058608058608059
7.257993147999514,0.0,0.008058608058608058,3.3
7.263502450998203,0.0,0.025787545787545788,0.2747985347985348
7.265228370997647,0.0,0.008864468864468863,0.03706959706959707
7.268393746999209,0.0,0.008864468864468863,0.03706959706959707
7.269951210997533,0.0,0.008864468864468863,0.03706959706959707
7.27379326099981,0.0,0.008864468864468863,0.03706959706959707
7.277614996997727,0.0,0.017728937728937726,2.673040293040293
7.282989676998113,0.0,0.0032234432234432234,0.3424908424908425
7.2845588059972215,0.0,0.0,0.12168498168498168
7.288352169998689,0.0,0.0,0.12168498168498168
7.292245564996847,0.0,0.0,0.12168498168498168
7.296901222998713,0.0,0.012893772893772894,2.5787545787545785
7.297055611998076,0.0,0.012893772893772894,2.5787545787545785
7.302405182999792,0.0,0.012893772893772894,2.5787545787545785
7.304709584997909,0.0,0.012893772893772894,2.5787545787545785
7.3048451249997015,0.0,0.012893772893772894,2.5787545787545785
7.310308942996926,0.0,0.012893772893772894,2.5787545787545785
7.311169190998044,0.0,0.007252747252747252,0.0136996336996337
7.312697622997803,0.0,0.007252747252747252,0.0136996336996337
7.3175337399989075,0.0,0.007252747252747252,0.0136996336996337
7.322251228997629,0.0,0.017728937728937726,2.9776556776556777
7.327381935996527,0.0,0.0,0.11765567765567764
7.332854096999654,0.0,0.0,0.11765567765567764
7.333919927998068,0.0,0.0,0.11765567765567764
7.33472729999994,0.0,0.0,0.11765567765567764
7.337178830999619,0.0,0.0,0.11765567765567764
7.342752955999458,0.0,0.0,0.11765567765567764
7.343633665997913,0.0,0.008058608058608058,0.07655677655677656
7.345205451998481,0.0,0.008058608058608058,0.07655677655677656
7.348993879997579,0.0,0.008058608058608058,0.07655677655677656
7.353923612998187,0.0,0.008058608058608058,0.07655677655677656
7.359539136999956,0.0,0.008058608058608058,0.07655677655677656
7.359850391996588,0.0,0.008058608058608058,0.07655677655677656
7.364634021996608,0.0,0.008058608058608058,0.07655677655677656
7.370124748998933,0.0,0.008058608058608058,0.07655677655677656
7.370932351997908,0.0,0.008058608058608058,0.07655677655677656
7.37254972199662,0.0,0.008058608058608058,0.07655677655677656
7.376580942996952,0.0,0.008058608058608058,0.07655677655677656
7.3796138339967,0.0,0.008058608058608058,0.07655677655677656
7.382137005999539,0.0,0.008058608058608058,0.07655677655677656
7.387726899996778,0.0,0.0,0.051575091575091575
7.38856504299838,0.0,0.005641025641025641,0.02901098901098901
7.39037680399997,0.0,0.005641025641025641,0.02901098901098901
7.392704885998683,0.0,0.005641025641025641,0.02901098901098901
7.392780859998311,0.0,0.005641025641025641,0.02901098901098901
7.398397034998197,0.0,0.005641025641025641,0.02901098901098901
7.398633869997866,0.0,0.005641025641025641,0.02901098901098901
7.404154634998122,0.0,0.005641025641025641,0.02901098901098901
7.404500801996619,0.0,0.005641025641025641,0.02901098901098901
7.409957799998665,0.0,0.005641025641025641,0.02901098901098901
7.410135004996846,0.0,0.005641025641025641,0.02901098901098901
7.41539808699963,0.0,0.005641025641025641,0.02901098901098901
7.417266290998668,0.0,0.005641025641025641,0.02901098901098901
7.418936132999079,0.0,0.005641025641025641,0.02901098901098901
7.42286053999851,0.0,0.005641025641025641,0.02901098901098901
7.426643929997226,0.0,0.005641025641025641,0.02901098901098901
7.430443952998758,0.0,0.005641025641025641,0.02901098901098901
7.43603232699752,0.0,0.005641025641025641,0.02901098901098901
7.436203202996694,0.0,0.1241025641025641,2.5787545787545785
7.4420346099977905,0.0,0.1241025641025641,2.5787545787545785
7.442134147997422,0.0,0.1241025641025641,2.5787545787545785
7.447820541998226,0.0,0.1241025641025641,2.5787545787545785
7.447972200996446,0.0,0.0024175824175824176,0.011282051282051281
7.4534828969990485,0.0,0.0,2.5634432234432234
7.454317391999211,0.0,0.0,2.5634432234432234
7.455932488999679,0.0,0.0,2.5634432234432234
7.459950555999967,0.0,0.0,2.5634432234432234
7.463120295997214,0.0,0.0032234432234432234,0.13619047619047617
7.464793221999571,0.0,0.006446886446886447,0.03868131868131868
7.46851495699957,0.0,0.0136996336996337,0.0273992673992674
7.474053823996655,0.0,0.0136996336996337,0.0273992673992674
7.475078192997898,0.0,0.0136996336996337,0.0273992673992674
7.47587786999793,0.0,0.0136996336996337,0.0273992673992674
7.4776044379977975,0.0,0.0136996336996337,0.0273992673992674
7.4807569369986595,0.0,0.0136996336996337,0.0273992673992674
7.482347396999103,0.0,0.0136996336996337,0.0273992673992674
7.48626831099682,0.0,0.0136996336996337,0.0273992673992674
7.490204090998304,0.0,0.0032234432234432234,0.0024175824175824176
7.493432628998562,0.0,0.0032234432234432234,0.0024175824175824176
7.49435803599772,0.0,0.0032234432234432234,0.0024175824175824176
7.4959117519974825,0.0,0.0032234432234432234,0.0024175824175824176
7.500574198998947,0.0,0.0032234432234432234,0.0024175824175824176
7.506329707997793,0.0,0.0032234432234432234,0.0024175824175824176
7.506509915998322,0.0,0.0032234432234432234,0.0024175824175824176
7.511814395998954,0.0,0.0032234432234432234,0.0024175824175824176
7.513596551998489,0.0,0.0032234432234432234,0.0024175824175824176
7.516741281997383,0.0,0.0032234432234432234,0.0024175824175824176
7.517621738999878,0.0,0.0032234432234432234,0.0024175824175824176
7.519191311999748,0.0,0.0032234432234432234,0.0024175824175824176
7.523164650996478,0.0,0.0032234432234432234,0.0024175824175824176
7.526256884997565,0.0,0.0032234432234432234,0.0024175824175824176
7.527294090999931,0.0,0.0032234432234432234,0.0024175824175824176
7.527559503996599,0.0,0.0032234432234432234,0.0024175824175824176
7.533086272997025,0.0,0.0032234432234432234,0.0024175824175824176
7.534015709999949,0.0,0.0032234432234432234,0.0024175824175824176
7.535584262997872,0.0,0.0032234432234432234,0.0024175824175824176
7.540378136996878,0.0,0.0032234432234432234,0.0024175824175824176
7.545778523999616,0.0,0.0032234432234432234,0.0024175824175824176
7.548992628999258,0.0,0.028205128205128206,0.0419047619047619
7.549832261996926,0.0,0.028205128205128206,0.0419047619047619
7.551406072998361,0.0,0.028205128205128206,0.0419047619047619
7.555917641999258,0.0,0.028205128205128206,0.0419047619047619
7.556140572000004,0.0,0.028205128205128206,0.0419047619047619
7.561464507998608,0.0,0.028205128205128206,0.0419047619047619
7.563744353999937,0.0,0.028205128205128206,0.0419047619047619
7.564023478997115,0.0,0.018534798534798533,0.017728937728937726
7.569539393000014,0.0,0.0008058608058608059,0.02095238095238095
7.5711296439985745,0.0,0.0008058608058608059,0.02095238095238095
7.57501848299944,0.0,0.0008058608058608059,0.02095238095238095
7.579509226998198,0.0,0.033846153846153845,0.6326007326007326
7.5803279819992895,0.0,0.033846153846153845,0.6326007326007326
7.581959533999907,0.0,0.033846153846153845,0.6326007326007326
7.585846461999608,0.0,0.033846153846153845,0.6326007326007326
7.589601570998639,0.0,0.033846153846153845,0.6326007326007326
7.595144993996655,0.0,0.033846153846153845,0.6326007326007326
7.595954951997555,0.0,0.0,1.5770695970695972
7.597562366998318,0.0,0.0,1.5770695970695972
7.602190826997685,0.0,0.0,1.5770695970695972
7.607575498997903,0.0,0.0,1.5770695970695972
7.610758085997077,0.0,0.0,0.0
7.611571468998591,0.0,0.0008058608058608059,2.5787545787545785
7.61314589599715,0.0,0.0008058608058608059,2.5787545787545785
7.6179390079996665,0.0,0.0008058608058608059,2.5787545787545785
7.622684457997821,0.0,0.016923076923076923,0.6551648351648351
7.628184946999681,0.0,0.016923076923076923,0.6551648351648351
7.628534900999512,0.0,0.016923076923076923,0.6551648351648351
7.633304362996569,0.0,0.016923076923076923,0.6551648351648351
7.638969151998026,0.0,0.0136996336996337,2.577142857142857
7.639792595997278,0.0,0.0136996336996337,2.577142857142857
7.641407696999522,0.0,0.0136996336996337,2.577142857142857
7.6459511409993866,0.0,0.0136996336996337,2.577142857142857
7.646151961998839,0.0,0.0136996336996337,2.577142857142857
7.651427642998897,0.0,0.0136996336996337,2.577142857142857
7.65378551199683,0.0,0.0136996336996337,2.577142857142857
7.654021153997746,0.0,0.0136996336996337,2.577142857142857
7.659319541999139,0.0,0.0136996336996337,2.577142857142857
7.661614012999053,0.0,0.0,1.415091575091575
7.661759004997293,0.0,0.0,1.415091575091575
7.667100770999241,0.0,0.0,1.415091575091575
7.669356431997585,0.0,0.0,1.415091575091575
7.669600870998693,0.0,0.0,1.415091575091575
7.674968478997471,0.0,0.0,1.415091575091575
7.677297860998806,0.0,0.0,1.415091575091575
7.677486916996713,0.0,0.0,1.415091575091575
7.68274743299844,0.0,0.0,1.415091575091575
7.685073392000049,0.0,0.0,1.415091575091575
7.685179504998814,0.0,0.008058608058608058,0.0
7.690447698998469,0.0,0.008058608058608058,0.0
7.692054190996714,0.0,0.008058608058608058,0.0
7.695755884997197,0.0,0.008058608058608058,0.0
7.7013926899999205,0.0,0.022564102564102562,1.299047619047619
7.701727941999707,0.0,0.022564102564102562,1.299047619047619
7.706383090997406,0.0,0.022564102564102562,1.299047619047619
7.706492538996827,0.0,0.022564102564102562,1.299047619047619
7.71209124699817,0.0,0.022564102564102562,1.299047619047619
7.712271794996923,0.0,0.022564102564102562,1.299047619047619
7.718149634998554,0.0,0.022564102564102562,1.299047619047619
7.718272752998018,0.0,0.004835164835164835,1.1378754578754577
7.723926820999623,0.0,0.004835164835164835,1.1378754578754577
7.724169359997177,0.0,0.004835164835164835,1.1378754578754577
7.729401854998287,0.0,0.004835164835164835,1.1378754578754577
7.7317089429998305,0.0,0.0024175824175824176,2.569084249084249
7.731990902997495,0.0,0.0024175824175824176,2.569084249084249
7.737297191997641,0.0,0.0024175824175824176,2.569084249084249
7.739604965998296,0.0,0.012893772893772894,1.099194139194139
7.739818682999612,0.0,0.012893772893772894,1.099194139194139
7.745022566999978,0.0,0.012893772893772894,1.099194139194139
7.748039260997757,0.0,0.02175824175824176,0.022564102564102562
7.749659089997294,0.0,0.02175824175824176,0.022564102564102562
7.75343446399711,0.0,0.02175824175824176,0.022564102564102562
7.758014045997697,0.0,0.014505494505494505,0.017728937728937726
7.758084997996775,0.0,0.014505494505494505,0.017728937728937726
7.763369538999541,0.0,0.014505494505494505,0.017728937728937726
7.7656539649979095,0.0,0.010476190476190476,0.0
7.765827299997909,0.0,0.010476190476190476,0.0
7.771060287999717,0.0,0.010476190476190476,0.0
7.7740457609979785,0.0,0.007252747252747252,0.025787545787545788
7.775629190997279,0.0,0.007252747252747252,0.025787545787545788
7.780073248999543,0.0,0.0032234432234432234,0.0008058608058608059
7.7809130099994945,0.0,0.0032234432234432234,0.0008058608058608059
7.783170701997733,0.0,0.0032234432234432234,0.0008058608058608059
7.783276329999353,0.0,0.0032234432234432234,0.0008058608058608059
7.788539663997653,0.0,0.0032234432234432234,0.0008058608058608059
7.7908045329968445,0.0,0.0032234432234432234,0.0008058608058608059
7.790966977998323,0.0,0.0032234432234432234,0.0008058608058608059
7.79597755499708,0.0,0.0032234432234432234,0.0008058608058608059
7.799443133997556,0.0,0.0,0.07172161172161172
7.799695480996888,0.0,0.00967032967032967,0.03706959706959707
7.804754408000008,0.0,0.00967032967032967,0.03706959706959707
7.808951739996701,0.0,0.00967032967032967,0.03706959706959707
7.811872278998635,0.0,0.00967032967032967,0.03706959706959707
7.814769519998663,0.0,0.00967032967032967,0.03706959706959707
7.817612567996548,0.0,0.00967032967032967,0.03706959706959707
7.820483876999788,0.0,0.00967032967032967,0.03706959706959707
7.823353262996534,0.0,0.00967032967032967,0.03706959706959707
7.826849080996908,0.0,0.00967032967032967,0.03706959706959707
7.827033217999997,0.0,0.00967032967032967,0.03706959706959707
7.832030279998435,0.0,0.00967032967032967,0.03706959706959707
7.8355691869983275,0.0,0.00967032967032967,0.03706959706959707
7.835801930999878,0.0,0.00967032967032967,0.03706959706959707
7.840756466997846,0.0,0.00967032967032967,0.03706959706959707
7.845831012997223,0.0,0.00967032967032967,0.03706959706959707
7.8497382269997615,0.0,0.00967032967032967,0.03706959706959707
7.853518195999641,0.0,0.00967032967032967,0.03706959706959707
7.857557748997351,0.0,0.018534798534798533,2.5787545787545785
7.86145357499845,0.0,0.018534798534798533,2.5787545787545785
7.865324586997303,0.0,0.012893772893772894,0.08542124542124542
7.868354954996903,0.0,0.012893772893772894,0.08542124542124542
7.870683754998026,0.0,0.012893772893772894,0.08542124542124542
7.870810788997915,0.0,0.012893772893772894,0.08542124542124542
7.8761619809993135,0.0,0.012893772893772894,0.08542124542124542
7.878599582996685,0.0,0.012893772893772894,0.08542124542124542
7.878735277998203,0.0,0.012893772893772894,0.08542124542124542
7.884277478999138,0.0,0.0,0.13941391941391942
7.8844692219972785,0.0,0.0024175824175824176,0.004835164835164835
7.889936769999622,0.0,0.018534798534798533,0.006446886446886447
7.891453334999824,0.0,0.018534798534798533,0.006446886446886447
7.895246518997737,0.0,0.006446886446886447,2.577948717948718
7.899478987998009,0.0,0.006446886446886447,2.577948717948718
7.901727682998171,0.0,0.006446886446886447,2.577948717948718
