time,emg1,emg2,emg3
0.001778644000296481,2.004175824175824,1.9606593406593404,0.5109157509157509
0.002839840999513399,2.004175824175824,1.9606593406593404,0.5109157509157509
0.0036226930023985915,2.004175824175824,1.9606593406593404,0.5109157509157509
0.006683459003397729,2.004175824175824,1.9606593406593404,0.5109157509157509
0.0070599149985355325,2.004175824175824,1.9606593406593404,0.5109157509157509
0.01915072100382531,2.004175824175824,1.9606593406593404,0.5109157509157509
0.03323780299979262,2.004175824175824,1.9606593406593404,0.5109157509157509
0.0430584749992704,2.004175824175824,1.9606593406593404,0.5109157509157509
0.05121192800288554,2.004175824175824,1.9606593406593404,0.5109157509157509
0.05678268700285116,1.515018315018315,1.427985347985348,0.9307692307692307
0.05706800299958559,1.2821245421245422,0.6293772893772893,0.6124542124542125
0.06265435900422744,1.2821245421245422,0.6293772893772893,0.6124542124542125
0.06294721599988407,1.2821245421245422,0.6293772893772893,0.6124542124542125
0.06843452600151068,1.2821245421245422,0.6293772893772893,0.6124542124542125
0.0689099509982043,2.577142857142857,1.5528937728937728,1.075018315018315
0.07444487600150751,2.577142857142857,1.5528937728937728,1.075018315018315
0.07465939200483263,2.577142857142857,1.5528937728937728,1.075018315018315
0.08042502099851845,2.577142857142857,1.5528937728937728,1.075018315018315
0.09038790000340668,2.577142857142857,1.5528937728937728,1.075018315018315
0.09970050300034927,2.577142857142857,1.5528937728937728,1.075018315018315
0.1085915700023179,3.167838827838828,3.3,0.9557509157509158
0.1156850690022111,2.6585347985347987,2.83985347985348,1.7213186813186814
0.12069937000342179,3.3,1.248278388278388,0.9904029304029303
0.1255924569995841,3.3,1.248278388278388,0.9904029304029303
0.13418246600485872,3.3,1.248278388278388,0.9904029304029303
0.1389433439981076,3.3,1.5093772893772892,0.9952380952380951
0.14475620799930766,3.3,1.5093772893772892,0.9952380952380951
0.14487992499925895,2.6778754578754578,3.2226373626373626,1.6858608058608056
0.14988224700209685,2.6778754578754578,3.2226373626373626,1.6858608058608056
0.15457792799861636,2.6778754578754578,3.2226373626373626,1.6858608058608056
0.15469263300474267,2.6778754578754578,3.2226373626373626,1.6858608058608056
0.1597132259994396,1.5464468864468863,0.3312087912087912,0.20307692307692307
0.16466591700009303,1.5464468864468863,0.3312087912087912,0.20307692307692307
0.16988446200412,1.5464468864468863,0.3312087912087912,0.20307692307692307
0.1722319280015654,1.5464468864468863,0.3312087912087912,0.20307692307692307
0.17239265399985015,1.5464468864468863,0.3312087912087912,0.20307692307692307
0.17813557800400304,1.5464468864468863,0.3312087912087912,0.20307692307692307
0.17829528699803632,1.5464468864468863,0.3312087912087912,0.20307692307692307
0.18308968500059564,1.5464468864468863,0.3312087912087912,0.20307692307692307
0.1832997880046605,1.5464468864468863,0.3312087912087912,0.20307692307692307
0.18801597299898276,1.5464468864468863,0.3312087912087912,0.20307692307692307
0.188298899003712,1.5464468864468863,0.3312087912087912,0.20307692307692307
0.19636457200249424,1.5464468864468863,0.3312087912087912,0.20307692307692307
0.2042460380034754,1.5464468864468863,0.3312087912087912,0.20307692307692307
0.2083638929980225,3.2935531135531133,1.2797069597069597,0.6398534798534798
0.216009773001133,3.2935531135531133,1.2797069597069597,0.6398534798534798
0.22206496800208697,3.2935531135531133,1.2797069597069597,0.6398534798534798
0.2270404650043929,3.2935531135531133,1.2797069597069597,0.6398534798534798
0.2305157090013381,3.2935531135531133,1.2797069597069597,0.6398534798534798
0.24035164900124073,3.2935531135531133,1.2797069597069597,0.6398534798534798
0.2494526090013096,3.2935531135531133,1.2797069597069597,0.6398534798534798
0.2566370140048093,3.2935531135531133,1.2797069597069597,0.6398534798534798
0.2615005560001009,1.1257875457875457,0.3441025641025641,0.7212454212454212
0.2658885700002429,1.1257875457875457,0.3441025641025641,0.7212454212454212
0.2660880210023606,1.1257875457875457,0.3441025641025641,0.7212454212454212
0.2710940399992978,1.1257875457875457,0.3441025641025641,0.7212454212454212
0.27578657300182385,1.1257875457875457,0.3441025641025641,0.7212454212454212
0.27601494600094156,0.5713553113553113,0.18857142857142856,0.43355311355311354
0.2836367540003266,0.5713553113553113,0.18857142857142856,0.43355311355311354
0.2908824780024588,0.5713553113553113,0.18857142857142856,0.43355311355311354
0.2973646220052615,2.9518681318681317,3.1194871794871792,1.2756776556776557
0.30096286100160796,2.9518681318681317,3.1194871794871792,1.2756776556776557
0.3011222330023884,2.9518681318681317,3.1194871794871792,1.2756776556776557
0.30607887000223855,2.9518681318681317,3.1194871794871792,1.2756776556776557
0.31285059900255874,3.3,2.9035164835164835,1.1112820512820514
0.3166588320018491,1.4118681318681316,0.42630036630036633,0.763956043956044
0.3218119689990999,1.4118681318681316,0.42630036630036633,0.763956043956044
0.3250905060049263,1.4118681318681316,0.42630036630036633,0.763956043956044
0.3277470700049889,1.4118681318681316,0.42630036630036633,0.763956043956044
0.33363075899978867,1.4118681318681316,0.42630036630036633,0.763956043956044
0.337601215003815,2.22981684981685,0.7131868131868132,0.9073992673992675
0.3408221620047698,2.22981684981685,0.7131868131868132,0.9073992673992675
0.342512176001037,2.22981684981685,0.7131868131868132,0.9073992673992675
0.35037685299903387,2.22981684981685,0.7131868131868132,0.9073992673992675
0.3559512749998248,2.22981684981685,0.7131868131868132,0.9073992673992675
0.3560942160038394,2.22981684981685,0.7131868131868132,0.9073992673992675
0.3635737100048573,2.22981684981685,0.7131868131868132,0.9073992673992675
0.3683990170029574,0.9791208791208791,0.3553846153846154,0.09509157509157509
0.3717314419991453,2.98007326007326,3.1049816849816847,1.1684981684981686
0.37262454900337616,2.98007326007326,3.1049816849816847,1.1684981684981686
0.37426026000321144,2.98007326007326,3.1049816849816847,1.1684981684981686
0.3800868620019173,2.98007326007326,3.1049816849816847,1.1684981684981686
0.38489988500077743,2.98007326007326,3.1049816849816847,1.1684981684981686
0.39275742400059244,2.98007326007326,3.1049816849816847,1.1684981684981686
0.4006788670012611,2.655311355311355,3.3,1.3385347985347984
0.4084981380001409,2.655311355311355,3.3,1.3385347985347984
0.41648918999999296,2.655311355311355,3.3,1.3385347985347984
0.42115761199966073,2.655311355311355,3.3,1.3385347985347984
0.42128114699880825,2.655311355311355,3.3,1.3385347985347984
0.4268734159995802,2.655311355311355,3.3,1.3385347985347984
0.4271780609997222,2.9873260073260073,3.058241758241758,1.1386813186813185
0.4370896010004799,2.9873260073260073,3.058241758241758,1.1386813186813185
0.4439111329993466,2.9873260073260073,3.058241758241758,1.1386813186813185
0.45039769600407453,2.9873260073260073,3.058241758241758,1.1386813186813185
0.45379828700242797,2.6714285714285713,1.913919413919414,1.1177289377289377
0.4547183899994707,0.4005128205128205,0.23208791208791207,0.5133333333333333
0.45565835099841934,0.4005128205128205,0.23208791208791207,0.5133333333333333
0.45729841800493887,0.4005128205128205,0.23208791208791207,0.5133333333333333
0.4627537510023103,0.4005128205128205,0.23208791208791207,0.5133333333333333
0.4637819519994082,0.4005128205128205,0.23208791208791207,0.5133333333333333
0.4646679049983504,0.4005128205128205,0.23208791208791207,0.5133333333333333
0.46635704900108976,0.4005128205128205,0.23208791208791207,0.5133333333333333
0.46951860599801876,0.4005128205128205,0.23208791208791207,0.5133333333333333
0.4713028390033287,0.4005128205128205,0.23208791208791207,0.5133333333333333
0.4738886490013101,0.4005128205128205,0.23208791208791207,0.5133333333333333
0.48262079100095434,0.4005128205128205,0.23208791208791207,0.5133333333333333
0.4875226959993597,0.4005128205128205,0.23208791208791207,0.5133333333333333
0.49575421799818287,0.4005128205128205,0.23208791208791207,0.5133333333333333
0.4998092470050324,0.4005128205128205,0.23208791208791207,0.5133333333333333
0.5024701180009288,0.4005128205128205,0.23208791208791207,0.5133333333333333
0.507615189999342,0.4005128205128205,0.23208791208791207,0.5133333333333333
0.513464745003148,0.4005128205128205,0.23208791208791207,0.5133333333333333
0.5186983790044906,0.4005128205128205,0.23208791208791207,0.5133333333333333
0.5218672289993265,0.4005128205128205,0.23208791208791207,0.5133333333333333
0.5242466050040093,1.3465934065934064,0.16197802197802197,0.14263736263736262
0.5244054360009613,2.5989010989010985,1.539194139194139,1.1765567765567766
0.5320492520040716,2.5989010989010985,1.539194139194139,1.1765567765567766
0.5371771560021443,2.5989010989010985,1.539194139194139,1.1765567765567766
0.5410462520012516,2.5989010989010985,1.539194139194139,1.1765567765567766
0.5468653479983914,1.5827106227106227,0.2804395604395604,0.25465201465201465
0.5525230929997633,1.5827106227106227,0.2804395604395604,0.25465201465201465
0.5526737070031231,0.25787545787545785,0.3038095238095238,0.5665201465201465
0.5581477849991643,0.25787545787545785,0.3038095238095238,0.5665201465201465
0.5590577840048354,0.25787545787545785,0.3038095238095238,0.5665201465201465
0.5602367950050393,0.25787545787545785,0.3038095238095238,0.5665201465201465
0.5604381240045768,0.25787545787545785,0.3038095238095238,0.5665201465201465
0.5665172220033128,0.25787545787545785,0.3038095238095238,0.5665201465201465
0.5715832080022665,0.25787545787545785,0.3038095238095238,0.5665201465201465
0.576370410999516,0.25787545787545785,0.3038095238095238,0.5665201465201465
0.5854898250036058,0.25787545787545785,0.3038095238095238,0.5665201465201465
0.5912777220000862,0.25787545787545785,0.3038095238095238,0.5665201465201465
0.5915215280037955,0.25787545787545785,0.3038095238095238,0.5665201465201465
0.6014735749995452,1.3361172161172161,0.6366300366300366,0.5858608058608058
0.6071111060009571,0.27802197802197803,0.29978021978021974,0.42952380952380953
0.6079891580011463,0.27802197802197803,0.29978021978021974,0.42952380952380953
0.6107051190047059,0.27802197802197803,0.29978021978021974,0.42952380952380953
0.6162761790037621,0.27802197802197803,0.29978021978021974,0.42952380952380953
0.6164259500001208,3.3,2.656117216117216,0.7421978021978022
0.621744365998893,3.3,2.656117216117216,0.7421978021978022
0.6241512460037484,3.3,2.656117216117216,0.7421978021978022
0.6339193590029026,3.3,2.656117216117216,0.7421978021978022
0.6394004120011232,0.5246153846153846,0.14827838827838827,0.3497435897435897
0.6403840359998867,0.8147252747252747,0.27076923076923076,0.07816849816849816
0.6422143960007816,0.8147252747252747,0.27076923076923076,0.07816849816849816
0.6456262060019071,0.8147252747252747,0.27076923076923076,0.07816849816849816
0.6458416079985909,1.6254212454212453,1.2579487179487179,0.9718681318681318
0.6508739380005863,1.6254212454212453,1.2579487179487179,0.9718681318681318
0.6549034970012144,1.6254212454212453,1.2579487179487179,0.9718681318681318
0.6573388309989241,1.6254212454212453,1.2579487179487179,0.9718681318681318
0.6575121190035134,1.6254212454212453,1.2579487179487179,0.9718681318681318
0.666329487998155,1.6254212454212453,1.2579487179487179,0.9718681318681318
0.6704710179983522,1.6254212454212453,1.2579487179487179,0.9718681318681318
0.6729420789997675,1.6254212454212453,1.2579487179487179,0.9718681318681318
0.6731174529995769,1.6254212454212453,1.2579487179487179,0.9718681318681318
0.6802020300019649,1.6254212454212453,1.2579487179487179,0.9718681318681318
0.6855358009997872,1.6254212454212453,1.2579487179487179,0.9718681318681318
0.6872159120030119,1.6254212454212453,1.2579487179487179,0.9718681318681318
0.6904191389985499,1.6254212454212453,1.2579487179487179,0.9718681318681318
0.6915677150027477,1.6254212454212453,1.2579487179487179,0.9718681318681318
0.6918512749980437,0.9275457875457875,0.49882783882783877,0.7164102564102564
0.7007456110004568,0.9275457875457875,0.49882783882783877,0.7164102564102564
0.7070005839996156,0.9275457875457875,0.49882783882783877,0.7164102564102564
0.7130957100016531,1.157216117216117,0.7953846153846154,0.2747985347985348
0.7177786530010053,0.21032967032967032,0.3199267399267399,0.381978021978022
0.7246357859985437,0.21032967032967032,0.3199267399267399,0.381978021978022
0.7315323930015438,0.21032967032967032,0.3199267399267399,0.381978021978022
0.7367803060042206,0.21032967032967032,0.3199267399267399,0.381978021978022
0.7371186370000942,0.21032967032967032,0.3199267399267399,0.381978021978022
0.7430337230034638,0.21032967032967032,0.3199267399267399,0.381978021978022
0.7433258279997972,0.21032967032967032,0.3199267399267399,0.381978021978022
0.7514760050034965,0.21032967032967032,0.3199267399267399,0.381978021978022
0.7583398420028971,0.21032967032967032,0.3199267399267399,0.381978021978022
0.7635296500011464,0.21032967032967032,0.3199267399267399,0.381978021978022
0.7662676890031435,2.6682051282051282,2.9945787545787543,1.6995604395604393
0.7691913300004671,2.6682051282051282,2.9945787545787543,1.6995604395604393
0.7733877810023841,2.6682051282051282,2.9945787545787543,1.6995604395604393
0.7770543350052321,2.6682051282051282,2.9945787545787543,1.6995604395604393
0.7846960980023141,2.6682051282051282,2.9945787545787543,1.6995604395604393
0.7927243209996959,2.6673992673992672,3.163003663003663,1.5657875457875456
0.7985663010040298,2.1790476190476187,0.8671062271062271,0.9356043956043956
0.8031263849989045,2.1790476190476187,0.8671062271062271,0.9356043956043956
0.8032541990032769,2.1790476190476187,0.8671062271062271,0.9356043956043956
0.8103983500041068,2.1790476190476187,0.8671062271062271,0.9356043956043956
0.8171313729981193,2.1790476190476187,0.8671062271062271,0.9356043956043956
0.8220152409994625,2.1790476190476187,0.8671062271062271,0.9356043956043956
0.8288007230003132,2.1790476190476187,0.8671062271062271,0.9356043956043956
0.8359367200027918,2.1790476190476187,0.8671062271062271,0.9356043956043956
0.8392907099987497,2.1790476190476187,0.8671062271062271,0.9356043956043956
0.8396440500000608,2.1790476190476187,0.8671062271062271,0.9356043956043956
0.846891304005112,2.1790476190476187,0.8671062271062271,0.9356043956043956
0.8528064530037227,2.6456410256410257,2.73992673992674,1.6778021978021975
0.8576456139999209,2.673040293040293,2.8148717948717947,1.1805860805860806
0.8632808730035322,2.673040293040293,2.8148717948717947,1.1805860805860806
0.8700942970026517,2.673040293040293,2.8148717948717947,1.1805860805860806
0.8749172390016611,2.673040293040293,2.8148717948717947,1.1805860805860806
0.8831178110049223,2.673040293040293,2.8148717948717947,1.1805860805860806
0.8880677780034603,0.8058608058608058,0.24095238095238095,0.08783882783882783
0.8881883370049763,0.8058608058608058,0.24095238095238095,0.08783882783882783
0.8961468890047399,0.8058608058608058,0.24095238095238095,0.08783882783882783
0.8997501339981682,0.8058608058608058,0.24095238095238095,0.08783882783882783
0.8998973440029658,0.8058608058608058,0.24095238095238095,0.08783882783882783
0.9047974159984733,0.8058608058608058,0.24095238095238095,0.08783882783882783
0.9112575289982487,0.8058608058608058,0.24095238095238095,0.08783882783882783
0.9154099750012392,0.8058608058608058,0.24095238095238095,0.08783882783882783
0.9171563050040277,0.2772161172161172,0.24175824175824176,0.26593406593406593
0.9210047660017153,0.2772161172161172,0.24175824175824176,0.26593406593406593
0.9267763410025509,0.2772161172161172,0.24175824175824176,0.26593406593406593
0.9270454060024349,0.2772161172161172,0.24175824175824176,0.26593406593406593
0.9368915369996103,0.2772161172161172,0.24175824175824176,0.26593406593406593
0.9455999490019167,3.3,3.3,1.0073260073260073
0.9507332069988479,3.3,3.3,1.0073260073260073
0.9539242219980224,3.3,3.3,1.0073260073260073
0.9555503849987872,3.3,3.3,1.0073260073260073
0.9605064520001179,3.3,3.3,1.0073260073260073
0.9651501340049435,3.3,3.3,1.0073260073260073
0.9698722050015931,3.3,3.3,1.0073260073260073
0.9701192389984499,3.3,3.3,1.0073260073260073
0.9748933230002876,3.3,3.3,1.0073260073260073
0.9830344939982751,3.3,3.3,1.0073260073260073
0.9887185800034786,3.3,3.3,1.0073260073260073
0.9896715020004194,3.3,3.3,1.0073260073260073
0.9915543649985921,3.3,3.3,1.0073260073260073
0.9959173130046111,3.3,3.3,1.0073260073260073
0.9961422980049974,3.3,3.3,1.0073260073260073
1.001093762999517,3.3,3.3,1.0073260073260073
1.0050526660052128,3.3,3.3,1.0073260073260073
1.0099214350047987,3.3,3.3,1.0073260073260073
1.0149585570034105,3.3,3.3,1.0073260073260073
1.0183831219983404,3.3,3.3,1.0073260073260073
1.0238810340015334,3.3,3.3,1.0073260073260073
1.0255321580043528,1.0178021978021978,0.2216117216117216,0.14747252747252745
1.030361991004611,1.0178021978021978,0.2216117216117216,0.14747252747252745
1.0351751960042748,1.0178021978021978,0.2216117216117216,0.14747252747252745
1.0408825690028607,3.3,1.5835164835164834,0.4899633699633699
1.0411420770033146,3.3,1.5835164835164834,0.4899633699633699
1.0470622790016932,3.3,1.5835164835164834,0.4899633699633699
1.0517639960016822,1.3852747252747253,0.7808791208791208,0.22886446886446887
1.0519611740019172,1.3852747252747253,0.7808791208791208,0.22886446886446887
1.0573152170036337,1.3852747252747253,0.7808791208791208,0.22886446886446887
1.0603602179980953,1.3852747252747253,0.7808791208791208,0.22886446886446887
1.0624304209995898,1.3852747252747253,0.7808791208791208,0.22886446886446887
1.0633895280043362,1.3852747252747253,0.7808791208791208,0.22886446886446887
1.064949075000186,1.3852747252747253,0.7808791208791208,0.22886446886446887
1.0697590920026414,1.3852747252747253,0.7808791208791208,0.22886446886446887
1.0754007159994217,1.3852747252747253,0.7808791208791208,0.22886446886446887
1.0757406289994833,0.08622710622710622,0.3489377289377289,0.6043956043956044
1.0803031110044685,0.08622710622710622,0.3489377289377289,0.6043956043956044
1.080621045002772,1.3723809523809525,0.2369230769230769,0.15472527472527473
1.085793743004615,1.3723809523809525,0.2369230769230769,0.15472527472527473
1.08938931600278,1.3723809523809525,0.2369230769230769,0.15472527472527473
1.089581835003628,2.8986813186813185,1.5923809523809522,1.0363369963369962
1.0939965910001774,2.8986813186813185,1.5923809523809522,1.0363369963369962
1.0948786640001344,2.8986813186813185,1.5923809523809522,1.0363369963369962
1.0963910120044602,0.3078388278388278,0.4287179487179487,0.6406593406593406
1.1016730980045395,3.3,3.235531135531135,0.8977289377289376
1.1045171010046033,1.3788278388278388,0.2361172161172161,0.16278388278388278
1.1080682829997386,1.3788278388278388,0.2361172161172161,0.16278388278388278
1.1082967890033615,1.3788278388278388,0.2361172161172161,0.16278388278388278
1.1126909660015372,1.3788278388278388,0.2361172161172161,0.16278388278388278
1.114910370000871,1.3788278388278388,0.2361172161172161,0.16278388278388278
1.115715801002807,1.3788278388278388,0.2361172161172161,0.16278388278388278
1.1182861929992214,0.9339926739926739,0.1772893772893773,0.3658608058608058
1.1239332670011208,0.9339926739926739,0.1772893772893773,0.3658608058608058
1.1247892530009267,2.6617582417582417,2.8745054945054944,1.6778021978021975
1.126444118002837,2.6617582417582417,2.8745054945054944,1.6778021978021975
1.1302517860021908,2.6617582417582417,2.8745054945054944,1.6778021978021975
1.134938859999238,2.6617582417582417,2.8745054945054944,1.6778021978021975
1.1350687660014955,2.6617582417582417,2.8745054945054944,1.6778021978021975
1.1403992830018979,2.6617582417582417,2.8745054945054944,1.6778021978021975
1.143073571001878,2.6617582417582417,2.8745054945054944,1.6778021978021975
1.1468964680025238,2.6617582417582417,2.8745054945054944,1.6778021978021975
1.1517111159992055,2.6617582417582417,2.8745054945054944,1.6778021978021975
1.156675060003181,2.6617582417582417,2.8745054945054944,1.6778021978021975
1.1631154770002468,2.6617582417582417,2.8745054945054944,1.6778021978021975
1.1671644640009617,0.8276190476190476,0.3537728937728937,0.06124542124542124
1.170322229998419,0.8276190476190476,0.3537728937728937,0.06124542124542124
1.1721475910017034,0.8276190476190476,0.3537728937728937,0.06124542124542124
1.1757360880001215,0.8276190476190476,0.3537728937728937,0.06124542124542124
1.181921285999124,0.8276190476190476,0.3537728937728937,0.06124542124542124
1.186028037001961,0.1571428571428571,1.021025641025641,0.18776556776556774
1.1891224810024141,2.6536996336996337,2.690769230769231,1.7148717948717949
1.1917622000037227,2.6536996336996337,2.690769230769231,1.7148717948717949
1.1964534479993745,2.6536996336996337,2.690769230769231,1.7148717948717949
1.1966919750047964,2.6536996336996337,2.690769230769231,1.7148717948717949
1.2017099950026022,2.6536996336996337,2.690769230769231,1.7148717948717949
1.2053279140018276,2.6536996336996337,2.690769230769231,1.7148717948717949
1.2112302290042862,2.6536996336996337,2.690769230769231,1.7148717948717949
1.211336319000111,2.6536996336996337,2.690769230769231,1.7148717948717949
1.2162942490031128,2.6536996336996337,2.690769230769231,1.7148717948717949
1.220666915003676,2.6536996336996337,2.690769230769231,1.7148717948717949
1.221578105003573,2.6536996336996337,2.690769230769231,1.7148717948717949
1.223302088001219,2.6536996336996337,2.690769230769231,1.7148717948717949
1.2266223400001763,2.6536996336996337,2.690769230769231,1.7148717948717949
1.226931411998521,0.8928937728937728,0.8195604395604396,0.3852014652014652
1.2320377869982622,0.8928937728937728,0.8195604395604396,0.3852014652014652
1.2359601380012464,2.4747985347985346,0.8759706959706959,0.85018315018315
1.2391873360029422,2.4747985347985346,0.8759706959706959,0.85018315018315
1.240096444998926,2.4747985347985346,0.8759706959706959,0.85018315018315
1.241782051998598,2.4747985347985346,0.8759706959706959,0.85018315018315
1.2456980179995298,2.4747985347985346,0.8759706959706959,0.85018315018315
1.2486096319989883,2.8205128205128203,1.8816849816849814,0.6898168498168498
1.251520491001429,2.655311355311355,2.133919413919414,1.066959706959707
1.2549935960050789,2.655311355311355,2.133919413919414,1.066959706959707
1.2551804830000037,2.655311355311355,2.133919413919414,1.066959706959707
1.2600736550011788,2.655311355311355,2.133919413919414,1.066959706959707
1.2642923410021467,0.7091575091575092,0.4222710622710622,0.03626373626373627
1.2670939000017825,0.7091575091575092,0.4222710622710622,0.03626373626373627
1.2712941170029808,2.66014652014652,3.3,1.212820512820513
1.2728234230016824,2.66014652014652,3.3,1.212820512820513
1.2777333859994542,2.66014652014652,3.3,1.212820512820513
1.2827472670032876,2.66014652014652,3.3,1.212820512820513
1.287129090000235,0.8542124542124543,0.2683516483516483,0.05802197802197802
1.2885907950039837,0.8542124542124543,0.2683516483516483,0.05802197802197802
1.2935501280007884,0.8542124542124543,0.2683516483516483,0.05802197802197802
1.298475766001502,0.8542124542124543,0.2683516483516483,0.05802197802197802
1.3027062480032328,0.8542124542124543,0.2683516483516483,0.05802197802197802
1.3055918770041899,1.0597069597069597,0.22805860805860806,0.19743589743589743
1.309157828000025,1.0597069597069597,0.22805860805860806,0.19743589743589743
1.3092999779983074,1.0597069597069597,0.22805860805860806,0.19743589743589743
1.3142000730003929,1.0597069597069597,0.22805860805860806,0.19743589743589743
1.3191967160018976,1.0597069597069597,0.22805860805860806,0.19743589743589743
1.3241854040024919,1.0597069597069597,0.22805860805860806,0.19743589743589743
1.3242836940044072,1.0597069597069597,0.22805860805860806,0.19743589743589743
1.3292490470048506,1.0597069597069597,0.22805860805860806,0.19743589743589743
1.3341728460000013,1.0597069597069597,0.22805860805860806,0.19743589743589743
1.3342751390009653,1.0597069597069597,0.22805860805860806,0.19743589743589743
1.3393147850001696,1.0597069597069597,0.22805860805860806,0.19743589743589743
1.3439961039985064,1.0597069597069597,0.22805860805860806,0.19743589743589743
1.3442492649992346,2.6633699633699632,2.7979487179487177,1.6906959706959706
1.3491249369981233,2.6633699633699632,2.7979487179487177,1.6906959706959706
1.3541540410005837,2.6633699633699632,2.7979487179487177,1.6906959706959706
1.3582397630016203,2.6633699633699632,2.7979487179487177,1.6906959706959706
1.361513283001841,2.6633699633699632,2.7979487179487177,1.6906959706959706
1.3623887350040604,2.6633699633699632,2.7979487179487177,1.6906959706959706
1.36334623300354,2.6633699633699632,2.7979487179487177,1.6906959706959706
1.364574667000852,2.6633699633699632,2.7979487179487177,1.6906959706959706
1.364767844999733,2.6633699633699632,2.7979487179487177,1.6906959706959706
1.3693978459996288,2.6633699633699632,2.7979487179487177,1.6906959706959706
1.3696395529987058,2.6633699633699632,2.7979487179487177,1.6906959706959706
1.3747217819982325,2.6633699633699632,2.7979487179487177,1.6906959706959706
1.3787886680001975,0.011282051282051281,0.2216117216117216,0.46175824175824176
1.3820657300020684,0.011282051282051281,0.2216117216117216,0.46175824175824176
1.3823205040025641,0.011282051282051281,0.2216117216117216,0.46175824175824176
1.3875165870049386,0.011282051282051281,0.2216117216117216,0.46175824175824176
1.3904198320014984,0.011282051282051281,0.2216117216117216,0.46175824175824176
1.3940284140044241,0.011282051282051281,0.2216117216117216,0.46175824175824176
1.3941273700038437,0.011282051282051281,0.2216117216117216,0.46175824175824176
1.3992686470010085,0.011282051282051281,0.2216117216117216,0.46175824175824176
1.4024860420031473,0.2224175824175824,1.0838827838827838,0.16197802197802197
1.404277006004122,0.2224175824175824,1.0838827838827838,0.16197802197802197
1.407463984003698,0.2224175824175824,1.0838827838827838,0.16197802197802197
1.4090938110020943,0.2224175824175824,1.0838827838827838,0.16197802197802197
1.4131735420014593,0.2224175824175824,1.0838827838827838,0.16197802197802197
1.4171880170033546,0.2224175824175824,1.0838827838827838,0.16197802197802197
1.4211231959998258,0.2224175824175824,1.0838827838827838,0.16197802197802197
1.4243984729982913,0.2224175824175824,1.0838827838827838,0.16197802197802197
1.4253586120030377,0.2224175824175824,1.0838827838827838,0.16197802197802197
1.4270236439988366,0.2224175824175824,1.0838827838827838,0.16197802197802197
1.4308786879992113,0.2224175824175824,1.0838827838827838,0.16197802197802197
1.434940111998003,0.2224175824175824,1.0838827838827838,0.16197802197802197
1.4387351840050542,0.2224175824175824,1.0838827838827838,0.16197802197802197
1.4442859530026908,0.2224175824175824,1.0838827838827838,0.16197802197802197
1.4451289380012895,0.2224175824175824,1.0838827838827838,0.16197802197802197
1.4467614850000245,0.2224175824175824,1.0838827838827838,0.16197802197802197
1.4512307320037507,0.2224175824175824,1.0838827838827838,0.16197802197802197
1.4520748940049089,3.3,1.2998534798534798,1.1717216117216116
1.453752881003311,3.3,1.2998534798534798,1.1717216117216116
1.457562121002411,3.3,1.2998534798534798,1.1717216117216116
1.4620788110041758,3.3,1.2998534798534798,1.1717216117216116
1.4623438790004002,3.3,1.2998534798534798,1.1717216117216116
1.4670155350031564,3.3,1.2998534798534798,1.1717216117216116
1.4672162450005999,3.3,1.2998534798534798,1.1717216117216116
1.471647718004533,3.3,1.2998534798534798,1.1717216117216116
1.4731392100002267,3.3,1.2861538461538462,0.8203663003663003
1.4773788919992512,3.3,1.2861538461538462,0.8203663003663003
1.4796092129981844,3.3,1.2861538461538462,0.8203663003663003
1.480421969004965,0.8590476190476191,0.356996336996337,0.1676190476190476
1.481967223000538,0.9194871794871795,0.2594871794871795,0.224029304029304
1.4864697470038664,1.2474725274725273,0.29010989010989013,0.2063003663003663
1.4873613140007365,1.2474725274725273,0.29010989010989013,0.2063003663003663
1.4888742270049988,2.6585347985347987,3.3,1.2144322344322345
1.4931877089984482,2.6682051282051282,2.0090109890109886,1.1016117216117214
1.496914041999844,0.697069597069597,0.4512820512820513,0.6809523809523809
1.5018856009992305,0.697069597069597,0.4512820512820513,0.6809523809523809
1.5068527449984686,1.3691575091575092,0.35619047619047617,0.2345054945054945
1.5114927210015594,2.6706227106227107,2.8825641025641024,1.7680586080586078
1.5116929380019428,2.6706227106227107,2.8825641025641024,1.7680586080586078
1.5163862460030941,2.6706227106227107,2.8825641025641024,1.7680586080586078
1.5167316689985455,2.6706227106227107,2.8825641025641024,1.7680586080586078
1.5215373099999852,2.6706227106227107,2.8825641025641024,1.7680586080586078
1.5216850510041695,2.6706227106227107,2.8825641025641024,1.7680586080586078
1.5265728459999082,2.6706227106227107,2.8825641025641024,1.7680586080586078
1.5311866749980254,2.6706227106227107,2.8825641025641024,1.7680586080586078
1.5313569830032066,2.6706227106227107,2.8825641025641024,1.7680586080586078
1.536000394000439,2.6706227106227107,2.8825641025641024,1.7680586080586078
1.5362407600041479,2.6706227106227107,2.8825641025641024,1.7680586080586078
1.540953535004519,2.6706227106227107,2.8825641025641024,1.7680586080586078
1.5411131100045168,2.6706227106227107,2.8825641025641024,1.7680586080586078
1.5458349399996223,2.6706227106227107,2.8825641025641024,1.7680586080586078
1.5460423850017833,1.83010989010989,1.4271794871794872,1.0057142857142858
1.550909450998006,3.3,3.0534065934065935,0.9202930402930403
1.5564292819981347,3.3,3.0534065934065935,0.9202930402930403
1.5567621250011143,0.8372893772893772,0.5584615384615385,0.8042490842490841
1.5617111290048342,0.8372893772893772,0.5584615384615385,0.8042490842490841
1.5664033780049067,0.8372893772893772,0.5584615384615385,0.8042490842490841
1.572003900000709,0.8372893772893772,0.5584615384615385,0.8042490842490841
1.573597309004981,0.8372893772893772,0.5584615384615385,0.8042490842490841
1.5781719610022265,0.8372893772893772,0.5584615384615385,0.8042490842490841
1.5783845059995656,1.1942857142857142,0.21435897435897436,0.3295970695970696
1.5839480229988112,1.1942857142857142,0.21435897435897436,0.3295970695970696
1.584179021003365,1.1942857142857142,0.21435897435897436,0.3295970695970696
1.589157366004656,1.1942857142857142,0.21435897435897436,0.3295970695970696
1.5941896459989948,1.1942857142857142,0.21435897435897436,0.3295970695970696
1.598178985004779,1.1942857142857142,0.21435897435897436,0.3295970695970696
1.602181763999397,3.3,3.265347985347985,0.9412454212454211
1.6054480989987496,3.3,3.265347985347985,0.9412454212454211
1.6057727920051548,3.3,3.265347985347985,0.9412454212454211
1.6103620170033537,3.3,3.265347985347985,0.9412454212454211
1.610693758004345,3.3,3.265347985347985,0.9412454212454211
1.6155441099981545,3.3,3.265347985347985,0.9412454212454211
1.6211383750051027,3.3,3.265347985347985,0.9412454212454211
1.6221846390035353,3.3,3.265347985347985,0.9412454212454211
1.6230767759989249,3.3,3.265347985347985,0.9412454212454211
1.624164633001783,3.3,3.265347985347985,0.9412454212454211
1.624451162002515,3.3,3.265347985347985,0.9412454212454211
1.6292525690005277,3.3,3.265347985347985,0.9412454212454211
1.6293757310049841,3.3,3.265347985347985,0.9412454212454211
1.6345996430027299,3.3,3.265347985347985,0.9412454212454211
1.637258656002814,3.3,3.265347985347985,0.9412454212454211
1.6420371679996606,3.3,3.265347985347985,0.9412454212454211
1.6421733340030187,3.3,3.265347985347985,0.9412454212454211
1.6470087449997663,3.3,3.265347985347985,0.9412454212454211
1.652637692001008,3.3,3.265347985347985,0.9412454212454211
1.6528872150011011,3.3,3.265347985347985,0.9412454212454211
1.6576590969998506,3.3,3.265347985347985,0.9412454212454211
1.6632892310008174,3.3,3.265347985347985,0.9412454212454211
1.663555595005164,3.3,3.265347985347985,0.9412454212454211
1.66919400900224,3.3,3.265347985347985,0.9412454212454211
1.6693945840015658,3.3,3.265347985347985,0.9412454212454211
1.6744646779989125,3.3,3.265347985347985,0.9412454212454211
1.6777568539982894,3.3,3.265347985347985,0.9412454212454211
1.6793635150024784,3.3,3.265347985347985,0.9412454212454211
1.6833659510011785,3.3,3.265347985347985,0.9412454212454211
1.6866460890014423,2.6617582417582417,2.3805128205128203,1.7495238095238095
1.6884123950003413,1.6173626373626373,0.9275457875457875,0.2756043956043956
1.6907480560039403,1.6173626373626373,0.9275457875457875,0.2756043956043956
1.6909861250023823,1.6173626373626373,0.9275457875457875,0.2756043956043956
1.6957255410015932,1.6173626373626373,0.9275457875457875,0.2756043956043956
1.6959017440021853,1.6173626373626373,0.9275457875457875,0.2756043956043956
1.7007476319995476,1.6173626373626373,0.9275457875457875,0.2756043956043956
1.7008869940036675,1.6173626373626373,0.9275457875457875,0.2756043956043956
1.7057711880042916,1.6173626373626373,0.9275457875457875,0.2756043956043956
1.7104404060009983,2.6649816849816848,2.9147985347985346,1.7535531135531135
1.71622149200266,2.6649816849816848,2.9147985347985346,1.7535531135531135
1.7164209590046084,2.6649816849816848,2.9147985347985346,1.7535531135531135
1.721170474003884,2.6649816849816848,2.9147985347985346,1.7535531135531135
1.726655229998869,1.3917216117216116,0.35619047619047617,0.21999999999999997
1.728442161998828,3.3,2.2104761904761903,1.6189743589743588
1.7310596809984418,3.3,2.2104761904761903,1.6189743589743588
1.7357898769987514,3.3,2.2104761904761903,1.6189743589743588
1.7358900550025282,0.4254945054945055,0.5084981684981685,0.6777289377289377
1.7414483570028096,3.3,2.7278388278388275,0.8953113553113552
1.7422981230047299,3.3,2.7278388278388275,0.8953113553113552
1.7438942730004783,3.3,2.7278388278388275,0.8953113553113552
1.7476905290022842,3.3,2.7278388278388275,0.8953113553113552
1.7520886080019409,3.3,2.7278388278388275,0.8953113553113552
1.7536126050035818,3.3,2.7278388278388275,0.8953113553113552
1.757865366002079,3.3,2.7278388278388275,0.8953113553113552
1.7600960679992568,3.3,2.7278388278388275,0.8953113553113552
1.760335954000766,3.3,2.7278388278388275,0.8953113553113552
1.765341308004281,3.3,2.7278388278388275,0.8953113553113552
1.7690070220050984,3.3,2.7278388278388275,0.8953113553113552
1.7691111509993789,3.3,2.7278388278388275,0.8953113553113552
1.7740949060025741,3.3,2.7278388278388275,0.8953113553113552
1.7787974730017595,1.2692307692307692,0.5906959706959707,0.722051282051282
1.7790962900035083,3.3,2.7616849816849816,0.8654945054945055
1.7838157279984443,3.3,2.7616849816849816,0.8654945054945055
1.7840375800005859,2.6649816849816848,3.296776556776557,1.4779487179487178
1.7887812269982533,2.6649816849816848,3.296776556776557,1.4779487179487178
1.7889624710005592,2.6649816849816848,3.296776556776557,1.4779487179487178
1.7938804520017584,2.6649816849816848,3.296776556776557,1.4779487179487178
1.7995914310013177,3.3,1.3369230769230769,0.9605860805860806
1.7997459180041915,3.3,1.3369230769230769,0.9605860805860806
1.80477401400276,3.3,1.3369230769230769,0.9605860805860806
1.809526236000238,1.0145787545787546,0.8783882783882784,0.3731135531135531
1.815321401001711,1.0145787545787546,0.8783882783882784,0.3731135531135531
1.8154684289984289,1.0145787545787546,0.8783882783882784,0.3731135531135531
1.8210685680023744,1.0145787545787546,0.8783882783882784,0.3731135531135531
1.8220930340030463,1.0145787545787546,0.8783882783882784,0.3731135531135531
1.822985550003068,1.0145787545787546,0.8783882783882784,0.3731135531135531
1.8239036080049118,1.0145787545787546,0.8783882783882784,0.3731135531135531
1.8255774229983217,1.0145787545787546,0.8783882783882784,0.3731135531135531
1.8294218740047654,2.6166300366300366,1.6616849816849815,1.0580952380952382
1.8335202669986757,2.6166300366300366,1.6616849816849815,1.0580952380952382
1.8367678120048367,2.6166300366300366,1.6616849816849815,1.0580952380952382
1.8376312399996095,2.6166300366300366,1.6616849816849815,1.0580952380952382
1.839290322001034,2.6166300366300366,1.6616849816849815,1.0580952380952382
1.843211033003172,0.04915750915750916,0.8115018315018314,0.1378021978021978
1.848103563002951,0.04915750915750916,0.8115018315018314,0.1378021978021978
1.8538956010015681,0.04915750915750916,0.8115018315018314,0.1378021978021978
1.8540965280044475,0.04915750915750916,0.8115018315018314,0.1378021978021978
1.8596307879997767,0.04915750915750916,0.8115018315018314,0.1378021978021978
1.8613713570011896,0.17245421245421244,1.0443956043956042,0.20227106227106226
1.863798919999681,0.17245421245421244,1.0443956043956042,0.20227106227106226
1.8640532370045548,0.17245421245421244,1.0443956043956042,0.20227106227106226
1.8687967060031951,0.17245421245421244,1.0443956043956042,0.20227106227106226
1.868951645999914,0.17245421245421244,1.0443956043956042,0.20227106227106226
1.8745159419995616,0.17245421245421244,1.0443956043956042,0.20227106227106226
1.8755596980045084,0.17245421245421244,1.0443956043956042,0.20227106227106226
1.876440439002181,0.17245421245421244,1.0443956043956042,0.20227106227106226
1.8782294760021614,0.17245421245421244,1.0443956043956042,0.20227106227106226
1.8815135210024891,0.17245421245421244,1.0443956043956042,0.20227106227106226
1.8823727740018512,0.17245421245421244,1.0443956043956042,0.20227106227106226
1.8842341310009942,0.17245421245421244,1.0443956043956042,0.20227106227106226
1.8866145069987397,0.17245421245421244,1.0443956043956042,0.20227106227106226
1.8867901940029697,0.17245421245421244,1.0443956043956042,0.20227106227106226
1.8922637380019296,0.17245421245421244,1.0443956043956042,0.20227106227106226
1.892644580999331,3.3,1.261172161172161,0.9186813186813186
1.8972467460043845,3.3,1.261172161172161,0.9186813186813186
1.8974433719995432,3.3,2.8430769230769233,0.7454212454212454
1.9021129030006705,3.3,2.8430769230769233,0.7454212454212454
1.902365492998797,3.3,2.8430769230769233,0.7454212454212454
1.9071008230021107,3.3,2.8430769230769233,0.7454212454212454
1.9072367280023172,1.0258608058608059,0.8437362637362636,0.3594139194139194
1.9119100290045026,1.0258608058608059,0.8437362637362636,0.3594139194139194
1.9121581049985252,1.0258608058608059,0.8437362637362636,0.3594139194139194
1.9168077360009192,1.0258608058608059,0.8437362637362636,0.3594139194139194
1.9170558719997643,1.0258608058608059,0.8437362637362636,0.3594139194139194
1.9220081770035904,1.0258608058608059,0.8437362637362636,0.3594139194139194
1.9270134550024522,1.0258608058608059,0.8437362637362636,0.3594139194139194
1.9313069179988815,1.0258608058608059,0.8437362637362636,0.3594139194139194
1.9328488790051779,3.3,1.523882783882784,0.7462271062271062
1.937924521000241,3.3,1.523882783882784,0.7462271062271062
1.940803973004222,3.3,1.523882783882784,0.7462271062271062
1.9444255970011,3.3,1.523882783882784,0.7462271062271062
1.94467957100278,3.3,1.523882783882784,0.7462271062271062
1.9497744100008276,3.3,1.523882783882784,0.7462271062271062
1.9540678830016986,3.3,1.523882783882784,0.7462271062271062
1.9555394670023816,0.11282051282051282,0.3295970695970696,0.5455677655677655
1.960475594001764,0.11282051282051282,0.3295970695970696,0.5455677655677655
1.966443989003892,0.11282051282051282,0.3295970695970696,0.5455677655677655
1.9723530699993717,0.11282051282051282,0.3295970695970696,0.5455677655677655
1.972513777000131,0.11282051282051282,0.3295970695970696,0.5455677655677655
1.9783598089998122,0.11282051282051282,0.3295970695970696,0.5455677655677655
1.9785062099981587,0.11282051282051282,0.3295970695970696,0.5455677655677655
1.984403670001484,0.11282051282051282,0.3295970695970696,0.5455677655677655
1.9846264549996704,0.11282051282051282,0.3295970695970696,0.5455677655677655
1.9901111770013813,0.11282051282051282,0.3295970695970696,0.5455677655677655
1.9909907949986518,0.11282051282051282,0.3295970695970696,0.5455677655677655
1.99321859000338,0.11282051282051282,0.3295970695970696,0.5455677655677655
1.993536229005258,0.11282051282051282,0.3295970695970696,0.5455677655677655
1.9986259520010208,0.11282051282051282,0.3295970695970696,0.5455677655677655
2.0028157790002297,1.3764102564102565,1.6165567765567763,0.4351648351648352
2.005193049000809,2.6714285714285713,3.0453479853479855,1.8438095238095238
2.005326762002369,2.6714285714285713,3.0453479853479855,1.8438095238095238
2.010426909000671,2.6714285714285713,3.0453479853479855,1.8438095238095238
2.013997877998918,2.6714285714285713,3.0453479853479855,1.8438095238095238
2.0141493230039487,2.6714285714285713,3.0453479853479855,1.8438095238095238
2.0188589280005544,2.6714285714285713,3.0453479853479855,1.8438095238095238
2.019084389001364,0.6471062271062271,1.248278388278388,0.24175824175824176
2.0246189829995274,0.6471062271062271,1.248278388278388,0.24175824175824176
2.0262136410019593,2.6682051282051282,3.063882783882784,1.8236630036630037
2.0300822220015107,2.6682051282051282,3.063882783882784,1.8236630036630037
2.033978389001277,2.6569230769230767,2.2314285714285713,1.1088644688644689
2.038698034004483,2.0557509157509157,0.9356043956043956,0.5842490842490843
2.038939345002291,2.0557509157509157,0.9356043956043956,0.5842490842490843
2.0436797010042937,2.0557509157509157,0.9356043956043956,0.5842490842490843
2.043941091003944,2.0557509157509157,0.9356043956043956,0.5842490842490843
2.0488831539987586,2.0557509157509157,0.9356043956043956,0.5842490842490843
2.053935445001116,2.0557509157509157,0.9356043956043956,0.5842490842490843
2.057788137004536,2.0557509157509157,0.9356043956043956,0.5842490842490843
2.0624333060040954,2.0557509157509157,0.9356043956043956,0.5842490842490843
2.0625528349992237,2.0557509157509157,0.9356043956043956,0.5842490842490843
2.0681069679994835,2.0557509157509157,0.9356043956043956,0.5842490842490843
2.06996801400237,2.0557509157509157,0.9356043956043956,0.5842490842490843
2.072522645998106,2.9309157509157506,1.1419047619047618,0.9396336996336996
2.0780704190037795,2.9309157509157506,1.1419047619047618,0.9396336996336996
2.078302218003955,2.9309157509157506,1.1419047619047618,0.9396336996336996
2.082997447003436,2.9309157509157506,1.1419047619047618,0.9396336996336996
2.0831813780023367,2.9309157509157506,1.1419047619047618,0.9396336996336996
2.087894996002433,2.9309157509157506,1.1419047619047618,0.9396336996336996
2.088168262002,3.3,1.8623443223443221,1.3957509157509156
2.092667436998454,3.3,1.8623443223443221,1.3957509157509156
2.093585073998838,3.3,1.8623443223443221,1.3957509157509156
2.0944587900012266,3.3,1.8623443223443221,1.3957509157509156
2.0964942170030554,0.5528205128205127,0.5544322344322344,0.7526739926739926
2.0982494249983574,1.3167765567765568,0.22564102564102564,0.2651282051282051
2.1013245130016003,1.3167765567765568,0.22564102564102564,0.2651282051282051
2.1036967020045267,1.3167765567765568,0.22564102564102564,0.2651282051282051
2.1038918920021388,1.3167765567765568,0.22564102564102564,0.2651282051282051
2.1089388110049185,1.3167765567765568,0.22564102564102564,0.2651282051282051
2.1132061850003083,3.3,2.548937728937729,0.805054945054945
2.114836942004331,1.1693040293040293,0.6293772893772893,0.7446153846153846
2.1191207410010975,1.1693040293040293,0.6293772893772893,0.7446153846153846
2.1213121010005125,1.1693040293040293,0.6293772893772893,0.7446153846153846
2.1221501320032985,1.1693040293040293,0.6293772893772893,0.7446153846153846
2.124353807004809,1.1693040293040293,0.6293772893772893,0.7446153846153846
2.125144770005136,1.1693040293040293,0.6293772893772893,0.7446153846153846
2.1266962549998425,1.1693040293040293,0.6293772893772893,0.7446153846153846
2.1309423109996715,1.1693040293040293,0.6293772893772893,0.7446153846153846
2.1338337249981123,1.1693040293040293,0.6293772893772893,0.7446153846153846
2.1375602850021096,1.1693040293040293,0.6293772893772893,0.7446153846153846
2.1376727919996483,1.1693040293040293,0.6293772893772893,0.7446153846153846
2.142630278998695,1.1693040293040293,0.6293772893772893,0.7446153846153846
2.147435532999225,1.1693040293040293,0.6293772893772893,0.7446153846153846
2.147535219999554,1.1693040293040293,0.6293772893772893,0.7446153846153846
2.15340489600203,2.6585347985347987,2.6649816849816848,1.00007326007326
2.1584355090017198,2.6585347985347987,2.6649816849816848,1.00007326007326
2.1620386190043064,2.6585347985347987,2.6649816849816848,1.00007326007326
2.1622406489987043,2.6585347985347987,2.6649816849816848,1.00007326007326
2.1665302500041435,2.6585347985347987,2.6649816849816848,1.00007326007326
2.169427284003177,3.3,1.8857142857142855,1.46021978021978
2.1723520130035467,3.3,1.8857142857142855,1.46021978021978
2.1758924620007747,2.091208791208791,0.9283516483516483,0.83003663003663
2.176081099001749,2.091208791208791,0.9283516483516483,0.83003663003663
2.181047033998766,2.091208791208791,0.9283516483516483,0.83003663003663
2.1847921869994025,0.2232234432234432,0.6019780219780219,0.0821978021978022
2.1849105569999665,0.2232234432234432,0.6019780219780219,0.0821978021978022
2.1900377589990967,0.2232234432234432,0.6019780219780219,0.0821978021978022
2.194130989999394,1.80029304029304,1.1346520146520145,0.3295970695970696
2.1980569770021248,1.6084981684981683,0.8074725274725274,0.8614652014652014
2.2019024780020118,1.4432967032967032,0.2224175824175824,0.24901098901098898
2.2074507319994154,1.4432967032967032,0.2224175824175824,0.24901098901098898
2.2085202829985064,1.1338461538461537,1.1902564102564102,0.767985347985348
2.2093847049982287,1.1338461538461537,1.1902564102564102,0.767985347985348
2.2103139870014274,1.1338461538461537,1.1902564102564102,0.767985347985348
2.2112537540015182,1.1338461538461537,1.1902564102564102,0.767985347985348
2.2128658779984107,1.1338461538461537,1.1902564102564102,0.767985347985348
2.216694107002695,1.1338461538461537,1.1902564102564102,0.767985347985348
2.2214985649989103,1.1338461538461537,1.1902564102564102,0.767985347985348
2.227073793001182,2.6714285714285713,3.075970695970696,1.444102564102564
2.2273422880025464,2.6714285714285713,3.075970695970696,1.444102564102564
2.232343921001302,2.6714285714285713,3.075970695970696,1.444102564102564
2.236338592003449,2.6714285714285713,3.075970695970696,1.444102564102564
2.2395298640039982,2.6714285714285713,3.075970695970696,1.444102564102564
2.241169337001338,2.6714285714285713,3.075970695970696,1.444102564102564
2.24447412200243,2.6714285714285713,3.075970695970696,1.444102564102564
2.2453642530017532,2.449010989010989,1.6012454212454212,1.108058608058608
2.246932807000121,2.449010989010989,1.6012454212454212,1.108058608058608
2.2507445310038747,2.449010989010989,1.6012454212454212,1.108058608058608
2.2553249730044627,2.449010989010989,1.6012454212454212,1.108058608058608
2.2555299080049735,2.449010989010989,1.6012454212454212,1.108058608058608
2.261392546002753,2.449010989010989,1.6012454212454212,1.108058608058608
2.266751421004301,2.449010989010989,1.6012454212454212,1.108058608058608
2.268272599001648,2.449010989010989,1.6012454212454212,1.108058608058608
2.2731838210020214,2.655311355311355,3.3,1.1717216117216116
2.277912589001062,0.07978021978021978,0.2369230769230769,0.5157509157509157
2.2780727179997484,0.07978021978021978,0.2369230769230769,0.5157509157509157
2.283747351000784,0.07978021978021978,0.2369230769230769,0.5157509157509157
2.2840809769986663,0.07978021978021978,0.2369230769230769,0.5157509157509157
2.2887577610017615,0.07978021978021978,0.2369230769230769,0.5157509157509157
2.2890055250027217,0.07978021978021978,0.2369230769230769,0.5157509157509157
2.2945427040031063,3.3,1.4046153846153846,0.9702564102564102
2.296146510001563,3.3,1.4046153846153846,0.9702564102564102
2.2992103370052064,0.3142857142857142,0.23531135531135527,0.506080586080586
2.302253482004744,0.3142857142857142,0.23531135531135527,0.506080586080586
2.304610753999441,0.3142857142857142,0.23531135531135527,0.506080586080586
2.3049152370003867,0.3142857142857142,0.23531135531135527,0.506080586080586
2.3102934880007524,0.3142857142857142,0.23531135531135527,0.506080586080586
2.312752593999903,0.3142857142857142,0.23531135531135527,0.506080586080586
2.3128484890039545,0.3142857142857142,0.23531135531135527,0.506080586080586
2.3184604320049402,0.3142857142857142,0.23531135531135527,0.506080586080586
2.318672207002237,0.3142857142857142,0.23531135531135527,0.506080586080586
2.324097114003962,0.3142857142857142,0.23531135531135527,0.506080586080586
2.3256940720020793,0.3142857142857142,0.23531135531135527,0.506080586080586
2.330253617998096,0.3142857142857142,0.23531135531135527,0.506080586080586
2.3306238320001285,0.3142857142857142,0.23531135531135527,0.506080586080586
2.3359691459991154,0.3142857142857142,0.23531135531135527,0.506080586080586
2.33763245800219,0.3142857142857142,0.23531135531135527,0.506080586080586
2.3414671380014624,2.9615384615384617,3.266153846153846,1.0492307692307692
2.346927650003636,2.9615384615384617,3.266153846153846,1.0492307692307692
2.348744164999516,2.9615384615384617,3.266153846153846,1.0492307692307692
2.350563993000833,2.6682051282051282,2.693992673992674,1.1773626373626374
2.35376947199984,2.6682051282051282,2.693992673992674,1.1773626373626374
2.3547275720047764,2.6682051282051282,2.693992673992674,1.1773626373626374
2.3556339210044825,2.6682051282051282,2.693992673992674,1.1773626373626374
2.3573807639986626,2.6682051282051282,2.693992673992674,1.1773626373626374
2.3598691880033584,2.6682051282051282,2.693992673992674,1.1773626373626374
2.3600044730046648,2.6682051282051282,2.693992673992674,1.1773626373626374
2.364719971003069,2.6682051282051282,2.693992673992674,1.1773626373626374
2.3649396340042586,2.6682051282051282,2.693992673992674,1.1773626373626374
2.369567718000326,2.6682051282051282,2.693992673992674,1.1773626373626374
2.369803004003188,2.6682051282051282,2.693992673992674,1.1773626373626374
2.3746002949992544,2.6682051282051282,2.693992673992674,1.1773626373626374
2.3747997660029796,2.6682051282051282,2.693992673992674,1.1773626373626374
2.379573853002512,2.6682051282051282,2.693992673992674,1.1773626373626374
2.3796958200036897,2.6682051282051282,2.693992673992674,1.1773626373626374
2.3848454399994807,2.6682051282051282,2.693992673992674,1.1773626373626374
2.3880589330001385,2.6682051282051282,2.693992673992674,1.1773626373626374
2.3889429019982344,2.6682051282051282,2.693992673992674,1.1773626373626374
2.389931735000573,2.6682051282051282,2.693992673992674,1.1773626373626374
2.391694185003871,2.6682051282051282,2.693992673992674,1.1773626373626374
2.394214665000618,2.6682051282051282,2.693992673992674,1.1773626373626374
2.3989954240023508,2.6682051282051282,2.693992673992674,1.1773626373626374
2.40442020699993,2.6682051282051282,2.693992673992674,1.1773626373626374
2.4060919620023924,3.3,1.7624175824175823,1.481172161172161
2.4096295940034906,3.3,1.7624175824175823,1.481172161172161
2.409790376004821,3.3,1.7624175824175823,1.481172161172161
2.414732064004056,3.3,1.7624175824175823,1.481172161172161
2.41976127900125,0.917069597069597,0.18937728937728937,0.4142124542124542
2.4240815340017434,0.917069597069597,0.18937728937728937,0.4142124542124542
2.4256242890041904,0.917069597069597,0.18937728937728937,0.4142124542124542
2.4299328150009387,0.917069597069597,0.18937728937728937,0.4142124542124542
2.4327452270008507,0.917069597069597,0.18937728937728937,0.4142124542124542
2.4363680399983423,0.4029304029304029,0.4126007326007326,0.5068864468864469
2.4366177129995776,0.4029304029304029,0.4126007326007326,0.5068864468864469
2.4415557910033385,0.4029304029304029,0.4126007326007326,0.5068864468864469
2.4465697100022226,0.4029304029304029,0.4126007326007326,0.5068864468864469
2.4516298090020427,0.4029304029304029,0.4126007326007326,0.5068864468864469
2.4566281930019613,0.4029304029304029,0.4126007326007326,0.5068864468864469
2.461573459004285,0.4029304029304029,0.4126007326007326,0.5068864468864469
2.466524235001998,0.4029304029304029,0.4126007326007326,0.5068864468864469
2.466625380999176,1.0572893772893772,1.0492307692307692,0.718021978021978
2.471492598000623,1.0572893772893772,1.0492307692307692,0.718021978021978
2.476537214999553,1.0572893772893772,1.0492307692307692,0.718021978021978
2.480727588001173,1.0572893772893772,1.0492307692307692,0.718021978021978
2.4829086710014963,1.0572893772893772,1.0492307692307692,0.718021978021978
2.483793081002659,1.0572893772893772,1.0492307692307692,0.718021978021978
2.4854727040001308,1.0572893772893772,1.0492307692307692,0.718021978021978
2.489284638002573,1.0572893772893772,1.0492307692307692,0.718021978021978
2.4935785390043748,1.0572893772893772,1.0492307692307692,0.718021978021978
2.4964022589992965,3.3,1.402197802197802,1.1032234432234431
2.500150924999616,3.3,1.402197802197802,1.1032234432234431
2.5054809440043755,0.6269597069597069,0.4786813186813187,0.04673992673992674
2.5086326340024243,0.6269597069597069,0.4786813186813187,0.04673992673992674
2.51093899999978,0.6269597069597069,0.4786813186813187,0.04673992673992674
2.5110451450018445,0.6269597069597069,0.4786813186813187,0.04673992673992674
2.5163749940038542,0.6269597069597069,0.4786813186813187,0.04673992673992674
2.519421933000558,0.016923076923076923,0.3263736263736263,0.6205128205128204
2.521718816002249,0.016923076923076923,0.3263736263736263,0.6205128205128204
2.5219697330030613,0.016923076923076923,0.3263736263736263,0.6205128205128204
2.5273106310050935,0.016923076923076923,0.3263736263736263,0.6205128205128204
2.529658746003406,0.016923076923076923,0.3263736263736263,0.6205128205128204
2.5299439299997175,2.66014652014652,2.149230769230769,1.095164835164835
2.5342456190046505,2.66014652014652,2.149230769230769,1.095164835164835
2.535771412003669,2.66014652014652,2.149230769230769,1.095164835164835
2.540124081999238,2.66014652014652,2.149230769230769,1.095164835164835
2.541651872001239,1.3385347985347984,0.19663003663003664,0.18695970695970696
2.546655404003104,1.3385347985347984,0.19663003663003664,0.18695970695970696
2.551653972004715,1.3385347985347984,0.19663003663003664,0.18695970695970696
2.557332069001859,1.3385347985347984,0.19663003663003664,0.18695970695970696
2.5574675259995274,1.3385347985347984,0.19663003663003664,0.18695970695970696
2.5629696600008174,1.3385347985347984,0.19663003663003664,0.18695970695970696
2.5639594349995605,1.3385347985347984,0.19663003663003664,0.18695970695970696
2.564282851999451,1.3385347985347984,0.19663003663003664,0.18695970695970696
2.5690736320029828,3.3,1.8293040293040292,1.4747252747252748
2.5692185380030423,3.3,1.8293040293040292,1.4747252747252748
2.5742954860033933,3.3,1.8293040293040292,1.4747252747252748
2.5783540379998158,3.3,1.8293040293040292,1.4747252747252748
2.5808613400004106,3.3,1.8293040293040292,1.4747252747252748
2.5864753420028137,3.3,1.8293040293040292,1.4747252747252748
2.586781133999466,3.3,1.8293040293040292,1.4747252747252748
2.591534313003649,3.3,1.8293040293040292,1.4747252747252748
2.591693246002251,3.3,1.8293040293040292,1.4747252747252748
2.5966694050002843,3.3,1.8293040293040292,1.4747252747252748
2.600805838002998,3.3,1.8293040293040292,1.4747252747252748
2.6031243480028934,3.3,1.8293040293040292,1.4747252747252748
2.603473732000566,3.3,1.8293040293040292,1.4747252747252748
2.6082697689998895,3.3,1.8293040293040292,1.4747252747252748
2.6083966590013006,3.3,1.8293040293040292,1.4747252747252748
2.6132781810010783,3.3,1.8293040293040292,1.4747252747252748
2.6186826880002627,1.8494505494505493,0.8227838827838827,0.8840293040293039
2.620325342002616,1.8494505494505493,0.8227838827838827,0.8840293040293039
2.6234875849986565,1.8494505494505493,0.8227838827838827,0.8840293040293039
2.625154907000251,1.8494505494505493,0.8227838827838827,0.8840293040293039
2.6289552840025863,1.8494505494505493,0.8227838827838827,0.8840293040293039
2.634344163998321,1.8494505494505493,0.8227838827838827,0.8840293040293039
2.6359752229982405,1.8494505494505493,0.8227838827838827,0.8840293040293039
2.6398486489997595,1.8494505494505493,0.8227838827838827,0.8840293040293039
2.6433648970050854,1.8494505494505493,0.8227838827838827,0.8840293040293039
2.643622232004418,1.448131868131868,0.27318681318681315,0.22725274725274724
2.6486588480038336,1.448131868131868,0.27318681318681315,0.22725274725274724
2.652852127001097,1.448131868131868,0.27318681318681315,0.22725274725274724
2.6556870810018154,1.448131868131868,0.27318681318681315,0.22725274725274724
2.6593318009981886,1.448131868131868,0.27318681318681315,0.22725274725274724
2.659429037004884,1.448131868131868,0.27318681318681315,0.22725274725274724
2.665487400998245,1.448131868131868,0.27318681318681315,0.22725274725274724
2.670088131002558,3.0308424908424905,2.4788278388278386,1.099194139194139
2.670274069001607,3.3,1.270842490842491,1.0572893772893772
2.67483745500067,3.3,1.270842490842491,1.0572893772893772
2.6756745610036887,3.3,1.270842490842491,1.0572893772893772
2.6772482870001113,3.3,1.270842490842491,1.0572893772893772
2.6811538149995613,3.3,1.270842490842491,1.0572893772893772
2.685821525999927,1.4304029304029304,0.3537728937728937,0.24256410256410255
2.686083412998414,1.4304029304029304,0.3537728937728937,0.24256410256410255
2.691470110003138,1.4304029304029304,0.3537728937728937,0.24256410256410255
2.692402109001705,1.4304029304029304,0.3537728937728937,0.24256410256410255
2.6939959170049406,1.4304029304029304,0.3537728937728937,0.24256410256410255
2.6989370380033506,1.4304029304029304,0.3537728937728937,0.24256410256410255
2.7045618560005096,1.4304029304029304,0.3537728937728937,0.24256410256410255
2.705423746003362,1.4304029304029304,0.3537728937728937,0.24256410256410255
2.706423506999272,1.4304029304029304,0.3537728937728937,0.24256410256410255
2.7082116230012616,1.4304029304029304,0.3537728937728937,0.24256410256410255
2.711651826000889,1.4304029304029304,0.3537728937728937,0.24256410256410255
2.711918263004918,2.6488644688644687,1.7245421245421246,1.1233699633699634
2.717208753005252,2.6488644688644687,1.7245421245421246,1.1233699633699634
2.7188400340019143,2.6488644688644687,1.7245421245421246,1.1233699633699634
2.7234593239991227,2.6488644688644687,1.7245421245421246,1.1233699633699634
2.7236819500030833,1.523076923076923,0.3892307692307692,0.23047619047619047
2.729119283001637,1.523076923076923,0.3892307692307692,0.23047619047619047
2.7307517640001606,1.523076923076923,0.3892307692307692,0.23047619047619047
2.7346947920013918,1.523076923076923,0.3892307692307692,0.23047619047619047
2.7392718250048347,1.523076923076923,0.3892307692307692,0.23047619047619047
2.7401522400032263,1.523076923076923,0.3892307692307692,0.23047619047619047
2.741766054998152,1.523076923076923,0.3892307692307692,0.23047619047619047
2.745673983001325,1.523076923076923,0.3892307692307692,0.23047619047619047
2.7495173120041727,1.523076923076923,0.3892307692307692,0.23047619047619047
2.7534332840004936,1.523076923076923,0.3892307692307692,0.23047619047619047
2.757317913004954,0.1643956043956044,0.20307692307692307,0.43274725274725273
2.76634545300476,0.5326739926739926,0.47465201465201456,0.767985347985348
2.7739318040039507,2.5827838827838825,1.2982417582417582,1.1467399267399265
2.7817756190052023,0.5495970695970696,0.3473260073260073,0.6591941391941392
2.7879602879984304,1.9695238095238095,0.5890842490842491,0.26190476190476186
2.792472312001337,1.9695238095238095,0.5890842490842491,0.26190476190476186
2.7927132280019578,1.9695238095238095,0.5890842490842491,0.26190476190476186
2.7996236300023156,1.9695238095238095,0.5890842490842491,0.26190476190476186
2.80644686800224,1.9695238095238095,0.5890842490842491,0.26190476190476186
2.8123903470041114,1.9695238095238095,0.5890842490842491,0.26190476190476186
2.8184282459988026,1.9695238095238095,0.5890842490842491,0.26190476190476186
2.8245983439992415,0.5383150183150183,0.3972893772893773,0.052380952380952375
2.8308369369988213,1.2692307692307692,0.21355311355311357,0.1676190476190476
2.8367897479984094,2.6569230769230767,3.3,1.2523076923076921
2.8440001600029063,2.6569230769230767,3.3,1.2523076923076921
2.851861995004583,2.6569230769230767,3.3,1.2523076923076921
2.859600242001761,2.0476923076923077,1.5722344322344322,1.0983882783882783
2.8670482660018024,2.0476923076923077,1.5722344322344322,1.0983882783882783
2.8728196650044993,1.5424175824175823,0.3287912087912088,0.2957509157509157
2.8817074360049446,1.5424175824175823,0.3287912087912088,0.2957509157509157
2.8865737360029016,1.5424175824175823,0.3287912087912088,0.2957509157509157
2.8952608550025616,2.104102564102564,1.3014652014652013,0.3578021978021978
2.901235486002406,2.104102564102564,1.3014652014652013,0.3578021978021978
2.905492466998112,1.2353846153846153,0.17245421245421244,0.1386080586080586
2.9065223560028244,3.3,1.4997069597069597,0.78007326007326
2.909309292001126,3.3,1.4997069597069597,0.78007326007326
2.9143362890026765,3.3,1.4997069597069597,0.78007326007326
2.9160199190009735,3.3,1.4997069597069597,0.78007326007326
2.9207345730028464,3.3,1.4997069597069597,0.78007326007326
2.931251375004649,0.502051282051282,0.5576556776556777,0.06608058608058608
2.9386389499995857,0.502051282051282,0.5576556776556777,0.06608058608058608
2.949196309004037,0.502051282051282,0.5576556776556777,0.06608058608058608
2.9582335189988953,0.502051282051282,0.5576556776556777,0.06608058608058608
2.966185304998362,0.502051282051282,0.5576556776556777,0.06608058608058608
2.9722594460035907,1.2547252747252746,0.30945054945054945,0.32556776556776557
2.980225514002086,1.5327472527472528,0.6608058608058608,0.8348717948717947
2.9861695779982256,1.5327472527472528,0.6608058608058608,0.8348717948717947
2.9963733030017465,1.5327472527472528,0.6608058608058608,0.8348717948717947
3.0040212649983005,1.5327472527472528,0.6608058608058608,0.8348717948717947
3.012620984998648,1.5327472527472528,0.6608058608058608,0.8348717948717947
3.018597027003125,1.5327472527472528,0.6608058608058608,0.8348717948717947
3.0224366750044283,0.006446886446886447,0.27882783882783885,0.6043956043956044
3.0302900570022757,0.006446886446886447,0.27882783882783885,0.6043956043956044
3.0366319099994143,2.6569230769230767,3.3,1.244249084249084
3.0427420440028072,2.6569230769230767,3.3,1.244249084249084
3.0465374940031325,2.697216117216117,2.83985347985348,1.3063003663003663
3.0526271179987816,3.2419780219780217,1.4787545787545788,1.3361172161172161
3.0559461349985213,3.2419780219780217,1.4787545787545788,1.3361172161172161
3.0569920999987517,3.2419780219780217,1.4787545787545788,1.3361172161172161
3.057941421000578,3.2419780219780217,1.4787545787545788,1.3361172161172161
3.0592354949985747,3.2419780219780217,1.4787545787545788,1.3361172161172161
3.0672634130023653,3.2419780219780217,1.4787545787545788,1.3361172161172161
3.0763555580051616,3.2419780219780217,1.4787545787545788,1.3361172161172161
3.085288248003053,3.2419780219780217,1.4787545787545788,1.3361172161172161
3.090899941002135,0.9364102564102563,0.2111355311355311,0.13699633699633698
3.0934451010034536,2.8164835164835162,1.0959706959706959,0.5778021978021978
3.0975979100039694,2.8164835164835162,1.0959706959706959,0.5778021978021978
3.0993437120050658,2.8164835164835162,1.0959706959706959,0.5778021978021978
3.1032571160030784,2.8164835164835162,1.0959706959706959,0.5778021978021978
3.1096876160008833,2.8164835164835162,1.0959706959706959,0.5778021978021978
3.115178157000628,2.8164835164835162,1.0959706959706959,0.5778021978021978
3.123207356999046,2.8164835164835162,1.0959706959706959,0.5778021978021978
3.1317443279986037,2.8164835164835162,1.0959706959706959,0.5778021978021978
3.137212585002999,2.8164835164835162,1.0959706959706959,0.5778021978021978
3.138404069999524,2.8164835164835162,1.0959706959706959,0.5778021978021978
3.1385222669996438,2.8164835164835162,1.0959706959706959,0.5778021978021978
3.147527863002324,2.8164835164835162,1.0959706959706959,0.5778021978021978
3.1519197310044547,2.8164835164835162,1.0959706959706959,0.5778021978021978
3.152882217000297,2.8164835164835162,1.0959706959706959,0.5778021978021978
3.1545602350015542,2.8164835164835162,1.0959706959706959,0.5778021978021978
3.160938941000495,2.8164835164835162,1.0959706959706959,0.5778021978021978
3.1662304630008293,2.8164835164835162,1.0959706959706959,0.5778021978021978
3.1665976619988214,2.8164835164835162,1.0959706959706959,0.5778021978021978
3.1759956419991795,2.8164835164835162,1.0959706959706959,0.5778021978021978
3.1855278680013726,3.3,1.2498901098901098,1.224102564102564
3.194343757000752,1.2523076923076921,0.19179487179487179,0.14908424908424908
3.1997013080035686,2.6714285714285713,2.5441025641025643,1.212014652014652
3.2017992390028667,2.6714285714285713,2.5441025641025643,1.212014652014652
3.2021654010022758,2.6714285714285713,2.5441025641025643,1.212014652014652
3.208840899002098,2.6714285714285713,2.5441025641025643,1.212014652014652
3.2133118380006636,2.673040293040293,2.594065934065934,1.7213186813186814
3.2135036020044936,2.673040293040293,2.594065934065934,1.7213186813186814
3.219170520998887,2.673040293040293,2.594065934065934,1.7213186813186814
3.2193925460014725,0.03142857142857143,0.3497435897435897,0.6454945054945055
3.226411317002203,0.03142857142857143,0.3497435897435897,0.6454945054945055
3.231905254004232,0.03142857142857143,0.3497435897435897,0.6454945054945055
3.2333546849986305,2.8197069597069593,1.046007326007326,0.9702564102564102
3.2411488319994533,2.8197069597069593,1.046007326007326,0.9702564102564102
3.2503513300034683,2.8197069597069593,1.046007326007326,0.9702564102564102
3.257781733002048,2.8197069597069593,1.046007326007326,0.9702564102564102
3.2656656940016546,2.8197069597069593,1.046007326007326,0.9702564102564102
3.271328827999241,2.673040293040293,3.0888644688644686,1.4352380952380952
3.280047148000449,2.673040293040293,3.0888644688644686,1.4352380952380952
3.288113221002277,0.21435897435897436,0.726080586080586,0.10073260073260072
3.296783707999566,0.21435897435897436,0.726080586080586,0.10073260073260072
3.3034832260018447,0.9855677655677655,0.5036630036630036,0.7494505494505495
3.308677761000581,0.9855677655677655,0.5036630036630036,0.7494505494505495
3.3114414860028774,0.9855677655677655,0.5036630036630036,0.7494505494505495
3.3142608710040804,0.9855677655677655,0.5036630036630036,0.7494505494505495
3.32031811500201,0.9855677655677655,0.5036630036630036,0.7494505494505495
3.32370908500161,3.3,2.7334798534798534,0.7518681318681318
3.3240886540006613,3.3,2.7334798534798534,0.7518681318681318
3.331569854002737,3.3,2.7334798534798534,0.7518681318681318
3.336841333999473,3.3,2.7334798534798534,0.7518681318681318
3.339419691998046,3.3,2.7334798534798534,0.7518681318681318
3.346303162004915,1.2845421245421245,0.1813186813186813,0.12974358974358974
3.3510018320012023,2.6633699633699632,2.785054945054945,1.8752380952380951
3.3512384940040647,2.6633699633699632,2.785054945054945,1.8752380952380951
3.355907028002548,2.6633699633699632,2.785054945054945,1.8752380952380951
3.3560842890001368,2.6633699633699632,2.785054945054945,1.8752380952380951
3.364778146999015,2.6633699633699632,2.785054945054945,1.8752380952380951
3.370978623002884,1.3054945054945053,0.2506227106227106,0.2683516483516483
3.376008063998597,1.3054945054945053,0.2506227106227106,0.2683516483516483
3.3804524229999515,1.3054945054945053,0.2506227106227106,0.2683516483516483
3.390793307000422,1.3054945054945053,0.2506227106227106,0.2683516483516483
3.4006734900031006,2.6706227106227107,3.1783150183150184,1.9227838827838828
3.411805699004617,2.6706227106227107,3.1783150183150184,1.9227838827838828
3.4197612540010596,2.6706227106227107,3.1783150183150184,1.9227838827838828
3.4293928170009167,2.6706227106227107,3.1783150183150184,1.9227838827838828
3.436391219001962,1.2563369963369961,0.25787545787545785,0.21597069597069596
3.4415922190019046,1.2563369963369961,0.25787545787545785,0.21597069597069596
3.4458745759984595,1.2563369963369961,0.25787545787545785,0.21597069597069596
3.446266853999987,1.2563369963369961,0.25787545787545785,0.21597069597069596
3.4529665270019905,1.2563369963369961,0.25787545787545785,0.21597069597069596
3.4582600240028114,1.2563369963369961,0.25787545787545785,0.21597069597069596
3.463323568001215,0.36827838827838827,1.2063736263736262,0.2063003663003663
3.4637144369989983,0.36827838827838827,1.2063736263736262,0.2063003663003663
3.472506007004995,0.36827838827838827,1.2063736263736262,0.2063003663003663
3.478932359001192,0.36827838827838827,1.2063736263736262,0.2063003663003663
3.48396817700268,3.2145787545787545,3.3,0.9323809523809523
3.4904110050047166,3.2145787545787545,3.3,0.9323809523809523
3.497452888004773,2.664175824175824,3.3,1.0879120879120878
3.504108509005164,2.664175824175824,3.3,1.0879120879120878
3.512182913000288,2.664175824175824,3.3,1.0879120879120878
3.5182907179987524,1.0854945054945053,0.8195604395604396,0.40695970695970696
3.5231822330024443,0.0016117216117216117,0.3167032967032967,0.701098901098901
3.530978672002675,0.0016117216117216117,0.3167032967032967,0.701098901098901
3.5385272540006554,1.3046886446886445,0.8743589743589744,0.3771428571428571
3.5473197829996934,1.3046886446886445,0.8743589743589744,0.3771428571428571
3.553970904002199,1.3046886446886445,0.8743589743589744,0.3771428571428571
3.5615950240025995,1.3046886446886445,0.8743589743589744,0.3771428571428571
3.5707710240021697,1.3046886446886445,0.8743589743589744,0.3771428571428571
3.5810791100011556,1.3046886446886445,0.8743589743589744,0.3771428571428571
3.588705061003566,1.3046886446886445,0.8743589743589744,0.3771428571428571
3.5967942670031334,1.3046886446886445,0.8743589743589744,0.3771428571428571
3.602972493004927,1.3046886446886445,0.8743589743589744,0.3771428571428571
3.607012330001453,1.5375824175824175,1.6931135531135528,0.4561172161172161
3.611395302999881,1.5375824175824175,1.6931135531135528,0.4561172161172161
3.6116006880038185,1.5375824175824175,1.6931135531135528,0.4561172161172161
3.6208823359993403,1.5375824175824175,1.6931135531135528,0.4561172161172161
3.6297499630018137,1.5375824175824175,1.6931135531135528,0.4561172161172161
3.6377833650039975,1.5375824175824175,1.6931135531135528,0.4561172161172161
3.64623701399978,1.5375824175824175,1.6931135531135528,0.4561172161172161
3.6530481279987725,1.5375824175824175,1.6931135531135528,0.4561172161172161
3.660405937000178,1.5375824175824175,1.6931135531135528,0.4561172161172161
3.6658276060043136,1.5375824175824175,1.6931135531135528,0.4561172161172161
3.667419520999829,1.5375824175824175,1.6931135531135528,0.4561172161172161
3.672856048004178,1.5375824175824175,1.6931135531135528,0.4561172161172161
3.673084164998727,3.3,1.527106227106227,1.0637362637362637
3.681804464002198,0.15633699633699633,0.3618315018315018,0.48835164835164835
3.6904096250000293,0.15633699633699633,0.3618315018315018,0.48835164835164835
3.699287888004619,0.15633699633699633,0.3618315018315018,0.48835164835164835
3.7057966830034275,0.15633699633699633,0.3618315018315018,0.48835164835164835
3.713273481000215,0.15633699633699633,0.3618315018315018,0.48835164835164835
3.7194088629985345,0.15633699633699633,0.3618315018315018,0.48835164835164835
3.723073496003053,0.15633699633699633,0.3618315018315018,0.48835164835164835
3.7314834330027224,0.15633699633699633,0.3618315018315018,0.48835164835164835
3.7407124980018125,1.896190476190476,1.1193406593406594,0.3473260073260073
3.748201227004756,1.896190476190476,1.1193406593406594,0.3473260073260073
3.7540664890038897,1.896190476190476,1.1193406593406594,0.3473260073260073
3.763296506003826,1.896190476190476,1.1193406593406594,0.3473260073260073
3.770935696004017,1.896190476190476,1.1193406593406594,0.3473260073260073
3.7785322859999724,1.896190476190476,1.1193406593406594,0.3473260073260073
3.7848771490025683,1.896190476190476,1.1193406593406594,0.3473260073260073
3.7905976830006693,1.0339194139194139,0.29010989010989013,0.25706959706959703
3.8004242300012265,1.0339194139194139,0.29010989010989013,0.25706959706959703
3.810941848998482,0.12974358974358974,0.9017582417582416,0.09106227106227105
3.8197837359984987,0.12974358974358974,0.9017582417582416,0.09106227106227105
3.827285778002988,0.12974358974358974,0.9017582417582416,0.09106227106227105
3.8354137380010798,0.12974358974358974,0.9017582417582416,0.09106227106227105
3.8427190729998983,3.3,1.6536263736263734,1.2515018315018314
3.8488337130038417,3.3,1.6536263736263734,1.2515018315018314
3.853114377001475,3.3,1.6536263736263734,1.2515018315018314
3.8542875179991825,3.3,1.6536263736263734,1.2515018315018314
3.854607074004889,3.3,1.6536263736263734,1.2515018315018314
3.866122147999704,3.3,1.6536263736263734,1.2515018315018314
3.8756008810014464,3.3,1.6536263736263734,1.2515018315018314
3.884403697004018,3.3,1.6536263736263734,1.2515018315018314
3.893829913002264,3.3,1.6536263736263734,1.2515018315018314
3.902222668999457,2.690769230769231,1.5802930402930402,1.3135531135531133
3.907390922999184,2.690769230769231,1.5802930402930402,1.3135531135531133
3.9138562890002504,1.116923076923077,0.7575091575091575,0.6551648351648351
3.9173031719983555,2.6706227106227107,3.0936996336996336,1.357069597069597
3.9175018509995425,2.6706227106227107,3.0936996336996336,1.357069597069597
3.9234006740007317,2.6706227106227107,3.0936996336996336,1.357069597069597
3.9338142220003647,2.6706227106227107,3.0936996336996336,1.357069597069597
3.9427498930017464,2.6698168498168497,2.7286446886446885,1.17010989010989
3.948589630002971,0.15472527472527473,0.7663736263736264,0.09670329670329669
3.954571155998565,0.15472527472527473,0.7663736263736264,0.09670329670329669
3.9633455709990812,0.15472527472527473,0.7663736263736264,0.09670329670329669
3.9675898580026114,0.15472527472527473,0.7663736263736264,0.09670329670329669
3.9693580880048103,0.15472527472527473,0.7663736263736264,0.09670329670329669
3.9729530430049635,0.15472527472527473,0.7663736263736264,0.09670329670329669
3.98289295900031,0.047545787545787546,0.2498168498168498,0.6454945054945055
3.995199730998138,1.0822710622710623,0.2111355311355311,0.5028571428571429
4.003946003998863,1.0822710622710623,0.2111355311355311,0.5028571428571429
4.01264534600341,1.0822710622710623,0.2111355311355311,0.5028571428571429
4.017553196004883,1.0822710622710623,0.2111355311355311,0.5028571428571429
4.0225041689991485,1.0822710622710623,0.2111355311355311,0.5028571428571429
4.029891158999817,1.0822710622710623,0.2111355311355311,0.5028571428571429
4.036605594003049,2.655311355311355,2.6649816849816848,2.0976556776556774
4.042439545999514,2.655311355311355,2.6649816849816848,2.0976556776556774
4.0495502870035125,3.3,3.2452014652014647,0.9235164835164835
4.054434780999145,3.3,3.2452014652014647,0.9235164835164835
4.059584116999758,3.3,3.2452014652014647,0.9235164835164835
4.064859932004765,3.3,3.2452014652014647,0.9235164835164835
4.065206785002374,1.8172161172161172,1.211208791208791,1.4666666666666666
4.074324820001493,1.8172161172161172,1.211208791208791,1.4666666666666666
4.082721504004439,3.235531135531135,1.1443223443223443,1.116923076923077
4.088437725004042,3.235531135531135,1.1443223443223443,1.116923076923077
4.088790312001947,2.6794871794871793,2.348278388278388,1.9115018315018315
4.095288832999358,2.6794871794871793,2.348278388278388,1.9115018315018315
4.099198679999972,0.03062271062271062,0.29978021978021974,0.684981684981685
4.103818064999359,3.3,3.2016849816849815,0.9122344322344322
4.104033887000696,3.3,3.2016849816849815,0.9122344322344322
4.1098764420021325,3.3,3.2016849816849815,0.9122344322344322
4.1163137890034704,3.3,3.2016849816849815,0.9122344322344322
4.120173328999954,0.7252747252747253,0.5415384615384615,0.9364102564102563
4.126091149002605,0.40534798534798533,0.4698168498168498,0.1112087912087912
4.133091349998722,0.40534798534798533,0.4698168498168498,0.1112087912087912
4.138117722999596,3.2645421245421247,1.2917948717948717,1.315970695970696
4.146605380003166,0.19743589743589743,0.5616849816849817,0.05802197802197802
4.152724712002964,2.652087912087912,2.5521611721611723,2.067032967032967
4.159070713998517,2.706886446886447,3.151721611721612,1.0266666666666666
4.162635840999428,2.706886446886447,3.151721611721612,1.0266666666666666
4.170917832998384,2.6682051282051282,3.046959706959707,2.111355311355311
4.177683421003167,1.6979487179487176,1.5682051282051281,1.3191941391941393
4.1842385880008806,0.3287912087912088,1.021025641025641,0.1523076923076923
4.188391096002306,0.3287912087912088,1.021025641025641,0.1523076923076923
4.191225355003553,1.4368498168498167,1.514212454212454,1.3675457875457875
4.196912961000635,1.4368498168498167,1.514212454212454,1.3675457875457875
4.205429410998477,0.06608058608058608,0.5036630036630036,0.8074725274725274
4.2155831120035145,0.06608058608058608,0.5036630036630036,0.8074725274725274
4.2230584300050396,0.06608058608058608,0.5036630036630036,0.8074725274725274
4.230860214003769,0.06608058608058608,0.5036630036630036,0.8074725274725274
4.235961924001458,0.06608058608058608,0.5036630036630036,0.8074725274725274
4.238360600000306,0.06608058608058608,0.5036630036630036,0.8074725274725274
4.24524481100525,0.06608058608058608,0.5036630036630036,0.8074725274725274
4.249152634001803,0.7325274725274724,0.3843956043956044,0.2345054945054945
4.252995658003783,3.3,1.7148717948717949,1.2216849816849817
4.25885326199932,3.3,1.7148717948717949,1.2216849816849817
4.263723868003581,1.1547985347985346,0.8348717948717947,0.8993406593406592
4.267678750002233,1.1547985347985346,0.8348717948717947,0.8993406593406592
4.271938443998806,1.1547985347985346,0.8348717948717947,0.8993406593406592
4.272936845998629,0.27802197802197803,0.4794871794871795,0.8106959706959707
4.273867064999649,0.27802197802197803,0.4794871794871795,0.8106959706959707
4.275191933003953,0.27802197802197803,0.4794871794871795,0.8106959706959707
4.281296373999794,0.008058608058608058,0.43999999999999995,0.7567032967032966
4.286211001999618,0.008058608058608058,0.43999999999999995,0.7567032967032966
4.291617264003435,0.008058608058608058,0.43999999999999995,0.7567032967032966
4.294322941001155,0.008058608058608058,0.43999999999999995,0.7567032967032966
4.299234201003856,0.5455677655677655,0.49882783882783877,0.5318681318681319
4.303188222002063,0.5455677655677655,0.49882783882783877,0.5318681318681319
4.309579111999483,0.5455677655677655,0.49882783882783877,0.5318681318681319
4.313849154001218,2.1097435897435894,1.5496703296703296,1.548058608058608
4.314178154003457,2.1097435897435894,1.5496703296703296,1.548058608058608
4.318999934999738,2.1097435897435894,1.5496703296703296,1.548058608058608
4.319120710002608,2.1097435897435894,1.5496703296703296,1.548058608058608
4.32534226700227,2.1097435897435894,1.5496703296703296,1.548058608058608
4.328985118998389,2.1097435897435894,1.5496703296703296,1.548058608058608
4.33494275600242,2.1097435897435894,1.5496703296703296,1.548058608058608
4.339833710000676,2.1097435897435894,1.5496703296703296,1.548058608058608
4.347140759004105,2.1097435897435894,1.5496703296703296,1.548058608058608
4.351327062999189,2.1097435897435894,1.5496703296703296,1.548058608058608
4.354701709002256,2.1097435897435894,1.5496703296703296,1.548058608058608
4.354950501998246,2.1097435897435894,1.5496703296703296,1.548058608058608
4.363764394998725,2.1097435897435894,1.5496703296703296,1.548058608058608
4.36812305499916,3.3,3.0614652014652015,0.8356776556776556
4.369038805998571,3.3,3.0614652014652015,0.8356776556776556
4.370816713002569,3.3,3.0614652014652015,0.8356776556776556
4.373361891004606,3.3,3.0614652014652015,0.8356776556776556
4.381026002003637,3.3,3.0614652014652015,0.8356776556776556
4.385211416003585,3.3,3.0614652014652015,0.8356776556776556
4.38699968400033,3.3,3.0614652014652015,0.8356776556776556
4.392229632001545,3.3,3.0614652014652015,0.8356776556776556
4.393934965999506,1.8027106227106224,0.7067399267399267,0.8348717948717947
4.398522550000052,1.8027106227106224,0.7067399267399267,0.8348717948717947
4.398640314000659,1.8027106227106224,0.7067399267399267,0.8348717948717947
4.403590480003913,1.8027106227106224,0.7067399267399267,0.8348717948717947
4.410949183999037,1.1467399267399265,0.2594871794871795,0.22644688644688646
4.416759202998946,1.1467399267399265,0.2594871794871795,0.22644688644688646
4.421249678001914,1.1467399267399265,0.2594871794871795,0.22644688644688646
4.421535688001313,1.1467399267399265,0.2594871794871795,0.22644688644688646
4.431748654998955,1.1467399267399265,0.2594871794871795,0.22644688644688646
4.4371270690025995,2.6794871794871793,3.0389010989010985,2.063003663003663
4.438262255003792,2.6794871794871793,3.0389010989010985,2.063003663003663
4.438507614999253,2.6794871794871793,3.0389010989010985,2.063003663003663
4.44712646699918,1.0814652014652013,0.3223443223443223,0.10153846153846154
4.452263863000553,1.0814652014652013,0.3223443223443223,0.10153846153846154
4.455341986998974,1.0814652014652013,0.3223443223443223,0.10153846153846154
4.457910415003425,1.0814652014652013,0.3223443223443223,0.10153846153846154
4.463911349004775,1.0814652014652013,0.3223443223443223,0.10153846153846154
4.46787472700089,2.686739926739927,2.892234432234432,1.8325274725274725
4.473487707000459,2.8664468864468864,1.498095238095238,1.2643956043956044
4.482049584999913,2.8664468864468864,1.498095238095238,1.2643956043956044
4.488057216003654,2.8664468864468864,1.498095238095238,1.2643956043956044
4.495708389003994,2.8664468864468864,1.498095238095238,1.2643956043956044
4.499585335004667,1.3707692307692307,0.2369230769230769,0.30864468864468864
4.506006818002788,1.3707692307692307,0.2369230769230769,0.30864468864468864
4.511700136004947,2.6714285714285713,2.992161172161172,1.5706227106227104
4.517701917000522,2.6714285714285713,2.992161172161172,1.5706227106227104
4.5233954089999315,2.6714285714285713,2.992161172161172,1.5706227106227104
4.523521178001829,2.6714285714285713,2.992161172161172,1.5706227106227104
4.5319355050014565,2.6714285714285713,2.992161172161172,1.5706227106227104
4.537448538998433,2.6714285714285713,2.992161172161172,1.5706227106227104
4.539140526998381,2.6714285714285713,2.992161172161172,1.5706227106227104
4.544944332999876,2.6714285714285713,2.992161172161172,1.5706227106227104
4.549156763998326,2.6649816849816848,2.4667399267399266,1.9397069597069596
4.551550027004851,2.6649816849816848,2.4667399267399266,1.9397069597069596
4.55169627500436,2.6649816849816848,2.4667399267399266,1.9397069597069596
4.556608805003634,2.6649816849816848,2.4667399267399266,1.9397069597069596
4.56460717599839,2.6649816849816848,2.4667399267399266,1.9397069597069596
4.56947687700449,2.6649816849816848,2.4667399267399266,1.9397069597069596
4.574802993003686,1.6028571428571428,1.2007326007326007,0.9871794871794871
4.578564463998191,1.6028571428571428,1.2007326007326007,0.9871794871794871
4.583096075999492,0.04996336996336996,0.9565567765567766,0.1402197802197802
4.583305739004572,2.1524542124542125,0.7784615384615384,0.45692307692307693
4.591676386000472,2.66014652014652,2.8108424908424907,1.9163369963369963
4.5985356730016065,2.66014652014652,2.8108424908424907,1.9163369963369963
4.602267326998117,2.66014652014652,2.8108424908424907,1.9163369963369963
4.606286387999717,2.66014652014652,2.8108424908424907,1.9163369963369963
4.611401875998126,2.66014652014652,2.8108424908424907,1.9163369963369963
4.613247255001625,2.66014652014652,2.8108424908424907,1.9163369963369963
4.615652364002017,2.66014652014652,2.8108424908424907,1.9163369963369963
4.61578592400474,2.66014652014652,2.8108424908424907,1.9163369963369963
4.620873347004817,2.66014652014652,2.8108424908424907,1.9163369963369963
4.62852381200355,2.66014652014652,2.8108424908424907,1.9163369963369963
4.632676998000534,3.3,1.5013186813186812,0.8316483516483516
4.63507275700249,3.3,1.5013186813186812,0.8316483516483516
4.635275788998115,3.3,1.5013186813186812,0.8316483516483516
4.641080394998426,3.3,1.5013186813186812,0.8316483516483516
4.648712585003523,1.1580219780219778,0.25384615384615383,0.24014652014652016
4.653405160999682,1.8204395604395605,1.464249084249084,1.2652014652014651
4.653600359000848,3.3,1.1612454212454213,1.0806593406593406
4.660484202999214,3.3,1.1612454212454213,1.0806593406593406
4.664117300999351,3.3,1.1612454212454213,1.0806593406593406
4.669709494999552,2.664175824175824,2.1403663003663005,1.7406593406593407
4.6701273920043604,2.664175824175824,2.1403663003663005,1.7406593406593407
4.674828023998998,2.664175824175824,2.1403663003663005,1.7406593406593407
4.684740085001977,2.5674725274725274,0.855018315018315,1.0347252747252746
4.695841557004314,2.5674725274725274,0.855018315018315,1.0347252747252746
4.704350862004503,2.5674725274725274,0.855018315018315,1.0347252747252746
4.712616902004811,2.5674725274725274,0.855018315018315,1.0347252747252746
4.717176350000955,1.904249084249084,1.4473260073260072,1.2095970695970695
4.717388354001741,1.904249084249084,1.4473260073260072,1.2095970695970695
4.722073960998387,1.904249084249084,1.4473260073260072,1.2095970695970695
4.722272099999827,0.5495970695970696,0.4085714285714286,0.06285714285714286
4.73059769700194,0.5495970695970696,0.4085714285714286,0.06285714285714286
4.735725776001345,2.8197069597069593,0.9154578754578755,0.938021978021978
4.740459753003961,2.8197069597069593,0.9154578754578755,0.938021978021978
4.748579636005161,2.3047619047619046,0.7631501831501831,0.3304029304029304
4.75470640900312,2.3047619047619046,0.7631501831501831,0.3304029304029304
4.758309452998219,2.3047619047619046,0.7631501831501831,0.3304029304029304
4.758456380004645,2.3047619047619046,0.7631501831501831,0.3304029304029304
4.7639677510014735,2.3047619047619046,0.7631501831501831,0.3304029304029304
4.765595247001329,2.652087912087912,2.743150183150183,1.792234432234432
4.769427152998105,2.652087912087912,2.743150183150183,1.792234432234432
4.773861164001573,2.652087912087912,2.743150183150183,1.792234432234432
4.774245286003861,3.3,1.324029304029304,1.2063736263736262
4.779912925005192,3.3,1.324029304029304,1.2063736263736262
4.780077230003371,0.3295970695970696,0.5238095238095237,0.14102564102564102
4.784954164002556,0.9073992673992675,0.1772893772893773,0.07655677655677656
4.791342604003148,3.3,2.002564102564102,0.963003663003663
4.795570663001854,3.3,2.002564102564102,0.963003663003663
4.797217138002452,3.3,2.002564102564102,0.963003663003663
4.800996771999053,3.3,2.002564102564102,0.963003663003663
4.807451081003819,3.3,2.002564102564102,0.963003663003663
4.8125725200006855,1.2265201465201465,0.8002197802197801,0.32395604395604394
4.81426867400296,2.2080586080586078,0.8775824175824175,0.5898901098901098
4.817450232003466,0.473040293040293,0.2111355311355311,0.29010989010989013
4.818477045999316,0.473040293040293,0.2111355311355311,0.29010989010989013
4.819410575000802,0.473040293040293,0.2111355311355311,0.29010989010989013
4.821080082001572,0.473040293040293,0.2111355311355311,0.29010989010989013
4.827813239004172,0.473040293040293,0.2111355311355311,0.29010989010989013
4.831172632999369,0.473040293040293,0.2111355311355311,0.29010989010989013
4.831436147003842,0.473040293040293,0.2111355311355311,0.29010989010989013
4.837419021001551,0.473040293040293,0.2111355311355311,0.29010989010989013
4.846704214003694,0.473040293040293,0.2111355311355311,0.29010989010989013
4.851636858002166,0.4117948717948718,0.6728937728937728,0.07978021978021978
4.857326843004557,0.4117948717948718,0.6728937728937728,0.07978021978021978
4.857569671003148,0.4117948717948718,0.6728937728937728,0.07978021978021978
4.867171912002959,0.4117948717948718,0.6728937728937728,0.07978021978021978
4.873530385004415,0.4117948717948718,0.6728937728937728,0.07978021978021978
4.881100049002271,0.4117948717948718,0.6728937728937728,0.07978021978021978
4.887264766002772,0.19018315018315018,1.0266666666666666,0.17648351648351646
4.890623321000021,2.1105494505494504,1.3602930402930402,0.39809523809523806
4.892603671003599,2.1105494505494504,1.3602930402930402,0.39809523809523806
4.892991302003793,2.1105494505494504,1.3602930402930402,0.39809523809523806
4.897572753005079,2.1105494505494504,1.3602930402930402,0.39809523809523806
4.897819336001703,2.1105494505494504,1.3602930402930402,0.39809523809523806
4.9024217929982115,2.1105494505494504,1.3602930402930402,0.39809523809523806
4.902676199002599,0.07736263736263736,0.9283516483516483,0.11846153846153845
4.910207253000408,0.07736263736263736,0.9283516483516483,0.11846153846153845
4.913488424004754,3.3,1.216043956043956,1.0282783882783881
4.914414666003722,3.3,1.216043956043956,1.0282783882783881
4.916002960999322,3.3,1.216043956043956,1.0282783882783881
4.920984219999809,3.3,1.216043956043956,1.0282783882783881
4.925429868002539,3.3,2.702051282051282,0.850989010989011
4.925775848001649,3.3,2.702051282051282,0.850989010989011
4.9310118700013845,3.3,2.702051282051282,0.850989010989011
4.932621027001005,2.652087912087912,1.8156043956043957,1.1032234432234431
4.93647034100286,0.3545787545787546,0.2377289377289377,0.3706959706959707
4.942301347000466,3.3,1.6576556776556775,0.5931135531135531
4.942493285998353,3.3,1.6576556776556775,0.5931135531135531
4.948825070001476,3.3,1.6576556776556775,0.5931135531135531
4.952781674001017,3.3,1.6576556776556775,0.5931135531135531
4.958556142002635,3.3,1.6576556776556775,0.5931135531135531
4.958810994998203,3.3,1.6576556776556775,0.5931135531135531
4.963491528003942,3.3,1.6576556776556775,0.5931135531135531
4.963691030003247,3.3,1.6576556776556775,0.5931135531135531
4.968290857003012,3.3,1.6576556776556775,0.5931135531135531
4.968642755004112,3.3,1.6576556776556775,0.5931135531135531
4.973563075000129,3.3,1.6576556776556775,0.5931135531135531
4.983554108002863,3.3,1.6576556776556775,0.5931135531135531
4.989848493998579,3.3,1.6576556776556775,0.5931135531135531
4.99451116000273,3.3,1.6576556776556775,0.5931135531135531
4.999972370998876,3.3,1.6576556776556775,0.5931135531135531
5.000956857998972,3.3,1.6576556776556775,0.5931135531135531
5.00259093799832,3.3,1.6576556776556775,0.5931135531135531
5.005797771998914,3.3,1.6576556776556775,0.5931135531135531
5.0084853430016665,2.681098901098901,2.7906959706959706,1.6052747252747253
5.012878580004326,2.681098901098901,2.7906959706959706,1.6052747252747253
5.013770645004115,2.7745787545787546,0.8115018315018314,0.8034432234432234
5.015383218000352,2.7745787545787546,0.8115018315018314,0.8034432234432234
5.018628746001923,2.7745787545787546,0.8115018315018314,0.8034432234432234
5.020431012999325,2.7745787545787546,0.8115018315018314,0.8034432234432234
5.0229492760045105,2.7745787545787546,0.8115018315018314,0.8034432234432234
5.0290473960048985,2.7745787545787546,0.8115018315018314,0.8034432234432234
5.032991371001117,2.7745787545787546,0.8115018315018314,0.8034432234432234
5.037075031003042,3.3,1.0701831501831502,0.929157509157509
5.040626243004226,3.3,1.0701831501831502,0.929157509157509
5.046339237000211,3.3,1.0701831501831502,0.929157509157509
5.046513364999555,3.3,1.0701831501831502,0.929157509157509
5.052351149002789,3.3,1.0701831501831502,0.929157509157509
5.05810515399935,3.3,1.0701831501831502,0.929157509157509
5.058326185004262,3.3,1.0701831501831502,0.929157509157509
5.06287510599941,0.3755311355311355,1.3844688644688645,0.28769230769230764
5.063776950999454,1.3586813186813185,0.1555311355311355,0.10395604395604395
5.065346668001439,1.3586813186813185,0.1555311355311355,0.10395604395604395
5.069085549002921,1.3586813186813185,0.1555311355311355,0.10395604395604395
5.074379716999829,1.3586813186813185,0.1555311355311355,0.10395604395604395
5.077741029002937,1.3586813186813185,0.1555311355311355,0.10395604395604395
5.078080284001771,1.3586813186813185,0.1555311355311355,0.10395604395604395
5.0841550000041025,1.3586813186813185,0.1555311355311355,0.10395604395604395
5.089791238002363,1.3586813186813185,0.1555311355311355,0.10395604395604395
5.089982171004522,1.3586813186813185,0.1555311355311355,0.10395604395604395
5.096791155003302,1.3586813186813185,0.1555311355311355,0.10395604395604395
5.100670754000021,1.3586813186813185,0.1555311355311355,0.10395604395604395
5.105321622999327,1.3586813186813185,0.1555311355311355,0.10395604395604395
5.105570988002,1.3586813186813185,0.1555311355311355,0.10395604395604395
5.114256161999947,1.3586813186813185,0.1555311355311355,0.10395604395604395
5.119841116000316,1.6769963369963368,0.5213919413919413,0.7486446886446886
5.120738087003701,1.6769963369963368,0.5213919413919413,0.7486446886446886
5.12167788700026,1.6769963369963368,0.5213919413919413,0.7486446886446886
5.123983317003876,1.6769963369963368,0.5213919413919413,0.7486446886446886
5.124390249002317,1.6769963369963368,0.5213919413919413,0.7486446886446886
5.129092308001418,1.6769963369963368,0.5213919413919413,0.7486446886446886
5.1347571139995125,1.6769963369963368,0.5213919413919413,0.7486446886446886
5.135036322004453,1.6769963369963368,0.5213919413919413,0.7486446886446886
5.139917776003131,1.6769963369963368,0.5213919413919413,0.7486446886446886
5.144527882002876,1.6769963369963368,0.5213919413919413,0.7486446886446886
5.145476028999838,1.6769963369963368,0.5213919413919413,0.7486446886446886
5.1464122559991665,1.6769963369963368,0.5213919413919413,0.7486446886446886
5.148069007998856,1.6769963369963368,0.5213919413919413,0.7486446886446886
5.151307830004953,3.243589743589743,2.274945054945055,0.7599267399267399
5.1516947470008745,3.243589743589743,2.274945054945055,0.7599267399267399
5.156583160001901,3.243589743589743,2.274945054945055,0.7599267399267399
5.1626194280033815,3.243589743589743,2.274945054945055,0.7599267399267399
5.166678109999339,3.243589743589743,2.274945054945055,0.7599267399267399
5.169849447003799,3.243589743589743,2.274945054945055,0.7599267399267399
5.170821124003851,2.6617582417582417,1.5754578754578754,1.0024908424908423
5.172418089998246,2.6617582417582417,1.5754578754578754,1.0024908424908423
5.176234254002338,2.6617582417582417,1.5754578754578754,1.0024908424908423
5.180736597001669,2.6617582417582417,1.5754578754578754,1.0024908424908423
5.181588883002405,2.6617582417582417,1.5754578754578754,1.0024908424908423
5.182541375004803,2.6617582417582417,1.5754578754578754,1.0024908424908423
5.184190083004069,2.6617582417582417,1.5754578754578754,1.0024908424908423
5.1874337650006055,2.6617582417582417,1.5754578754578754,1.0024908424908423
5.188427829001739,1.627032967032967,1.2643956043956044,0.792967032967033
5.1893674730017665,1.627032967032967,1.2643956043956044,0.792967032967033
5.191022983002767,1.627032967032967,1.2643956043956044,0.792967032967033
5.194876749003015,1.627032967032967,1.2643956043956044,0.792967032967033
5.1987987980028265,1.627032967032967,1.2643956043956044,0.792967032967033
5.202764448004018,1.627032967032967,1.2643956043956044,0.792967032967033
5.206762125999376,1.627032967032967,1.2643956043956044,0.792967032967033
5.209339699998964,1.627032967032967,1.2643956043956044,0.792967032967033
5.214908986003138,1.627032967032967,1.2643956043956044,0.792967032967033
5.215937610002584,3.3,1.2660073260073261,0.9678388278388278
5.216912670002785,3.3,1.2660073260073261,0.9678388278388278
5.217219928003033,3.3,2.0823443223443223,0.5947252747252747
5.222094422002556,3.3,3.2452014652014647,0.9243223443223443
5.227208176998829,3.3,3.2452014652014647,0.9243223443223443
5.230556275004346,3.3,3.2452014652014647,0.9243223443223443
5.231724958000996,2.9599267399267397,1.4997069597069597,1.0218315018315018
5.23198937500274,2.9599267399267397,1.4997069597069597,1.0218315018315018
5.237369526003022,2.9599267399267397,1.4997069597069597,1.0218315018315018
5.238303556005121,2.9599267399267397,1.4997069597069597,1.0218315018315018
5.239978830002656,2.9599267399267397,1.4997069597069597,1.0218315018315018
5.24316993499815,2.9599267399267397,1.4997069597069597,1.0218315018315018
5.24478408700088,2.9599267399267397,1.4997069597069597,1.0218315018315018
5.249340501999541,2.9599267399267397,1.4997069597069597,1.0218315018315018
5.249531792003836,2.9599267399267397,1.4997069597069597,1.0218315018315018
5.254970977002813,2.9599267399267397,1.4997069597069597,1.0218315018315018
5.256593376005185,2.9599267399267397,1.4997069597069597,1.0218315018315018
5.26044833099877,2.9599267399267397,1.4997069597069597,1.0218315018315018
5.264373805002833,2.9599267399267397,1.4997069597069597,1.0218315018315018
5.268250107001222,2.9599267399267397,1.4997069597069597,1.0218315018315018
5.272905203004484,2.9599267399267397,1.4997069597069597,1.0218315018315018
5.273063111002557,3.3,1.187032967032967,1.0274725274725274
5.277782425000623,3.3,1.187032967032967,1.0274725274725274
5.2779480350000085,3.3,1.187032967032967,1.0274725274725274
5.284797300999344,3.3,1.187032967032967,1.0274725274725274
5.291938522001146,3.3,1.187032967032967,1.0274725274725274
5.297528505005175,3.3,1.187032967032967,1.0274725274725274
5.297714444001031,1.7027838827838828,0.5689377289377289,0.6511355311355311
5.306524753999838,1.7027838827838828,0.5689377289377289,0.6511355311355311
5.314486189003219,2.0783150183150183,1.2837362637362637,0.3843956043956044
5.3191361470017,3.3,3.111428571428571,0.9968498168498168
5.319408369003213,3.3,3.111428571428571,0.9968498168498168
5.324097276003158,3.3,3.111428571428571,0.9968498168498168
5.324296846003563,3.3,3.111428571428571,0.9968498168498168
5.328982247003296,3.3,3.111428571428571,0.9968498168498168
5.329147068005113,3.3,3.111428571428571,0.9968498168498168
5.337439679002273,3.3,3.111428571428571,0.9968498168498168
5.345139830002154,2.9953846153846153,3.3,1.0298901098901099
5.3505996739986585,2.6682051282051282,2.954285714285714,1.4892307692307691
5.3510732450013165,2.6682051282051282,2.954285714285714,1.4892307692307691
5.358525174000533,2.6682051282051282,2.954285714285714,1.4892307692307691
5.365883967002446,1.2176556776556777,0.41340659340659336,0.6728937728937728
5.37222397900041,1.2660073260073261,0.1926007326007326,0.13699633699633698
5.3790696270007174,1.2660073260073261,0.1926007326007326,0.13699633699633698
5.382584222999867,1.2660073260073261,0.1926007326007326,0.13699633699633698
5.383515155001078,1.2660073260073261,0.1926007326007326,0.13699633699633698
5.384465736002312,1.2660073260073261,0.1926007326007326,0.13699633699633698
5.385443277002196,1.2660073260073261,0.1926007326007326,0.13699633699633698
5.386374635003449,1.2660073260073261,0.1926007326007326,0.13699633699633698
5.387325829004112,1.2660073260073261,0.1926007326007326,0.13699633699633698
5.38899580600264,1.2660073260073261,0.1926007326007326,0.13699633699633698
5.3991217619986855,1.2660073260073261,0.1926007326007326,0.13699633699633698
5.408223634003662,2.6488644688644687,1.518241758241758,1.0105494505494506
5.41642910399969,1.145128205128205,0.15956043956043955,0.10637362637362638
5.422238448998542,1.9106959706959707,0.6793406593406592,0.8292307692307692
5.422352305999084,1.9106959706959707,0.6793406593406592,0.8292307692307692
5.429387101998145,1.9106959706959707,0.6793406593406592,0.8292307692307692
5.433603489000234,2.655311355311355,2.2435164835164834,1.6068864468864468
5.436001612004475,2.655311355311355,2.2435164835164834,1.6068864468864468
5.436173086003691,2.655311355311355,2.2435164835164834,1.6068864468864468
5.442167610002798,2.655311355311355,2.2435164835164834,1.6068864468864468
5.448038071001065,0.48432234432234433,0.6390476190476191,0.07252747252747253
5.453647494003235,0.48432234432234433,0.6390476190476191,0.07252747252747253
5.45451178100484,0.48432234432234433,0.6390476190476191,0.07252747252747253
5.456206093003857,0.48432234432234433,0.6390476190476191,0.07252747252747253
5.460773277998669,0.48432234432234433,0.6390476190476191,0.07252747252747253
5.460973039000237,0.48432234432234433,0.6390476190476191,0.07252747252747253
5.465825209001196,0.48432234432234433,0.6390476190476191,0.07252747252747253
5.471456883002247,0.48432234432234433,0.6390476190476191,0.07252747252747253
5.472371228002885,0.48432234432234433,0.6390476190476191,0.07252747252747253
5.475369685002079,0.48432234432234433,0.6390476190476191,0.07252747252747253
5.47691593500349,0.48432234432234433,0.6390476190476191,0.07252747252747253
5.481135499998345,0.48432234432234433,0.6390476190476191,0.07252747252747253
5.482779188998393,0.48432234432234433,0.6390476190476191,0.07252747252747253
5.486655797998537,0.48432234432234433,0.6390476190476191,0.07252747252747253
5.494258596998407,0.48432234432234433,0.6390476190476191,0.07252747252747253
5.498429439001484,0.48432234432234433,0.6390476190476191,0.07252747252747253
5.501613279004232,0.48432234432234433,0.6390476190476191,0.07252747252747253
5.503195728000719,0.48432234432234433,0.6390476190476191,0.07252747252747253
5.5080726130036055,0.48432234432234433,0.6390476190476191,0.07252747252747253
5.514018847999978,1.4030036630036629,0.842124542124542,0.1942124542124542
5.517764875003195,2.689157509157509,1.49003663003663,1.0556776556776555
5.522457232000306,2.689157509157509,1.49003663003663,1.0556776556776555
5.529984860004333,2.689157509157509,1.49003663003663,1.0556776556776555
5.5346228150010575,1.8317216117216117,1.0895238095238093,0.29333333333333333
5.5349360430045635,1.8317216117216117,1.0895238095238093,0.29333333333333333
5.540596350001579,1.8317216117216117,1.0895238095238093,0.29333333333333333
5.54193918400415,0.49882783882783877,0.3376556776556776,0.1241025641025641
5.547933408000972,1.2982417582417582,0.166007326007326,0.18373626373626373
5.553739132999908,1.2982417582417582,0.166007326007326,0.18373626373626373
5.553899514998193,1.2982417582417582,0.166007326007326,0.18373626373626373
5.561856084001192,1.2982417582417582,0.166007326007326,0.18373626373626373
5.5665836590051185,0.7671794871794871,0.4424175824175824,0.07413919413919413
5.566855349003163,3.3,2.1605128205128206,1.5706227106227104
5.571940784000617,3.3,2.1605128205128206,1.5706227106227104
5.5769251250021625,2.6633699633699632,3.3,1.3022710622710623
5.578822649003996,0.9372161172161171,0.23208791208791207,0.32556776556776557
5.58203971599869,0.9372161172161171,0.23208791208791207,0.32556776556776557
5.58296841000265,0.9372161172161171,0.23208791208791207,0.32556776556776557
5.584082678004052,0.9372161172161171,0.23208791208791207,0.32556776556776557
5.584395925005083,0.9372161172161171,0.23208791208791207,0.32556776556776557
5.5899197079997975,0.9372161172161171,0.23208791208791207,0.32556776556776557
5.592700173001504,0.9372161172161171,0.23208791208791207,0.32556776556776557
5.595904908004741,0.9372161172161171,0.23208791208791207,0.32556776556776557
5.596964090000256,0.9372161172161171,0.23208791208791207,0.32556776556776557
5.597269793004671,0.9372161172161171,0.23208791208791207,0.32556776556776557
5.605278918999829,0.9372161172161171,0.23208791208791207,0.32556776556776557
5.61089600300329,0.9372161172161171,0.23208791208791207,0.32556776556776557
5.611031717002334,0.9372161172161171,0.23208791208791207,0.32556776556776557
5.616493906003598,0.9372161172161171,0.23208791208791207,0.32556776556776557
5.6181248590000905,0.9372161172161171,0.23208791208791207,0.32556776556776557
5.621850636998715,0.9372161172161171,0.23208791208791207,0.32556776556776557
5.629225543001667,0.9372161172161171,0.23208791208791207,0.32556776556776557
5.629421386001923,2.655311355311355,2.7326739926739925,1.6898901098901096
5.6341959460041835,2.655311355311355,2.7326739926739925,1.6898901098901096
5.634405647004314,2.655311355311355,2.7326739926739925,1.6898901098901096
5.639144751999993,2.655311355311355,2.7326739926739925,1.6898901098901096
5.6393696579980315,3.3,3.0775824175824176,0.8284249084249083
5.646439934003865,3.3,3.0775824175824176,0.8284249084249083
5.650441161000344,2.6665934065934067,2.8745054945054944,1.6028571428571428
5.654938413004857,2.6617582417582417,1.9566300366300364,1.0363369963369962
5.655219569998735,2.6617582417582417,1.9566300366300364,1.0363369963369962
5.662422576002427,2.6617582417582417,1.9566300366300364,1.0363369963369962
5.666406354001083,0.7019047619047618,0.3384615384615384,0.05641025641025641
5.669627472001594,2.6682051282051282,2.4554578754578755,1.7374358974358974
5.671405696004513,2.6682051282051282,2.4554578754578755,1.7374358974358974
5.674105657999462,2.6682051282051282,2.4554578754578755,1.7374358974358974
5.680769575999875,0.27802197802197803,0.30542124542124544,0.3892307692307692
5.684660794999218,0.27802197802197803,0.30542124542124544,0.3892307692307692
5.690936552004132,0.27802197802197803,0.30542124542124544,0.3892307692307692
5.697225903000799,2.652087912087912,1.6383150183150184,1.0645421245421245
5.700394455998321,2.652087912087912,1.6383150183150184,1.0645421245421245
5.702689042998827,2.652087912087912,1.6383150183150184,1.0645421245421245
5.702911758999107,2.652087912087912,1.6383150183150184,1.0645421245421245
5.709942489003879,2.652087912087912,1.6383150183150184,1.0645421245421245
5.71347986299952,2.8180952380952378,1.7930402930402929,0.6108424908424909
5.713690420001512,2.8180952380952378,1.7930402930402929,0.6108424908424909
5.718347426001856,2.8180952380952378,1.7930402930402929,0.6108424908424909
5.718654026000877,2.8180952380952378,1.7930402930402929,0.6108424908424909
5.72466895999969,2.8180952380952378,1.7930402930402929,0.6108424908424909
5.730098485000781,2.8180952380952378,1.7930402930402929,0.6108424908424909
5.730352202001086,2.8180952380952378,1.7930402930402929,0.6108424908424909
5.734947258999455,2.8180952380952378,1.7930402930402929,0.6108424908424909
5.735262594003871,2.8180952380952378,1.7930402930402929,0.6108424908424909
5.739936556004977,2.8180952380952378,1.7930402930402929,0.6108424908424909
5.74012840600335,2.8180952380952378,1.7930402930402929,0.6108424908424909
5.747270851999929,2.8180952380952378,1.7930402930402929,0.6108424908424909
5.755118544999277,3.3,1.730989010989011,1.4416849816849817
5.760916211998847,2.6536996336996337,3.2564835164835166,1.1346520146520145
5.764196741998603,2.6536996336996337,3.2564835164835166,1.1346520146520145
5.76508572500461,2.6569230769230767,2.5400732600732603,1.5867399267399267
5.766753124000388,2.6569230769230767,2.5400732600732603,1.5867399267399267
5.771259099004965,1.0323076923076921,1.0323076923076921,0.6197069597069597
5.771493801999895,1.0323076923076921,1.0323076923076921,0.6197069597069597
5.7818175940046785,1.0323076923076921,1.0323076923076921,0.6197069597069597
5.793243528998573,1.0323076923076921,1.0323076923076921,0.6197069597069597
5.798260242998367,0.2095238095238095,0.2651282051282051,0.332014652014652
5.803002581000328,0.19985347985347984,0.2345054945054945,0.4391941391941392
5.809879901004024,0.7857142857142856,0.2747985347985348,0.07897435897435898
5.813335286999063,0.7857142857142856,0.2747985347985348,0.07897435897435898
5.819268128005206,0.7857142857142856,0.2747985347985348,0.07897435897435898
5.819380364002427,0.7857142857142856,0.2747985347985348,0.07897435897435898
5.828312197998457,0.7857142857142856,0.2747985347985348,0.07897435897435898
5.83489875500527,0.7857142857142856,0.2747985347985348,0.07897435897435898
5.841487941004743,1.5923809523809522,0.6124542124542125,0.763956043956044
5.846577027004969,1.5923809523809522,0.6124542124542125,0.763956043956044
5.848244981003518,1.5923809523809522,0.6124542124542125,0.763956043956044
5.852152594001382,1.5923809523809522,0.6124542124542125,0.763956043956044
5.8581642499993904,1.5923809523809522,0.6124542124542125,0.763956043956044
5.8637140360006015,1.5923809523809522,0.6124542124542125,0.763956043956044
5.863862682999752,1.5923809523809522,0.6124542124542125,0.763956043956044
5.868576544002281,1.5923809523809522,0.6124542124542125,0.763956043956044
5.868756748001033,1.5923809523809522,0.6124542124542125,0.763956043956044
5.87733195200417,1.5923809523809522,0.6124542124542125,0.763956043956044
5.8816510350006865,1.5923809523809522,0.6124542124542125,0.763956043956044
5.882543847998022,0.46417582417582415,0.585054945054945,0.06366300366300366
5.884162808004476,0.46417582417582415,0.585054945054945,0.06366300366300366
5.88796142800129,0.46417582417582415,0.585054945054945,0.06366300366300366
5.8952656960027525,0.46417582417582415,0.585054945054945,0.06366300366300366
5.9008198189985706,0.46417582417582415,0.585054945054945,0.06366300366300366
5.900915388003341,0.46417582417582415,0.585054945054945,0.06366300366300366
5.905661754004541,0.46417582417582415,0.585054945054945,0.06366300366300366
5.905872462004481,0.46417582417582415,0.585054945054945,0.06366300366300366
5.912701770001149,0.46417582417582415,0.585054945054945,0.06366300366300366
5.916589264998038,0.46417582417582415,0.585054945054945,0.06366300366300366
5.922208533003868,0.22886446886446887,0.31347985347985347,0.30945054945054945
5.922369291998621,1.0323076923076921,0.23369963369963367,0.15794871794871795
5.930933171999641,1.0323076923076921,0.23369963369963367,0.15794871794871795
5.936453528003767,1.0323076923076921,0.23369963369963367,0.15794871794871795
5.938066186005017,1.0323076923076921,0.23369963369963367,0.15794871794871795
5.943720898001629,1.0323076923076921,0.23369963369963367,0.15794871794871795
5.9439724030016805,1.0323076923076921,0.23369963369963367,0.15794871794871795
5.9491781539982185,1.0323076923076921,0.23369963369963367,0.15794871794871795
5.951768659004301,2.706080586080586,3.167838827838828,1.2490842490842489
5.958304409003176,2.706080586080586,3.167838827838828,1.2490842490842489
5.962420107003709,2.706080586080586,3.167838827838828,1.2490842490842489
5.964869436000299,2.706080586080586,3.167838827838828,1.2490842490842489
5.965044570999453,2.706080586080586,3.167838827838828,1.2490842490842489
5.969710028999543,2.485274725274725,1.5875457875457875,0.8969230769230768
5.9699407540028915,2.485274725274725,1.5875457875457875,0.8969230769230768
5.977707154001109,2.485274725274725,1.5875457875457875,0.8969230769230768
5.981598106001911,1.0008791208791208,0.5681318681318681,0.7196336996336996
5.986233533003542,1.0008791208791208,0.5681318681318681,0.7196336996336996
5.986498171005223,1.0008791208791208,0.5681318681318681,0.7196336996336996
5.994666759004758,1.0008791208791208,0.5681318681318681,0.7196336996336996
5.998884304004605,1.0008791208791208,0.5681318681318681,0.7196336996336996
6.000515591003932,1.0008791208791208,0.5681318681318681,0.7196336996336996
6.004404165003507,1.0178021978021978,0.17567765567765567,0.09831501831501832
6.010473594003997,1.0178021978021978,0.17567765567765567,0.09831501831501832
6.013954916001239,1.0178021978021978,0.17567765567765567,0.09831501831501832
6.014112830001977,1.0178021978021978,0.17567765567765567,0.09831501831501832
6.019524062998244,0.4810989010989011,0.44402930402930396,0.4528937728937729
6.022261579004407,0.4810989010989011,0.44402930402930396,0.4528937728937729
6.028015575000609,0.4810989010989011,0.44402930402930396,0.4528937728937729
6.028141533999587,2.6746520146520147,3.074358974358974,1.1483516483516483
6.0328029740048805,2.6746520146520147,3.074358974358974,1.1483516483516483
6.033046930999262,2.6746520146520147,3.074358974358974,1.1483516483516483
6.037680442001147,2.6746520146520147,3.074358974358974,1.1483516483516483
6.038505770004122,3.3,2.9115750915750915,0.8155311355311355
6.041072874999372,3.3,2.9115750915750915,0.8155311355311355
6.046434723000857,3.3,2.9115750915750915,0.8155311355311355
6.0473903870006325,3.3,2.9115750915750915,0.8155311355311355
6.049002061001374,3.3,2.9115750915750915,0.8155311355311355
6.053523552000115,3.3,2.9115750915750915,0.8155311355311355
6.0537669309997,3.3,2.9115750915750915,0.8155311355311355
6.059164680998947,3.3,2.9115750915750915,0.8155311355311355
6.060522690000653,3.3,2.9115750915750915,0.8155311355311355
6.060741885004973,3.3,2.9115750915750915,0.8155311355311355
6.064722002003691,3.3,2.9115750915750915,0.8155311355311355
6.069237591000274,3.3,2.9115750915750915,0.8155311355311355
6.069454549004149,2.6536996336996337,1.9155311355311355,1.0556776556776555
6.075454028003151,2.6536996336996337,1.9155311355311355,1.0556776556776555
6.081369163999625,2.6536996336996337,1.9155311355311355,1.0556776556776555
6.085883141000522,1.0927472527472526,0.17003663003663003,0.06608058608058608
6.0878538280012435,1.0927472527472526,0.17003663003663003,0.06608058608058608
6.0887798110052245,1.0927472527472526,0.17003663003663003,0.06608058608058608
6.091482178999286,1.0927472527472526,0.17003663003663003,0.06608058608058608
6.094781937004882,1.0927472527472526,0.17003663003663003,0.06608058608058608
6.095626220005215,1.0927472527472526,0.17003663003663003,0.06608058608058608
6.097280886999215,1.0927472527472526,0.17003663003663003,0.06608058608058608
6.101043798000319,1.0927472527472526,0.17003663003663003,0.06608058608058608
6.1074364310043165,0.03304029304029304,0.8469597069597068,0.11684981684981684
6.112194617999194,2.6569230769230767,2.37003663003663,1.585934065934066
6.116761723002128,2.6569230769230767,2.37003663003663,1.585934065934066
6.117629369000497,0.03545787545787545,0.2804395604395604,0.42630036630036633
6.119228654999461,0.03545787545787545,0.2804395604395604,0.42630036630036633
6.123952353998902,0.03545787545787545,0.2804395604395604,0.42630036630036633
6.124093192003784,0.03545787545787545,0.2804395604395604,0.42630036630036633
6.130198024002311,0.03545787545787545,0.2804395604395604,0.42630036630036633
6.135457196003699,2.673040293040293,2.6303296703296706,1.2039560439560437
6.136305181003991,2.673040293040293,2.6303296703296706,1.2039560439560437
6.137913506005134,2.673040293040293,2.6303296703296706,1.2039560439560437
6.144397762000153,2.673040293040293,2.6303296703296706,1.2039560439560437
6.150220600000466,3.1178754578754577,1.1588278388278386,0.5568498168498168
6.158899073998327,3.269377289377289,2.4901098901098897,0.850989010989011
6.16651132300467,3.269377289377289,2.4901098901098897,0.850989010989011
6.173212189001788,3.269377289377289,2.4901098901098897,0.850989010989011
6.179318417001923,3.269377289377289,2.4901098901098897,0.850989010989011
6.182822795002721,3.269377289377289,2.4901098901098897,0.850989010989011
6.183084365002287,1.0887179487179486,0.22644688644688646,0.1676190476190476
6.188947005000955,1.0887179487179486,0.22644688644688646,0.1676190476190476
6.189180146000581,1.0887179487179486,0.22644688644688646,0.1676190476190476
6.197661762998905,1.0887179487179486,0.22644688644688646,0.1676190476190476
6.203711102003581,1.0258608058608059,0.5512087912087912,0.5375091575091575
6.209112229000311,2.6673992673992672,2.9776556776556777,1.5762637362637362
6.209398577004322,2.449010989010989,1.7237362637362637,0.5890842490842491
6.214997923001647,2.449010989010989,1.7237362637362637,0.5890842490842491
6.215266213999712,2.449010989010989,1.7237362637362637,0.5890842490842491
6.22129685600521,2.449010989010989,1.7237362637362637,0.5890842490842491
6.230779509001877,2.449010989010989,1.7237362637362637,0.5890842490842491
6.23715335399902,3.3,3.0936996336996336,1.008937728937729
6.244035708004958,3.3,3.0936996336996336,1.008937728937729
6.249775247000798,1.6012454212454212,0.43597069597069593,0.19340659340659339
6.257019171003776,1.1338461538461537,1.2539194139194139,0.6350183150183151
6.26106726800208,0.718021978021978,0.4827106227106227,0.684981684981685
6.26346009500412,0.718021978021978,0.4827106227106227,0.684981684981685
6.263685104000615,0.718021978021978,0.4827106227106227,0.684981684981685
6.269550990000425,0.718021978021978,0.4827106227106227,0.684981684981685
6.275961045001168,2.932527472527472,2.0968498168498164,0.7808791208791208
6.279941637003503,2.932527472527472,2.0968498168498164,0.7808791208791208
6.2837724720011465,0.801025641025641,0.3183150183150183,0.08783882783882783
6.288322493004671,0.801025641025641,0.3183150183150183,0.08783882783882783
6.288675399002386,0.801025641025641,0.3183150183150183,0.08783882783882783
6.294201441000041,0.801025641025641,0.3183150183150183,0.08783882783882783
6.295076373004122,0.801025641025641,0.3183150183150183,0.08783882783882783
6.2967834180017235,0.801025641025641,0.3183150183150183,0.08783882783882783
6.3010738720040536,0.801025641025641,0.3183150183150183,0.08783882783882783
6.302701220003655,0.801025641025641,0.3183150183150183,0.08783882783882783
6.307617388003564,0.801025641025641,0.3183150183150183,0.08783882783882783
6.313121320999926,0.801025641025641,0.3183150183150183,0.08783882783882783
6.314034341005026,0.0,0.307032967032967,0.4504761904761904
6.315627591000521,0.0,0.307032967032967,0.4504761904761904
6.320340799000405,0.0,0.307032967032967,0.4504761904761904
6.320436533998873,0.1942124542124542,0.6132600732600733,0.08622710622710622
6.326021266999305,0.1942124542124542,0.6132600732600733,0.08622710622710622
6.3263546810048865,2.6682051282051282,2.916410256410256,1.5206593406593405
6.331319231001544,2.6682051282051282,2.916410256410256,1.5206593406593405
6.3361986270028865,2.6682051282051282,2.916410256410256,1.5206593406593405
6.341254395003489,2.2096703296703293,0.9396336996336996,0.3497435897435897
6.344909126004495,2.2096703296703293,0.9396336996336996,0.3497435897435897
6.3450385270043625,2.2096703296703293,0.9396336996336996,0.3497435897435897
6.3501127480049036,2.2096703296703293,0.9396336996336996,0.3497435897435897
6.353976841004624,1.1789743589743589,1.1394871794871795,0.61003663003663
6.362327189002826,0.6422710622710622,0.5173626373626373,0.5399267399267399
6.366464737002389,0.03223443223443223,0.8945054945054944,0.17164835164835165
6.368852143001277,0.03223443223443223,0.8945054945054944,0.17164835164835165
6.369080075004604,0.03223443223443223,0.8945054945054944,0.17164835164835165
6.374477327000932,0.03223443223443223,0.8945054945054944,0.17164835164835165
6.378164640998875,0.03223443223443223,0.8945054945054944,0.17164835164835165
6.385408319001726,0.03223443223443223,0.8945054945054944,0.17164835164835165
6.390146448000451,2.5634432234432234,1.6391208791208791,0.8791941391941391
6.397693825005263,2.5634432234432234,1.6391208791208791,0.8791941391941391
6.402302945003612,1.5746520146520147,0.6914285714285714,0.7808791208791208
6.410585600002378,2.6682051282051282,2.5626373626373624,1.2515018315018314
6.414869626998552,2.6682051282051282,2.5626373626373624,1.2515018315018314
6.417119352001464,2.6682051282051282,2.5626373626373624,1.2515018315018314
6.417338668004959,2.6682051282051282,2.5626373626373624,1.2515018315018314
6.422444779003854,2.6682051282051282,2.5626373626373624,1.2515018315018314
6.427154210003209,3.3,2.4715750915750916,1.0016849816849815
6.435051525004383,3.3,2.4715750915750916,1.0016849816849815
6.441418301001249,3.3,2.4715750915750916,1.0016849816849815
6.445936576004897,3.3,2.4715750915750916,1.0016849816849815
6.4461754330041,3.3,2.4715750915750916,1.0016849816849815
6.45465760800289,3.3,2.4715750915750916,1.0016849816849815
6.460862760999589,2.6488644688644687,1.917948717948718,1.0226373626373626
6.466104425002413,3.3,2.9647619047619047,0.8018315018315018
6.4699361759994645,3.3,2.9647619047619047,0.8018315018315018
6.475216623999586,3.3,2.9647619047619047,0.8018315018315018
6.476772574998904,3.3,2.9647619047619047,0.8018315018315018
6.483431870998174,3.3,2.9647619047619047,0.8018315018315018
6.48834220199933,3.3,2.9647619047619047,0.8018315018315018
6.4929720900036045,3.3,2.9647619047619047,0.8018315018315018
6.493198381002003,3.3,1.4755311355311356,0.9138461538461539
6.49987990900263,3.3,1.4755311355311356,0.9138461538461539
6.504661058999773,3.3,1.4755311355311356,0.9138461538461539
6.513215350001701,3.3,1.4755311355311356,0.9138461538461539
6.520202079002047,3.3,1.4755311355311356,0.9138461538461539
6.524440405999485,3.3,1.4755311355311356,0.9138461538461539
6.527301217000058,1.2772893772893772,0.24739926739926738,0.23208791208791207
6.531324476003647,1.2772893772893772,0.24739926739926738,0.23208791208791207
6.533810569002526,1.2772893772893772,0.24739926739926738,0.23208791208791207
6.544453643000452,1.2772893772893772,0.24739926739926738,0.23208791208791207
6.552609261001635,1.2772893772893772,0.24739926739926738,0.23208791208791207
6.558980516005249,0.14666666666666667,0.19824175824175824,0.25787545787545785
6.564044509002997,0.14666666666666667,0.19824175824175824,0.25787545787545785
6.568539913001587,0.14666666666666667,0.19824175824175824,0.25787545787545785
6.568708154001797,0.14666666666666667,0.19824175824175824,0.25787545787545785
6.577967320001335,0.14666666666666667,0.19824175824175824,0.25787545787545785
6.586671473000024,0.14666666666666667,0.19824175824175824,0.25787545787545785
6.59226802700141,0.14666666666666667,0.19824175824175824,0.25787545787545785
6.592447847004223,0.14666666666666667,0.19824175824175824,0.25787545787545785
