time,emg1,emg2,emg3
0.0016545079997740686,2.6682051282051282,0.6068131868131869,1.3191941391941393
0.007366220997937489,2.6682051282051282,0.6068131868131869,1.3191941391941393
0.020557837997330353,2.6682051282051282,0.6068131868131869,1.3191941391941393
0.03301698099676287,2.6682051282051282,0.6068131868131869,1.3191941391941393
0.04317108199757058,2.6875457875457873,0.4045421245421245,1.1257875457875457
0.048725731001468375,2.6875457875457873,0.4045421245421245,1.1257875457875457
0.049741520000679884,2.6875457875457873,0.4045421245421245,1.1257875457875457
0.050113343000703026,2.6875457875457873,0.4045421245421245,1.1257875457875457
0.05700630100182025,2.6875457875457873,0.4045421245421245,1.1257875457875457
0.06160293499851832,2.701245421245421,1.9058608058608055,1.2837362637362637
0.061902784000267275,2.722197802197802,1.4158974358974357,0.25787545787545785
0.0673907849995885,2.722197802197802,1.4158974358974357,0.25787545787545785
0.06936370599578368,3.3,0.27399267399267396,0.5238095238095237
0.07047336299729068,3.3,0.27399267399267396,0.5238095238095237
0.07077127700176788,3.3,0.27399267399267396,0.5238095238095237
0.07866048299911199,3.3,0.27399267399267396,0.5238095238095237
0.08667619100015145,3.3,0.27399267399267396,0.5238095238095237
0.09462609299953328,3.3,0.27399267399267396,0.5238095238095237
0.10167747399827931,3.3,0.27399267399267396,0.5238095238095237
0.10786635599652072,3.3,0.27399267399267396,0.5238095238095237
0.11334717000136152,3.3,0.27399267399267396,0.5238095238095237
0.11356879099912476,3.1646153846153844,3.3,0.6632234432234432
0.12095951400260674,3.1646153846153844,3.3,0.6632234432234432
0.13130055199872004,3.1646153846153844,3.3,0.6632234432234432
0.13895904400123982,2.6456410256410257,0.311062271062271,0.4279120879120879
0.14668934099609032,2.698827838827839,3.3,2.054139194139194
0.15439464299561223,2.698827838827839,3.3,2.054139194139194
0.16122154399636202,3.1807326007326004,0.36344322344322344,0.3972893772893773
0.1652467149979202,2.6271062271062267,2.518315018315018,0.6906227106227106
0.16921994400036056,2.6875457875457873,0.3876190476190476,1.0685714285714285
0.17313331199693494,2.6875457875457873,0.3876190476190476,1.0685714285714285
0.17652572199585848,2.6875457875457873,0.3876190476190476,1.0685714285714285
0.1774611989967525,2.698827838827839,1.261172161172161,1.5408058608058608
0.17925323399686022,2.652087912087912,1.0798534798534798,0.5012454212454212
0.18199657699733507,2.652087912087912,1.0798534798534798,0.5012454212454212
0.18634272099734517,2.723003663003663,0.9202930402930403,1.4054212454212454
0.18725222699868027,2.723003663003663,0.9202930402930403,1.4054212454212454
0.1884094639972318,2.723003663003663,0.9202930402930403,1.4054212454212454
0.18871024699910777,2.723003663003663,0.9202930402930403,1.4054212454212454
0.195551473996602,2.723003663003663,0.9202930402930403,1.4054212454212454
0.20147423299931688,2.723003663003663,0.9202930402930403,1.4054212454212454
0.2116151849986636,2.7246153846153844,1.382051282051282,1.5254945054945055
0.2201952440009336,2.7246153846153844,1.382051282051282,1.5254945054945055
0.22707346300012432,2.7246153846153844,1.382051282051282,1.5254945054945055
0.23340350399666931,2.7246153846153844,1.382051282051282,1.5254945054945055
0.24016227100219112,0.9662271062271062,1.00007326007326,0.2369230769230769
0.24590352099767188,3.2806593406593407,2.9196336996336996,0.8477655677655677
0.25396619200182613,3.2806593406593407,2.9196336996336996,0.8477655677655677
0.26003857699834043,3.2806593406593407,2.9196336996336996,0.8477655677655677
0.2661254659979022,3.2806593406593407,2.9196336996336996,0.8477655677655677
0.2717543319959077,3.2806593406593407,2.9196336996336996,0.8477655677655677
0.27797450400248636,3.2806593406593407,2.9196336996336996,0.8477655677655677
0.2819799819990294,3.2806593406593407,2.9196336996336996,0.8477655677655677
0.2863491449970752,3.2806593406593407,2.9196336996336996,0.8477655677655677
0.28678843899979256,3.2806593406593407,2.9196336996336996,0.8477655677655677
0.29274245999840787,3.2806593406593407,2.9196336996336996,0.8477655677655677
0.2977062499994645,3.1484981684981683,2.913186813186813,0.7051282051282051
0.3023710560009931,3.1484981684981683,2.913186813186813,0.7051282051282051
0.30961296500026947,2.6875457875457873,0.4528937728937729,1.224908424908425
0.3145424260001164,2.6875457875457873,0.4528937728937729,1.224908424908425
0.3204482569999527,2.6875457875457873,0.4528937728937729,1.224908424908425
0.32541401799971936,2.693186813186813,1.8792673992673992,0.4778754578754579
0.32961260699812556,2.693186813186813,1.8792673992673992,0.4778754578754579
0.33279180899990024,2.693186813186813,1.8792673992673992,0.4778754578754579
0.3345398449964705,2.693186813186813,1.8792673992673992,0.4778754578754579
0.3393583849974675,2.693186813186813,1.8792673992673992,0.4778754578754579
0.3434427800020785,2.767326007326007,2.7286446886446885,0.8348717948717947
0.3466847199961194,2.697216117216117,2.8148717948717947,1.6955311355311353
0.3483836669984157,2.697216117216117,2.8148717948717947,1.6955311355311353
0.35268756600271445,2.697216117216117,2.8148717948717947,1.6955311355311353
0.35425531499640783,2.697216117216117,2.8148717948717947,1.6955311355311353
0.35904364800080657,2.697216117216117,2.8148717948717947,1.6955311355311353
0.3642272899960517,2.697216117216117,2.8148717948717947,1.6955311355311353
0.3666685169955599,2.697216117216117,2.8148717948717947,1.6955311355311353
0.37615293999988353,2.697216117216117,2.8148717948717947,1.6955311355311353
0.38611245100037195,3.3,3.3,0.90014652014652
0.3920252600000822,2.95025641025641,1.7132600732600733,0.419047619047619
0.39934062399697723,3.3,0.3747252747252747,0.4182417582417582
0.4050071429956006,2.6996336996336994,3.291941391941392,2.0855677655677654
0.40527795600064564,2.6996336996336994,3.291941391941392,2.0855677655677654
0.41059992399823386,2.6996336996336994,3.291941391941392,2.0855677655677654
0.4123436549998587,0.8179487179487179,0.8606593406593407,0.17487179487179486
0.4148704839972197,0.8179487179487179,0.8606593406593407,0.17487179487179486
0.42259500799991656,0.8179487179487179,0.8606593406593407,0.17487179487179486
0.4267145459962194,0.8179487179487179,0.8606593406593407,0.17487179487179486
0.4298894780004048,0.8179487179487179,0.8606593406593407,0.17487179487179486
0.4308271120025893,0.8179487179487179,0.8606593406593407,0.17487179487179486
0.43178039499616716,0.8179487179487179,0.8606593406593407,0.17487179487179486
0.43345902399596525,0.8179487179487179,0.8606593406593407,0.17487179487179486
0.4395286470025894,0.8179487179487179,0.8606593406593407,0.17487179487179486
0.4432010070013348,0.8179487179487179,0.8606593406593407,0.17487179487179486
0.44799417199828895,2.7004395604395603,1.3554578754578754,1.6592673992673992
0.44810566299565835,2.7939194139194137,0.3690842490842491,0.31750915750915754
0.4548059849985293,3.0389010989010985,2.7463736263736265,0.684981684981685
0.4603454019961646,3.0389010989010985,2.7463736263736265,0.684981684981685
0.4606100870005321,2.6996336996336994,2.709304029304029,2.137948717948718
0.4698958090011729,2.6996336996336994,2.709304029304029,2.137948717948718
0.47694677999970736,2.6569230769230767,0.2836630036630036,0.9009523809523808
0.4810873129972606,3.3,0.31186813186813184,0.47465201465201456
0.4835843550026766,3.3,0.31186813186813184,0.47465201465201456
0.4838766859975294,3.3,0.31186813186813184,0.47465201465201456
0.49169664699729765,3.3,0.31186813186813184,0.47465201465201456
0.4966260159999365,3.3,0.31186813186813184,0.47465201465201456
0.5008486980004818,3.3,0.31186813186813184,0.47465201465201456
0.5051437829970382,3.3,0.31186813186813184,0.47465201465201456
0.5055425819955417,3.3,0.31186813186813184,0.47465201465201456
0.5145620559997042,3.3,0.31186813186813184,0.47465201465201456
0.5224609380020411,2.7004395604395603,3.067912087912088,2.4594871794871795
0.5258762550001848,2.7004395604395603,3.067912087912088,2.4594871794871795
0.5261656430011499,2.7004395604395603,3.067912087912088,2.4594871794871795
0.5309480869982508,2.7004395604395603,3.067912087912088,2.4594871794871795
0.5376296190006542,2.445787545787546,0.28205128205128205,0.3594139194139194
0.5415743100020336,2.445787545787546,0.28205128205128205,0.3594139194139194
0.545648669001821,2.445787545787546,0.28205128205128205,0.3594139194139194
0.5480604199983645,2.445787545787546,0.28205128205128205,0.3594139194139194
0.5561820779985283,2.445787545787546,0.28205128205128205,0.3594139194139194
0.5602974930006894,2.445787545787546,0.28205128205128205,0.3594139194139194
0.5636536370002432,2.7246153846153844,2.307179487179487,1.6399267399267399
0.564579624995531,2.7246153846153844,2.307179487179487,1.6399267399267399
0.5655323399987537,2.7246153846153844,2.307179487179487,1.6399267399267399
0.5664972640006454,2.7246153846153844,2.307179487179487,1.6399267399267399
0.5678484449963435,2.7246153846153844,2.307179487179487,1.6399267399267399
0.577042707001965,2.7246153846153844,2.307179487179487,1.6399267399267399
0.5827783830027329,2.4038827838827834,0.2804395604395604,0.29413919413919415
0.5830756540017319,2.4038827838827834,0.2804395604395604,0.29413919413919415
0.5902020520006772,2.4038827838827834,0.2804395604395604,0.29413919413919415
0.5966266429968528,2.6794871794871793,0.46659340659340653,1.0484249084249082
0.5999152099975618,2.698827838827839,3.067912087912088,2.382124542124542
0.6009248659975128,2.698827838827839,3.067912087912088,2.382124542124542
0.6013933810027083,2.698827838827839,3.067912087912088,2.382124542124542
0.6067994789991644,2.698827838827839,3.067912087912088,2.382124542124542
0.6070345139960409,2.698827838827839,3.067912087912088,2.382124542124542
0.6149385370008531,2.4860805860805857,0.3529670329670329,0.3078388278388278
0.6219799550017342,3.3,3.3,0.8227838827838827
0.6255475869984366,3.3,3.3,0.8227838827838827
0.6257729659992037,2.6633699633699632,0.36344322344322344,0.9484981684981684
0.6306612679982209,2.6633699633699632,0.36344322344322344,0.9484981684981684
0.636917607000214,2.083150183150183,1.7543589743589743,0.2482051282051282
0.6413667559972964,2.7238095238095235,2.7375091575091575,2.402271062271062
0.6415419969998766,2.7238095238095235,2.7375091575091575,2.402271062271062
0.64719600299577,2.7238095238095235,2.7375091575091575,2.402271062271062
0.6473839329992188,2.7238095238095235,2.7375091575091575,2.402271062271062
0.6542107189961825,2.7238095238095235,2.7375091575091575,2.402271062271062
0.6580510380008491,2.7238095238095235,2.7375091575091575,2.402271062271062
0.666642017000413,2.697216117216117,1.6890842490842488,1.299047619047619
0.6725879099976737,2.697216117216117,1.6890842490842488,1.299047619047619
0.6775312149984529,2.6682051282051282,3.3,0.8945054945054944
0.6808170029980829,3.3,0.5592673992673992,0.4625641025641025
0.6824500239963527,3.3,0.5592673992673992,0.4625641025641025
0.6867809269970166,3.3,0.5592673992673992,0.4625641025641025
0.6880753410005127,2.6536996336996337,0.2643223443223443,0.6261538461538461
0.6882255719974637,2.6536996336996337,0.2643223443223443,0.6261538461538461
0.6933409580014995,2.6536996336996337,0.2643223443223443,0.6261538461538461
0.6974390909963404,2.6536996336996337,0.2643223443223443,0.6261538461538461
0.700682656999561,2.6536996336996337,0.2643223443223443,0.6261538461538461
0.7016573299988522,2.6536996336996337,0.2643223443223443,0.6261538461538461
0.7038551709993044,2.6536996336996337,0.2643223443223443,0.6261538461538461
0.7040972670001793,2.7004395604395603,0.8058608058608058,1.286959706959707
0.7090428629962844,2.7004395604395603,0.8058608058608058,1.286959706959707
0.7137782259960659,2.7004395604395603,0.8058608058608058,1.286959706959707
0.7201226289980696,3.3,0.49399267399267394,0.49399267399267394
0.7247414570010733,2.701245421245421,1.510989010989011,1.087106227106227
0.7249147870024899,2.6665934065934067,0.33282051282051284,0.9283516483516483
0.7297831190007855,2.6665934065934067,0.33282051282051284,0.9283516483516483
0.7366740130019025,2.6665934065934067,0.33282051282051284,0.9283516483516483
0.7405081979959505,3.3,0.4762637362637362,0.49399267399267394
0.7445673010006431,3.3,0.4762637362637362,0.49399267399267394
0.7478772179965745,3.3,0.4762637362637362,0.49399267399267394
0.7487888489995385,3.3,0.4762637362637362,0.49399267399267394
0.7505356710025808,3.3,0.4762637362637362,0.49399267399267394
0.7544188579995534,3.3,0.4762637362637362,0.49399267399267394
0.7587129199964693,2.697216117216117,3.3,2.133919413919414
0.7612431149973418,3.3,1.4868131868131869,0.3336263736263736
0.7668768200019258,3.3,1.4868131868131869,0.3336263736263736
0.7671908810007153,3.3,1.4868131868131869,0.3336263736263736
0.7730451480019838,3.3,1.4868131868131869,0.3336263736263736
0.783366465002473,3.3,1.4868131868131869,0.3336263736263736
0.7927039009955479,3.3,3.3,1.1354578754578755
0.7991229769977508,3.3,3.3,1.1354578754578755
0.804835490998812,3.3,3.3,1.1354578754578755
0.8102773270002217,2.698827838827839,1.6189743589743588,1.622197802197802
0.8111751249962253,2.698827838827839,1.6189743589743588,1.622197802197802
0.8128593309957068,2.698827838827839,1.6189743589743588,1.622197802197802
0.81611588299711,2.698827838827839,1.6189743589743588,1.622197802197802
0.8170210250027594,2.698827838827839,1.6189743589743588,1.622197802197802
0.8188742569982423,2.698827838827839,1.6189743589743588,1.622197802197802
0.8225895479990868,2.698827838827839,1.6189743589743588,1.622197802197802
0.828576351996162,2.698827838827839,1.6189743589743588,1.622197802197802
0.8319949259966961,1.4432967032967032,1.4860073260073259,0.3287912087912088
0.8434594089994789,1.4432967032967032,1.4860073260073259,0.3287912087912088
0.8535509939974872,1.4432967032967032,1.4860073260073259,0.3287912087912088
0.8657626479980536,1.4432967032967032,1.4860073260073259,0.3287912087912088
0.8751110239973059,2.6665934065934067,0.24336996336996336,0.7792673992673992
0.8809495870009414,2.6665934065934067,0.24336996336996336,0.7792673992673992
0.8810669849990518,2.7004395604395603,1.4424908424908425,1.7857875457875456
0.8878184740024153,2.7004395604395603,1.4424908424908425,1.7857875457875456
0.8921423209976638,2.7004395604395603,1.4424908424908425,1.7857875457875456
0.89247515599709,2.6617582417582417,3.3,0.9557509157509158
0.8982821760000661,2.6617582417582417,3.3,0.9557509157509158
0.9061870590012404,2.6617582417582417,3.3,0.9557509157509158
0.9110655179974856,2.6617582417582417,3.3,0.9557509157509158
0.9157805970025947,3.3,3.199267399267399,0.6374358974358975
0.915994495000632,3.3,3.199267399267399,0.6374358974358975
0.9242129100020975,3.3,3.199267399267399,0.6374358974358975
0.9282696869995561,2.702051282051282,3.3,1.5077655677655677
0.9315089029987575,2.702051282051282,3.3,1.5077655677655677
0.9332093199991505,2.702051282051282,3.3,1.5077655677655677
0.9384146419979515,2.702051282051282,3.3,1.5077655677655677
0.9402097049969598,2.721391941391941,1.544029304029304,1.4134798534798534
0.9427869240025757,2.721391941391941,1.544029304029304,1.4134798534798534
0.9475200840024627,2.7004395604395603,2.262051282051282,1.7076190476190476
0.9476769059983781,2.7004395604395603,2.262051282051282,1.7076190476190476
0.954962951997004,2.7004395604395603,2.262051282051282,1.7076190476190476
0.9607643499984988,2.7004395604395603,2.262051282051282,1.7076190476190476
0.9654300059992238,2.7004395604395603,1.4489377289377288,1.4569963369963368
0.9729158979971544,2.7004395604395603,1.4489377289377288,1.4569963369963368
0.9767075729978387,2.7004395604395603,1.4489377289377288,1.4569963369963368
0.9851297839995823,2.7004395604395603,1.4489377289377288,1.4569963369963368
0.9919313589998637,2.7004395604395603,1.4489377289377288,1.4569963369963368
0.9961237099996652,2.7004395604395603,1.4489377289377288,1.4569963369963368
0.9978481889993418,2.7004395604395603,1.4489377289377288,1.4569963369963368
1.0012226620019646,2.7004395604395603,1.4489377289377288,1.4569963369963368
1.0015956589995767,2.7004395604395603,1.4489377289377288,1.4569963369963368
1.008213387998694,2.7004395604395603,1.4489377289377288,1.4569963369963368
1.012137616002292,2.7004395604395603,1.4489377289377288,1.4569963369963368
1.0161213920000591,2.7004395604395603,1.4489377289377288,1.4569963369963368
1.0197770039958414,2.7004395604395603,1.4489377289377288,1.4569963369963368
1.0263108989965986,2.7004395604395603,1.4489377289377288,1.4569963369963368
1.0303819920009119,2.7004395604395603,1.4489377289377288,1.4569963369963368
1.0367285359970992,2.7004395604395603,1.4489377289377288,1.4569963369963368
1.0434733879956184,2.7004395604395603,1.4489377289377288,1.4569963369963368
1.0493858490008279,2.7246153846153844,3.3,1.6890842490842488
1.055363364997902,2.7246153846153844,3.3,1.6890842490842488
1.0588974499987671,2.7246153846153844,3.3,1.6890842490842488
1.0591063030005898,2.7246153846153844,3.3,1.6890842490842488
1.065236217000347,2.7246153846153844,3.3,1.6890842490842488
1.0692280660005054,2.6746520146520147,0.44402930402930396,1.1604395604395605
1.0733324129978428,2.046080586080586,0.5181684981684981,0.2063003663003663
1.0759821819956414,2.046080586080586,0.5181684981684981,0.2063003663003663
1.083677754002565,2.046080586080586,0.5181684981684981,0.2063003663003663
1.0889304960001027,2.046080586080586,0.5181684981684981,0.2063003663003663
1.091052005001984,1.162051282051282,1.145128205128205,0.25142857142857145
1.0935193069963134,1.8816849816849814,0.4158241758241758,0.3102564102564102
1.1015994459958165,1.8816849816849814,0.4158241758241758,0.3102564102564102
1.1079609869993874,2.7004395604395603,1.8655677655677654,1.706007326007326
1.1137955550002516,2.7004395604395603,1.8655677655677654,1.706007326007326
1.1194686809976702,2.7004395604395603,1.8655677655677654,1.706007326007326
1.127850151999155,2.7004395604395603,1.8655677655677654,1.706007326007326
1.1355772589959088,2.6714285714285713,0.5302564102564102,1.1821978021978021
1.1406054089966347,2.6714285714285713,0.5302564102564102,1.1821978021978021
1.1449000089996844,2.6714285714285713,0.5302564102564102,1.1821978021978021
1.145224373001838,2.698827838827839,1.9050549450549448,1.6544322344322344
1.1504177160022664,2.698827838827839,1.9050549450549448,1.6544322344322344
1.156561301999318,2.698827838827839,1.9050549450549448,1.6544322344322344
1.1603052080026828,2.698827838827839,1.9050549450549448,1.6544322344322344
1.1641992809963995,2.698827838827839,1.9050549450549448,1.6544322344322344
1.1698215750002419,2.698827838827839,1.9050549450549448,1.6544322344322344
1.170073768000293,2.698827838827839,1.9050549450549448,1.6544322344322344
1.1787951969963615,2.698827838827839,1.9050549450549448,1.6544322344322344
1.1858166919992073,1.4344322344322344,0.3553846153846154,0.25384615384615383
1.1923785850012791,1.4344322344322344,0.3553846153846154,0.25384615384615383
1.198195871002099,1.4344322344322344,0.3553846153846154,0.25384615384615383
1.2052909569974872,1.4344322344322344,0.3553846153846154,0.25384615384615383
1.210251956996217,1.4344322344322344,0.3553846153846154,0.25384615384615383
1.2137000809962046,3.3,0.23208791208791207,0.6172893772893773
1.2139667779993033,3.3,0.4222710622710622,0.4504761904761904
1.2202933919979841,3.3,0.4222710622710622,0.4504761904761904
1.2256230519997189,2.690769230769231,3.2983882783882783,1.3578754578754577
1.2273808519967133,2.690769230769231,3.2983882783882783,1.3578754578754577
1.2306936589957331,2.690769230769231,3.2983882783882783,1.3578754578754577
1.2309433999980683,0.9815384615384615,1.1983150183150182,0.2683516483516483
1.2406115799967665,0.9815384615384615,1.1983150183150182,0.2683516483516483
1.248666688996309,2.7004395604395603,2.9728205128205127,2.3603663003663002
1.2564184009970631,2.7004395604395603,2.9728205128205127,2.3603663003663002
1.2644017269994947,2.7004395604395603,2.9728205128205127,2.3603663003663002
1.2708917420022772,2.7004395604395603,2.9728205128205127,2.3603663003663002
1.2761724949959898,2.7004395604395603,2.9728205128205127,2.3603663003663002
1.2765371200002846,2.7197802197802194,2.7044688644688644,1.4739194139194138
1.2852750289966934,2.7197802197802194,2.7044688644688644,1.4739194139194138
1.2918804380024085,3.0936996336996336,1.0597069597069597,0.24739926739926738
1.2967016580005293,2.626300366300366,0.2602930402930403,0.3706959706959707
1.3050567410027725,2.7004395604395603,2.31040293040293,2.224981684981685
1.3102613079972798,2.7004395604395603,2.31040293040293,2.224981684981685
1.3138206790026743,2.7004395604395603,2.31040293040293,2.224981684981685
1.3220660360020702,2.7004395604395603,2.31040293040293,2.224981684981685
1.3304268930005492,2.697216117216117,1.2184615384615385,1.5005128205128204
1.3384224030014593,3.3,0.25223443223443226,0.6108424908424909
1.344812422998075,3.3,0.4424175824175824,0.47706959706959706
1.35068385899649,3.3,0.4424175824175824,0.47706959706959706
1.358285934999003,3.3,0.21999999999999997,0.5552380952380952
1.364833528001327,3.106593406593406,0.4851282051282051,0.4287179487179487
1.3704696229979163,3.106593406593406,0.4851282051282051,0.4287179487179487
1.3805775889995857,3.106593406593406,0.4851282051282051,0.4287179487179487
1.388451263999741,3.106593406593406,0.4851282051282051,0.4287179487179487
1.3951997999974992,3.106593406593406,0.4851282051282051,0.4287179487179487
1.3995931079989532,2.7745787545787546,0.3191208791208791,0.3843956043956044
1.4010046309995232,2.7745787545787546,0.3191208791208791,0.3843956043956044
1.4094809739981429,2.7745787545787546,0.3191208791208791,0.3843956043956044
1.4176102290002746,2.7745787545787546,0.3191208791208791,0.3843956043956044
1.4247749950009165,2.7745787545787546,0.3191208791208791,0.3843956043956044
1.430342578998534,3.3,3.3,1.1789743589743589
1.4305441449978389,3.3,3.3,1.1789743589743589
1.4378982929993072,3.3,3.3,1.1789743589743589
1.445025323999289,2.7004395604395603,3.046959706959707,1.672161172161172
1.4523009280019323,2.7004395604395603,3.046959706959707,1.672161172161172
1.458460930000001,2.7004395604395603,3.046959706959707,1.672161172161172
1.4629630350027583,2.7004395604395603,3.046959706959707,1.672161172161172
1.4631829240024672,2.7004395604395603,3.046959706959707,1.672161172161172
1.471033030997205,2.7004395604395603,3.046959706959707,1.672161172161172
1.4776032730005682,2.7004395604395603,3.046959706959707,1.672161172161172
1.4818163689997164,2.7004395604395603,3.046959706959707,1.672161172161172
1.484418246000132,2.7004395604395603,1.7205128205128206,1.6238095238095236
1.4911675609982922,2.7004395604395603,1.7205128205128206,1.6238095238095236
1.496411703999911,3.3,3.2782417582417582,0.8316483516483516
1.4990870589972474,3.3,3.2782417582417582,0.8316483516483516
1.5038754519991926,3.3,3.2782417582417582,0.8316483516483516
1.509626141996705,3.3,3.2782417582417582,0.8316483516483516
1.5179661459987983,3.3,3.2782417582417582,0.8316483516483516
1.5243458920012927,3.3,3.2782417582417582,0.8316483516483516
1.529378581995843,3.3,3.2782417582417582,0.8316483516483516
1.532926927000517,2.6682051282051282,0.2095238095238095,0.7389743589743589
1.5421836519963108,2.8632234432234434,0.24901098901098898,0.42952380952380953
1.550543409997772,2.593260073260073,1.9719413919413917,0.7083516483516483
1.5570980949996738,2.655311355311355,0.2635164835164835,0.6479120879120879
1.5615436949956347,2.655311355311355,0.2635164835164835,0.6479120879120879
1.5619322170023224,2.655311355311355,0.2635164835164835,0.6479120879120879
1.570287501999701,2.655311355311355,0.2635164835164835,0.6479120879120879
1.57770766899921,2.655311355311355,0.2635164835164835,0.6479120879120879
1.5836781210018671,3.3,0.4931868131868131,0.42710622710622714
1.5889053709979635,3.3,0.4931868131868131,0.42710622710622714
1.5897913419976248,3.3,0.4931868131868131,0.42710622710622714
1.5913139620024594,3.3,0.4931868131868131,0.42710622710622714
1.5955958330014255,3.3,0.4931868131868131,0.42710622710622714
1.5984292159992037,2.6956043956043954,2.9816849816849818,2.269304029304029
1.6020613369983039,2.6956043956043954,2.9816849816849818,2.269304029304029
1.602216617000522,2.6956043956043954,2.9816849816849818,2.269304029304029
1.607255126000382,2.6956043956043954,2.9816849816849818,2.269304029304029
1.6114595379985985,2.6956043956043954,2.9816849816849818,2.269304029304029
1.613736703999166,2.6956043956043954,2.9816849816849818,2.269304029304029
1.6140437759968336,2.6956043956043954,2.9816849816849818,2.269304029304029
1.6184670360016753,2.6956043956043954,2.9816849816849818,2.269304029304029
1.6200154859980103,2.6956043956043954,2.9816849816849818,2.269304029304029
1.62370532299974,2.6956043956043954,2.9816849816849818,2.269304029304029
1.6289858509990154,2.6956043956043954,2.9816849816849818,2.269304029304029
1.6321822999962023,2.6956043956043954,2.9816849816849818,2.269304029304029
1.6338614289998077,2.6956043956043954,2.9816849816849818,2.269304029304029
1.6379210419981973,2.6956043956043954,2.9816849816849818,2.269304029304029
1.6404450150002958,2.6956043956043954,2.9816849816849818,2.269304029304029
1.6453497690017684,2.6956043956043954,2.9816849816849818,2.269304029304029
1.650015662999067,2.6956043956043954,2.9816849816849818,2.269304029304029
1.650230430001102,2.6956043956043954,2.9816849816849818,2.269304029304029
1.65481819499837,2.6956043956043954,2.9816849816849818,2.269304029304029
1.6557151890010573,2.6956043956043954,2.9816849816849818,2.269304029304029
1.6575075180007843,2.6956043956043954,2.9816849816849818,2.269304029304029
1.6607029879960464,2.6956043956043954,2.9816849816849818,2.269304029304029
1.6616115079959854,2.6956043956043954,2.9816849816849818,2.269304029304029
1.6632071240019286,2.7246153846153844,1.7914285714285711,1.506153846153846
1.6670205389964394,2.7246153846153844,1.7914285714285711,1.506153846153846
1.6710905119980453,2.7246153846153844,1.7914285714285711,1.506153846153846
1.6742103009964922,2.7246153846153844,1.7914285714285711,1.506153846153846
1.6759357159971842,2.7246153846153844,1.7914285714285711,1.506153846153846
1.679098663997138,2.7246153846153844,1.7914285714285711,1.506153846153846
1.680699441996694,2.7246153846153844,1.7914285714285711,1.506153846153846
1.6845125859981636,2.7246153846153844,1.7914285714285711,1.506153846153846
1.689124176002224,2.7246153846153844,1.7914285714285711,1.506153846153846
1.6893346329961787,2.7246153846153844,1.7914285714285711,1.506153846153846
1.693920674995752,2.7246153846153844,1.7914285714285711,1.506153846153846
1.6947511690013926,1.7559706959706958,0.4528937728937729,0.3021978021978022
1.6963771890004864,2.6956043956043954,1.6391208791208791,0.8646886446886447
1.7004573719968903,2.6956043956043954,1.6391208791208791,0.8646886446886447
1.7035104370006593,2.6956043956043954,1.6391208791208791,0.8646886446886447
1.7058394519990543,2.6956043956043954,1.6391208791208791,0.8646886446886447
1.7060500509978738,2.6956043956043954,1.6391208791208791,0.8646886446886447
1.7108799839988933,2.6956043956043954,1.6391208791208791,0.8646886446886447
1.7166990690020612,2.6956043956043954,1.6391208791208791,0.8646886446886447
1.7223366019970854,2.6956043956043954,1.6391208791208791,0.8646886446886447
1.7227317759970902,2.6956043956043954,1.6391208791208791,0.8646886446886447
1.7274964379976154,2.6956043956043954,1.6391208791208791,0.8646886446886447
1.7276225269961287,2.6956043956043954,1.6391208791208791,0.8646886446886447
1.732507517997874,2.6956043956043954,1.6391208791208791,0.8646886446886447
1.7373375649985974,2.6956043956043954,1.6391208791208791,0.8646886446886447
1.742712218001543,2.6956043956043954,1.6391208791208791,0.8646886446886447
1.7445076790027088,2.6956043956043954,1.6391208791208791,0.8646886446886447
1.7476894810024532,2.6956043956043954,1.6391208791208791,0.8646886446886447
1.7486044129982474,2.6956043956043954,1.6391208791208791,0.8646886446886447
1.7502672920018085,2.6956043956043954,1.6391208791208791,0.8646886446886447
1.753343219999806,2.6956043956043954,1.6391208791208791,0.8646886446886447
1.7556348009966314,2.6956043956043954,1.6391208791208791,0.8646886446886447
1.755927136997343,2.6956043956043954,1.6391208791208791,0.8646886446886447
1.7607458569982555,2.6956043956043954,1.6391208791208791,0.8646886446886447
1.7608667759996024,2.6956043956043954,1.6391208791208791,0.8646886446886447
1.7655204559996491,2.6956043956043954,1.6391208791208791,0.8646886446886447
1.7657431440020446,2.6956043956043954,1.6391208791208791,0.8646886446886447
1.7707074869977077,2.6956043956043954,1.6391208791208791,0.8646886446886447
1.775372217001859,3.3,0.23531135531135527,0.415018315018315
1.7755334120010957,3.3,0.23531135531135527,0.415018315018315
1.7844217349993414,3.3,0.23531135531135527,0.415018315018315
1.790411634996417,3.3,1.3336996336996336,0.3038095238095238
1.7953981399987242,3.3,1.3336996336996336,0.3038095238095238
1.798456766999152,3.3,1.3336996336996336,0.3038095238095238
1.8007514260025346,3.3,1.3336996336996336,0.3038095238095238
1.8010139309990336,3.3,1.3336996336996336,0.3038095238095238
1.8091773400010425,3.3,1.3336996336996336,0.3038095238095238
1.8145211869996274,2.664175824175824,0.26673992673992675,0.755091575091575
1.8178447370009962,2.5054212454212452,0.26109890109890105,0.3231501831501831
1.8280718859969056,2.5054212454212452,0.26109890109890105,0.3231501831501831
1.838123221998103,2.5054212454212452,0.26109890109890105,0.3231501831501831
1.845840338995913,2.9389743589743587,0.30945054945054945,0.3021978021978022
1.8534420489959302,2.9389743589743587,0.30945054945054945,0.3021978021978022
1.8599132149975048,2.9389743589743587,0.30945054945054945,0.3021978021978022
1.8654820379961166,2.9389743589743587,0.30945054945054945,0.3021978021978022
1.8656870779959718,2.9389743589743587,0.30945054945054945,0.3021978021978022
1.8747588379992521,2.9389743589743587,0.30945054945054945,0.3021978021978022
1.8811355069992715,2.9389743589743587,0.30945054945054945,0.3021978021978022
1.8872987810027553,2.9389743589743587,0.30945054945054945,0.3021978021978022
1.8916229919996113,2.9389743589743587,0.30945054945054945,0.3021978021978022
1.8920241910018376,2.9389743589743587,0.30945054945054945,0.3021978021978022
1.9005178629959119,3.232307692307692,0.3142857142857142,0.3747252747252747
1.9064500120002776,3.232307692307692,0.3142857142857142,0.3747252747252747
1.91133238600014,3.232307692307692,0.3142857142857142,0.3747252747252747
1.9177924640025594,3.232307692307692,0.3142857142857142,0.3747252747252747
1.9217092719991342,2.6956043956043954,3.287106227106227,2.253186813186813
1.9253364149990375,2.6956043956043954,3.287106227106227,2.253186813186813
1.9349542369964183,3.0195604395604394,0.19743589743589743,0.38278388278388276
1.9440634769998724,0.18373626373626373,1.0597069597069597,0.10315018315018315
1.9515844600027776,2.702051282051282,1.5005128205128204,1.3538461538461537
1.9571635109969066,3.3,0.24336996336996336,0.3626373626373626
1.9573418430009042,3.3,0.24336996336996336,0.3626373626373626
1.965693858001032,3.3,0.24336996336996336,0.3626373626373626
1.9736454840021906,3.3,0.24336996336996336,0.3626373626373626
1.9813978029997088,2.9905494505494503,0.7446153846153846,0.49399267399267394
1.9877245300012873,2.9905494505494503,0.7446153846153846,0.49399267399267394
1.9922622259982745,2.6682051282051282,0.36747252747252745,0.8622710622710623
1.9924697899987223,2.6682051282051282,0.36747252747252745,0.8622710622710623
1.9997739179962082,2.6682051282051282,0.36747252747252745,0.8622710622710623
2.0047697409972898,2.673040293040293,0.9372161172161171,0.2594871794871795
2.009455756000534,2.6746520146520147,0.5504029304029303,1.008937728937729
2.015823385998374,2.6746520146520147,0.5504029304029303,1.008937728937729
2.0203371410025284,2.6746520146520147,0.5504029304029303,1.008937728937729
2.0207023859984474,2.6746520146520147,0.5504029304029303,1.008937728937729
2.0287203030020464,2.6746520146520147,0.5504029304029303,1.008937728937729
2.034785247997206,2.6649816849816848,0.3658608058608058,0.9307692307692307
2.039729078001983,2.6649816849816848,0.3658608058608058,0.9307692307692307
2.0456514510005945,2.7197802197802194,2.613406593406593,2.2362637362637363
2.051472583996656,2.7197802197802194,2.613406593406593,2.2362637362637363
2.057781094001257,2.7197802197802194,2.613406593406593,2.2362637362637363
2.062237671998446,2.7197802197802194,2.613406593406593,2.2362637362637363
2.0625078910015873,2.6996336996336994,2.0517216117216117,1.6504029304029304
2.0711437849968206,2.6996336996336994,2.0517216117216117,1.6504029304029304
2.0778886080006487,2.6996336996336994,2.0517216117216117,1.6504029304029304
2.083133497995732,2.702051282051282,1.3788278388278388,1.4529670329670328
2.084597604996816,2.702051282051282,1.3788278388278388,1.4529670329670328
2.0912795170006575,2.702051282051282,1.3788278388278388,1.4529670329670328
2.097321433997422,2.702051282051282,1.3788278388278388,1.4529670329670328
2.101452987997618,2.702051282051282,1.3788278388278388,1.4529670329670328
2.1031988300019293,2.702051282051282,1.3788278388278388,1.4529670329670328
2.108897338999668,2.702051282051282,1.3788278388278388,1.4529670329670328
2.1191433139974833,2.702051282051282,1.3788278388278388,1.4529670329670328
2.1293497680017026,2.702051282051282,1.3788278388278388,1.4529670329670328
2.140726931000245,2.702051282051282,1.3788278388278388,1.4529670329670328
2.1509680279996246,2.702051282051282,1.3788278388278388,1.4529670329670328
2.1600965249963338,2.7004395604395603,1.58996336996337,1.4843956043956044
2.1671757160002016,3.3,0.49721611721611714,0.473040293040293
2.1721892279965687,2.697216117216117,1.0854945054945053,1.5166300366300365
2.177945579001971,2.697216117216117,1.0854945054945053,1.5166300366300365
2.184533359002671,2.6996336996336994,3.175897435897436,2.4635164835164836
2.189934894995531,2.6996336996336994,3.175897435897436,2.4635164835164836
2.190237486996921,3.0034432234432233,3.3,0.9041758241758242
2.1987791279971134,3.0034432234432233,3.3,0.9041758241758242
2.2060748919975595,3.0034432234432233,3.3,0.9041758241758242
2.211180186997808,3.0034432234432233,3.3,0.9041758241758242
2.213866956997663,3.0034432234432233,3.3,0.9041758241758242
2.2201511669991305,3.0034432234432233,3.3,0.9041758241758242
2.2248318919955636,3.0034432234432233,3.3,0.9041758241758242
2.2341175699984888,3.0034432234432233,3.3,0.9041758241758242
2.24298654699669,2.4554578754578755,0.3295970695970696,0.34007326007326005
2.251777134995791,2.4554578754578755,0.3295970695970696,0.34007326007326005
2.260860837996006,2.5392673992673993,0.31186813186813184,0.381978021978022
2.267638473000261,2.5392673992673993,0.31186813186813184,0.381978021978022
2.273847329997807,2.6633699633699632,0.2949450549450549,1.075018315018315
2.280101060998277,3.3,3.3,0.8711355311355311
2.2865351419968647,3.3,3.3,0.8711355311355311
2.2909707619983237,3.3,3.3,0.8711355311355311
2.291154282000207,3.3,3.3,0.8711355311355311
2.2960492779966444,3.3,3.3,0.8711355311355311
2.30163134799659,3.3,3.3,0.8711355311355311
2.3018704860005528,2.9679853479853477,2.46996336996337,0.8372893772893772
2.3062056720009423,2.9679853479853477,2.46996336996337,0.8372893772893772
2.3077441040004487,2.9679853479853477,2.46996336996337,0.8372893772893772
2.3120133359989268,2.9679853479853477,2.46996336996337,0.8372893772893772
2.314166265001404,2.9679853479853477,2.46996336996337,0.8372893772893772
2.314952920001815,2.9679853479853477,2.46996336996337,0.8372893772893772
2.317103610999766,2.9679853479853477,2.46996336996337,0.8372893772893772
2.317900030997407,2.9679853479853477,2.46996336996337,0.8372893772893772
2.320112235000124,2.698827838827839,1.378021978021978,1.1805860805860806
2.320363806000387,2.698827838827839,1.378021978021978,1.1805860805860806
2.3252398670010734,2.698827838827839,1.378021978021978,1.1805860805860806
2.3302470080016064,2.698827838827839,1.378021978021978,1.1805860805860806
2.334991092000564,2.698827838827839,1.378021978021978,1.1805860805860806
2.3407311600021785,2.698827838827839,1.378021978021978,1.1805860805860806
2.340919586997188,2.698827838827839,1.378021978021978,1.1805860805860806
2.346174018995953,2.698827838827839,1.378021978021978,1.1805860805860806
2.34845614599908,2.698827838827839,1.378021978021978,1.1805860805860806
2.3486730709992116,2.698827838827839,1.378021978021978,1.1805860805860806
2.353470993002702,2.698827838827839,1.378021978021978,1.1805860805860806
2.3585298629986937,2.698827838827839,1.378021978021978,1.1805860805860806
2.363544658997853,2.698827838827839,1.378021978021978,1.1805860805860806
2.36826001299778,2.698827838827839,1.378021978021978,1.1805860805860806
2.3738493179989746,2.698827838827839,1.378021978021978,1.1805860805860806
2.374867270998948,2.698827838827839,1.378021978021978,1.1805860805860806
2.375153610999405,2.9607326007326007,1.411062271062271,0.9041758241758242
2.380216819998168,2.9607326007326007,1.411062271062271,0.9041758241758242
2.384555946002365,2.9607326007326007,1.411062271062271,0.9041758241758242
2.3861801809980534,2.9607326007326007,1.411062271062271,0.9041758241758242
2.3900260840018746,2.723003663003663,0.24578754578754577,0.415018315018315
2.395891756998026,2.723003663003663,0.24578754578754577,0.415018315018315
2.4016575529967668,2.702051282051282,2.9196336996336996,2.5392673992673993
2.401797546997841,2.702051282051282,2.9196336996336996,2.5392673992673993
2.406958041996404,2.702051282051282,2.9196336996336996,2.5392673992673993
2.40989330499724,2.702051282051282,2.9196336996336996,2.5392673992673993
2.412819108001713,2.702051282051282,2.9196336996336996,2.5392673992673993
2.41572996800096,2.702051282051282,2.9196336996336996,2.5392673992673993
2.4193702019983903,2.702051282051282,2.9196336996336996,2.5392673992673993
2.424312898001517,2.702051282051282,2.9196336996336996,2.5392673992673993
2.42864818200178,2.7004395604395603,2.3684249084249083,1.8019047619047617
2.4315341580004315,2.7004395604395603,2.3684249084249083,1.8019047619047617
2.434457443996507,2.7004395604395603,2.3684249084249083,1.8019047619047617
2.437478177002049,2.7004395604395603,2.3684249084249083,1.8019047619047617
2.4403370110012474,2.7004395604395603,2.888205128205128,2.5561904761904763
2.4432164929967257,2.7004395604395603,2.888205128205128,2.5561904761904763
2.446727449998434,2.7004395604395603,2.888205128205128,2.5561904761904763
2.4470163229998434,2.7004395604395603,2.888205128205128,2.5561904761904763
2.451863490001415,2.7004395604395603,2.888205128205128,2.5561904761904763
2.456924006997724,2.7004395604395603,2.888205128205128,2.5561904761904763
2.4609353779960657,2.6956043956043954,3.3,2.269304029304029
2.464012691001699,2.66014652014652,3.3,1.444102564102564
2.466389089997392,2.66014652014652,3.3,1.444102564102564
2.4665378380013863,2.66014652014652,3.3,1.444102564102564
2.472110486996826,2.66014652014652,3.3,1.444102564102564
2.472383448999608,2.66014652014652,3.3,1.444102564102564
2.4774443970018183,2.66014652014652,3.3,1.444102564102564
2.48237500799587,2.66014652014652,3.3,1.444102564102564
2.48715507399902,2.66014652014652,3.3,1.444102564102564
2.4927822690005996,2.66014652014652,3.3,1.444102564102564
2.49364791699918,2.66014652014652,3.3,1.444102564102564
2.495274075001362,2.66014652014652,3.3,1.444102564102564
2.4983945519998088,2.66014652014652,3.3,1.444102564102564
2.500145133002661,2.66014652014652,3.3,1.444102564102564
2.5039451280026697,2.66014652014652,3.3,1.444102564102564
2.5084504859987646,2.7004395604395603,2.3652014652014652,1.7503296703296702
2.5087561830005143,2.7004395604395603,2.3652014652014652,1.7503296703296702
2.5133707509958185,2.7004395604395603,2.3652014652014652,1.7503296703296702
2.5136547939982847,0.4810989010989011,0.7728205128205128,0.23128205128205126
2.5189544019958703,0.4810989010989011,0.7728205128205128,0.23128205128205126
2.520581388998835,0.4810989010989011,0.7728205128205128,0.23128205128205126
2.5245261320014833,2.6956043956043954,3.3,1.515018315018315
2.529073863996018,2.702051282051282,2.324908424908425,1.8131868131868132
2.5292803129996173,2.702051282051282,2.324908424908425,1.8131868131868132
2.534064961997501,2.702051282051282,2.324908424908425,1.8131868131868132
2.5398456289985916,2.702051282051282,2.324908424908425,1.8131868131868132
2.540004456997849,2.702051282051282,2.324908424908425,1.8131868131868132
2.5445053590010502,2.702051282051282,2.324908424908425,1.8131868131868132
2.5453452709989506,2.702051282051282,2.324908424908425,1.8131868131868132
2.5475062199984677,2.6649816849816848,0.27318681318681315,1.0258608058608059
2.5489721830017515,2.6649816849816848,0.27318681318681315,1.0258608058608059
2.553216059997794,1.539194139194139,1.5964102564102562,0.423076923076923
2.5554171050025616,1.539194139194139,1.5964102564102562,0.423076923076923
2.5563298769993708,1.539194139194139,1.5964102564102562,0.423076923076923
2.5572162050011684,1.539194139194139,1.5964102564102562,0.423076923076923
2.5587572020012885,1.539194139194139,1.5964102564102562,0.423076923076923
2.5630388380013756,1.539194139194139,1.5964102564102562,0.423076923076923
2.5646048439957667,1.539194139194139,1.5964102564102562,0.423076923076923
2.569620438000129,1.539194139194139,1.5964102564102562,0.423076923076923
2.5736661740011186,1.539194139194139,1.5964102564102562,0.423076923076923
2.576764331002778,1.539194139194139,1.5964102564102562,0.423076923076923
2.5783918669985724,2.6794871794871793,1.7890109890109889,1.166080586080586
2.582337492000079,2.6794871794871793,1.7890109890109889,1.166080586080586
2.586266145000991,2.6794871794871793,1.7890109890109889,1.166080586080586
2.5901431090023834,2.6794871794871793,1.7890109890109889,1.166080586080586
2.594225695997011,3.3,3.0775824175824176,0.9533333333333331
2.5973371459986083,2.7455677655677655,0.2111355311355311,0.39487179487179486
2.5989987069988274,2.7455677655677655,0.2111355311355311,0.39487179487179486
2.603113712000777,2.7455677655677655,0.2111355311355311,0.39487179487179486
2.605524942999182,2.6794871794871793,0.8066666666666666,1.4078388278388276
2.605727891997958,2.6794871794871793,0.8066666666666666,1.4078388278388276
2.6107325889970525,2.6794871794871793,0.8066666666666666,1.4078388278388276
2.614759980002418,2.6794871794871793,0.8066666666666666,1.4078388278388276
2.618618118998711,2.6794871794871793,0.8066666666666666,1.4078388278388276
2.6229239199965377,2.5086446886446883,2.320879120879121,0.7768498168498168
2.6246831259995815,2.5086446886446883,2.320879120879121,0.7768498168498168
2.6280139070004225,2.5086446886446883,2.320879120879121,0.7768498168498168
2.6288626460009255,2.5086446886446883,2.320879120879121,0.7768498168498168
2.630656777997501,2.5086446886446883,2.320879120879121,0.7768498168498168
2.6337497970016557,2.5086446886446883,2.320879120879121,0.7768498168498168
2.6353888689991436,2.5086446886446883,2.320879120879121,0.7768498168498168
2.6395753030010383,2.5086446886446883,2.320879120879121,0.7768498168498168
2.6420157899992773,2.5086446886446883,2.320879120879121,0.7768498168498168
2.6421739739962504,2.5086446886446883,2.320879120879121,0.7768498168498168
2.6469968759993208,2.5086446886446883,2.320879120879121,0.7768498168498168
2.6527243509990512,2.8382417582417583,0.23531135531135527,0.722051282051282
2.6528354639958707,2.8382417582417583,0.23531135531135527,0.722051282051282
2.6593266029958613,2.8382417582417583,0.23531135531135527,0.722051282051282
2.663124295999296,2.7165567765567764,1.145128205128205,0.26754578754578756
2.6683740059961565,2.697216117216117,2.44014652014652,1.706007326007326
2.671414750999247,2.697216117216117,2.44014652014652,1.706007326007326
2.673132119998627,2.4868864468864467,0.3312087912087912,0.38681318681318677
2.6769761510004173,2.4868864468864467,0.3312087912087912,0.38681318681318677
2.6814813550008694,2.4868864468864467,0.3312087912087912,0.38681318681318677
2.6823440520020085,2.4868864468864467,0.3312087912087912,0.38681318681318677
2.6839336909979465,2.4868864468864467,0.3312087912087912,0.38681318681318677
2.688435985997785,2.4868864468864467,0.3312087912087912,0.38681318681318677
2.688771971996175,2.4868864468864467,0.3312087912087912,0.38681318681318677
2.694083390000742,2.4868864468864467,0.3312087912087912,0.38681318681318677
2.69568667600106,2.4868864468864467,0.3312087912087912,0.38681318681318677
2.699542169000779,2.4868864468864467,0.3312087912087912,0.38681318681318677
2.704298058997665,2.4868864468864467,0.3312087912087912,0.38681318681318677
2.7044170610024594,2.4868864468864467,0.3312087912087912,0.38681318681318677
2.710459481997532,2.6617582417582417,0.28285714285714286,1.0008791208791208
2.7158931820013095,2.6617582417582417,0.28285714285714286,1.0008791208791208
2.717567218998738,1.8873260073260072,0.3731135531135531,0.2643223443223443
2.7213581949981744,1.8873260073260072,0.3731135531135531,0.2643223443223443
2.725846745997842,1.8873260073260072,0.3731135531135531,0.2643223443223443
2.7267504609990283,1.8873260073260072,0.3731135531135531,0.2643223443223443
2.72837315799552,1.8873260073260072,0.3731135531135531,0.2643223443223443
2.7322411709974403,1.8873260073260072,0.3731135531135531,0.2643223443223443
2.737525928998366,3.3,3.00989010989011,0.8936996336996336
2.7399495470017428,3.3,3.00989010989011,0.8936996336996336
2.740096198998799,3.3,3.00989010989011,0.8936996336996336
2.744662438002706,3.3,3.00989010989011,0.8936996336996336
2.7455033579972223,2.702051282051282,1.6931135531135528,1.6794139194139193
2.7470702509963303,2.702051282051282,1.6931135531135528,1.6794139194139193
2.75093738999567,2.702051282051282,1.6931135531135528,1.6794139194139193
2.761929677995795,3.3,0.19179487179487179,0.6446886446886446
2.7678525800001808,3.3,0.19179487179487179,0.6446886446886446
2.7790060749975964,3.3,0.19179487179487179,0.6446886446886446
2.789998899999773,3.3,0.19179487179487179,0.6446886446886446
2.800098785002774,3.098534798534798,2.253186813186813,0.4416117216117216
2.809185913996771,2.698021978021978,3.3,1.4013919413919413
2.814674973000365,2.702051282051282,2.4586813186813186,1.6504029304029304
2.8155170179961715,2.7455677655677655,0.27802197802197803,0.4013186813186813
2.8171920539971325,2.7455677655677655,0.27802197802197803,0.4013186813186813
2.8204785189955146,2.7455677655677655,0.27802197802197803,0.4013186813186813
2.8216709190019174,2.702051282051282,1.477142857142857,1.1016117216117214
2.821960476998356,2.702051282051282,1.477142857142857,1.1016117216117214
2.8287068839999847,2.702051282051282,1.477142857142857,1.1016117216117214
2.837051896000048,2.702051282051282,1.477142857142857,1.1016117216117214
2.8430792529979954,2.702051282051282,1.477142857142857,1.1016117216117214
2.847576549000223,2.702051282051282,1.477142857142857,1.1016117216117214
2.8584857500027283,2.702051282051282,1.477142857142857,1.1016117216117214
2.8645902419957565,2.702051282051282,1.477142857142857,1.1016117216117214
2.871430503000738,2.702051282051282,1.477142857142857,1.1016117216117214
2.8750138579998747,1.88007326007326,0.4512820512820513,0.20468864468864467
2.8751583690027473,1.88007326007326,0.4512820512820513,0.20468864468864467
2.879974080999091,2.7004395604395603,3.3,2.1991941391941388
2.887974541998119,2.655311355311355,0.958974358974359,0.4222710622710622
2.8924255640013143,2.7197802197802194,0.8252014652014652,1.3304761904761904
2.8928096939998795,2.7197802197802194,0.8252014652014652,1.3304761904761904
2.8976099119972787,2.7197802197802194,0.8252014652014652,1.3304761904761904
2.907327802000509,2.7197802197802194,0.8252014652014652,1.3304761904761904
2.914233632000105,2.7197802197802194,0.8252014652014652,1.3304761904761904
2.9219363879965385,2.7197802197802194,0.8252014652014652,1.3304761904761904
2.927628667996032,2.7197802197802194,0.8252014652014652,1.3304761904761904
2.9374749359994894,2.7197802197802194,0.8252014652014652,1.3304761904761904
2.9453303799964488,2.7197802197802194,0.8252014652014652,1.3304761904761904
2.952968981000595,2.7197802197802194,0.8252014652014652,1.3304761904761904
2.9599451670001145,2.655311355311355,0.19018315018315018,0.7446153846153846
2.9661504729956505,2.655311355311355,0.19018315018315018,0.7446153846153846
2.972063884997624,3.1904029304029304,0.2498168498168498,0.630989010989011
2.977667963998101,3.1904029304029304,0.2498168498168498,0.630989010989011
2.9885406749963295,2.7375091575091575,0.2079120879120879,0.31509157509157504
2.9933103500006837,2.7375091575091575,0.2079120879120879,0.31509157509157504
2.993419170001289,2.7375091575091575,0.2079120879120879,0.31509157509157504
2.998792346996197,2.7375091575091575,0.2079120879120879,0.31509157509157504
3.004023445995699,2.7375091575091575,0.2079120879120879,0.31509157509157504
3.0053621429979103,2.7004395604395603,1.4078388278388276,1.4070329670329669
3.0115046150021954,2.7004395604395603,1.4078388278388276,1.4070329670329669
3.0154483070000424,2.7004395604395603,1.4078388278388276,1.4070329670329669
3.023178112001915,2.7004395604395603,1.4078388278388276,1.4070329670329669
3.026431985999807,2.718974358974359,1.2974358974358973,1.0846886446886446
3.027368151000701,2.718974358974359,1.2974358974358973,1.0846886446886446
3.0283525389968418,2.718974358974359,1.2974358974358973,1.0846886446886446
3.0299544649969903,2.718974358974359,1.2974358974358973,1.0846886446886446
3.0344695199964917,2.718974358974359,1.2974358974358973,1.0846886446886446
3.0349038259955705,2.718974358974359,1.2974358974358973,1.0846886446886446
3.039579901997058,2.718974358974359,1.2974358974358973,1.0846886446886446
3.0443892080002115,2.718974358974359,1.2974358974358973,1.0846886446886446
3.0498418400020455,2.723003663003663,0.8912820512820512,1.5174358974358972
3.0517398809970473,2.723003663003663,0.8912820512820512,1.5174358974358972
3.0544307439995464,2.723003663003663,0.8912820512820512,1.5174358974358972
3.0598426930009737,2.723003663003663,0.8912820512820512,1.5174358974358972
3.0600666609971086,2.723003663003663,0.8912820512820512,1.5174358974358972
3.068913559000066,2.723003663003663,0.8912820512820512,1.5174358974358972
3.075380620000942,2.723003663003663,0.8912820512820512,1.5174358974358972
3.0799204029972316,2.723003663003663,0.8912820512820512,1.5174358974358972
3.080167221996817,2.723003663003663,0.8912820512820512,1.5174358974358972
3.089200570997491,2.723003663003663,0.8912820512820512,1.5174358974358972
3.093111702997703,2.723003663003663,0.8912820512820512,1.5174358974358972
3.0969609820022015,2.723003663003663,0.8912820512820512,1.5174358974358972
3.1035366959986277,2.702051282051282,1.514212454212454,1.4916483516483516
3.1091711030021543,2.7004395604395603,1.5383882783882783,1.3256410256410256
3.114567636999709,2.7004395604395603,1.5383882783882783,1.3256410256410256
3.116469355998561,2.7004395604395603,1.5383882783882783,1.3256410256410256
3.1186783770026523,2.7004395604395603,1.5383882783882783,1.3256410256410256
3.1190301999959047,2.7004395604395603,1.5383882783882783,1.3256410256410256
3.124121542998182,2.7004395604395603,1.5383882783882783,1.3256410256410256
3.1272631539977738,2.702857142857143,3.067912087912088,1.818021978021978
3.128141275999951,2.702857142857143,3.067912087912088,1.818021978021978
3.1297777559957467,2.702857142857143,3.067912087912088,1.818021978021978
3.1337288939976133,2.702857142857143,3.067912087912088,1.818021978021978
3.13867990700237,2.702857142857143,3.067912087912088,1.818021978021978
3.143477685000107,2.2233699633699633,1.692307692307692,0.614065934065934
3.1490406439988874,2.2233699633699633,1.692307692307692,0.614065934065934
3.1502705120001337,2.2233699633699633,1.692307692307692,0.614065934065934
3.1505450010008644,2.2233699633699633,1.692307692307692,0.614065934065934
3.156577173002006,2.2233699633699633,1.692307692307692,0.614065934065934
3.160601363997557,2.2233699633699633,1.692307692307692,0.614065934065934
3.164016693001031,2.2233699633699633,1.692307692307692,0.614065934065934
3.1643349299993133,2.2233699633699633,1.692307692307692,0.614065934065934
3.1730599090005853,2.2233699633699633,1.692307692307692,0.614065934065934
3.1783806059975177,2.2233699633699633,1.692307692307692,0.614065934065934
3.1794089679970057,2.701245421245421,3.051794871794872,1.9187545787545788
3.1803040180020616,2.701245421245421,3.051794871794872,1.9187545787545788
3.1812783779969322,2.701245421245421,3.051794871794872,1.9187545787545788
3.182215119995817,2.701245421245421,3.051794871794872,1.9187545787545788
3.1855951210018247,2.701245421245421,3.051794871794872,1.9187545787545788
3.1858706689963583,2.701245421245421,3.051794871794872,1.9187545787545788
3.1905815360005363,2.701245421245421,3.051794871794872,1.9187545787545788
3.196527779000462,2.701245421245421,3.051794871794872,1.9187545787545788
3.2042829689962673,2.701245421245421,3.051794871794872,1.9187545787545788
3.208561692998046,2.701245421245421,3.051794871794872,1.9187545787545788
3.2102038559969515,2.701245421245421,3.051794871794872,1.9187545787545788
3.2134572569993907,2.701245421245421,3.051794871794872,1.9187545787545788
3.2144101550002233,2.701245421245421,3.051794871794872,1.9187545787545788
3.2154125109955203,2.701245421245421,3.051794871794872,1.9187545787545788
3.216630360002455,2.6956043956043954,2.9397802197802196,1.763223443223443
3.216999468000722,2.6956043956043954,2.9397802197802196,1.763223443223443
3.223344685000484,2.6956043956043954,2.9397802197802196,1.763223443223443
3.2272946079974645,2.6956043956043954,2.9397802197802196,1.763223443223443
3.231321968996781,3.228278388278388,0.1821245421245421,0.5898901098901098
3.2357731020019855,3.228278388278388,0.1821245421245421,0.5898901098901098
3.235994764996576,3.228278388278388,0.1821245421245421,0.5898901098901098
3.2414325659992755,3.228278388278388,0.1821245421245421,0.5898901098901098
3.243183582999336,3.228278388278388,0.1821245421245421,0.5898901098901098
3.24628980000125,3.228278388278388,0.1821245421245421,0.5898901098901098
3.248749655998836,2.6714285714285713,0.6664468864468864,1.3232234432234433
3.2488629309955286,2.6714285714285713,0.6664468864468864,1.3232234432234433
3.2561679810023634,2.6714285714285713,0.6664468864468864,1.3232234432234433
3.2602686259997427,0.27802197802197803,1.1693040293040293,0.08703296703296703
3.263435663000564,0.27802197802197803,1.1693040293040293,0.08703296703296703
3.2651589079978294,0.27802197802197803,1.1693040293040293,0.08703296703296703
3.270946136995917,0.27802197802197803,1.1693040293040293,0.08703296703296703
3.2794247119963984,3.3,2.767326007326007,0.834065934065934
3.2854441689996747,3.3,2.767326007326007,0.834065934065934
3.291215186000045,2.7004395604395603,1.3546520146520145,1.6665201465201465
3.2995102200002293,2.7004395604395603,1.3546520146520145,1.6665201465201465
3.3088894829998026,2.7004395604395603,2.7745787545787546,1.7479120879120877
3.314465420997294,2.7004395604395603,2.7745787545787546,1.7479120879120877
3.3147878679956193,2.7004395604395603,2.7745787545787546,1.7479120879120877
3.322816102998331,2.7004395604395603,2.7745787545787546,1.7479120879120877
3.328094846998283,2.7004395604395603,2.7745787545787546,1.7479120879120877
3.3297886159998598,2.7004395604395603,2.7745787545787546,1.7479120879120877
3.3331113460008055,2.7004395604395603,2.7745787545787546,1.7479120879120877
3.3336420350024127,2.7004395604395603,2.7745787545787546,1.7479120879120877
3.340726545000507,2.7004395604395603,2.7745787545787546,1.7479120879120877
3.3450495139986742,3.3,0.946080586080586,0.361025641025641
3.3463697229963145,2.702051282051282,1.4336263736263737,1.6109157509157508
3.356245818999014,2.702051282051282,1.4336263736263737,1.6109157509157508
3.3616677719983272,3.3,0.1942124542124542,0.7937728937728937
3.363413685998239,2.697216117216117,3.111428571428571,1.8599267399267398
3.366919597996457,2.697216117216117,3.111428571428571,1.8599267399267398
3.3671344609974767,2.697216117216117,3.111428571428571,1.8599267399267398
3.373173300999042,2.697216117216117,3.111428571428571,1.8599267399267398
3.3770747529997607,2.697216117216117,3.111428571428571,1.8599267399267398
3.38224227399769,2.697216117216117,3.111428571428571,1.8599267399267398
3.38658845199825,2.697216117216117,3.111428571428571,1.8599267399267398
3.3870188299988513,2.697216117216117,3.111428571428571,1.8599267399267398
3.392854828001873,2.697216117216117,3.111428571428571,1.8599267399267398
3.4010417589961435,2.697216117216117,3.111428571428571,1.8599267399267398
3.407542734996241,2.6964102564102563,2.7987545787545787,2.5046153846153842
3.413956224998401,2.6964102564102563,2.7987545787545787,2.5046153846153842
3.421029147997615,2.6964102564102563,2.7987545787545787,2.5046153846153842
3.4273093169977074,2.6964102564102563,2.7987545787545787,2.5046153846153842
3.433087830999284,2.6964102564102563,2.7987545787545787,2.5046153846153842
3.4423818919967744,2.6964102564102563,2.7987545787545787,2.5046153846153842
3.447203370000352,2.6964102564102563,2.7987545787545787,2.5046153846153842
3.45726403700246,2.6964102564102563,2.7987545787545787,2.5046153846153842
3.4628647759964224,2.6964102564102563,2.7987545787545787,2.5046153846153842
3.4630320169962943,2.6964102564102563,2.7987545787545787,2.5046153846153842
3.4707301029993687,2.6964102564102563,2.7987545787545787,2.5046153846153842
3.4749714439967647,2.6964102564102563,2.7987545787545787,2.5046153846153842
3.4766285069999867,2.6964102564102563,2.7987545787545787,2.5046153846153842
3.4805911110015586,2.6964102564102563,2.7987545787545787,2.5046153846153842
3.4856343189967447,2.6649816849816848,1.2023443223443222,0.8904761904761904
3.4890133110020543,2.6649816849816848,1.2023443223443222,0.8904761904761904
3.4892151929961983,2.6649816849816848,1.2023443223443222,0.8904761904761904
3.4945445459961775,2.6649816849816848,1.2023443223443222,0.8904761904761904
3.496269855997525,3.3,3.3,0.9476923076923076
3.499331439001253,3.3,3.3,0.9476923076923076
3.5028173550017527,3.3,3.3,0.9476923076923076
3.5090365349969943,3.3,3.3,0.9476923076923076
3.512973331999092,3.3,3.3,0.9476923076923076
3.5178647310021915,3.3,3.3,0.9476923076923076
3.5242644579993794,3.3,3.3,0.9476923076923076
3.528553042000567,3.3,3.3,0.9476923076923076
3.530849645998387,3.3,3.3,0.9476923076923076
3.5310558950004634,3.3,3.3,0.9476923076923076
3.538349244998244,3.3,3.3,0.9476923076923076
3.5439595650022966,3.3,3.3,0.9476923076923076
3.5540639920000103,2.701245421245421,2.589230769230769,1.7608058608058608
3.562024614002439,2.701245421245421,2.589230769230769,1.7608058608058608
3.570255011996778,2.6996336996336994,3.106593406593406,2.104102564102564
3.5751661760004936,2.6996336996336994,3.106593406593406,2.104102564102564
3.579843248000543,2.7004395604395603,2.8213186813186812,1.6850549450549448
3.5883931029966334,2.7004395604395603,2.8213186813186812,1.6850549450549448
3.5940361640023184,2.7004395604395603,2.8213186813186812,1.6850549450549448
3.5942535329959355,2.7004395604395603,2.8213186813186812,1.6850549450549448
3.5989544149997528,2.7004395604395603,2.8213186813186812,1.6850549450549448
3.5991357320017414,2.7004395604395603,2.8213186813186812,1.6850549450549448
3.604991970998526,2.7004395604395603,2.8213186813186812,1.6850549450549448
3.6106993009962025,2.718168498168498,1.2378021978021978,1.7890109890109889
3.6109385780000594,3.3,0.2328937728937729,0.6704761904761904
3.616844743999536,1.9397069597069596,1.7180952380952381,0.2079120879120879
3.625697092997143,3.3,0.45369963369963373,0.47706959706959706
3.634411426995939,3.3,0.45369963369963373,0.47706959706959706
3.6409482809976907,3.3,0.45369963369963373,0.47706959706959706
3.645925126998918,2.7246153846153844,2.8745054945054944,1.7801465201465199
3.6493028010008857,2.7246153846153844,2.8745054945054944,1.7801465201465199
3.649533978998079,3.3,0.2095238095238095,0.6454945054945055
3.656459696998354,3.3,0.2095238095238095,0.6454945054945055
3.6603318190027494,3.09047619047619,0.35135531135531134,0.3852014652014652
3.6649761730004684,3.09047619047619,0.35135531135531134,0.3852014652014652
3.6652353449971997,3.09047619047619,0.35135531135531134,0.3852014652014652
3.6747144389955793,3.09047619047619,0.35135531135531134,0.3852014652014652
3.6806137660023523,3.09047619047619,0.35135531135531134,0.3852014652014652
3.6908288769991486,3.09047619047619,0.35135531135531134,0.3852014652014652
3.6972089229966514,3.09047619047619,0.35135531135531134,0.3852014652014652
3.703334655998333,3.09047619047619,0.35135531135531134,0.3852014652014652
3.710154854998109,3.09047619047619,0.35135531135531134,0.3852014652014652
3.7137656369959586,2.655311355311355,0.311062271062271,1.0057142857142858
3.713911303995701,2.655311355311355,0.311062271062271,1.0057142857142858
3.7213849679974373,2.655311355311355,0.311062271062271,1.0057142857142858
3.7253892489970895,2.655311355311355,0.311062271062271,1.0057142857142858
3.728551439999137,2.655311355311355,0.311062271062271,1.0057142857142858
3.7308876480019535,2.655311355311355,0.311062271062271,1.0057142857142858
3.7310676039996906,2.655311355311355,0.311062271062271,1.0057142857142858
3.7379427229971043,2.655311355311355,0.311062271062271,1.0057142857142858
3.741968715999974,2.655311355311355,0.311062271062271,1.0057142857142858
3.7454599019984016,2.655311355311355,0.311062271062271,1.0057142857142858
3.745618970002397,2.655311355311355,0.311062271062271,1.0057142857142858
3.7511000329977833,2.655311355311355,0.311062271062271,1.0057142857142858
3.7525751150024007,1.1918681318681317,1.3046886446886445,0.38681318681318677
3.757033649002551,2.5054212454212452,0.2989743589743589,0.4456410256410256
3.7574029339957633,2.7004395604395603,2.868058608058608,2.461098901098901
3.7627314679994015,2.702051282051282,2.032380952380952,2.1589010989010986
3.7652853809995577,2.725421245421245,1.3208058608058608,1.56014652014652
3.7736482030013576,2.725421245421245,1.3208058608058608,1.56014652014652
3.7783622159986407,2.725421245421245,1.3208058608058608,1.56014652014652
3.786541394001688,2.725421245421245,1.3208058608058608,1.56014652014652
3.790574298000138,2.725421245421245,1.3208058608058608,1.56014652014652
3.7946431829986977,2.725421245421245,1.3208058608058608,1.56014652014652
3.7970654140008264,2.725421245421245,1.3208058608058608,1.56014652014652
3.797257892001653,2.725421245421245,1.3208058608058608,1.56014652014652
3.8039954159976332,2.725421245421245,1.3208058608058608,1.56014652014652
3.810026867999113,2.725421245421245,1.3208058608058608,1.56014652014652
3.8142558879990247,2.725421245421245,1.3208058608058608,1.56014652014652
3.8160493739997037,2.725421245421245,1.3208058608058608,1.56014652014652
3.821215514995856,2.725421245421245,1.3208058608058608,1.56014652014652
3.8222635889978847,2.725421245421245,1.3208058608058608,1.56014652014652
3.823273000998597,2.725421245421245,1.3208058608058608,1.56014652014652
3.823628740996355,2.725421245421245,1.3208058608058608,1.56014652014652
3.8283857249989524,2.725421245421245,1.3208058608058608,1.56014652014652
3.83538701699581,2.725421245421245,1.3208058608058608,1.56014652014652
3.8410338210014743,2.725421245421245,1.3208058608058608,1.56014652014652
3.846612376997655,2.725421245421245,1.3208058608058608,1.56014652014652
3.847478655996383,2.673040293040293,0.8574358974358974,0.9928205128205128
3.8491221309959656,2.673040293040293,0.8574358974358974,0.9928205128205128
3.8541352009997354,2.673040293040293,0.8574358974358974,0.9928205128205128
3.857346069002233,3.3,0.32556776556776557,0.4351648351648352
3.85912982699665,2.7004395604395603,3.1936263736263735,2.347472527472527
3.862364813001477,2.7004395604395603,3.1936263736263735,2.347472527472527
3.863383245996374,2.7004395604395603,2.481245421245421,1.7189010989010989
3.864241024995863,2.7004395604395603,2.481245421245421,1.7189010989010989
3.8659718060007435,2.7004395604395603,2.481245421245421,1.7189010989010989
3.8714967499981867,2.655311355311355,0.43435897435897436,0.7293040293040293
3.8768953069957206,2.655311355311355,0.43435897435897436,0.7293040293040293
3.8792568979988573,2.655311355311355,0.43435897435897436,0.7293040293040293
3.8794271200022195,2.655311355311355,0.43435897435897436,0.7293040293040293
3.8845348480026587,2.655311355311355,0.43435897435897436,0.7293040293040293
3.889194311996107,2.655311355311355,0.43435897435897436,0.7293040293040293
3.894682935999299,2.655311355311355,0.43435897435897436,0.7293040293040293
3.896410068999103,3.3,0.4504761904761904,0.4722344322344322
3.8988666410004953,3.3,0.4504761904761904,0.4722344322344322
3.899143834001734,3.3,0.4504761904761904,0.4722344322344322
3.9060522989966557,3.3,0.4504761904761904,0.4722344322344322
3.91001287799736,3.3,0.4504761904761904,0.4722344322344322
3.9139301749964943,3.3,0.4504761904761904,0.4722344322344322
3.9228864350006916,3.3,0.4504761904761904,0.4722344322344322
3.927594071996282,3.3,0.4504761904761904,0.4722344322344322
3.933026537000842,3.3,0.4504761904761904,0.4722344322344322
3.9373061820006114,3.3,0.4504761904761904,0.4722344322344322
3.9376455189994886,3.3,0.4504761904761904,0.4722344322344322
3.949608041002648,3.3,0.4504761904761904,0.4722344322344322
3.9651531540002907,3.3,0.4504761904761904,0.4722344322344322
3.9657113369976287,3.3,0.4504761904761904,0.4722344322344322
3.973080140000093,2.701245421245421,1.9316483516483516,1.7559706959706958
3.9812543640000513,2.701245421245421,1.9316483516483516,1.7559706959706958
3.9906393729979754,2.702051282051282,1.174139194139194,1.456190476190476
3.9973252580020926,2.702051282051282,1.174139194139194,1.456190476190476
4.002859672997147,2.9760439560439558,0.3449084249084249,0.35216117216117215
4.003324762001284,2.9760439560439558,0.3449084249084249,0.35216117216117215
4.011289591995592,2.9760439560439558,0.3449084249084249,0.35216117216117215
4.020167919996311,2.66014652014652,0.20468864468864467,0.9146520146520146
4.025068037000892,2.697216117216117,2.889010989010989,2.44981684981685
4.029707337998843,2.7238095238095235,1.7688644688644688,1.6890842490842488
4.037411842997244,2.7238095238095235,1.7688644688644688,1.6890842490842488
4.041920149000362,2.698021978021978,1.896190476190476,2.1234432234432234
4.042174930997135,2.698021978021978,1.896190476190476,2.1234432234432234
4.0481475869964925,2.698021978021978,1.896190476190476,2.1234432234432234
4.05542358099774,2.698021978021978,1.896190476190476,2.1234432234432234
4.059960493999824,2.7004395604395603,3.2838827838827838,2.117802197802198
4.060972542996751,2.7004395604395603,3.2838827838827838,2.117802197802198
4.061941284999193,2.7004395604395603,3.2838827838827838,2.117802197802198
4.062898270996811,2.7004395604395603,3.2838827838827838,2.117802197802198
4.063885081995977,2.7004395604395603,3.2838827838827838,2.117802197802198
4.06490672200016,2.7004395604395603,3.2838827838827838,2.117802197802198
4.065244705001533,2.7004395604395603,3.2838827838827838,2.117802197802198
4.073031255000387,2.7004395604395603,3.2838827838827838,2.117802197802198
4.078953912001452,2.681098901098901,0.190989010989011,0.7357509157509158
4.082417557001463,2.681098901098901,0.190989010989011,0.7357509157509158
4.082747088999895,2.681098901098901,0.190989010989011,0.7357509157509158
4.089204974996392,2.681098901098901,0.190989010989011,0.7357509157509158
4.093333669996355,2.681098901098901,0.190989010989011,0.7357509157509158
4.095803126001556,2.681098901098901,0.190989010989011,0.7357509157509158
4.095917419996113,2.681098901098901,0.190989010989011,0.7357509157509158
4.10403051799949,2.681098901098901,0.190989010989011,0.7357509157509158
4.108413105001091,2.681098901098901,0.190989010989011,0.7357509157509158
4.108831667996128,2.681098901098901,0.190989010989011,0.7357509157509158
4.1136333260001265,2.681098901098901,0.190989010989011,0.7357509157509158
4.113808509995579,2.8986813186813185,0.1942124542124542,0.3932600732600733
4.12128374799795,2.8986813186813185,0.1942124542124542,0.3932600732600733
4.126763578002283,2.8986813186813185,0.1942124542124542,0.3932600732600733
4.128285079998022,2.6585347985347987,0.3102564102564102,1.016190476190476
4.135092317999806,2.6585347985347987,0.3102564102564102,1.016190476190476
4.138926503997936,2.763296703296703,1.9783882783882782,0.36747252747252745
4.144751346000703,2.763296703296703,1.9783882783882782,0.36747252747252745
4.154420607999782,3.0356776556776555,0.44080586080586076,0.8485714285714284
4.1585386200022185,3.0356776556776555,0.44080586080586076,0.8485714285714284
4.161683318001451,3.0356776556776555,0.44080586080586076,0.8485714285714284
4.164091630002076,3.0356776556776555,0.44080586080586076,0.8485714285714284
4.164311964996159,3.0356776556776555,0.44080586080586076,0.8485714285714284
4.170856691998779,3.0356776556776555,0.44080586080586076,0.8485714285714284
4.174286970999674,3.0356776556776555,0.44080586080586076,0.8485714285714284
4.17469120700116,2.7375091575091575,0.2369230769230769,0.3892307692307692
4.179716241000278,2.7375091575091575,0.2369230769230769,0.3892307692307692
4.184038054001576,2.7375091575091575,0.2369230769230769,0.3892307692307692
4.185287693995633,2.7375091575091575,0.2369230769230769,0.3892307692307692
4.185429259996454,2.7375091575091575,0.2369230769230769,0.3892307692307692
4.192325149997487,2.7375091575091575,0.2369230769230769,0.3892307692307692
4.197105908002413,2.8213186813186812,2.125054945054945,0.5149450549450549
4.19725234300131,2.8213186813186812,2.125054945054945,0.5149450549450549
4.2051796989981085,2.8213186813186812,2.125054945054945,0.5149450549450549
4.209541890995752,2.8213186813186812,2.125054945054945,0.5149450549450549
4.21046231299988,2.8213186813186812,2.125054945054945,0.5149450549450549
4.211424476001412,2.8213186813186812,2.125054945054945,0.5149450549450549
4.213053036997735,2.8213186813186812,2.125054945054945,0.5149450549450549
4.217877942995983,2.8213186813186812,2.125054945054945,0.5149450549450549
4.218302429995674,2.697216117216117,2.7334798534798534,2.4127472527472524
4.222033334997832,2.697216117216117,2.7334798534798534,2.4127472527472524
4.226771053996345,2.697216117216117,2.7334798534798534,2.4127472527472524
4.2324592680015485,2.697216117216117,2.7334798534798534,2.4127472527472524
4.232718737999676,2.697216117216117,2.7334798534798534,2.4127472527472524
4.239953272997809,2.697216117216117,2.7334798534798534,2.4127472527472524
4.2439680980023695,2.697216117216117,2.7334798534798534,2.4127472527472524
4.247140694998961,2.697216117216117,2.7334798534798534,2.4127472527472524
4.249265615995682,3.3,0.24578754578754577,0.5528205128205127
4.249813652000739,3.3,0.24578754578754577,0.5528205128205127
4.2563228819999495,3.3,0.24578754578754577,0.5528205128205127
4.260358785002609,3.3,0.24578754578754577,0.5528205128205127
4.2635305540025,2.6964102564102563,2.5787545787545785,2.5062271062271058
4.265156194996962,2.6964102564102563,2.5787545787545785,2.5062271062271058
4.270935635002388,2.655311355311355,0.23047619047619047,0.9162637362637363
4.2767388979991665,2.6665934065934067,0.2224175824175824,0.8115018315018314
4.2822646490021725,2.6665934065934067,0.2224175824175824,0.8115018315018314
4.283216673000425,2.6665934065934067,0.2224175824175824,0.8115018315018314
4.284338942998147,2.6665934065934067,0.2224175824175824,0.8115018315018314
4.284644758001377,2.6665934065934067,0.2224175824175824,0.8115018315018314
4.293788028997369,2.6665934065934067,0.2224175824175824,0.8115018315018314
4.303165586999967,2.6665934065934067,0.2224175824175824,0.8115018315018314
4.3086534649992245,2.6665934065934067,0.2224175824175824,0.8115018315018314
4.310288462998869,2.6665934065934067,0.2224175824175824,0.8115018315018314
4.314228251001623,3.2734065934065932,2.771355311355311,0.8082783882783882
4.320436975998746,3.2734065934065932,2.771355311355311,0.8082783882783882
4.325607086000673,3.2734065934065932,2.771355311355311,0.8082783882783882
4.3282149090009625,3.2734065934065932,2.771355311355311,0.8082783882783882
4.334098952000204,3.2734065934065932,2.771355311355311,0.8082783882783882
4.343924941997102,1.7463003663003662,1.5641758241758241,0.24578754578754577
4.3530765140021686,2.725421245421245,3.055018315018315,1.9469597069597069
4.35777864800184,2.6746520146520147,0.32717948717948714,0.8799999999999999
4.3632605009988765,2.723003663003663,1.3747985347985348,1.0983882783882783
4.364908552997804,2.7004395604395603,3.0614652014652015,1.792234432234432
4.371105186997738,2.7004395604395603,3.0614652014652015,1.792234432234432
4.374828444000741,2.7004395604395603,3.0614652014652015,1.792234432234432
4.378783927997574,2.7004395604395603,3.0614652014652015,1.792234432234432
4.384059055002581,2.7004395604395603,3.0614652014652015,1.792234432234432
4.38698378099798,2.7004395604395603,3.0614652014652015,1.792234432234432
4.389911166996171,2.7004395604395603,3.0614652014652015,1.792234432234432
4.392466384000727,2.7004395604395603,3.0614652014652015,1.792234432234432
4.3983124070000486,2.7004395604395603,3.0614652014652015,1.792234432234432
4.4094233110008645,2.7004395604395603,3.0614652014652015,1.792234432234432
4.41567112699704,2.7004395604395603,3.0614652014652015,1.792234432234432
4.422476300998824,2.7004395604395603,3.0614652014652015,1.792234432234432
4.428571329997794,2.7004395604395603,3.0614652014652015,1.792234432234432
4.433107035998546,2.7004395604395603,3.0614652014652015,1.792234432234432
4.444824952995987,2.7004395604395603,3.0614652014652015,1.792234432234432
4.4544854819978354,2.7004395604395603,3.0614652014652015,1.792234432234432
4.4617878810022376,2.6794871794871793,0.3997069597069597,1.1934798534798534
4.469033027002297,2.6794871794871793,0.3997069597069597,1.1934798534798534
4.474491014996602,2.6794871794871793,0.3997069597069597,1.1934798534798534
4.474787348997779,2.6794871794871793,0.3997069597069597,1.1934798534798534
4.480089819997374,2.6794871794871793,0.3997069597069597,1.1934798534798534
4.4816900020014145,2.6794871794871793,0.3997069597069597,1.1934798534798534
4.4913123340011225,2.6794871794871793,0.3997069597069597,1.1934798534798534
4.499309077997168,2.6794871794871793,0.3997069597069597,1.1934798534798534
4.508505580997735,2.6794871794871793,0.3997069597069597,1.1934798534798534
4.51443420999567,2.6794871794871793,0.3997069597069597,1.1934798534798534
4.520864049998636,2.6794871794871793,0.3997069597069597,1.1934798534798534
4.524124907999067,2.6794871794871793,0.3997069597069597,1.1934798534798534
4.525097628997173,2.6794871794871793,0.3997069597069597,1.1934798534798534
4.526079778996063,2.6794871794871793,0.3997069597069597,1.1934798534798534
4.527004140996723,2.6794871794871793,0.3997069597069597,1.1934798534798534
4.528703242001939,2.6794871794871793,0.3997069597069597,1.1934798534798534
4.532643434002239,2.6682051282051282,0.381978021978022,1.1008058608058606
4.539619267001399,2.7826373626373626,0.2377289377289377,0.386007326007326
4.54303321900079,2.7826373626373626,0.2377289377289377,0.386007326007326
4.543294917995809,2.7826373626373626,0.2377289377289377,0.386007326007326
4.547987906000344,2.7826373626373626,0.2377289377289377,0.386007326007326
4.5481204530005925,2.7826373626373626,0.2377289377289377,0.386007326007326
4.555520747002447,2.7826373626373626,0.2377289377289377,0.386007326007326
4.560982998998952,2.7826373626373626,0.2377289377289377,0.386007326007326
4.561317016996327,2.6964102564102563,1.4473260073260072,1.46021978021978
4.568815259997791,2.6964102564102563,1.4473260073260072,1.46021978021978
4.573263190999569,2.6964102564102563,1.4473260073260072,1.46021978021978
4.573488139001711,2.6964102564102563,1.4473260073260072,1.46021978021978
4.5791007000007085,2.6964102564102563,1.4473260073260072,1.46021978021978
4.57941405299789,2.6964102564102563,1.4473260073260072,1.46021978021978
4.585763470997335,2.6964102564102563,1.4473260073260072,1.46021978021978
4.589685197999643,2.6875457875457873,0.49560439560439556,1.307106227106227
4.59377475999645,2.6875457875457873,0.49560439560439556,1.307106227106227
4.5961332639999455,2.6875457875457873,0.49560439560439556,1.307106227106227
4.596332039000117,2.6875457875457873,0.49560439560439556,1.307106227106227
4.603778776996478,2.6875457875457873,0.49560439560439556,1.307106227106227
4.607874674999039,2.6875457875457873,0.49560439560439556,1.307106227106227
4.609571606000827,2.6875457875457873,0.49560439560439556,1.307106227106227
4.614047933995607,2.6875457875457873,0.49560439560439556,1.307106227106227
4.614281809001113,2.6875457875457873,0.49560439560439556,1.307106227106227
4.623862439002551,2.6875457875457873,0.49560439560439556,1.307106227106227
4.629561666995869,2.6875457875457873,0.49560439560439556,1.307106227106227
4.630875376002223,2.6875457875457873,0.49560439560439556,1.307106227106227
4.641331943996192,2.6875457875457873,0.49560439560439556,1.307106227106227
4.650465911996434,2.698827838827839,3.1904029304029304,2.107326007326007
4.657738715002779,2.698827838827839,3.1904029304029304,2.107326007326007
4.661958808996133,2.698827838827839,3.1904029304029304,2.107326007326007
4.664413154001522,2.698827838827839,3.1904029304029304,2.107326007326007
4.6728718529993785,2.698827838827839,3.1904029304029304,2.107326007326007
4.67780214099912,2.698827838827839,3.1904029304029304,2.107326007326007
4.683066862999112,3.3,0.47465201465201456,0.49802197802197795
4.6875384300001315,3.3,0.47465201465201456,0.49802197802197795
4.6933612229986466,3.3,0.47465201465201456,0.49802197802197795
4.6934796499990625,3.3,0.47465201465201456,0.49802197802197795
4.699091005997616,3.3,0.47465201465201456,0.49802197802197795
4.700705000999733,3.3,0.47465201465201456,0.49802197802197795
4.706386302001192,3.3,0.47465201465201456,0.49802197802197795
4.706502838998858,2.685934065934066,1.0693772893772893,1.4030036630036629
4.711883677002334,2.685934065934066,1.0693772893772893,1.4030036630036629
4.713613314997929,2.685934065934066,1.0693772893772893,1.4030036630036629
4.7180389990026015,2.685934065934066,1.0693772893772893,1.4030036630036629
4.7183592049987055,2.6964102564102563,1.2079853479853477,0.921098901098901
4.724264006996236,2.6964102564102563,1.2079853479853477,0.921098901098901
4.728179881996766,2.6964102564102563,1.2079853479853477,0.921098901098901
4.733412508001493,2.6964102564102563,1.2079853479853477,0.921098901098901
4.738253552997776,2.6964102564102563,1.2079853479853477,0.921098901098901
4.745530913998664,2.6964102564102563,1.2079853479853477,0.921098901098901
4.74948067299556,2.6964102564102563,1.2079853479853477,0.921098901098901
4.754144222999457,2.6964102564102563,1.2079853479853477,0.921098901098901
4.760638127998391,1.32,0.4819047619047619,0.2627106227106227
4.76557678199606,1.32,0.4819047619047619,0.2627106227106227
4.771499260001292,2.717362637362637,2.5352380952380953,1.7116483516483516
4.774684878997505,2.6714285714285713,0.21677655677655677,0.9992673992673992
4.776340046002588,2.6714285714285713,0.21677655677655677,0.9992673992673992
4.779493089001335,2.6714285714285713,0.21677655677655677,0.9992673992673992
4.781794089998584,2.6714285714285713,0.21677655677655677,0.9992673992673992
4.78204440799891,2.6714285714285713,0.21677655677655677,0.9992673992673992
4.788812735998363,2.7004395604395603,2.561025641025641,1.6649084249084247
4.792754775000503,2.004175824175824,0.25223443223443226,0.39487179487179486
4.7971162920002826,2.004175824175824,0.25223443223443226,0.39487179487179486
4.798013740000897,2.004175824175824,0.25223443223443226,0.39487179487179486
4.8007003019956755,2.004175824175824,0.25223443223443226,0.39487179487179486
4.806227733999549,3.3,0.9484981684981684,0.36344322344322344
4.806381135000265,3.3,0.9484981684981684,0.36344322344322344
4.811177235998912,3.3,0.9484981684981684,0.36344322344322344
4.81763962200057,0.7059340659340658,0.9436630036630036,0.2216117216117216
4.8218413069989765,0.7059340659340658,0.9436630036630036,0.2216117216117216
4.822743375996652,0.7059340659340658,0.9436630036630036,0.2216117216117216
4.824430583001231,0.7059340659340658,0.9436630036630036,0.2216117216117216
4.827669476995652,0.7059340659340658,0.9436630036630036,0.2216117216117216
4.829264619998867,3.253260073260073,0.21838827838827837,0.523003663003663
4.836595255001157,3.253260073260073,0.21838827838827837,0.523003663003663
4.842893982997339,3.253260073260073,0.21838827838827837,0.523003663003663
4.848826645997178,3.253260073260073,0.21838827838827837,0.523003663003663
4.856139071001962,3.253260073260073,0.21838827838827837,0.523003663003663
4.861259995996079,3.253260073260073,0.21838827838827837,0.523003663003663
4.865161242996692,3.253260073260073,0.21838827838827837,0.523003663003663
4.868637644998671,3.253260073260073,0.21838827838827837,0.523003663003663
4.878541074998793,2.0573626373626372,0.2796336996336996,0.28124542124542123
4.88720049100084,2.701245421245421,2.8189010989010987,2.445787545787546
4.891271902000881,2.7004395604395603,1.6197802197802196,1.6866666666666665
4.893618590002006,2.7004395604395603,1.6197802197802196,1.6866666666666665
4.893963467999129,2.7004395604395603,1.6197802197802196,1.6866666666666665
4.900946515001124,2.7004395604395603,1.6197802197802196,1.6866666666666665
4.906405166002514,2.7004395604395603,1.6197802197802196,1.6866666666666665
4.9066318519981,2.7004395604395603,1.6197802197802196,1.6866666666666665
4.911313930999313,2.7004395604395603,1.6197802197802196,1.6866666666666665
4.911465696997766,2.7004395604395603,1.6197802197802196,1.6866666666666665
4.91919332100224,2.7004395604395603,1.6197802197802196,1.6866666666666665
4.923798538002302,2.7004395604395603,1.6197802197802196,1.6866666666666665
4.924042639999243,3.3,3.034065934065934,1.0637362637362637
4.928935759002343,3.3,3.034065934065934,1.0637362637362637
4.936468481995689,3.3,3.034065934065934,1.0637362637362637
4.9405589980015066,2.1798534798534797,0.3344322344322344,0.31186813186813184
4.9443601699967985,2.1798534798534797,0.3344322344322344,0.31186813186813184
4.94919220200245,2.1798534798534797,0.3344322344322344,0.31186813186813184
4.955684155000199,2.1798534798534797,0.3344322344322344,0.31186813186813184
4.959873793995939,3.3,2.8430769230769233,0.917069597069597
4.962999092997052,3.3,2.8430769230769233,0.917069597069597
4.965019201998075,3.3,2.8430769230769233,0.917069597069597
4.966964578998159,3.3,2.8430769230769233,0.917069597069597
4.969436804996803,3.3,0.20307692307692307,0.6229304029304029
4.975050777000433,3.3,0.20307692307692307,0.6229304029304029
4.975256953999633,2.9704029304029302,3.3,1.0621245421245422
4.980112890996679,2.9704029304029302,3.3,1.0621245421245422
4.988085978002346,2.9704029304029302,3.3,1.0621245421245422
4.992925248996471,2.9704029304029302,3.3,1.0621245421245422
4.998257462997572,2.9704029304029302,3.3,1.0621245421245422
5.001911339997605,2.690769230769231,2.9478388278388277,2.5215384615384613
5.007336529997701,2.690769230769231,2.9478388278388277,2.5215384615384613
5.007675863002078,2.698021978021978,1.4835897435897436,1.6238095238095236
5.012382697001158,2.698021978021978,1.4835897435897436,1.6238095238095236
5.012648078001803,2.698021978021978,1.4835897435897436,1.6238095238095236
5.0174533469980815,2.698021978021978,1.4835897435897436,1.6238095238095236
5.017642999002419,2.9276923076923076,0.3723076923076923,0.37150183150183147
5.02290288599761,2.9276923076923076,0.3723076923076923,0.37150183150183147
5.026005749001342,2.726227106227106,1.5786813186813187,1.6286446886446886
5.028393394997693,2.726227106227106,1.5786813186813187,1.6286446886446886
5.033873055996082,2.726227106227106,1.5786813186813187,1.6286446886446886
5.035475650001899,1.3385347985347984,0.415018315018315,0.23047619047619047
5.039457632999984,1.3385347985347984,0.415018315018315,0.23047619047619047
5.0437320720011485,1.3385347985347984,0.415018315018315,0.23047619047619047
5.045372535998467,1.3385347985347984,0.415018315018315,0.23047619047619047
5.0491805269994074,2.6682051282051282,0.49802197802197795,1.1830036630036629
5.053180969996902,2.6682051282051282,0.49802197802197795,1.1830036630036629
5.057254068997281,3.3,3.261318681318681,0.9267399267399267
5.059646847999829,3.3,3.261318681318681,0.9267399267399267
5.059875485996599,3.3,3.261318681318681,0.9267399267399267
5.064644767997379,3.3,3.261318681318681,0.9267399267399267
5.071706315000483,2.7004395604395603,3.3,1.8252747252747252
5.07580560399947,3.3,3.116263736263736,0.8727472527472527
5.0792461820019525,3.3,3.116263736263736,0.8727472527472527
5.079518033002387,3.3,3.116263736263736,0.8727472527472527
5.087140600000566,3.3,3.116263736263736,0.8727472527472527
5.0913038669968955,3.3,3.116263736263736,0.8727472527472527
5.092211989998759,1.0975824175824174,0.5213919413919413,0.19340659340659339
5.0931622389980475,1.0975824175824174,0.5213919413919413,0.19340659340659339
5.094750844000373,1.0975824175824174,0.5213919413919413,0.19340659340659339
5.100133781001205,1.0975824175824174,0.5213919413919413,0.19340659340659339
5.101605707997805,1.0975824175824174,0.5213919413919413,0.19340659340659339
5.107230048997735,1.0975824175824174,0.5213919413919413,0.19340659340659339
5.112709886001539,1.0975824175824174,0.5213919413919413,0.19340659340659339
5.113613633002387,1.0975824175824174,0.5213919413919413,0.19340659340659339
5.115323291996901,3.1194871794871792,0.23047619047619047,0.423076923076923
5.120053509999707,3.1194871794871792,0.23047619047619047,0.423076923076923
5.124166264999076,3.1194871794871792,0.23047619047619047,0.423076923076923
5.127343800995732,3.1194871794871792,0.23047619047619047,0.423076923076923
5.1288947540015215,3.1194871794871792,0.23047619047619047,0.423076923076923
5.1330415709962836,3.1194871794871792,0.23047619047619047,0.423076923076923
5.135684394997952,3.1194871794871792,0.23047619047619047,0.423076923076923
5.140437527996255,3.1194871794871792,0.23047619047619047,0.423076923076923
5.146205438999459,2.702051282051282,1.598021978021978,1.4690842490842488
5.146330429000955,2.702051282051282,1.598021978021978,1.4690842490842488
5.150993985997047,2.702051282051282,1.598021978021978,1.4690842490842488
5.151209085001028,2.702051282051282,1.598021978021978,1.4690842490842488
5.155904444000043,2.702051282051282,1.598021978021978,1.4690842490842488
5.1560524579981575,2.702051282051282,1.598021978021978,1.4690842490842488
5.161004920999403,2.702051282051282,1.598021978021978,1.4690842490842488
5.1662103310009115,2.702051282051282,1.598021978021978,1.4690842490842488
5.1686158219963545,2.702051282051282,1.598021978021978,1.4690842490842488
5.168728532997193,2.702051282051282,1.598021978021978,1.4690842490842488
5.174094570000307,2.702051282051282,1.598021978021978,1.4690842490842488
5.175711653995677,2.702051282051282,1.598021978021978,1.4690842490842488
5.179435621997982,2.702051282051282,1.598021978021978,1.4690842490842488
5.185038237999834,2.702051282051282,1.598021978021978,1.4690842490842488
5.185931232001167,2.702051282051282,1.598021978021978,1.4690842490842488
5.186879467000836,2.702051282051282,1.598021978021978,1.4690842490842488
5.188510180996673,2.702051282051282,1.598021978021978,1.4690842490842488
5.193226602001232,2.702051282051282,1.598021978021978,1.4690842490842488
5.19951139800105,2.702051282051282,1.598021978021978,1.4690842490842488
5.204298235999886,2.702051282051282,1.598021978021978,1.4690842490842488
5.211472025999683,2.702051282051282,1.598021978021978,1.4690842490842488
5.216602929998771,3.3,2.7165567765567764,0.8179487179487179
5.219096225002431,3.3,2.7165567765567764,0.8179487179487179
5.228099893996841,3.3,2.7165567765567764,0.8179487179487179
5.235193660002551,3.3,2.7165567765567764,0.8179487179487179
5.242139492998831,3.3,2.7165567765567764,0.8179487179487179
5.248049333000381,3.3,2.7165567765567764,0.8179487179487179
5.251689532000455,3.3,2.7165567765567764,0.8179487179487179
5.257099844995537,3.3,2.7165567765567764,0.8179487179487179
5.258755495000514,3.3,2.7165567765567764,0.8179487179487179
5.2626034499990055,3.3,2.7165567765567764,0.8179487179487179
5.266484915999172,3.3,0.9815384615384615,0.2063003663003663
5.271934316995612,3.3,0.9815384615384615,0.2063003663003663
5.275857597996946,3.3,0.9815384615384615,0.2063003663003663
5.278420559996448,3.3,0.9815384615384615,0.2063003663003663
5.282324214997061,3.3,0.9815384615384615,0.2063003663003663
5.286984696998843,3.3,0.9815384615384615,0.2063003663003663
5.28709000699746,3.3,0.21838827838827837,0.7131868131868132
5.292616384998837,3.3,0.21838827838827837,0.7131868131868132
5.29431400699832,0.9146520146520146,0.697069597069597,0.1958241758241758
5.297389090999786,0.9146520146520146,0.697069597069597,0.1958241758241758
5.299781895999331,0.9146520146520146,0.697069597069597,0.1958241758241758
5.300016221997794,0.9146520146520146,0.697069597069597,0.1958241758241758
5.305642396997428,0.9146520146520146,0.697069597069597,0.1958241758241758
5.305952189999516,2.673040293040293,3.3,1.5835164835164834
5.310730416000297,2.673040293040293,3.3,1.5835164835164834
5.310930207000638,2.673040293040293,3.3,1.5835164835164834
5.315700826999091,2.673040293040293,3.3,1.5835164835164834
5.321410857999581,2.673040293040293,3.3,1.5835164835164834
5.321626085999014,2.673040293040293,3.3,1.5835164835164834
5.32681808599591,2.673040293040293,3.3,1.5835164835164834
5.329398333997233,2.673040293040293,3.3,1.5835164835164834
5.334317298002134,2.673040293040293,3.3,1.5835164835164834
5.339988772000652,2.673040293040293,3.3,1.5835164835164834
5.340274360001786,2.718168498168498,1.4231501831501832,1.270842490842491
5.347575296997093,2.718168498168498,1.4231501831501832,1.270842490842491
5.354670050997811,2.718168498168498,1.4231501831501832,1.270842490842491
5.360000237997156,2.718168498168498,1.4231501831501832,1.270842490842491
5.360424883001542,2.718168498168498,1.4231501831501832,1.270842490842491
5.368563031996018,2.718168498168498,1.4231501831501832,1.270842490842491
5.374330327998905,2.718168498168498,1.4231501831501832,1.270842490842491
5.3828906689959695,2.718168498168498,1.4231501831501832,1.270842490842491
5.391312034000293,2.6996336996336994,2.848717948717949,2.497362637362637
5.396048811002402,2.6996336996336994,2.848717948717949,2.497362637362637
5.4043995429965435,2.6996336996336994,2.848717948717949,2.497362637362637
5.4105941009984235,2.6996336996336994,2.848717948717949,2.497362637362637
5.415014699996391,2.6996336996336994,2.848717948717949,2.497362637362637
5.415219279995654,2.6996336996336994,2.848717948717949,2.497362637362637
5.422428721998585,2.6996336996336994,2.848717948717949,2.497362637362637
5.427294510001957,1.9429304029304029,1.4618315018315018,0.41018315018315016
5.427414152996789,3.3,0.18454212454212454,0.6092307692307692
5.4340693459962495,3.3,0.18454212454212454,0.6092307692307692
5.4384893589958665,0.697069597069597,0.7454212454212454,0.19904761904761903
5.438752067995665,0.697069597069597,0.7454212454212454,0.19904761904761903
5.444343513998319,0.697069597069597,0.7454212454212454,0.19904761904761903
5.444662392001192,0.697069597069597,0.7454212454212454,0.19904761904761903
5.451794856999186,0.697069597069597,0.7454212454212454,0.19904761904761903
5.456351998000173,3.3,0.19340659340659339,0.5858608058608058
5.462136545997055,3.3,0.19340659340659339,0.5858608058608058
5.462414961999457,3.3,0.9098168498168498,0.2506227106227106
5.469777279002301,3.3,0.9098168498168498,0.2506227106227106
5.473388436999812,3.3,0.9098168498168498,0.2506227106227106
5.478137721998792,3.1049816849816847,0.24901098901098898,0.4287179487179487
5.4782744940021075,3.1049816849816847,0.24901098901098898,0.4287179487179487
5.486448110998026,2.698827838827839,1.2015384615384614,1.4739194139194138
5.489943857995968,2.698827838827839,1.2015384615384614,1.4739194139194138
5.490214974997798,2.698827838827839,1.2015384615384614,1.4739194139194138
5.49581056599709,2.698827838827839,1.2015384615384614,1.4739194139194138
5.49610335000034,2.698827838827839,1.2015384615384614,1.4739194139194138
5.503362466995895,2.698827838827839,1.2015384615384614,1.4739194139194138
5.507051824002701,2.698827838827839,1.2015384615384614,1.4739194139194138
5.51305839199631,2.698827838827839,1.2015384615384614,1.4739194139194138
5.524582272999396,2.698827838827839,1.2015384615384614,1.4739194139194138
5.532438276000903,2.698827838827839,1.2015384615384614,1.4739194139194138
5.53975761699985,2.698827838827839,1.2015384615384614,1.4739194139194138
5.54439500800072,2.698827838827839,1.2015384615384614,1.4739194139194138
5.544679246995656,2.698827838827839,1.2015384615384614,1.4739194139194138
5.549373882000509,2.698827838827839,1.2015384615384614,1.4739194139194138
5.549590137998166,2.698827838827839,1.2015384615384614,1.4739194139194138
5.556040360999759,1.805934065934066,0.41018315018315016,0.3295970695970696
5.560142080001242,1.805934065934066,0.41018315018315016,0.3295970695970696
5.563284408999607,1.805934065934066,0.41018315018315016,0.3295970695970696
5.566399294002622,1.805934065934066,0.41018315018315016,0.3295970695970696
5.567769909001072,1.805934065934066,0.41018315018315016,0.3295970695970696
5.574020266998559,1.805934065934066,0.41018315018315016,0.3295970695970696
5.578196581001976,1.805934065934066,0.41018315018315016,0.3295970695970696
5.580669843999203,1.805934065934066,0.41018315018315016,0.3295970695970696
5.580912355995679,1.805934065934066,0.41018315018315016,0.3295970695970696
5.588999145998969,1.805934065934066,0.41018315018315016,0.3295970695970696
5.593921722000232,1.805934065934066,0.41018315018315016,0.3295970695970696
5.598641769996902,1.805934065934066,0.41018315018315016,0.3295970695970696
5.598775065001973,1.805934065934066,0.41018315018315016,0.3295970695970696
5.605770672998915,2.7004395604395603,1.6302564102564103,1.3893040293040293
5.61053772699961,2.697216117216117,2.287032967032967,1.7084249084249086
5.610728731997369,2.697216117216117,2.287032967032967,1.7084249084249086
5.615528260001156,2.697216117216117,2.287032967032967,1.7084249084249086
5.623159090995614,2.697216117216117,2.287032967032967,1.7084249084249086
5.628541908998159,2.7004395604395603,1.8365567765567765,1.692307692307692
5.631425152998418,2.7004395604395603,1.8365567765567765,1.692307692307692
5.636466021001979,2.7004395604395603,1.8365567765567765,1.692307692307692
5.63844491999771,2.7004395604395603,1.8365567765567765,1.692307692307692
5.640192500999547,2.7004395604395603,1.8365567765567765,1.692307692307692
5.644210651000321,2.7004395604395603,1.8365567765567765,1.692307692307692
5.6466152950015385,2.7004395604395603,1.8365567765567765,1.692307692307692
5.646818736997375,2.7004395604395603,1.8365567765567765,1.692307692307692
5.655010946000402,2.7004395604395603,1.8365567765567765,1.692307692307692
5.660168199996406,1.9364835164835164,0.26754578754578756,0.26109890109890105
5.661332976997073,1.9364835164835164,0.26754578754578756,0.26109890109890105
5.66157761499926,1.9364835164835164,0.26754578754578756,0.26109890109890105
5.6696302249984,1.9364835164835164,0.26754578754578756,0.26109890109890105
5.674649029002467,1.9364835164835164,0.26754578754578756,0.26109890109890105
5.6786955509960535,1.9364835164835164,0.26754578754578756,0.26109890109890105
5.681153161996917,2.7004395604395603,2.5424908424908423,1.5730402930402931
5.692530893997173,2.6682051282051282,1.1838095238095236,0.8703296703296703
5.7022248249995755,2.6682051282051282,1.1838095238095236,0.8703296703296703
5.706816621001053,2.6682051282051282,1.1838095238095236,0.8703296703296703
5.707092630997067,2.996190476190476,0.21274725274725276,0.5318681318681319
5.712039669997466,3.3,0.21435897435897436,0.6479120879120879
5.719564884995634,3.3,0.21435897435897436,0.6479120879120879
5.723118529997009,3.3,0.21435897435897436,0.6479120879120879
5.728599533002125,3.3,0.21435897435897436,0.6479120879120879
5.730907739998656,2.6665934065934067,0.25787545787545785,0.9041758241758242
5.731175185996108,2.6665934065934067,0.25787545787545785,0.9041758241758242
5.738441305002198,2.6665934065934067,0.25787545787545785,0.9041758241758242
5.744253167998977,3.3,0.39487179487179486,0.44402930402930396
5.751059342001099,3.3,0.39487179487179486,0.44402930402930396
5.754850732002524,3.3,0.39487179487179486,0.44402930402930396
5.759478082996793,1.2724542124542124,1.5609523809523809,0.10637362637362638
5.759675977998995,2.698827838827839,2.5086446886446883,2.2725274725274724
5.764282964002632,2.698827838827839,2.5086446886446883,2.2725274725274724
5.764664520000224,2.698827838827839,2.5086446886446883,2.2725274725274724
5.7721400930022355,2.698827838827839,2.5086446886446883,2.2725274725274724
5.776075444002345,2.698827838827839,2.5086446886446883,2.2725274725274724
5.77991913400183,2.698827838827839,2.5086446886446883,2.2725274725274724
5.78743555300025,2.698827838827839,2.5086446886446883,2.2725274725274724
5.791446126997471,2.698827838827839,2.5086446886446883,2.2725274725274724
5.795384532000753,2.698827838827839,2.5086446886446883,2.2725274725274724
5.801292748998094,0.8840293040293039,0.7164102564102564,0.20065934065934066
5.811223570002767,2.698827838827839,2.7616849816849816,1.7116483516483516
5.819282340999052,2.698827838827839,2.7616849816849816,1.7116483516483516
5.824986681996961,2.702051282051282,1.2192673992673992,1.652014652014652
5.832422348001273,2.702051282051282,1.2192673992673992,1.652014652014652
5.839886353998736,2.461904761904762,0.31509157509157504,0.4996336996336996
5.843909916002303,2.6585347985347987,1.0822710622710623,0.5415384615384615
5.847700664999138,2.6585347985347987,1.0822710622710623,0.5415384615384615
5.856290500996693,2.6585347985347987,1.0822710622710623,0.5415384615384615
5.86027789000218,2.6585347985347987,1.0822710622710623,0.5415384615384615
5.863509046001127,2.6585347985347987,1.0822710622710623,0.5415384615384615
5.86524374900182,2.6585347985347987,1.0822710622710623,0.5415384615384615
5.8709869789963705,2.6585347985347987,1.0822710622710623,0.5415384615384615
5.875646977998258,2.659340659340659,0.24659340659340656,0.9767032967032967
5.876159118000942,2.659340659340659,0.24659340659340656,0.9767032967032967
5.879211343999486,2.659340659340659,0.24659340659340656,0.9767032967032967
5.881711597001413,2.659340659340659,0.24659340659340656,0.9767032967032967
5.890408074999868,2.659340659340659,0.24659340659340656,0.9767032967032967
5.896179814997595,2.7004395604395603,1.2982417582417582,1.510989010989011
5.896382845996413,2.7004395604395603,1.2982417582417582,1.510989010989011
5.903047851999872,2.7004395604395603,1.2982417582417582,1.510989010989011
5.90646762799588,2.7197802197802194,3.3,1.6165567765567763
5.906746282998938,2.7197802197802194,3.3,1.6165567765567763
5.911553633995936,2.7197802197802194,3.3,1.6165567765567763
5.911678963995655,2.7197802197802194,3.3,1.6165567765567763
5.9176171840008465,2.7197802197802194,3.3,1.6165567765567763
5.924256211001193,2.7197802197802194,3.3,1.6165567765567763
5.928328237001551,2.718168498168498,1.5214652014652015,1.1967032967032967
5.931454211997334,2.718168498168498,1.5214652014652015,1.1967032967032967
5.934155046001251,2.718168498168498,1.5214652014652015,1.1967032967032967
5.938106556997809,2.718168498168498,1.5214652014652015,1.1967032967032967
5.94129757599876,2.718168498168498,1.5214652014652015,1.1967032967032967
5.942224624996015,2.718168498168498,1.5214652014652015,1.1967032967032967
5.943242075998569,2.718168498168498,1.5214652014652015,1.1967032967032967
5.944141241998295,2.718168498168498,1.5214652014652015,1.1967032967032967
5.945770065001852,2.718168498168498,1.5214652014652015,1.1967032967032967
5.950157940998906,2.718168498168498,1.5214652014652015,1.1967032967032967
5.9505029110005125,2.718168498168498,1.5214652014652015,1.1967032967032967
5.957577209999727,2.718168498168498,1.5214652014652015,1.1967032967032967
5.962280278996332,0.5616849816849817,0.7792673992673992,0.16842490842490843
5.962521340996318,0.5616849816849817,0.7792673992673992,0.16842490842490843
5.971914376001223,0.5616849816849817,0.7792673992673992,0.16842490842490843
5.978664629001287,0.5616849816849817,0.7792673992673992,0.16842490842490843
5.984114466999017,0.5616849816849817,0.7792673992673992,0.16842490842490843
5.98447012899851,0.5616849816849817,0.7792673992673992,0.16842490842490843
5.990692851002677,0.5616849816849817,0.7792673992673992,0.16842490842490843
5.9946486499975435,0.5616849816849817,0.7792673992673992,0.16842490842490843
5.998857259997749,0.5616849816849817,0.7792673992673992,0.16842490842490843
6.002586747999885,2.697216117216117,2.951062271062271,1.847032967032967
6.0081926670027315,2.697216117216117,2.951062271062271,1.847032967032967
6.0165871159988455,2.697216117216117,2.951062271062271,1.847032967032967
6.024047590995906,3.3,3.106593406593406,0.8566300366300367
6.029515722002543,2.7004395604395603,3.3,1.7648351648351648
6.029714566997427,2.7004395604395603,3.3,1.7648351648351648
6.039330006002274,2.7004395604395603,3.3,1.7648351648351648
6.044217802002095,2.7004395604395603,3.3,1.7648351648351648
6.0494188539960305,2.698827838827839,1.2450549450549449,1.6197802197802196
6.053000535001047,2.103296703296703,0.25223443223443226,0.3441025641025641
6.053144195997447,1.88007326007326,1.7463003663003662,0.21999999999999997
6.058045418001711,1.88007326007326,1.7463003663003662,0.21999999999999997
6.062726735995966,3.3,0.28205128205128205,0.4432234432234432
6.062978600995848,3.3,0.28205128205128205,0.4432234432234432
6.069384066002385,3.3,0.28205128205128205,0.4432234432234432
6.0728641460009385,2.6996336996336994,1.32,1.5005128205128204
6.073109596996801,2.6996336996336994,1.32,1.5005128205128204
6.078034411999397,2.6996336996336994,1.32,1.5005128205128204
6.083658390001801,2.6996336996336994,1.32,1.5005128205128204
6.08383171800233,2.697216117216117,1.5673992673992672,1.2942124542124542
6.089768956000626,2.697216117216117,1.5673992673992672,1.2942124542124542
6.094464253001206,2.6746520146520147,0.7228571428571429,1.3272527472527473
6.100744545001362,2.6746520146520147,0.7228571428571429,1.3272527472527473
6.104947881998669,2.6746520146520147,0.7228571428571429,1.3272527472527473
6.106682012999954,2.6746520146520147,0.7228571428571429,1.3272527472527473
6.109937560999242,2.6746520146520147,0.7228571428571429,1.3272527472527473
6.111601689000963,2.6746520146520147,0.7228571428571429,1.3272527472527473
6.115991396996833,2.6746520146520147,0.7228571428571429,1.3272527472527473
6.117549738999514,2.6746520146520147,0.7228571428571429,1.3272527472527473
6.121762991999276,2.7004395604395603,2.9808791208791208,1.847032967032967
6.122697804996278,2.7004395604395603,2.9808791208791208,1.847032967032967
6.123669868000434,2.7004395604395603,2.9808791208791208,1.847032967032967
6.1252518449982745,2.702857142857143,1.9961172161172158,1.7221245421245421
6.129188717997749,2.702857142857143,1.9961172161172158,1.7221245421245421
6.1338754589960445,2.702857142857143,1.9961172161172158,1.7221245421245421
6.139220242999727,2.702857142857143,1.9961172161172158,1.7221245421245421
6.140832534998481,2.702857142857143,1.9961172161172158,1.7221245421245421
6.144682013997226,2.659340659340659,1.0822710622710623,0.5520146520146519
6.149732961996051,2.659340659340659,1.0822710622710623,0.5520146520146519
6.153748837998137,2.659340659340659,1.0822710622710623,0.5520146520146519
6.157763188995887,2.659340659340659,1.0822710622710623,0.5520146520146519
6.160984551999718,2.659340659340659,1.0822710622710623,0.5520146520146519
6.1612983379964135,2.659340659340659,1.0822710622710623,0.5520146520146519
6.166037408998818,2.659340659340659,1.0822710622710623,0.5520146520146519
6.1663449089974165,2.659340659340659,1.0822710622710623,0.5520146520146519
6.1712201990012545,2.659340659340659,1.0822710622710623,0.5520146520146519
6.176754350002739,2.659340659340659,1.0822710622710623,0.5520146520146519
6.178367756998341,0.7147985347985348,1.3917216117216116,0.07978021978021978
6.182833197999571,0.7147985347985348,1.3917216117216116,0.07978021978021978
6.183757074999448,3.3,3.3,1.2176556776556777
6.185398128996894,3.3,3.3,1.2176556776556777
6.1888888829998905,3.3,3.3,1.2176556776556777
6.189126461998967,2.6778754578754578,0.48835164835164835,1.1652747252747253
6.193445022996457,3.3,0.2506227106227106,0.6873992673992674
6.19634906599822,3.3,0.2506227106227106,0.6873992673992674
6.201123332000861,3.3,0.2506227106227106,0.6873992673992674
6.201427410996985,3.3,0.2506227106227106,0.6873992673992674
6.210548723000102,3.3,0.2506227106227106,0.6873992673992674
6.217872308996448,2.6956043956043954,1.573846153846154,1.6697435897435895
6.221844883002632,2.5005860805860802,0.23128205128205126,0.3747252747252747
6.225113913002133,1.9896703296703295,1.328058608058608,0.32798534798534795
6.225380937998125,1.9896703296703295,1.328058608058608,0.32798534798534795
6.230045313001028,1.9896703296703295,1.328058608058608,0.32798534798534795
6.230364825001743,1.9896703296703295,1.328058608058608,0.32798534798534795
6.237466314996709,1.9896703296703295,1.328058608058608,0.32798534798534795
6.241431417001877,1.9896703296703295,1.328058608058608,0.32798534798534795
6.24522513699776,1.9654945054945054,1.1225641025641024,0.25465201465201465
6.252039179998974,1.9654945054945054,1.1225641025641024,0.25465201465201465
6.255249788999208,1.9654945054945054,1.1225641025641024,0.25465201465201465
6.2568465860022116,1.510989010989011,0.4738461538461538,0.35135531135531134
6.261625460996584,1.510989010989011,0.4738461538461538,0.35135531135531134
6.2671178550008335,1.510989010989011,0.4738461538461538,0.35135531135531134
6.268724221001321,1.510989010989011,0.4738461538461538,0.35135531135531134
6.272664358999464,1.510989010989011,0.4738461538461538,0.35135531135531134
6.2771093850024045,2.046080586080586,0.26754578754578756,0.48754578754578753
6.277370941999834,3.2387545787545786,0.3779487179487179,0.2175824175824176
6.28268533499795,2.697216117216117,2.9599267399267397,2.378901098901099
6.285037066001678,2.697216117216117,2.9599267399267397,2.378901098901099
6.285208123998018,2.697216117216117,2.9599267399267397,2.378901098901099
6.290228370002296,2.697216117216117,2.9599267399267397,2.378901098901099
6.294366921996698,2.697216117216117,2.9599267399267397,2.378901098901099
6.298011507002229,2.697216117216117,2.9599267399267397,2.378901098901099
6.304409022995969,2.697216117216117,2.9599267399267397,2.378901098901099
6.309403188999568,2.697216117216117,2.9599267399267397,2.378901098901099
6.311878676999186,2.697216117216117,2.9599267399267397,2.378901098901099
6.31200417799846,2.697216117216117,2.9599267399267397,2.378901098901099
6.316602514998522,2.697216117216117,2.9599267399267397,2.378901098901099
6.31686925500253,2.697216117216117,2.9599267399267397,2.378901098901099
6.321581022995815,2.697216117216117,2.9599267399267397,2.378901098901099
6.3218117610013,2.697216117216117,2.9599267399267397,2.378901098901099
6.326913874996535,2.697216117216117,2.9599267399267397,2.378901098901099
6.330159644996456,2.697216117216117,2.9599267399267397,2.378901098901099
6.33108825799718,2.697216117216117,2.9599267399267397,2.378901098901099
6.3320229739983915,2.697216117216117,2.9599267399267397,2.378901098901099
6.333642304998648,2.697216117216117,2.9599267399267397,2.378901098901099
6.338386716000969,2.697216117216117,2.9599267399267397,2.378901098901099
6.344232857001771,3.0308424908424905,1.2426373626373626,0.693040293040293
6.344349098995735,3.0308424908424905,1.2426373626373626,0.693040293040293
6.3491967219961225,3.0308424908424905,1.2426373626373626,0.693040293040293
6.354896333999932,3.0308424908424905,1.2426373626373626,0.693040293040293
6.3551526259980164,3.0308424908424905,1.2426373626373626,0.693040293040293
6.360085535998223,3.0308424908424905,1.2426373626373626,0.693040293040293
6.365800079001929,3.0308424908424905,1.2426373626373626,0.693040293040293
6.366005087002122,3.3,3.3,1.058901098901099
6.3708779660009895,3.3,3.3,1.058901098901099
6.371000393999566,3.3,3.3,1.058901098901099
6.3756363119973685,3.3,3.3,1.058901098901099
6.375897543999599,3.3,3.3,1.058901098901099
6.38312609300192,3.3,3.3,1.058901098901099
6.387858779999078,2.664175824175824,1.2845421245421245,0.8663003663003663
6.387994491997233,2.6633699633699632,0.7188278388278388,1.232161172161172
6.397435042999859,2.6633699633699632,0.7188278388278388,1.232161172161172
6.404826851001417,3.3,1.847032967032967,0.2756043956043956
6.410766282999248,2.697216117216117,2.3120146520146516,1.481172161172161
6.417935306999425,2.697216117216117,2.3120146520146516,1.481172161172161
6.4242161930014845,2.697216117216117,2.3120146520146516,1.481172161172161
6.4298524869955145,2.702051282051282,2.5175091575091573,1.5569230769230769
6.441331155001535,2.702051282051282,2.5175091575091573,1.5569230769230769
6.451801484996395,2.702051282051282,2.5175091575091573,1.5569230769230769
6.459950450996985,2.702051282051282,2.5175091575091573,1.5569230769230769
6.466309748997446,2.702051282051282,2.5175091575091573,1.5569230769230769
6.471486818998528,3.3,3.129157509157509,0.8945054945054944
6.4754212479965645,3.3,3.129157509157509,0.8945054945054944
6.4792577019979944,3.3,3.129157509157509,0.8945054945054944
6.483045856002718,3.3,3.129157509157509,0.8945054945054944
6.488152908998018,3.3,3.129157509157509,0.8945054945054944
6.490509146999102,2.6617582417582417,0.8920879120879119,1.1588278388278386
6.490699570000288,2.6617582417582417,0.8920879120879119,1.1588278388278386
6.498701176002214,2.6617582417582417,0.8920879120879119,1.1588278388278386
6.503813058996457,2.6617582417582417,0.8920879120879119,1.1588278388278386
6.506847698001366,2.7246153846153844,3.3,1.2386080586080586
6.5090561539982446,2.7246153846153844,3.3,1.2386080586080586
6.509322521000286,2.7246153846153844,3.3,1.2386080586080586
6.516655833002005,2.7246153846153844,3.3,1.2386080586080586
6.521262000998831,1.3175824175824176,0.27238095238095233,0.34813186813186814
6.530284209002275,1.3175824175824176,0.27238095238095233,0.34813186813186814
6.535415430997091,0.3972893772893773,0.2796336996336996,0.1515018315018315
6.538946200002101,2.6746520146520147,3.3,0.6696703296703297
6.548218178999377,3.3,0.49560439560439556,0.39567765567765567
6.555546081995999,3.3,0.49560439560439556,0.39567765567765567
6.562255605000246,0.788937728937729,0.8123076923076923,0.26996336996336995
6.56720549199963,2.6956043956043954,3.0397069597069595,2.224981684981685
6.571623388001171,2.6956043956043954,2.1508424908424906,1.4876190476190476
6.5718358579979395,3.3,0.4899633699633699,0.9259340659340659
6.579516480000166,3.3,0.4899633699633699,0.9259340659340659
6.583801118002157,3.3,0.4899633699633699,0.9259340659340659
6.585465436000959,3.3,0.4899633699633699,0.9259340659340659
6.589574436999101,3.3,0.4899633699633699,0.9259340659340659
6.5927136480022455,3.3,0.4899633699633699,0.9259340659340659
6.595037856997806,3.3,0.4899633699633699,0.9259340659340659
6.595278770997538,3.3,0.4899633699633699,0.9259340659340659
6.60041122000257,3.3,0.4899633699633699,0.9259340659340659
6.604037159995642,3.3,0.4899633699633699,0.9259340659340659
6.609619586997724,3.3,0.4899633699633699,0.9259340659340659
6.610501429000578,3.3,0.4899633699633699,0.9259340659340659
6.612128004999249,3.3,0.4899633699633699,0.9259340659340659
6.616204992002167,3.3,0.4899633699633699,0.9259340659340659
6.619309221001458,3.3,0.4899633699633699,0.9259340659340659
6.620980581996264,3.3,0.4899633699633699,0.9259340659340659
6.624979407002684,3.3,0.4899633699633699,0.9259340659340659
6.628076125001826,3.3,0.4899633699633699,0.9259340659340659
6.630418037995696,3.3,0.4899633699633699,0.9259340659340659
6.630663404001098,1.7503296703296702,0.2747985347985348,0.2328937728937729
6.635994210999343,1.7503296703296702,0.2747985347985348,0.2328937728937729
6.637716398996417,2.242710622710623,0.2216117216117216,0.4383882783882784
6.64105451299838,2.242710622710623,0.2216117216117216,0.4383882783882784
6.641362383998057,2.7004395604395603,2.266886446886447,1.8824908424908422
6.646197845999268,2.7004395604395603,2.266886446886447,1.8824908424908422
6.646494941996934,2.7004395604395603,2.266886446886447,1.8824908424908422
6.651328323998314,2.7004395604395603,2.266886446886447,1.8824908424908422
6.657080069002404,2.6536996336996337,3.3,0.6616117216117217
6.657187611999689,2.6536996336996337,3.3,0.6616117216117217
6.661828516997048,2.6536996336996337,3.3,0.6616117216117217
6.662077685999975,2.6536996336996337,3.3,0.6616117216117217
6.66671218600095,2.6536996336996337,3.3,0.6616117216117217
6.666888036997989,2.6536996336996337,3.3,0.6616117216117217
6.671677762999025,2.6536996336996337,3.3,0.6616117216117217
6.677505653999106,2.6536996336996337,3.3,0.6616117216117217
6.677701282998896,2.6536996336996337,3.3,0.6616117216117217
6.682881606000592,2.6536996336996337,3.3,0.6616117216117217
6.6859507619956275,2.723003663003663,1.767252747252747,1.3514285714285714
6.68831333900016,2.723003663003663,1.767252747252747,1.3514285714285714
6.688534381995851,2.723003663003663,1.767252747252747,1.3514285714285714
6.694277171001886,2.723003663003663,1.767252747252747,1.3514285714285714
6.700027189996035,1.726959706959707,1.4271794871794872,0.361025641025641
6.700281322999217,1.726959706959707,1.4271794871794872,0.361025641025641
6.7050076039959094,1.726959706959707,1.4271794871794872,0.361025641025641
6.705203748999338,1.726959706959707,1.4271794871794872,0.361025641025641
6.710040229001606,1.726959706959707,1.4271794871794872,0.361025641025641
6.710170876001939,2.0549450549450547,0.2756043956043956,0.1652014652014652
6.715637957000581,2.0549450549450547,0.2756043956043956,0.1652014652014652
6.717316789996403,1.2692307692307692,1.344981684981685,0.2208058608058608
6.721415581996553,1.2692307692307692,1.344981684981685,0.2208058608058608
6.723279129997536,1.2692307692307692,1.344981684981685,0.2208058608058608
6.7263665739956195,1.2692307692307692,1.344981684981685,0.2208058608058608
6.728038192995882,2.7004395604395603,2.4554578754578755,1.4094505494505494
6.73193378400174,2.7004395604395603,2.4554578754578755,1.4094505494505494
6.739334537000104,2.7004395604395603,2.4554578754578755,1.4094505494505494
6.745713539996359,2.7004395604395603,2.4554578754578755,1.4094505494505494
6.749890152997978,2.726227106227106,2.1186080586080585,1.2998534798534798
6.752567358002125,2.726227106227106,2.1186080586080585,1.2998534798534798
6.7586743049978395,2.726227106227106,2.1186080586080585,1.2998534798534798
6.76384573100222,2.726227106227106,2.1186080586080585,1.2998534798534798
6.765572693002468,2.726227106227106,2.1186080586080585,1.2998534798534798
6.77127545500116,2.726227106227106,2.1186080586080585,1.2998534798534798
6.778249140996195,2.726227106227106,2.1186080586080585,1.2998534798534798
6.78203471100278,2.726227106227106,2.1186080586080585,1.2998534798534798
6.786744764001924,2.726227106227106,2.1186080586080585,1.2998534798534798
6.786982400997658,2.726227106227106,2.1186080586080585,1.2998534798534798
6.79189406200021,2.726227106227106,2.1186080586080585,1.2998534798534798
6.795558512996649,3.3,3.3,0.8534065934065934
6.800638799999433,3.3,3.3,0.8534065934065934
6.804247006999503,3.3,3.3,0.8534065934065934
6.809256323998852,3.3,3.3,0.8534065934065934
6.815553663000173,3.3,0.5044688644688645,1.1693040293040293
6.819703834000393,3.3,3.3,0.8590476190476191
6.822971223999048,2.702051282051282,3.3,2.9276923076923076
6.823864548998245,2.702051282051282,3.3,2.9276923076923076
6.82543237900245,2.702051282051282,3.3,2.9276923076923076
6.8295778899992,2.702051282051282,3.3,2.9276923076923076
6.832000376001815,2.6665934065934067,0.3304029304029304,0.8606593406593407
6.832125169996289,2.6665934065934067,0.3304029304029304,0.8606593406593407
6.8370145029985,2.6665934065934067,0.3304029304029304,0.8606593406593407
6.84236495699588,1.5835164835164834,0.25384615384615383,0.15956043956043955
6.843935454002349,1.5835164835164834,0.25384615384615383,0.15956043956043955
6.848511571995914,2.7197802197802194,2.6045421245421245,1.7213186813186814
6.848724208997737,1.353040293040293,0.361025641025641,0.2175824175824176
6.854218166001374,1.353040293040293,0.361025641025641,0.2175824175824176
6.855118100000254,1.353040293040293,0.361025641025641,0.2175824175824176
6.856748480997339,1.353040293040293,0.361025641025641,0.2175824175824176
6.861435115999484,1.353040293040293,0.361025641025641,0.2175824175824176
6.861551003996283,1.353040293040293,0.361025641025641,0.2175824175824176
6.867364420999365,1.353040293040293,0.361025641025641,0.2175824175824176
6.867458581000392,1.353040293040293,0.361025641025641,0.2175824175824176
6.872417936996499,1.353040293040293,0.361025641025641,0.2175824175824176
6.877274867001688,0.7857142857142856,0.3731135531135531,0.14263736263736262
6.877382492995821,0.7857142857142856,0.3731135531135531,0.14263736263736262
6.88230687599571,0.7857142857142856,0.3731135531135531,0.14263736263736262
6.882437902997481,2.697216117216117,2.025128205128205,1.6504029304029304
6.8868751830013935,2.697216117216117,2.025128205128205,1.6504029304029304
6.888429758997518,2.7004395604395603,2.6488644688644687,1.6794139194139193
6.892688009000267,2.7004395604395603,2.6488644688644687,1.6794139194139193
6.894898824997654,2.7004395604395603,2.6488644688644687,1.6794139194139193
6.895740806001413,2.7004395604395603,2.6488644688644687,1.6794139194139193
6.897202451000339,3.3,0.48835164835164835,0.3336263736263736
6.902056293001806,2.723003663003663,3.3,2.693992673992674
6.907081951001601,2.6633699633699632,3.3,1.2136263736263737
6.911224974996003,2.6649816849816848,1.991282051282051,1.4803663003663003
6.913608106995525,2.6649816849816848,1.991282051282051,1.4803663003663003
6.913785965996794,2.6649816849816848,1.991282051282051,1.4803663003663003
6.918559676996665,2.6649816849816848,1.991282051282051,1.4803663003663003
6.9186784220000845,2.7004395604395603,3.3,2.2185347985347987
6.9236955320011475,2.7004395604395603,3.3,2.2185347985347987
6.927844904996164,2.7004395604395603,3.3,2.2185347985347987
6.92953226499958,2.7004395604395603,3.3,2.2185347985347987
6.9335301300016,2.7004395604395603,3.3,2.2185347985347987
6.937526358997275,2.7004395604395603,3.3,2.2185347985347987
6.940812057997391,2.723003663003663,3.3,2.0549450549450547
6.941684657998849,2.723003663003663,3.3,2.0549450549450547
6.943471450002107,2.723003663003663,3.3,2.0549450549450547
6.945948422995571,2.723003663003663,3.3,2.0549450549450547
6.9461574259985355,2.723003663003663,3.3,2.0549450549450547
6.951039343999582,2.723003663003663,3.3,2.0549450549450547
6.955665923000197,2.723003663003663,3.3,2.0549450549450547
6.955902695997793,2.723003663003663,3.3,2.0549450549450547
6.9605923109993455,2.723003663003663,3.3,2.0549450549450547
6.9607682439964265,2.723003663003663,3.3,2.0549450549450547
6.965409866999835,2.723003663003663,3.3,2.0549450549450547
6.965679029999592,2.723003663003663,3.3,2.0549450549450547
6.970346019996214,2.723003663003663,3.3,2.0549450549450547
6.9704923140016035,2.723003663003663,3.3,2.0549450549450547
6.975951098000223,2.723003663003663,3.3,2.0549450549450547
6.9774439399989205,1.016190476190476,0.3972893772893773,0.4625641025641025
6.981901642000594,1.016190476190476,0.3972893772893773,0.4625641025641025
6.983471874998941,1.016190476190476,0.3972893772893773,0.4625641025641025
6.989011919002223,2.689157509157509,2.772161172161172,1.7583882783882783
6.989341524997144,2.689157509157509,2.772161172161172,1.7583882783882783
6.994155421998585,3.032454212454212,0.8622710622710623,1.0315018315018314
6.994311677997757,3.032454212454212,0.8622710622710623,1.0315018315018314
6.999275934998877,3.032454212454212,0.8622710622710623,1.0315018315018314
7.004757369002618,3.032454212454212,0.8622710622710623,1.0315018315018314
7.006547029996,3.032454212454212,0.8622710622710623,1.0315018315018314
7.009642709999753,3.032454212454212,0.8622710622710623,1.0315018315018314
7.011988608996035,3.032454212454212,0.8622710622710623,1.0315018315018314
7.012159992998932,3.032454212454212,0.8622710622710623,1.0315018315018314
7.0169898480016855,3.032454212454212,0.8622710622710623,1.0315018315018314
7.022636451001745,3.032454212454212,0.8622710622710623,1.0315018315018314
7.022866993000207,2.9115750915750915,0.9758974358974358,0.7188278388278388
7.027553642001294,2.6649816849816848,2.892234432234432,1.8615384615384614
7.027794035995612,2.6673992673992672,1.9252014652014653,2.0307692307692307
7.03244894999807,2.6673992673992672,1.9252014652014653,2.0307692307692307
7.032742976000009,2.6673992673992672,1.9252014652014653,2.0307692307692307
7.037407545998576,2.6673992673992672,1.9252014652014653,2.0307692307692307
