time,emg1,emg2,emg3
0.014210346998879686,1.838974358974359,0.23047619047619047,1.1016117216117214
0.014573754000593908,1.838974358974359,0.23047619047619047,1.1016117216117214
0.025873177000903524,1.838974358974359,0.23047619047619047,1.1016117216117214
0.039020395997795276,1.838974358974359,0.23047619047619047,1.1016117216117214
0.04931599600240588,2.7197802197802194,3.2935531135531133,1.1846153846153846
0.05954707499768119,3.3,0.14827838827838827,0.2836630036630036
0.06957683099608403,3.3,0.14827838827838827,0.2836630036630036
0.07990610400156584,2.6956043956043954,2.526373626373626,1.1048351648351646
0.0872149860006175,2.6617582417582417,1.4086446886446886,1.0008791208791208
0.09266200300044147,2.6996336996336994,1.6737728937728935,0.4045421245421245
0.09437683499709237,2.6996336996336994,1.6737728937728935,0.4045421245421245
0.0988773279968882,2.6996336996336994,1.6737728937728935,0.4045421245421245
0.10597407499881228,2.6996336996336994,1.6737728937728935,0.4045421245421245
0.11270921899995301,2.6996336996336994,1.6737728937728935,0.4045421245421245
0.11676899700250942,2.826153846153846,0.6471062271062271,0.6479120879120879
0.11964803199953167,2.693992673992674,0.6841758241758242,0.32073260073260074
0.12334736900083954,2.693992673992674,0.6841758241758242,0.32073260073260074
0.13309137299802387,2.693992673992674,0.6841758241758242,0.32073260073260074
0.14109665500291158,2.693992673992674,0.6841758241758242,0.32073260073260074
0.14810431400110247,2.693992673992674,0.6841758241758242,0.32073260073260074
0.1524245990003692,2.693992673992674,0.6841758241758242,0.32073260073260074
0.15402134900068631,2.693992673992674,0.6841758241758242,0.32073260073260074
0.16066617600154132,2.693992673992674,0.6841758241758242,0.32073260073260074
0.16616691499802982,2.693992673992674,0.6841758241758242,0.32073260073260074
0.16651147799711907,2.4586813186813186,2.133919413919414,1.3127472527472526
0.17263873200136004,2.4586813186813186,2.133919413919414,1.3127472527472526
0.1768522279962781,2.5384615384615383,0.5826373626373627,0.7325274725274724
0.18014150799717754,2.6585347985347987,0.796996336996337,0.24739926739926738
0.18044432500028051,2.6585347985347987,0.796996336996337,0.24739926739926738
0.18931176399928518,2.6585347985347987,0.796996336996337,0.24739926739926738
0.1985095359996194,2.6577289377289377,0.5632967032967032,0.27641025641025635
0.20927051799662877,2.6577289377289377,0.5632967032967032,0.27641025641025635
0.21830864799994742,2.6577289377289377,0.5632967032967032,0.27641025641025635
0.22625432499626186,2.6577289377289377,0.5632967032967032,0.27641025641025635
0.23383861599722877,2.6577289377289377,0.5632967032967032,0.27641025641025635
0.24175375499908114,2.6577289377289377,0.5632967032967032,0.27641025641025635
0.24975449700286845,2.6577289377289377,0.5632967032967032,0.27641025641025635
0.2583149609999964,3.3,2.2435164835164834,1.008131868131868
0.26584404399909545,3.3,2.2435164835164834,1.008131868131868
0.2734119259985164,1.751135531135531,1.4876190476190476,0.09670329670329669
0.27939486400282476,1.751135531135531,1.4876190476190476,0.09670329670329669
0.283081053996284,1.751135531135531,1.4876190476190476,0.09670329670329669
0.2920688020021771,1.751135531135531,1.4876190476190476,0.09670329670329669
0.3006639949962846,1.751135531135531,1.4876190476190476,0.09670329670329669
0.30795841100189136,1.751135531135531,1.4876190476190476,0.09670329670329669
0.31221067599835806,1.751135531135531,1.4876190476190476,0.09670329670329669
0.3139266950020101,1.751135531135531,1.4876190476190476,0.09670329670329669
0.317513196998334,1.751135531135531,1.4876190476190476,0.09670329670329669
0.3177369629993336,1.751135531135531,1.4876190476190476,0.09670329670329669
0.323613093001768,1.751135531135531,1.4876190476190476,0.09670329670329669
0.32860482900287025,1.751135531135531,1.4876190476190476,0.09670329670329669
0.3328424060018733,1.751135531135531,1.4876190476190476,0.09670329670329669
0.33468090899987146,1.751135531135531,1.4876190476190476,0.09670329670329669
0.3390544770009001,1.751135531135531,1.4876190476190476,0.09670329670329669
0.3393035740009509,1.751135531135531,1.4876190476190476,0.09670329670329669
0.34520334199623903,1.751135531135531,1.4876190476190476,0.09670329670329669
0.3511214190002647,1.751135531135531,1.4876190476190476,0.09670329670329669
0.35766127399983816,2.718168498168498,1.618168498168498,0.3763369963369963
0.361936720997619,2.718168498168498,1.618168498168498,0.3763369963369963
0.3636507330011227,2.718168498168498,1.618168498168498,0.3763369963369963
0.36684339399653254,2.718168498168498,1.618168498168498,0.3763369963369963
0.36786025099718245,2.718168498168498,1.618168498168498,0.3763369963369963
0.36889215099654393,2.697216117216117,1.0476190476190474,0.29978021978021974
0.3693428330007009,2.697216117216117,1.0476190476190474,0.29978021978021974
0.3752909989998443,2.697216117216117,1.0476190476190474,0.29978021978021974
0.38024842199956765,2.6714285714285713,0.49157509157509155,0.2868864468864469
0.38447198799985927,2.6714285714285713,0.49157509157509155,0.2868864468864469
0.38786056699609617,2.6714285714285713,0.49157509157509155,0.2868864468864469
0.3881877039966639,2.6714285714285713,0.49157509157509155,0.2868864468864469
0.3928216779968352,2.6714285714285713,0.49157509157509155,0.2868864468864469
0.39304501099832123,2.6714285714285713,0.49157509157509155,0.2868864468864469
0.39820946200052276,2.6714285714285713,0.49157509157509155,0.2868864468864469
0.40067558999726316,2.6714285714285713,0.49157509157509155,0.2868864468864469
0.40746577399841044,2.6714285714285713,0.49157509157509155,0.2868864468864469
0.4117010569971171,2.6714285714285713,0.49157509157509155,0.2868864468864469
0.414294891001191,2.6714285714285713,0.49157509157509155,0.2868864468864469
0.42079746699891984,2.6714285714285713,0.49157509157509155,0.2868864468864469
0.4255297769996105,2.6714285714285713,0.49157509157509155,0.2868864468864469
0.43058950299746357,2.652087912087912,0.5616849816849817,0.34007326007326005
0.43393321899930015,2.652087912087912,0.5616849816849817,0.34007326007326005
0.43562251800176455,2.652087912087912,0.5616849816849817,0.34007326007326005
0.44031561099836836,2.652087912087912,0.5616849816849817,0.34007326007326005
0.4465166829977534,2.652087912087912,0.5616849816849817,0.34007326007326005
0.4499402639994514,2.652087912087912,0.5616849816849817,0.34007326007326005
0.45026547300221864,2.652087912087912,0.5616849816849817,0.34007326007326005
0.4572745859986753,2.677069597069597,1.3425641025641024,0.9831501831501831
0.4614850470024976,2.677069597069597,1.3425641025641024,0.9831501831501831
0.46401586000138195,2.677069597069597,1.3425641025641024,0.9831501831501831
0.46963945800234796,2.677069597069597,1.3425641025641024,0.9831501831501831
0.46985408700129483,2.677069597069597,1.3425641025641024,0.9831501831501831
0.4762681150023127,2.677069597069597,1.3425641025641024,0.9831501831501831
0.4806057809983031,2.677069597069597,1.3425641025641024,0.9831501831501831
0.4815874999985681,2.677069597069597,1.3425641025641024,0.9831501831501831
0.482586400998116,2.677069597069597,1.3425641025641024,0.9831501831501831
0.4835112680011662,2.677069597069597,1.3425641025641024,0.9831501831501831
0.48451662399747875,2.677069597069597,1.3425641025641024,0.9831501831501831
0.486215479002567,2.677069597069597,1.3425641025641024,0.9831501831501831
0.4923645119997673,2.697216117216117,1.2966300366300365,1.212820512820513
0.49583942799654324,2.7004395604395603,3.3,0.8953113553113552
0.4959720059996471,2.66014652014652,0.3489377289377289,0.5246153846153846
0.502208805999544,2.66014652014652,0.3489377289377289,0.5246153846153846
0.5085863799977233,2.66014652014652,0.3489377289377289,0.5246153846153846
0.5130461779990583,2.66014652014652,0.3489377289377289,0.5246153846153846
0.5140668590029236,2.697216117216117,2.331355311355311,1.1024175824175824
0.514972081000451,2.697216117216117,2.331355311355311,1.1024175824175824
0.5166250879992731,2.697216117216117,2.331355311355311,1.1024175824175824
0.5204802669977653,2.697216117216117,2.331355311355311,1.1024175824175824
0.5240638649993343,0.9356043956043956,2.1685714285714286,0.25465201465201465
0.5242125399963697,0.9356043956043956,2.1685714285714286,0.25465201465201465
0.5298753730021417,2.0815384615384613,2.2201465201465203,1.444102564102564
0.5301936339965323,2.0815384615384613,2.2201465201465203,1.444102564102564
0.5352966669961461,2.0815384615384613,2.2201465201465203,1.444102564102564
0.5398929419970955,2.655311355311355,0.386007326007326,0.3698901098901099
0.5451774190005381,2.6923809523809523,1.5835164835164834,0.3158974358974359
0.5479720779985655,2.6923809523809523,1.5835164835164834,0.3158974358974359
0.5527877290005563,2.6956043956043954,2.1468131868131866,0.581025641025641
0.55866392399912,2.6956043956043954,2.1468131868131866,0.581025641025641
0.5640533010009676,2.6956043956043954,2.1468131868131866,0.581025641025641
0.5658431990013923,2.647252747252747,0.3263736263736263,0.41340659340659336
0.5708196129999124,2.647252747252747,0.3263736263736263,0.41340659340659336
0.5747546700004023,2.647252747252747,0.3263736263736263,0.41340659340659336
0.578908388997661,2.690769230769231,0.3626373626373626,0.4625641025641025
0.5814558490019408,2.693992673992674,2.3579487179487177,0.5205860805860806
0.5894246839961852,2.693992673992674,2.3579487179487177,0.5205860805860806
0.595874090999132,2.698827838827839,2.66014652014652,1.1354578754578755
0.6001294439993217,2.6996336996336994,2.2265934065934068,1.1104761904761904
0.6029995909993886,2.6996336996336994,2.2265934065934068,1.1104761904761904
0.6063843270021607,2.6996336996336994,2.2265934065934068,1.1104761904761904
0.6065275979999569,2.6996336996336994,2.2265934065934068,1.1104761904761904
0.6116605260031065,2.6996336996336994,2.2265934065934068,1.1104761904761904
0.6148449449974578,2.6996336996336994,2.2265934065934068,1.1104761904761904
0.6160644830015372,2.6996336996336994,2.2265934065934068,1.1104761904761904
0.6163345750028384,2.6996336996336994,2.2265934065934068,1.1104761904761904
0.6228440150007373,2.6996336996336994,2.2265934065934068,1.1104761904761904
0.6282917339995038,2.6996336996336994,2.2265934065934068,1.1104761904761904
0.628596346003178,2.6996336996336994,2.2265934065934068,1.1104761904761904
0.6348117820016341,2.6996336996336994,2.2265934065934068,1.1104761904761904
0.6416403149996768,1.598021978021978,0.12249084249084248,0.7019047619047618
0.6458127770019928,1.598021978021978,0.12249084249084248,0.7019047619047618
0.6491250120016048,2.6665934065934067,1.7446886446886447,1.4827838827838828
0.6492999530019006,2.6956043956043954,1.1958974358974357,0.4126007326007326
0.6576113240007544,2.6956043956043954,1.1958974358974357,0.4126007326007326
0.6622334729981958,2.6956043956043954,1.1958974358974357,0.4126007326007326
0.6623939860000974,2.6956043956043954,1.1958974358974357,0.4126007326007326
0.6670794689998729,3.3,0.4545054945054945,0.3739194139194139
0.6672477809988777,3.3,0.4545054945054945,0.3739194139194139
0.6762884859999758,3.3,0.4545054945054945,0.3739194139194139
0.6829568800021661,3.3,0.4545054945054945,0.3739194139194139
0.6877231070029666,3.3,0.4545054945054945,0.3739194139194139
0.694111429998884,3.3,0.4545054945054945,0.3739194139194139
0.6980780840021907,0.21032967032967032,0.5068864468864469,1.0234432234432234
0.7033024530028342,0.21032967032967032,0.5068864468864469,1.0234432234432234
0.7066399719988112,0.21032967032967032,0.5068864468864469,1.0234432234432234
0.706827959002112,0.21032967032967032,0.5068864468864469,1.0234432234432234
0.7124244419974275,0.21032967032967032,0.5068864468864469,1.0234432234432234
0.7133415110001806,0.21032967032967032,0.5068864468864469,1.0234432234432234
0.7150001699992572,0.21032967032967032,0.5068864468864469,1.0234432234432234
0.7189446449992829,0.21032967032967032,0.5068864468864469,1.0234432234432234
0.7258101319966954,2.464322344322344,3.2258608058608056,0.796996336996337
0.7292841039961786,2.464322344322344,3.2258608058608056,0.796996336996337
0.7295056729999487,2.464322344322344,3.2258608058608056,0.796996336996337
0.734799728001235,2.464322344322344,3.2258608058608056,0.796996336996337
0.7406981289968826,2.6536996336996337,0.4891575091575091,0.1555311355311355
0.7447260449989699,2.6536996336996337,0.4891575091575091,0.1555311355311355
0.7488276959993527,2.6536996336996337,0.4891575091575091,0.1555311355311355
0.7515168989993981,2.6536996336996337,0.4891575091575091,0.1555311355311355
0.7569596620014636,2.6536996336996337,0.4891575091575091,0.1555311355311355
0.7579059549971134,2.0968498168498164,0.12893772893772892,0.7502564102564102
0.7588856069996837,2.0968498168498164,0.12893772893772892,0.7502564102564102
0.7599283050003578,2.0968498168498164,0.12893772893772892,0.7502564102564102
0.760905131995969,2.0968498168498164,0.12893772893772892,0.7502564102564102
0.7618389580020448,2.0968498168498164,0.12893772893772892,0.7502564102564102
0.7627378120014328,2.0968498168498164,0.12893772893772892,0.7502564102564102
0.7644199979986297,2.0968498168498164,0.12893772893772892,0.7502564102564102
0.7679988169984426,2.0968498168498164,0.12893772893772892,0.7502564102564102
0.768306919002498,3.3,1.7640293040293038,1.5085714285714285
0.7748554139980115,3.3,1.7640293040293038,1.5085714285714285
0.7786463459997321,2.6714285714285713,0.4013186813186813,0.4158241758241758
0.7826546500000404,2.6714285714285713,0.4013186813186813,0.4158241758241758
0.7872363069982384,1.6971428571428568,1.0854945054945053,0.10798534798534798
0.7874407700001029,1.6971428571428568,1.0854945054945053,0.10798534798534798
0.7930467760015745,1.6971428571428568,1.0854945054945053,0.10798534798534798
0.7932820810019621,1.6971428571428568,1.0854945054945053,0.10798534798534798
0.7980507039974327,1.6971428571428568,1.0854945054945053,0.10798534798534798
0.7981656359988847,1.6971428571428568,1.0854945054945053,0.10798534798534798
0.8057096650009044,1.6971428571428568,1.0854945054945053,0.10798534798534798
0.8106086359985056,2.6488644688644687,2.1991941391941388,1.2216849816849817
0.8139476490032393,2.6488644688644687,2.1991941391941388,1.2216849816849817
0.814261585001077,2.6488644688644687,2.1991941391941388,1.2216849816849817
0.8194310620019678,2.6488644688644687,2.1991941391941388,1.2216849816849817
0.8241901930014137,2.697216117216117,0.5342857142857143,0.43597069597069593
0.8301048979992629,2.697216117216117,0.5342857142857143,0.43597069597069593
0.8396718450021581,2.697216117216117,0.5342857142857143,0.43597069597069593
0.8438174719995004,2.697216117216117,0.5342857142857143,0.43597069597069593
0.8471451939985855,2.697216117216117,0.5342857142857143,0.43597069597069593
0.8480735990015091,2.697216117216117,0.5342857142857143,0.43597069597069593
0.8497848309998517,2.7165567765567764,2.0662271062271063,0.7397802197802198
0.8541450949996943,2.7165567765567764,2.0662271062271063,0.7397802197802198
0.8544462080026278,0.2836630036630036,0.3997069597069597,1.008131868131868
0.8604503839960671,0.2836630036630036,0.3997069597069597,1.008131868131868
0.8687749870005064,2.717362637362637,0.5238095238095237,0.49399267399267394
0.8763327769993339,2.717362637362637,0.5238095238095237,0.49399267399267394
0.8812073459994281,2.717362637362637,0.5238095238095237,0.49399267399267394
0.8897055229972466,2.717362637362637,0.5238095238095237,0.49399267399267394
0.8966213219973724,2.717362637362637,0.5238095238095237,0.49399267399267394
0.9025752649977221,2.693992673992674,1.7688644688644688,1.191062271062271
0.9091120349985431,3.1323809523809523,3.0034432234432233,0.8066666666666666
0.9150527870006044,3.1323809523809523,3.0034432234432233,0.8066666666666666
0.9235918049962493,3.1323809523809523,3.0034432234432233,0.8066666666666666
0.9304570210006204,3.1323809523809523,3.0034432234432233,0.8066666666666666
0.9369222899986198,3.1323809523809523,3.0034432234432233,0.8066666666666666
0.9421478820004268,3.1323809523809523,3.0034432234432233,0.8066666666666666
0.9437561140002799,3.1323809523809523,3.0034432234432233,0.8066666666666666
0.9483622959960485,3.1323809523809523,3.0034432234432233,0.8066666666666666
0.9554204590021982,2.685934065934066,1.0661538461538462,1.2216849816849817
0.959399678002228,2.685934065934066,1.0661538461538462,1.2216849816849817
0.9619840169980307,2.685934065934066,1.0661538461538462,1.2216849816849817
0.9677254069974879,2.685934065934066,1.0661538461538462,1.2216849816849817
0.9679208969973843,2.6488644688644687,2.394212454212454,1.3836630036630035
0.9774336539994692,2.6488644688644687,2.394212454212454,1.3836630036630035
0.9818036560027394,2.6488644688644687,2.394212454212454,1.3836630036630035
0.9829014839997399,2.6488644688644687,2.394212454212454,1.3836630036630035
0.9832816159978393,2.6488644688644687,2.394212454212454,1.3836630036630035
0.991560723996372,3.3,0.6052014652014651,0.4593406593406593
0.9964419399984763,3.3,0.6052014652014651,0.4593406593406593
1.001533782997285,3.3,0.6052014652014651,0.4593406593406593
1.0067090390002704,3.3,0.6052014652014651,0.4593406593406593
1.009234730998287,3.3,1.1346520146520145,0.697069597069597
1.0145391469995957,3.3,1.1346520146520145,0.697069597069597
1.0170267799985595,3.3,0.16036630036630037,0.6616117216117217
1.0171294730025693,3.3,0.16036630036630037,0.6616117216117217
1.0280737319990294,3.3,0.16036630036630037,0.6616117216117217
1.0359554140013643,3.3,0.16036630036630037,0.6616117216117217
1.0412670739970054,3.3,0.16036630036630037,0.6616117216117217
1.0432136590025038,3.3,0.16036630036630037,0.6616117216117217
1.044948419003049,3.3,0.16036630036630037,0.6616117216117217
1.0490695900007267,3.3,0.16036630036630037,0.6616117216117217
1.0526507419999689,3.3,0.16036630036630037,0.6616117216117217
1.0585424840028281,2.6617582417582417,1.4368498168498167,1.0484249084249082
1.0586826799990376,2.6617582417582417,1.4368498168498167,1.0484249084249082
1.064141123999434,2.6617582417582417,1.4368498168498167,1.0484249084249082
1.0664845580031397,3.3,0.6293772893772893,0.4166300366300366
1.066645744998823,2.5199267399267398,1.9977289377289376,1.5883516483516482
1.0721774510020623,2.5199267399267398,1.9977289377289376,1.5883516483516482
1.073088541998004,2.5199267399267398,1.9977289377289376,1.5883516483516482
1.0740470210002968,2.5199267399267398,1.9977289377289376,1.5883516483516482
1.075719020998804,2.5199267399267398,1.9977289377289376,1.5883516483516482
1.0788452830020105,2.5199267399267398,1.9977289377289376,1.5883516483516482
1.0803743810029118,2.5199267399267398,1.9977289377289376,1.5883516483516482
1.0846690620019217,3.257289377289377,0.6116483516483516,0.21274725274725276
1.0862479860006715,3.257289377289377,0.6116483516483516,0.21274725274725276
1.0899602450008388,3.257289377289377,0.6116483516483516,0.21274725274725276
1.0901218660001177,3.257289377289377,0.6116483516483516,0.21274725274725276
1.0950552869981038,3.257289377289377,0.6116483516483516,0.21274725274725276
1.10117632499896,3.257289377289377,0.6116483516483516,0.21274725274725276
1.1052230450004572,3.257289377289377,0.6116483516483516,0.21274725274725276
1.1088689739990514,3.257289377289377,0.6116483516483516,0.21274725274725276
1.114720010999008,3.257289377289377,0.6116483516483516,0.21274725274725276
1.1148574730032124,3.257289377289377,0.6116483516483516,0.21274725274725276
1.12053220999951,3.257289377289377,0.6116483516483516,0.21274725274725276
1.1208084829995641,2.690769230769231,0.7228571428571429,0.33604395604395604
1.1266028030004236,2.690769230769231,0.7228571428571429,0.33604395604395604
1.1268760680031846,2.690769230769231,0.7228571428571429,0.33604395604395604
1.1322836990002543,2.690769230769231,0.7228571428571429,0.33604395604395604
1.1347341029977542,2.697216117216117,1.3328937728937729,0.4722344322344322
1.142334721997031,2.697216117216117,1.3328937728937729,0.4722344322344322
1.1501295939960983,2.697216117216117,1.3328937728937729,0.4722344322344322
1.1635263200005284,2.7004395604395603,3.3,1.1257875457875457
1.1786037769998075,2.285421245421245,2.079120879120879,1.4569963369963368
1.178938921999361,2.7165567765567764,2.4788278388278386,1.187032967032967
1.1895900599993183,2.7165567765567764,2.4788278388278386,1.187032967032967
1.199865504000627,2.7165567765567764,2.4788278388278386,1.187032967032967
1.2060404599978938,2.9824908424908423,0.34087912087912087,0.5657142857142857
1.212888533998921,3.0034432234432233,2.146007326007326,1.5327472527472528
1.2210256489997846,3.0034432234432233,2.146007326007326,1.5327472527472528
1.227082994999364,2.7004395604395603,0.4891575091575091,0.5431501831501832
1.230872524996812,2.7004395604395603,0.4891575091575091,0.5431501831501832
1.2353902559989365,2.698021978021978,3.3,0.9565567765567766
1.2355912569983047,2.834212454212454,0.11604395604395604,0.6277655677655677
1.241040184002486,2.834212454212454,0.11604395604395604,0.6277655677655677
1.2428612919975421,2.834212454212454,0.11604395604395604,0.6277655677655677
1.2454416699983994,2.834212454212454,0.11604395604395604,0.6277655677655677
1.2513788150026812,1.8156043956043957,2.335384615384615,1.4876190476190476
1.2571945460003917,1.8156043956043957,2.335384615384615,1.4876190476190476
1.2627518700028304,1.8156043956043957,2.335384615384615,1.4876190476190476
1.263767809003184,1.8156043956043957,2.335384615384615,1.4876190476190476
1.2640885840010014,1.8156043956043957,2.335384615384615,1.4876190476190476
1.2690332010024576,1.8156043956043957,2.335384615384615,1.4876190476190476
1.2738168630021391,1.8156043956043957,2.335384615384615,1.4876190476190476
1.279479436998372,0.9017582417582416,0.6035897435897435,0.6519413919413919
1.2797025859981659,2.270915750915751,3.231501831501831,0.7905494505494506
1.2847064259985927,2.270915750915751,3.231501831501831,0.7905494505494506
1.2897325469966745,2.270915750915751,3.231501831501831,0.7905494505494506
1.293708669996704,2.270915750915751,3.231501831501831,0.7905494505494506
1.2975591750000603,2.270915750915751,3.231501831501831,0.7905494505494506
1.3014471249989583,2.270915750915751,3.231501831501831,0.7905494505494506
1.3060413130006054,2.270915750915751,3.231501831501831,0.7905494505494506
1.306275253999047,2.270915750915751,3.231501831501831,0.7905494505494506
1.3109099150024122,2.270915750915751,3.231501831501831,0.7905494505494506
1.311141279998992,2.698827838827839,3.3,1.1547985347985346
1.3158503840022604,2.698827838827839,3.3,1.1547985347985346
1.3159614379983395,2.717362637362637,0.506080586080586,0.4045421245421245
1.321472477997304,2.717362637362637,0.506080586080586,0.4045421245421245
1.3230148250004277,2.717362637362637,0.506080586080586,0.4045421245421245
1.327371059996949,2.717362637362637,0.506080586080586,0.4045421245421245
1.328924970002845,2.717362637362637,0.506080586080586,0.4045421245421245
1.3339207489989349,2.6996336996336994,3.3,0.9476923076923076
1.338248203996045,2.6996336996336994,3.3,0.9476923076923076
1.3404422480016365,2.6996336996336994,3.3,0.9476923076923076
1.340763212996535,2.6996336996336994,3.3,0.9476923076923076
1.3450686240030336,2.6996336996336994,3.3,0.9476923076923076
1.3476434969998081,2.6996336996336994,3.3,0.9476923076923076
1.35241095800302,2.6996336996336994,3.3,0.9476923076923076
1.352524091002124,2.6996336996336994,3.3,0.9476923076923076
1.3569521350000286,2.6996336996336994,3.3,0.9476923076923076
1.3584463790029986,2.6996336996336994,3.3,0.9476923076923076
1.3627350780006964,2.6964102564102563,1.3949450549450548,0.22886446886446887
1.3642593229960767,2.6488644688644687,0.5560439560439561,0.4279120879120879
1.3686050480027916,2.655311355311355,0.8106959706959707,0.4142124542124542
1.370165073996759,2.655311355311355,0.8106959706959707,0.4142124542124542
1.374445667002874,2.7197802197802194,1.896190476190476,1.0468131868131867
1.3760234840010526,2.7197802197802194,1.896190476190476,1.0468131868131867
1.380603236000752,2.7197802197802194,1.896190476190476,1.0468131868131867
1.3808897850030917,2.7197802197802194,1.896190476190476,1.0468131868131867
1.3857528869993985,2.7197802197802194,1.896190476190476,1.0468131868131867
1.390696246002335,2.7197802197802194,1.896190476190476,1.0468131868131867
1.3952631860011024,2.7197802197802194,1.896190476190476,1.0468131868131867
1.39548435100005,2.7197802197802194,1.896190476190476,1.0468131868131867
1.400123713996436,2.7197802197802194,1.896190476190476,1.0468131868131867
1.4004079399965121,1.1104761904761904,2.5070329670329667,0.4528937728937729
1.4050790429973858,1.1104761904761904,2.5070329670329667,0.4528937728937729
1.4053313350013923,1.1104761904761904,2.5070329670329667,0.4528937728937729
1.4100104030003422,1.1104761904761904,2.5070329670329667,0.4528937728937729
1.410886092002329,1.1104761904761904,2.5070329670329667,0.4528937728937729
1.4118296680026106,1.1104761904761904,2.5070329670329667,0.4528937728937729
1.4128381440023077,1.1104761904761904,2.5070329670329667,0.4528937728937729
1.4144527039970853,3.3,0.11684981684981684,0.8268131868131867
1.4181295599992154,3.3,0.11684981684981684,0.8268131868131867
1.4232208000030369,2.718974358974359,2.2265934065934068,0.46175824175824176
1.4268556329989224,2.718974358974359,2.2265934065934068,0.46175824175824176
1.4270924660013407,2.718974358974359,2.2265934065934068,0.46175824175824176
1.4313743989987415,2.718974358974359,2.2265934065934068,0.46175824175824176
1.4342720310014556,2.718974358974359,2.2265934065934068,0.46175824175824176
1.437168334996386,2.718974358974359,2.2265934065934068,0.46175824175824176
1.4407108430023072,2.718974358974359,2.2265934065934068,0.46175824175824176
1.4409338690020377,2.718974358974359,2.2265934065934068,0.46175824175824176
1.4459771039983025,2.718974358974359,2.2265934065934068,0.46175824175824176
1.4506828879966633,2.718974358974359,2.2265934065934068,0.46175824175824176
1.4509215599973686,2.697216117216117,1.3925274725274726,0.4045421245421245
1.4564012069968157,2.697216117216117,1.3925274725274726,0.4045421245421245
1.45734615100082,2.697216117216117,1.3925274725274726,0.4045421245421245
1.4582928919990081,2.697216117216117,1.3925274725274726,0.4045421245421245
1.4599206130005769,2.697216117216117,2.1975824175824172,0.4424175824175824
1.4638390249965596,2.697216117216117,2.1975824175824172,0.4424175824175824
1.4687301230005687,2.697216117216117,2.1975824175824172,0.4424175824175824
1.4743459890014492,2.697216117216117,2.1975824175824172,0.4424175824175824
1.4752043659973424,2.697216117216117,2.1975824175824172,0.4424175824175824
1.4768410679971566,2.697216117216117,2.1975824175824172,0.4424175824175824
1.4806871429973398,2.697216117216117,2.1975824175824172,0.4424175824175824
1.4852252659984515,3.3,0.4899633699633699,0.2594871794871795
1.4854713140011881,2.2394871794871793,2.041245421245421,1.4473260073260072
1.4901166260024183,2.2394871794871793,2.041245421245421,1.4473260073260072
1.490365338002448,2.697216117216117,0.6301831501831501,0.28124542124542123
1.4950333509987104,2.697216117216117,0.6301831501831501,0.28124542124542123
1.4952533000032417,2.697216117216117,0.6301831501831501,0.28124542124542123
1.5005996059990139,2.697216117216117,0.6301831501831501,0.28124542124542123
1.5022903400022187,2.693992673992674,2.418388278388278,0.4931868131868131
1.505454976002511,2.693992673992674,2.418388278388278,0.4931868131868131
1.507117893997929,2.693992673992674,2.418388278388278,0.4931868131868131
1.5109724049980287,2.693992673992674,2.418388278388278,0.4931868131868131
1.5156040259971633,2.7004395604395603,1.3594871794871795,0.4045421245421245
1.5157720159986638,3.3,0.190989010989011,0.5834432234432234
1.5204110350023257,3.3,0.190989010989011,0.5834432234432234
1.5206307580010616,3.3,0.190989010989011,0.5834432234432234
1.5260219260017038,3.3,0.190989010989011,0.5834432234432234
1.5283944059992791,2.7165567765567764,1.1580219780219778,1.054065934065934
1.52851054599887,2.7165567765567764,1.1580219780219778,1.054065934065934
1.5333294340016437,2.7165567765567764,1.1580219780219778,1.054065934065934
1.5391079940018244,2.7004395604395603,3.3,1.3965567765567766
1.5392295490019023,2.7004395604395603,3.3,1.3965567765567766
1.5439106859994354,2.7004395604395603,3.3,1.3965567765567766
1.5441428249978344,2.7004395604395603,3.3,1.3965567765567766
1.5490734269988025,2.289450549450549,2.238681318681319,1.4827838827838828
1.5537581999960821,2.7197802197802194,1.191062271062271,0.9146520146520146
1.558991840996896,2.461904761904762,0.913040293040293,0.9186813186813186
1.56300906999968,2.461904761904762,0.913040293040293,0.9186813186813186
1.566300491002039,2.6488644688644687,0.21838827838827837,0.32717948717948714
1.5672377759983647,2.6488644688644687,0.21838827838827837,0.32717948717948714
1.5688662379980087,2.6488644688644687,0.21838827838827837,0.32717948717948714
1.5727748580029584,2.6488644688644687,0.21838827838827837,0.32717948717948714
1.5776527109992458,2.7004395604395603,1.88007326007326,1.0717948717948718
1.5823194889962906,2.7004395604395603,1.88007326007326,1.0717948717948718
1.5824918860016624,2.7004395604395603,1.88007326007326,1.0717948717948718
1.587151965002704,3.3,0.4835164835164835,0.3545787545787546
1.5873783759961952,3.3,0.4835164835164835,0.3545787545787546
1.5927031280007213,3.3,0.4835164835164835,0.3545787545787546
1.5950073929998325,3.3,0.4835164835164835,0.3545787545787546
1.595191120999516,3.3,0.4835164835164835,0.3545787545787546
1.6005549159963266,3.3,0.4835164835164835,0.3545787545787546
1.6022390200014343,3.3,0.4835164835164835,0.3545787545787546
1.6053702259960119,3.3,0.4835164835164835,0.3545787545787546
1.6078146060026484,3.3,0.5987545787545787,0.3626373626373626
1.6079743309965124,3.3,0.5987545787545787,0.3626373626373626
1.613400123998872,3.3,0.5987545787545787,0.3626373626373626
1.615021824996802,3.3,0.5987545787545787,0.3626373626373626
1.6196267080013058,3.3,0.5987545787545787,0.3626373626373626
1.6199077040000702,2.7004395604395603,0.6245421245421244,0.30139194139194136
1.6253493850017549,2.7004395604395603,0.6245421245421244,0.30139194139194136
1.6276508739974815,3.3,0.36666666666666664,0.20468864468864467
1.6278824230030295,3.3,0.36666666666666664,0.20468864468864467
1.6332876399974339,2.7004395604395603,2.075091575091575,0.6503296703296703
1.634893661001115,2.7004395604395603,2.075091575091575,0.6503296703296703
1.6388271350006107,2.7004395604395603,2.075091575091575,0.6503296703296703
1.642818530999648,3.3,2.9905494505494503,0.9138461538461539
1.6466543290007394,3.3,2.9905494505494503,0.9138461538461539
1.6513160570029868,2.6714285714285713,1.814798534798535,1.0008791208791208
1.6514914599974873,2.6714285714285713,1.814798534798535,1.0008791208791208
1.6561810330022126,2.6714285714285713,1.814798534798535,1.0008791208791208
1.6564783040012117,2.6682051282051282,0.3594139194139194,0.4158241758241758
1.6620012990024406,2.6682051282051282,0.3594139194139194,0.4158241758241758
1.6622952050020103,2.6682051282051282,0.3594139194139194,0.4158241758241758
1.6679979350010399,2.6682051282051282,0.3594139194139194,0.4158241758241758
1.668252190000203,2.6794871794871793,1.696336996336996,1.4054212454212454
1.6729652220019489,2.6794871794871793,1.696336996336996,1.4054212454212454
1.6731400580029003,2.6794871794871793,1.696336996336996,1.4054212454212454
1.6778581199978362,2.6794871794871793,1.696336996336996,1.4054212454212454
1.677978145002271,2.6794871794871793,1.696336996336996,1.4054212454212454
1.6834542930009775,2.6794871794871793,1.696336996336996,1.4054212454212454
1.6851002359981067,2.6794871794871793,1.696336996336996,1.4054212454212454
1.6890113420013222,2.6794871794871793,1.696336996336996,1.4054212454212454
1.6936676949990215,2.697216117216117,1.1709157509157508,0.9186813186813186
1.6938474690032308,1.2216849816849817,0.22967032967032966,0.8163369963369963
1.6985834450024413,1.2216849816849817,0.22967032967032966,0.8163369963369963
1.6987904799971147,1.2216849816849817,0.22967032967032966,0.8163369963369963
1.7034201019996544,1.2216849816849817,0.22967032967032966,0.8163369963369963
1.703736862000369,1.2216849816849817,0.22967032967032966,0.8163369963369963
1.708511972996348,1.2216849816849817,0.22967032967032966,0.8163369963369963
1.7087565429974347,1.2216849816849817,0.22967032967032966,0.8163369963369963
1.7133915789963794,1.2216849816849817,0.22967032967032966,0.8163369963369963
1.7142192350002006,1.2216849816849817,0.22967032967032966,0.8163369963369963
1.7158096119965194,1.2216849816849817,0.22967032967032966,0.8163369963369963
1.720060512998316,2.717362637362637,0.4432234432234432,0.4174358974358974
1.72232706000068,2.717362637362637,0.4432234432234432,0.4174358974358974
1.7231151090018102,3.3,0.43355311355311354,0.4037362637362637
1.7254788589998498,3.3,0.43355311355311354,0.4037362637362637
1.7256257560002268,3.3,0.43355311355311354,0.4037362637362637
1.730812670000887,3.3,0.43355311355311354,0.4037362637362637
1.7333094069981598,3.3,0.43355311355311354,0.4037362637362637
1.7334409070026595,3.3,0.43355311355311354,0.4037362637362637
1.73884096799884,3.3,0.43355311355311354,0.4037362637362637
1.7413305029986077,2.6585347985347987,0.3916483516483516,0.26754578754578756
1.7469322309989366,2.6585347985347987,0.3916483516483516,0.26754578754578756
1.747820402000798,2.6585347985347987,0.3916483516483516,0.26754578754578756
1.7494318109966116,2.6585347985347987,0.3916483516483516,0.26754578754578756
1.7533385170027032,2.6585347985347987,0.3916483516483516,0.26754578754578756
1.7564940770025714,2.6585347985347987,0.3916483516483516,0.26754578754578756
1.7581673719978426,2.6585347985347987,0.3916483516483516,0.26754578754578756
1.7621938419979415,2.6585347985347987,0.3916483516483516,0.26754578754578756
1.7661419569994905,3.3,0.17164835164835165,0.33282051282051284
1.770179649000056,3.3,0.17164835164835165,0.33282051282051284
1.7732403810005053,2.718168498168498,2.3724542124542123,1.2184615384615385
1.7749115789993084,2.718168498168498,2.3724542124542123,1.2184615384615385
1.7789663200019277,2.718168498168498,2.3724542124542123,1.2184615384615385
1.7814072420005687,2.718168498168498,2.3724542124542123,1.2184615384615385
1.7868519569965429,1.5174358974358972,1.585934065934066,0.24175824175824176
1.7890347189968452,3.3,0.46417582417582415,0.4504761904761904
1.789856258998043,2.7004395604395603,0.5657142857142857,0.4496703296703296
1.7914393989995006,2.7004395604395603,0.5657142857142857,0.4496703296703296
1.7957862519979244,2.7004395604395603,0.5657142857142857,0.4496703296703296
1.7973412270002882,2.7004395604395603,0.5657142857142857,0.4496703296703296
1.8024405489995843,2.7004395604395603,0.5657142857142857,0.4496703296703296
1.8069609719968867,2.7004395604395603,0.5657142857142857,0.4496703296703296
1.8078758720002952,2.7004395604395603,0.5657142857142857,0.4496703296703296
1.8088360670008115,2.7004395604395603,0.5657142857142857,0.4496703296703296
1.809753132998594,2.7004395604395603,0.5657142857142857,0.4496703296703296
1.8113341459975345,2.7004395604395603,0.5657142857142857,0.4496703296703296
1.815610388002824,2.7004395604395603,0.5657142857142857,0.4496703296703296
1.8171217319977586,2.7004395604395603,0.5657142857142857,0.4496703296703296
1.8224478310003178,2.7004395604395603,0.5657142857142857,0.4496703296703296
1.8256479780029622,2.7004395604395603,0.5657142857142857,0.4496703296703296
1.826596710998274,2.7004395604395603,0.5657142857142857,0.4496703296703296
1.827546357002575,2.7004395604395603,0.5657142857142857,0.4496703296703296
1.829247346999182,2.7004395604395603,0.5657142857142857,0.4496703296703296
1.8324300090025645,2.7004395604395603,0.5657142857142857,0.4496703296703296
1.8346035970025696,2.7004395604395603,0.5657142857142857,0.4496703296703296
1.8348835610013339,2.7004395604395603,0.5657142857142857,0.4496703296703296
1.8399295400013216,2.7004395604395603,0.5657142857142857,0.4496703296703296
1.8438110139977653,2.7004395604395603,0.5657142857142857,0.4496703296703296
1.8484166720008943,2.7004395604395603,0.5657142857142857,0.4496703296703296
1.8486387230004766,2.7004395604395603,0.5657142857142857,0.4496703296703296
1.8533752209987142,2.7004395604395603,0.5657142857142857,0.4496703296703296
1.8534940640020068,3.3,1.066959706959707,1.00007326007326
1.8582285649972619,3.3,1.066959706959707,1.00007326007326
1.858417556999484,3.3,1.066959706959707,1.00007326007326
1.8630332280008588,3.3,2.7423443223443225,0.8405128205128204
1.863836718002858,3.3,0.4319413919413919,0.1805128205128205
1.8653898359989398,3.3,0.4319413919413919,0.1805128205128205
1.8697535500032245,3.3,2.269304029304029,1.547252747252747
1.871247041002789,3.3,2.269304029304029,1.547252747252747
1.875559993000934,3.3,2.269304029304029,1.547252747252747
1.877129820000846,3.3,2.269304029304029,1.547252747252747
1.8821489629990538,3.3,2.269304029304029,1.547252747252747
1.886476366998977,3.3,0.5713553113553113,0.13538461538461538
1.8886758149965317,3.3,0.5713553113553113,0.13538461538461538
1.8895381219990668,3.3,0.5713553113553113,0.13538461538461538
1.8910662380003487,3.3,0.5713553113553113,0.13538461538461538
1.8954167629999574,3.3,0.5713553113553113,0.13538461538461538
1.8976393839984667,3.3,0.5713553113553113,0.13538461538461538
1.8979035040028975,3.3,0.5713553113553113,0.13538461538461538
1.9030620690027718,3.3,0.5713553113553113,0.13538461538461538
1.9067553970016888,3.3,0.5713553113553113,0.13538461538461538
1.9069523090001894,3.3,0.5713553113553113,0.13538461538461538
1.9113455870028702,3.3,0.5713553113553113,0.13538461538461538
1.9129189469967969,2.7004395604395603,0.929157509157509,0.4142124542124542
1.9172595470008673,2.7004395604395603,0.929157509157509,0.4142124542124542
1.9188102620028076,2.7004395604395603,0.929157509157509,0.4142124542124542
1.9230600529990625,2.7004395604395603,0.929157509157509,0.4142124542124542
1.9254127669992158,2.7004395604395603,0.929157509157509,0.4142124542124542
1.925710538002022,2.7004395604395603,0.929157509157509,0.4142124542124542
1.9299836209975183,2.7004395604395603,0.929157509157509,0.4142124542124542
1.93222116400284,2.7004395604395603,0.9646153846153847,0.7808791208791208
1.9330236739988322,2.698827838827839,2.0863736263736263,1.1314285714285715
1.9345506230019964,2.698827838827839,2.0863736263736263,1.1314285714285715
1.938839750997431,2.698827838827839,2.0863736263736263,1.1314285714285715
1.9403677279988187,2.698827838827839,2.0863736263736263,1.1314285714285715
1.9454985900010797,2.698827838827839,2.0863736263736263,1.1314285714285715
1.9491599739994854,2.6617582417582417,2.269304029304029,1.1386813186813185
1.9493066310024005,2.6617582417582417,2.269304029304029,1.1386813186813185
1.9540259979985422,2.6617582417582417,2.269304029304029,1.1386813186813185
1.9542307399970014,2.6617582417582417,2.269304029304029,1.1386813186813185
1.9589830600016285,2.6617582417582417,2.269304029304029,1.1386813186813185
1.9591849839998758,2.7004395604395603,0.4448351648351648,0.49479853479853475
1.9640405410027597,2.4828571428571427,3.3,0.9613919413919414
1.9696980230000918,2.4828571428571427,3.3,0.9613919413919414
1.9698708089999855,2.698021978021978,1.1241758241758242,1.0024908424908423
1.9745667320021312,2.698021978021978,1.1241758241758242,1.0024908424908423
1.9747471709997626,2.698021978021978,1.1241758241758242,1.0024908424908423
1.97965187200316,2.698021978021978,1.1241758241758242,1.0024908424908423
1.9844772119977279,2.698021978021978,1.1241758241758242,1.0024908424908423
1.9894205769960536,2.698021978021978,1.1241758241758242,1.0024908424908423
1.9941523390007205,2.698021978021978,1.1241758241758242,1.0024908424908423
1.9999425709975185,2.698021978021978,1.1241758241758242,1.0024908424908423
2.000091492001957,2.698021978021978,1.1241758241758242,1.0024908424908423
2.0047966170022846,2.698021978021978,1.1241758241758242,1.0024908424908423
2.004936375997204,3.3,0.5431501831501832,0.4254945054945055
2.010509400999581,3.3,0.5431501831501832,0.4254945054945055
2.0122307609999552,3.3,0.5431501831501832,0.4254945054945055
2.0155306680026115,3.3,0.5431501831501832,0.4254945054945055
2.0158605859978707,3.3,0.5431501831501832,0.4254945054945055
2.02052042199648,3.3,0.5431501831501832,0.4254945054945055
2.02078873100254,3.3,0.5431501831501832,0.4254945054945055
2.0262959050014615,3.3,0.5431501831501832,0.4254945054945055
2.0272519720019773,3.3,1.6230036630036628,0.8775824175824175
2.028262961997825,3.3,1.6230036630036628,0.8775824175824175
2.0292846009979257,3.3,1.6230036630036628,0.8775824175824175
2.0295871819980675,3.3,1.6230036630036628,0.8775824175824175
2.034253407997312,3.3,1.6230036630036628,0.8775824175824175
2.034516772000643,3.3,1.6230036630036628,0.8775824175824175
2.0393502579972846,3.3,1.6230036630036628,0.8775824175824175
2.0448415439968812,3.3,1.6230036630036628,0.8775824175824175
2.045843136998883,3.3,0.17245421245421244,0.24256410256410255
2.0467507959983777,3.3,0.17245421245421244,0.24256410256410255
2.0483619930018904,3.3,0.17245421245421244,0.24256410256410255
2.0524772749995464,2.698827838827839,1.4134798534798534,0.5068864468864469
2.054826826999488,2.698827838827839,1.4134798534798534,0.5068864468864469
2.0549417630027165,2.698827838827839,1.4134798534798534,0.5068864468864469
2.0607246950021363,2.698827838827839,1.4134798534798534,0.5068864468864469
2.0661298080012784,2.698827838827839,1.4134798534798534,0.5068864468864469
2.0685289070024737,3.3,0.6043956043956044,0.43355311355311354
2.0686361260013655,3.3,0.6043956043956044,0.43355311355311354
2.0734522380007547,3.3,0.6043956043956044,0.43355311355311354
2.079274085997895,2.697216117216117,2.092014652014652,1.1604395604395605
2.0793891880020965,2.697216117216117,2.092014652014652,1.1604395604395605
2.084009084996069,2.697216117216117,2.092014652014652,1.1604395604395605
2.0848764429974835,2.697216117216117,2.092014652014652,1.1604395604395605
2.0858351939968998,2.697216117216117,2.092014652014652,1.1604395604395605
2.086826373000804,2.697216117216117,2.092014652014652,1.1604395604395605
2.087796353000158,2.697216117216117,2.092014652014652,1.1604395604395605
2.0888402440032223,2.697216117216117,2.092014652014652,1.1604395604395605
2.0892058859972167,2.697216117216117,2.092014652014652,1.1604395604395605
2.0938464580030995,2.697216117216117,2.092014652014652,1.1604395604395605
2.0940885539966985,2.697216117216117,2.092014652014652,1.1604395604395605
2.0988245560001815,2.697216117216117,2.092014652014652,1.1604395604395605
2.1045658639995963,2.697216117216117,2.092014652014652,1.1604395604395605
2.1047618290031096,2.697216117216117,2.092014652014652,1.1604395604395605
2.1095415390009293,2.697216117216117,2.092014652014652,1.1604395604395605
2.109767219000787,2.697216117216117,2.092014652014652,1.1604395604395605
2.114458491996629,2.697216117216117,2.092014652014652,1.1604395604395605
2.1147214000011445,2.697216117216117,1.8695970695970694,1.1314285714285715
2.119716449000407,2.697216117216117,1.8695970695970694,1.1314285714285715
2.123684209997009,3.3,3.013919413919414,0.8751648351648351
2.126863218996732,3.3,3.013919413919414,0.8751648351648351
2.128502016996208,3.3,3.013919413919414,0.8751648351648351
2.1323890459971153,3.3,3.013919413919414,0.8751648351648351
2.13629574800143,3.3,3.013919413919414,0.8751648351648351
2.1401542919993517,3.3,3.013919413919414,0.8751648351648351
2.14479173199652,3.3,3.013919413919414,0.8751648351648351
2.1450010530024883,3.3,3.013919413919414,0.8751648351648351
2.1505471100026625,3.3,3.013919413919414,0.8751648351648351
2.1508448289969238,2.717362637362637,2.4836630036630036,1.2724542124542124
2.155644886996015,2.717362637362637,2.4836630036630036,1.2724542124542124
2.1558741129992995,2.717362637362637,2.4836630036630036,1.2724542124542124
2.1606311979994643,2.717362637362637,2.4836630036630036,1.2724542124542124
2.1664319729970885,2.717362637362637,2.4836630036630036,1.2724542124542124
2.1718924770029844,2.717362637362637,2.4836630036630036,1.2724542124542124
2.1735247489996254,2.717362637362637,2.4836630036630036,1.2724542124542124
2.1774217749989475,2.717362637362637,2.4836630036630036,1.2724542124542124
2.1805580259970156,2.717362637362637,2.4836630036630036,1.2724542124542124
2.1821986610011663,2.717362637362637,2.4836630036630036,1.2724542124542124
2.1861173779980163,2.717362637362637,2.4836630036630036,1.2724542124542124
2.190056041996286,2.717362637362637,2.4836630036630036,1.2724542124542124
2.193937657000788,2.717362637362637,2.4836630036630036,1.2724542124542124
2.1980091290024575,2.717362637362637,2.4836630036630036,1.2724542124542124
2.201206805999391,2.717362637362637,2.4836630036630036,1.2724542124542124
2.2021410870002,2.717362637362637,2.4836630036630036,1.2724542124542124
2.203074668002955,2.717362637362637,2.4836630036630036,1.2724542124542124
2.2047434900014196,2.717362637362637,2.4836630036630036,1.2724542124542124
2.2089591390031273,2.717362637362637,2.4836630036630036,1.2724542124542124
2.2113626020000083,2.717362637362637,2.4836630036630036,1.2724542124542124
2.2171585929972935,2.717362637362637,2.4836630036630036,1.2724542124542124
2.217346997000277,3.3,0.307032967032967,0.7792673992673992
2.2227337309959694,3.3,0.307032967032967,0.7792673992673992
2.223646254002233,3.3,0.307032967032967,0.7792673992673992
2.225240368003142,3.3,0.307032967032967,0.7792673992673992
2.2298186810003244,3.3,0.307032967032967,0.7792673992673992
2.230130354000721,3.3,0.307032967032967,0.7792673992673992
2.2355348139972193,3.3,0.307032967032967,0.7792673992673992
2.2364373759992304,2.9454212454212456,1.1523809523809523,0.9855677655677655
2.238119847002963,2.9454212454212456,1.1523809523809523,0.9855677655677655
2.24195505699754,2.9454212454212456,1.1523809523809523,0.9855677655677655
2.2459027700024308,2.9454212454212456,1.1523809523809523,0.9855677655677655
2.249208658999123,2.9454212454212456,1.1523809523809523,0.9855677655677655
2.2500949109962676,2.9454212454212456,1.1523809523809523,0.9855677655677655
2.2510422760024085,2.9454212454212456,1.1523809523809523,0.9855677655677655
2.2526787469978444,2.9454212454212456,1.1523809523809523,0.9855677655677655
2.2557670890018926,2.9454212454212456,1.1523809523809523,0.9855677655677655
2.258185382001102,2.9454212454212456,1.1523809523809523,0.9855677655677655
2.258442678001302,2.9454212454212456,1.1523809523809523,0.9855677655677655
2.2631798079964938,2.9454212454212456,1.1523809523809523,0.9855677655677655
2.2633131659968058,2.9454212454212456,1.1523809523809523,0.9855677655677655
2.267769762998796,2.9454212454212456,1.1523809523809523,0.9855677655677655
2.268627038996783,2.6633699633699632,2.025934065934066,1.4046153846153846
2.270212942996295,2.6633699633699632,2.025934065934066,1.4046153846153846
2.2738425799980178,2.6633699633699632,2.025934065934066,1.4046153846153846
2.2739966270019067,2.6633699633699632,2.025934065934066,1.4046153846153846
2.279099307001161,2.6633699633699632,2.025934065934066,1.4046153846153846
2.2826498849972268,2.6633699633699632,2.025934065934066,1.4046153846153846
2.282892167000682,2.6633699633699632,2.025934065934066,1.4046153846153846
2.287744200002635,2.6633699633699632,2.025934065934066,1.4046153846153846
2.2927009949999047,2.390989010989011,2.3200732600732596,1.5045421245421244
2.2969412530001136,2.390989010989011,2.3200732600732596,1.5045421245421244
2.2991279709967785,2.390989010989011,2.3200732600732596,1.5045421245421244
2.2999315639972338,2.390989010989011,2.3200732600732596,1.5045421245421244
2.30148921199725,2.390989010989011,2.3200732600732596,1.5045421245421244
2.305133622001449,2.390989010989011,2.3200732600732596,1.5045421245421244
2.3052829730004305,2.390989010989011,2.3200732600732596,1.5045421245421244
2.3096124319999944,2.390989010989011,2.3200732600732596,1.5045421245421244
2.31116477100295,2.390989010989011,2.3200732600732596,1.5045421245421244
2.315460489997349,2.390989010989011,2.3200732600732596,1.5045421245421244
2.317024488002062,2.390989010989011,2.3200732600732596,1.5045421245421244
2.321257935000176,2.390989010989011,2.3200732600732596,1.5045421245421244
2.32347072900302,2.390989010989011,2.3200732600732596,1.5045421245421244
2.3237417260024813,2.390989010989011,2.3200732600732596,1.5045421245421244
2.328158762997191,2.390989010989011,2.3200732600732596,1.5045421245421244
2.330362173001049,2.390989010989011,2.3200732600732596,1.5045421245421244
2.331216068996582,2.390989010989011,2.3200732600732596,1.5045421245421244
2.333401882002363,2.390989010989011,2.3200732600732596,1.5045421245421244
2.333683746997849,2.390989010989011,2.3200732600732596,1.5045421245421244
2.3380066199970315,2.390989010989011,2.3200732600732596,1.5045421245421244
2.3402665030007483,2.390989010989011,2.3200732600732596,1.5045421245421244
2.341075752003235,2.390989010989011,2.3200732600732596,1.5045421245421244
2.3432529170022462,2.390989010989011,2.3200732600732596,1.5045421245421244
2.343559043001733,2.390989010989011,2.3200732600732596,1.5045421245421244
2.3486542190003092,2.390989010989011,2.3200732600732596,1.5045421245421244
2.351804888996412,2.390989010989011,2.3200732600732596,1.5045421245421244
2.3535004489967832,2.390989010989011,2.3200732600732596,1.5045421245421244
2.357336344997748,0.3231501831501831,0.9565567765567766,0.8106959706959707
2.3618849429985858,2.6762637362637363,0.386007326007326,0.2868864468864469
2.362215977998858,2.6762637362637363,0.386007326007326,0.2868864468864469
2.36782103600126,2.6762637362637363,0.386007326007326,0.2868864468864469
2.368707554996945,2.6762637362637363,0.386007326007326,0.2868864468864469
2.36974356599967,2.6762637362637363,0.386007326007326,0.2868864468864469
2.370588375997613,2.6762637362637363,0.386007326007326,0.2868864468864469
2.3722372869960964,2.6762637362637363,0.386007326007326,0.2868864468864469
2.3763286280009197,2.6762637362637363,0.386007326007326,0.2868864468864469
2.3796002279996173,2.6762637362637363,0.386007326007326,0.2868864468864469
2.3804925110016484,2.697216117216117,0.5955311355311355,0.3529670329670329
2.3828389659975073,2.697216117216117,0.5955311355311355,0.3529670329670329
2.3829641620031907,2.697216117216117,0.5955311355311355,0.3529670329670329
2.3886393470020266,2.697216117216117,0.5955311355311355,0.3529670329670329
2.388859553000657,2.697216117216117,0.5955311355311355,0.3529670329670329
2.394440008996753,2.697216117216117,0.5955311355311355,0.3529670329670329
2.396258952001517,2.655311355311355,0.21999999999999997,0.606007326007326
2.399474015997839,2.655311355311355,0.21999999999999997,0.606007326007326
2.400432959999307,2.655311355311355,0.21999999999999997,0.606007326007326
2.4020824609979172,2.655311355311355,0.21999999999999997,0.606007326007326
2.4061595169987413,2.655311355311355,0.21999999999999997,0.606007326007326
2.4093051309973816,2.655311355311355,0.21999999999999997,0.606007326007326
2.41150668499904,2.655311355311355,0.21999999999999997,0.606007326007326
2.411787514000025,2.693992673992674,2.888205128205128,1.2942124542124542
2.4161956929965527,3.3,1.2764835164835164,1.0057142857142858
2.417723414997454,3.3,1.2764835164835164,1.0057142857142858
2.4230221649995656,2.697216117216117,0.5592673992673992,0.4214652014652014
2.426413481000054,2.697216117216117,0.5592673992673992,0.4214652014652014
2.426670496002771,2.071868131868132,2.4127472527472524,1.4513553113553113
2.43153757500113,2.071868131868132,2.4127472527472524,1.4513553113553113
2.437213792996772,2.698827838827839,0.6374358974358975,0.36666666666666664
2.437501906999387,2.698827838827839,0.6374358974358975,0.36666666666666664
2.4429613480024273,2.698827838827839,0.6374358974358975,0.36666666666666664
2.4440197329968214,2.698827838827839,0.6374358974358975,0.36666666666666664
2.444276460002584,3.3,0.5608791208791208,0.365054945054945
2.4499096529980307,3.3,0.5608791208791208,0.365054945054945
2.450158548002946,3.3,0.5608791208791208,0.365054945054945
2.455707856999652,3.3,0.5608791208791208,0.365054945054945
2.455994730000384,3.3,0.14747252747252745,0.6793406593406592
2.4610926340028527,3.3,0.14747252747252745,0.6793406593406592
2.465046696997888,3.228278388278388,0.7196336996336996,0.09025641025641025
2.4684127880027518,3.228278388278388,0.7196336996336996,0.09025641025641025
2.468741416996636,3.228278388278388,0.7196336996336996,0.09025641025641025
2.4734466770023573,3.228278388278388,0.7196336996336996,0.09025641025641025
2.473784126996179,3.228278388278388,0.7196336996336996,0.09025641025641025
2.4793993580024107,3.228278388278388,0.7196336996336996,0.09025641025641025
2.480322180999792,3.228278388278388,0.7196336996336996,0.09025641025641025
2.481282430002466,3.228278388278388,0.7196336996336996,0.09025641025641025
2.4829040670010727,3.228278388278388,0.7196336996336996,0.09025641025641025
2.4869596749995253,3.228278388278388,0.7196336996336996,0.09025641025641025
2.490932585998962,3.228278388278388,0.7196336996336996,0.09025641025641025
2.494084710997413,3.228278388278388,0.7196336996336996,0.09025641025641025
2.4958153440020396,3.228278388278388,0.7196336996336996,0.09025641025641025
2.4990873759961687,3.228278388278388,0.7196336996336996,0.09025641025641025
2.500829206997878,2.721391941391941,1.7334065934065934,0.47465201465201456
2.5033716859979904,2.95025641025641,1.008131868131868,0.1265201465201465
2.5034872780015576,2.95025641025641,1.008131868131868,0.1265201465201465
2.5081405579985585,2.95025641025641,1.008131868131868,0.1265201465201465
2.508410255002673,2.95025641025641,1.008131868131868,0.1265201465201465
2.5132314899965422,2.95025641025641,1.008131868131868,0.1265201465201465
2.513377319999563,2.004175824175824,0.8445421245421244,0.8646886446886447
2.5183622719996492,2.004175824175824,0.8445421245421244,0.8646886446886447
2.522315604997857,2.004175824175824,0.8445421245421244,0.8646886446886447
2.5261481269990327,2.004175824175824,0.8445421245421244,0.8646886446886447
2.5308493959964835,3.3,0.6132600732600733,0.3602197802197802
2.53106962700258,3.3,0.6132600732600733,0.3602197802197802
2.5360589299962157,3.3,0.6132600732600733,0.3602197802197802
2.541035237001779,3.3,0.6132600732600733,0.3602197802197802
2.546001121001609,3.3,0.6132600732600733,0.3602197802197802
2.5516203649967792,3.3,0.6132600732600733,0.3602197802197802
2.5518930300022475,3.3,0.6132600732600733,0.3602197802197802
2.5573267159998068,2.1750183150183147,0.9718681318681318,0.9968498168498168
2.559111305999977,2.6617582417582417,0.46820512820512816,0.31267399267399265
2.5623886850007693,2.6617582417582417,0.46820512820512816,0.31267399267399265
2.563279871996201,2.6617582417582417,0.46820512820512816,0.31267399267399265
2.5648597800027346,2.6617582417582417,0.46820512820512816,0.31267399267399265
2.569062376001966,2.258827838827839,2.3265201465201466,1.4932600732600732
2.5714718099989113,2.258827838827839,2.3265201465201466,1.4932600732600732
2.5770010979977087,2.258827838827839,2.3265201465201466,1.4932600732600732
2.5780632180030807,2.7197802197802194,0.35216117216117215,0.47062271062271055
2.578373456999543,2.7197802197802194,0.35216117216117215,0.47062271062271055
2.5831837369987625,2.6956043956043954,1.8494505494505493,0.3908424908424908
2.5833300390004297,0.6712820512820512,2.4079120879120874,0.5608791208791208
2.5890492699982133,0.6712820512820512,2.4079120879120874,0.5608791208791208
2.589217398999608,0.6712820512820512,2.4079120879120874,0.5608791208791208
2.5947219540030346,0.6712820512820512,2.4079120879120874,0.5608791208791208
2.5963859420007793,0.6712820512820512,2.4079120879120874,0.5608791208791208
2.6003577489973395,0.6712820512820512,2.4079120879120874,0.5608791208791208
2.603530405998754,0.6712820512820512,2.4079120879120874,0.5608791208791208
2.6058801440012758,0.6712820512820512,2.4079120879120874,0.5608791208791208
2.6061285420000786,0.6712820512820512,2.4079120879120874,0.5608791208791208
2.611600244999863,0.6712820512820512,2.4079120879120874,0.5608791208791208
2.6125004599962267,0.6712820512820512,2.4079120879120874,0.5608791208791208
2.6141477260025567,0.6712820512820512,2.4079120879120874,0.5608791208791208
2.618081387001439,0.6712820512820512,2.4079120879120874,0.5608791208791208
2.6219679810019443,0.6712820512820512,2.4079120879120874,0.5608791208791208
2.6257970910010044,0.6712820512820512,2.4079120879120874,0.5608791208791208
2.6304115270031616,0.6712820512820512,2.4079120879120874,0.5608791208791208
2.6306587270009913,0.6712820512820512,2.4079120879120874,0.5608791208791208
2.63612175599701,0.6712820512820512,2.4079120879120874,0.5608791208791208
2.637830589999794,0.6712820512820512,2.4079120879120874,0.5608791208791208
2.641048129997216,0.6712820512820512,2.4079120879120874,0.5608791208791208
2.6427560770025593,2.7334798534798534,2.423223443223443,0.689010989010989
2.64589007399627,2.7334798534798534,2.423223443223443,0.689010989010989
2.6482581559976097,3.3,0.6825641025641025,0.4214652014652014
2.648452902001736,3.3,0.6825641025641025,0.4214652014652014
2.6539764210028807,3.3,0.6825641025641025,0.4214652014652014
2.6548824429992237,3.1775091575091574,1.0178021978021978,0.9799267399267398
2.6560661510011414,3.1775091575091574,1.0178021978021978,0.9799267399267398
2.656307748002291,3.1775091575091574,1.0178021978021978,0.9799267399267398
2.6617257640027674,3.1775091575091574,1.0178021978021978,0.9799267399267398
2.662654052997823,3.1775091575091574,1.0178021978021978,0.9799267399267398
2.663602278000326,3.1775091575091574,1.0178021978021978,0.9799267399267398
2.6652446360021713,3.3,0.6043956043956044,0.32556776556776557
2.669419003002986,3.3,0.6043956043956044,0.32556776556776557
2.6718177500006277,3.3,0.6043956043956044,0.32556776556776557
2.671945579997555,3.3,0.6043956043956044,0.32556776556776557
2.677623247000156,3.3,0.6043956043956044,0.32556776556776557
2.677865618003125,3.3,0.6043956043956044,0.32556776556776557
2.682652704999782,3.3,0.6043956043956044,0.32556776556776557
2.688129731999652,2.6996336996336994,2.7197802197802194,0.6317948717948718
2.6913271579978755,2.698827838827839,0.7808791208791208,0.5753846153846153
2.6922419690017705,2.697216117216117,2.808424908424908,1.2958241758241758
2.693905874999473,2.6585347985347987,1.411062271062271,1.0774358974358973
2.69806678200257,2.6585347985347987,1.411062271062271,1.0774358974358973
2.700619645998813,2.6585347985347987,1.411062271062271,1.0774358974358973
2.705221992000588,2.6585347985347987,1.411062271062271,1.0774358974358973
2.7055919129998074,2.6585347985347987,1.411062271062271,1.0774358974358973
2.7109236039977986,2.6585347985347987,1.411062271062271,1.0774358974358973
2.713703192996036,2.7004395604395603,3.3,1.232161172161172
2.71709921600268,2.7004395604395603,3.3,1.232161172161172
2.717995165003231,2.7004395604395603,3.3,1.232161172161172
2.7197664120030822,2.7004395604395603,0.8163369963369963,0.1692307692307692
2.722196812996117,2.697216117216117,2.5666666666666664,0.606007326007326
2.7224075859994628,2.697216117216117,2.5666666666666664,0.606007326007326
2.727348219996202,2.697216117216117,2.5666666666666664,0.606007326007326
2.7324355129967444,3.1968498168498165,1.822051282051282,1.5730402930402931
2.735559959000966,2.6746520146520147,1.7148717948717949,1.1120879120879121
2.7372293719963636,2.6746520146520147,1.7148717948717949,1.1120879120879121
2.7412151969983825,2.6746520146520147,1.7148717948717949,1.1120879120879121
2.7444304149976233,2.6746520146520147,1.7148717948717949,1.1120879120879121
2.74536146200262,2.6746520146520147,1.7148717948717949,1.1120879120879121
2.747000385999854,2.6746520146520147,1.7148717948717949,1.1120879120879121
2.7508908579984563,2.6746520146520147,1.7148717948717949,1.1120879120879121
2.7555458529968746,2.6746520146520147,1.7148717948717949,1.1120879120879121
2.7556652939965716,2.6746520146520147,1.7148717948717949,1.1120879120879121
2.7609935399959795,2.6746520146520147,1.7148717948717949,1.1120879120879121
2.7688301149973995,2.6746520146520147,1.7148717948717949,1.1120879120879121
2.774330332002137,2.9712087912087912,2.024322344322344,1.6246153846153846
2.774516395998944,2.723003663003663,1.8849084249084247,1.1757509157509156
2.782598849000351,2.723003663003663,1.8849084249084247,1.1757509157509156
2.7899547749984777,2.7004395604395603,2.46029304029304,0.6035897435897435
2.796372696000617,3.3,0.6728937728937728,0.42388278388278383
2.8007093880005414,3.0775824175824176,0.12893772893772892,0.6317948717948718
2.8011599910023506,3.0775824175824176,0.12893772893772892,0.6317948717948718
2.809163277001062,3.0775824175824176,0.12893772893772892,0.6317948717948718
2.815843586002302,3.0775824175824176,0.12893772893772892,0.6317948717948718
2.821688923999318,3.3,1.1064468864468864,1.0137728937728938
2.8315855339969858,2.6964102564102563,0.5987545787545787,0.3779487179487179
2.843989330001932,2.6964102564102563,0.5987545787545787,0.3779487179487179
2.849134106996644,2.6964102564102563,0.5987545787545787,0.3779487179487179
2.8535247559993877,2.6964102564102563,0.5987545787545787,0.3779487179487179
2.863605259997712,2.6964102564102563,0.5987545787545787,0.3779487179487179
2.8737209969985997,2.6875457875457873,0.26190476190476186,0.5447619047619047
2.883265759002825,2.6875457875457873,0.26190476190476186,0.5447619047619047
2.8927180019964,2.6875457875457873,0.26190476190476186,0.5447619047619047
2.900318605999928,2.6875457875457873,0.26190476190476186,0.5447619047619047
2.9092733779980335,2.697216117216117,0.5205860805860806,0.46014652014652013
2.916751764001674,3.3,0.614065934065934,0.386007326007326
2.925297278998187,3.3,0.614065934065934,0.386007326007326
2.9323506290020305,2.17018315018315,1.133040293040293,0.13538461538461538
2.937456125000608,2.17018315018315,1.133040293040293,0.13538461538461538
2.944995954996557,2.17018315018315,1.133040293040293,0.13538461538461538
2.9516610840000794,2.17018315018315,1.133040293040293,0.13538461538461538
2.956043819001934,2.17018315018315,1.133040293040293,0.13538461538461538
2.9564869649984757,2.17018315018315,1.133040293040293,0.13538461538461538
2.9608318589962437,2.17018315018315,1.133040293040293,0.13538461538461538
2.9617695519991685,2.17018315018315,1.133040293040293,0.13538461538461538
2.962774546998844,2.17018315018315,1.133040293040293,0.13538461538461538
2.963699697997072,2.17018315018315,1.133040293040293,0.13538461538461538
2.9654077439990942,2.17018315018315,1.133040293040293,0.13538461538461538
2.972280235000653,2.4208058608058605,2.2265934065934068,1.5827106227106227
2.977076768002007,2.4208058608058605,2.2265934065934068,1.5827106227106227
2.987057956001081,3.042124542124542,0.21677655677655677,0.5358974358974359
2.9935400309987017,3.3,0.7172161172161172,0.38036630036630037
2.99745835000067,3.3,0.7172161172161172,0.38036630036630037
3.0029522479962907,3.3,0.7172161172161172,0.38036630036630037
3.0032823479996296,0.7413919413919414,1.9203663003663003,0.3602197802197802
3.0122508170024958,0.7413919413919414,1.9203663003663003,0.3602197802197802
3.0200313449968235,0.7413919413919414,1.9203663003663003,0.3602197802197802
3.02477429999999,0.7413919413919414,1.9203663003663003,0.3602197802197802
3.030348360000062,0.7413919413919414,1.9203663003663003,0.3602197802197802
3.0319867610014626,0.7413919413919414,1.9203663003663003,0.3602197802197802
3.036648121997132,0.7413919413919414,1.9203663003663003,0.3602197802197802
3.0434277759995894,0.7413919413919414,1.9203663003663003,0.3602197802197802
3.0476666199974716,2.71010989010989,2.428058608058608,0.7236630036630036
3.0492996320026577,2.523150183150183,2.5642490842490844,1.5625641025641024
3.055541802001244,2.523150183150183,2.5642490842490844,1.5625641025641024
3.0591404719962156,0.083003663003663,0.6535531135531135,0.9243223443223443
3.059390763999545,2.697216117216117,0.5697435897435897,0.332014652014652
3.0640800559995114,2.697216117216117,0.5697435897435897,0.332014652014652
3.0642391049987054,2.697216117216117,0.5697435897435897,0.332014652014652
3.072041207997245,2.697216117216117,0.5697435897435897,0.332014652014652
3.0761973679982475,2.697216117216117,0.5697435897435897,0.332014652014652
3.0794870120007545,2.697216117216117,0.5697435897435897,0.332014652014652
3.0804979559979984,2.7004395604395603,1.8607326007326006,0.4037362637362637
3.0814298059995053,2.7004395604395603,1.8607326007326006,0.4037362637362637
3.083083751000231,2.7004395604395603,1.8607326007326006,0.4037362637362637
3.0883062919965596,2.7004395604395603,1.8607326007326006,0.4037362637362637
3.090082729002461,2.7004395604395603,1.8607326007326006,0.4037362637362637
3.0933205429973896,2.697216117216117,3.3,1.0153846153846153
3.094276837000507,2.697216117216117,3.3,1.0153846153846153
3.095928871000069,2.697216117216117,3.3,1.0153846153846153
3.0990971900027944,2.697216117216117,3.3,1.0153846153846153
3.1014454440010013,2.697216117216117,3.3,1.0153846153846153
3.109521981998114,2.697216117216117,3.3,1.0153846153846153
3.1142652920025284,2.697216117216117,3.3,1.0153846153846153
3.1151380369992694,2.697216117216117,3.3,1.0153846153846153
3.1169303380011115,2.697216117216117,3.3,1.0153846153846153
3.120646115996351,2.697216117216117,3.3,1.0153846153846153
3.125548040996364,2.697216117216117,3.3,1.0153846153846153
3.1309609270028886,2.697216117216117,3.3,1.0153846153846153
3.1342777320023743,2.6996336996336994,0.9033699633699634,0.70996336996337
3.1427480109996395,1.0435897435897434,0.33926739926739924,0.7365567765567765
3.1483929280002485,1.0435897435897434,0.33926739926739924,0.7365567765567765
3.1492551470000762,1.0435897435897434,0.33926739926739924,0.7365567765567765
3.1515260219966876,1.0435897435897434,0.33926739926739924,0.7365567765567765
3.1518508349981857,1.0435897435897434,0.33926739926739924,0.7365567765567765
3.158110336997197,1.0435897435897434,0.33926739926739924,0.7365567765567765
3.162159496998356,1.0435897435897434,0.33926739926739924,0.7365567765567765
3.1655335989999003,1.0435897435897434,0.33926739926739924,0.7365567765567765
3.1658345999967423,1.0435897435897434,0.33926739926739924,0.7365567765567765
3.1742990979983006,1.0435897435897434,0.33926739926739924,0.7365567765567765
3.178716294998594,1.0435897435897434,0.33926739926739924,0.7365567765567765
3.1790275809980812,1.0435897435897434,0.33926739926739924,0.7365567765567765
3.187750140998105,1.0435897435897434,0.33926739926739924,0.7365567765567765
3.193875951001246,1.0435897435897434,0.33926739926739924,0.7365567765567765
3.1985010729986243,1.0435897435897434,0.33926739926739924,0.7365567765567765
3.1987577239997336,1.0435897435897434,0.33926739926739924,0.7365567765567765
3.2072151199972723,1.0435897435897434,0.33926739926739924,0.7365567765567765
3.21198090800317,1.0435897435897434,0.33926739926739924,0.7365567765567765
3.2192836570029613,1.0435897435897434,0.33926739926739924,0.7365567765567765
3.2250599519975367,2.6633699633699632,0.5254212454212454,0.25545787545787546
3.2303460409966647,2.6633699633699632,0.5254212454212454,0.25545787545787546
3.231984140998975,2.7326739926739925,2.2056410256410253,1.5343589743589743
3.2384767530020326,2.7326739926739925,2.2056410256410253,1.5343589743589743
3.2418182889960008,2.7326739926739925,2.2056410256410253,1.5343589743589743
3.242863332001434,2.7326739926739925,2.2056410256410253,1.5343589743589743
3.2432080270009465,2.7326739926739925,2.2056410256410253,1.5343589743589743
3.247940795001341,2.7326739926739925,2.2056410256410253,1.5343589743589743
3.2480913609979325,3.3,2.01062271062271,0.95010989010989
3.2554469750029966,3.3,2.01062271062271,0.95010989010989
3.2596694530002424,3.3,2.01062271062271,0.95010989010989
3.2620523149962537,3.3,2.01062271062271,0.95010989010989
3.262275266999495,3.3,2.01062271062271,0.95010989010989
3.2670050250017084,3.3,2.01062271062271,0.95010989010989
3.267352948001644,2.996996336996337,2.025128205128205,1.4956776556776556
3.2732246849991498,2.996996336996337,2.025128205128205,1.4956776556776556
3.2772081559960498,2.996996336996337,2.025128205128205,1.4956776556776556
3.280734432999452,2.996996336996337,2.025128205128205,1.4956776556776556
3.288389103996451,2.7246153846153844,1.788205128205128,0.4504761904761904
3.293913073001022,2.7246153846153844,1.788205128205128,0.4504761904761904
3.2941420400020434,3.274212454212454,0.24578754578754577,0.8638827838827838
3.2990900419972604,3.274212454212454,0.24578754578754577,0.8638827838827838
3.307567411000491,2.6996336996336994,0.42952380952380953,0.5004395604395604
3.3129429620021256,0.9702564102564102,1.6713553113553112,0.2909157509157509
3.3140848409966566,0.9702564102564102,1.6713553113553112,0.2909157509157509
3.3142731600019033,0.9702564102564102,1.6713553113553112,0.2909157509157509
3.3222926309972536,0.9702564102564102,1.6713553113553112,0.2909157509157509
3.32636316800199,0.9702564102564102,1.6713553113553112,0.2909157509157509
3.329658686001494,0.9702564102564102,1.6713553113553112,0.2909157509157509
3.3299428850004915,0.9702564102564102,1.6713553113553112,0.2909157509157509
3.3381594640013645,0.9702564102564102,1.6713553113553112,0.2909157509157509
3.3418427139986306,0.9702564102564102,1.6713553113553112,0.2909157509157509
3.3465660649962956,0.9702564102564102,1.6713553113553112,0.2909157509157509
3.346771047996299,0.9702564102564102,1.6713553113553112,0.2909157509157509
3.3539599610012374,0.9702564102564102,1.6713553113553112,0.2909157509157509
3.357620984999812,0.9702564102564102,1.6713553113553112,0.2909157509157509
3.3639850219988148,0.9702564102564102,1.6713553113553112,0.2909157509157509
3.3697209840029245,0.9702564102564102,1.6713553113553112,0.2909157509157509
3.3768473789968994,0.9702564102564102,1.6713553113553112,0.2909157509157509
3.383756695999182,0.9702564102564102,1.6713553113553112,0.2909157509157509
3.389992112002801,2.718974358974359,1.806739926739927,0.4464468864468864
3.3956489609990967,2.718974358974359,1.806739926739927,0.4464468864468864
3.40661913400254,2.718974358974359,1.806739926739927,0.4464468864468864
3.414540104997286,2.702051282051282,2.532820512820513,0.6164835164835165
3.4226971410025726,2.702051282051282,2.532820512820513,0.6164835164835165
3.4307792679974227,2.702051282051282,2.532820512820513,0.6164835164835165
3.437978606998513,2.702051282051282,2.532820512820513,0.6164835164835165
3.4443719150003744,2.702051282051282,2.532820512820513,0.6164835164835165
3.4482936929998687,1.1265934065934065,2.5312087912087913,0.6801465201465201
3.4537173279968556,1.1265934065934065,2.5312087912087913,0.6801465201465201
3.453958338999655,2.655311355311355,1.5287179487179487,1.0524542124542122
3.4599043679991155,2.655311355311355,1.5287179487179487,1.0524542124542122
3.4646477310016053,2.655311355311355,1.5287179487179487,1.0524542124542122
3.464859052997781,2.655311355311355,1.5287179487179487,1.0524542124542122
3.47028767199663,2.655311355311355,1.5287179487179487,1.0524542124542122
3.4711906910015387,2.698827838827839,1.7463003663003662,0.5157509157509157
3.472216980997473,2.698827838827839,1.7463003663003662,0.5157509157509157
3.4730934769977466,2.698827838827839,1.7463003663003662,0.5157509157509157
3.4747431869982393,2.698827838827839,1.7463003663003662,0.5157509157509157
3.4779332559992326,2.6536996336996337,0.28608058608058606,0.4488644688644688
3.4797285469976487,2.6536996336996337,0.28608058608058606,0.4488644688644688
3.482917996996548,2.6585347985347987,2.581172161172161,0.7430036630036629
3.4849022589987726,3.2516483516483516,0.31509157509157504,0.12249084249084248
3.487106134001806,3.3,2.178241758241758,1.162051282051282
3.4874001639982453,3.3,2.178241758241758,1.162051282051282
3.492363010002009,3.3,2.178241758241758,1.162051282051282
3.4966528570002993,2.4586813186813186,1.012967032967033,0.9194871794871795
3.497603251002147,2.4586813186813186,1.012967032967033,0.9194871794871795
3.4994412579981145,2.4586813186813186,1.012967032967033,0.9194871794871795
3.503284006001195,2.4586813186813186,1.012967032967033,0.9194871794871795
3.506930497002031,2.4586813186813186,1.012967032967033,0.9194871794871795
3.511685186997056,2.4586813186813186,1.012967032967033,0.9194871794871795
3.5118066349969013,2.4586813186813186,1.012967032967033,0.9194871794871795
3.516577321999648,2.4586813186813186,1.012967032967033,0.9194871794871795
3.5168035899987444,2.4586813186813186,1.012967032967033,0.9194871794871795
3.5234286179984338,2.4586813186813186,1.012967032967033,0.9194871794871795
3.5275790079977014,2.4586813186813186,1.012967032967033,0.9194871794871795
3.529483040998457,2.4586813186813186,1.012967032967033,0.9194871794871795
3.5321366380012478,2.4586813186813186,1.012967032967033,0.9194871794871795
3.5387528580031358,2.4586813186813186,1.012967032967033,0.9194871794871795
3.54196462300024,2.4586813186813186,1.012967032967033,0.9194871794871795
3.543626161001157,2.423223443223443,0.8179487179487179,0.08139194139194139
3.5477291060014977,2.423223443223443,0.8179487179487179,0.08139194139194139
3.550561841002491,2.423223443223443,0.8179487179487179,0.08139194139194139
3.5576675109987264,2.6956043956043954,3.3,1.2506959706959706
3.561749950997182,2.9857142857142858,0.13377289377289378,0.6068131868131869
3.5649392400009674,1.0371428571428571,1.622197802197802,0.25142857142857145
3.5668888069994864,1.0371428571428571,1.622197802197802,0.25142857142857145
3.5693698940012837,1.0371428571428571,1.622197802197802,0.25142857142857145
3.575311148997571,1.0371428571428571,1.622197802197802,0.25142857142857145
3.5755113909981446,2.9873260073260073,1.1241758241758242,0.9347985347985347
3.5794954640005017,2.9873260073260073,1.1241758241758242,0.9347985347985347
3.5838438700011466,2.9873260073260073,1.1241758241758242,0.9347985347985347
3.584868396996171,2.9873260073260073,1.1241758241758242,0.9347985347985347
3.5854400620009983,2.9873260073260073,1.1241758241758242,0.9347985347985347
3.5890645679974114,2.9873260073260073,1.1241758241758242,0.9347985347985347
3.5947134680027375,2.9873260073260073,1.1241758241758242,0.9347985347985347
3.595002656998986,2.9873260073260073,1.1241758241758242,0.9347985347985347
3.6005289609965985,2.664175824175824,0.5536263736263736,0.15311355311355312
3.6025895589991705,2.664175824175824,0.5536263736263736,0.15311355311355312
3.6047338990028948,2.664175824175824,0.5536263736263736,0.15311355311355312
3.6051219840010162,2.664175824175824,0.5536263736263736,0.15311355311355312
3.6099880960027804,2.664175824175824,0.5536263736263736,0.15311355311355312
3.615713462997519,2.664175824175824,0.5536263736263736,0.15311355311355312
3.6158668380012386,3.1388278388278383,0.19663003663003664,0.7663736263736264
3.6231868600007147,2.723003663003663,0.35216117216117215,0.46739926739926735
3.6276293609989807,0.29816849816849816,2.2217582417582418,0.5173626373626373
3.627917958998296,0.29816849816849816,2.2217582417582418,0.5173626373626373
3.633683688000019,0.29816849816849816,2.2217582417582418,0.5173626373626373
3.634017718002724,2.7197802197802194,3.1936263736263735,0.8526007326007327
3.6399657540023327,2.7197802197802194,3.1936263736263735,0.8526007326007327
3.643261409000843,2.7197802197802194,3.1936263736263735,0.8526007326007327
3.6442012199986493,2.7197802197802194,3.1936263736263735,0.8526007326007327
3.645844116996159,2.7197802197802194,3.1936263736263735,0.8526007326007327
3.6501644989984925,2.7197802197802194,3.1936263736263735,0.8526007326007327
3.653851463001047,2.7197802197802194,3.1936263736263735,0.8526007326007327
3.6594460740016075,2.7197802197802194,3.1936263736263735,0.8526007326007327
3.659561054999358,2.6609523809523807,0.46820512820512816,0.361025641025641
3.664952967003046,2.6609523809523807,0.46820512820512816,0.361025641025641
3.668756738996308,2.6609523809523807,0.46820512820512816,0.361025641025641
3.6720836169988615,2.6682051282051282,1.7873992673992671,1.4666666666666666
3.6724530560022686,2.6682051282051282,1.7873992673992671,1.4666666666666666
3.677583564000088,2.6682051282051282,1.7873992673992671,1.4666666666666666
3.6814653940018616,2.6682051282051282,1.7873992673992671,1.4666666666666666
3.6885171120011364,2.6682051282051282,1.7873992673992671,1.4666666666666666
3.6919334409976727,2.6682051282051282,1.7873992673992671,1.4666666666666666
3.692192479997175,2.7004395604395603,3.3,1.0266666666666666
3.6969398229994113,2.7004395604395603,3.3,1.0266666666666666
3.697142689001339,2.7004395604395603,3.3,1.0266666666666666
3.7034867479960667,2.7004395604395603,3.3,1.0266666666666666
3.707092281001678,2.7004395604395603,3.3,1.0266666666666666
3.7141436969977804,3.3,2.5964835164835165,1.2434432234432233
3.721367484999064,3.3,2.5964835164835165,1.2434432234432233
3.7246652269968763,3.3,2.5964835164835165,1.2434432234432233
3.7255519120008103,3.3,2.5964835164835165,1.2434432234432233
3.7265233599973726,3.3,2.5964835164835165,1.2434432234432233
3.7281163730003755,3.3,2.5964835164835165,1.2434432234432233
3.732906744000502,3.3,2.5964835164835165,1.2434432234432233
3.740404939002474,3.3,2.5964835164835165,1.2434432234432233
3.745165808002639,2.698827838827839,0.38278388278388276,0.5552380952380952
3.745291740997345,2.698827838827839,0.38278388278388276,0.5552380952380952
3.7499482139974134,2.698827838827839,0.38278388278388276,0.5552380952380952
3.75013323299936,2.698827838827839,0.38278388278388276,0.5552380952380952
3.7574176130001433,2.698827838827839,0.38278388278388276,0.5552380952380952
3.761361366996425,2.698827838827839,0.38278388278388276,0.5552380952380952
3.765296819998184,2.698827838827839,0.38278388278388276,0.5552380952380952
3.7722845820026123,2.698827838827839,0.38278388278388276,0.5552380952380952
3.776260735998221,2.698021978021978,0.9678388278388278,0.7002930402930403
3.7801156630011974,2.698021978021978,0.9678388278388278,0.7002930402930403
3.7886985939985607,2.698021978021978,0.9678388278388278,0.7002930402930403
3.7941048579959897,2.5038095238095237,2.1589010989010986,1.4384615384615385
3.795020345998637,2.5038095238095237,2.1589010989010986,1.4384615384615385
3.796620802997495,2.5038095238095237,2.1589010989010986,1.4384615384615385
3.8011026320018573,2.5038095238095237,2.1589010989010986,1.4384615384615385
3.8013321640028153,2.6956043956043954,0.7849084249084248,0.1652014652014652
3.80775756300136,2.6956043956043954,0.7849084249084248,0.1652014652014652
3.8117639609990874,2.6956043956043954,0.7849084249084248,0.1652014652014652
3.8157182819995796,2.6956043956043954,0.7849084249084248,0.1652014652014652
3.8209167859968147,2.6786813186813188,0.17648351648351646,0.6164835164835165
3.823773919000814,2.6786813186813188,0.17648351648351646,0.6164835164835165
3.826981377998891,2.6786813186813188,0.17648351648351646,0.6164835164835165
3.830364021996502,2.6786813186813188,0.17648351648351646,0.6164835164835165
3.8305946339969523,2.6786813186813188,0.17648351648351646,0.6164835164835165
3.837788365999586,2.6786813186813188,0.17648351648351646,0.6164835164835165
3.8419578629982425,2.6794871794871793,1.8808791208791207,1.0983882783882783
3.8459799490010482,2.6794871794871793,1.8808791208791207,1.0983882783882783
3.848259872997005,2.6794871794871793,1.8808791208791207,1.0983882783882783
3.8485889919975307,2.6794871794871793,1.8808791208791207,1.0983882783882783
3.8571547620013007,2.6794871794871793,1.8808791208791207,1.0983882783882783
3.863358796996181,2.6794871794871793,1.8808791208791207,1.0983882783882783
3.8665435040020384,0.22725274725274724,2.2362637362637363,0.5931135531135531
3.869174063001992,0.22725274725274724,2.2362637362637363,0.5931135531135531
3.8753829049965134,2.7197802197802194,1.2095970695970695,0.9219047619047619
3.879328702001658,2.7004395604395603,3.3,1.0049084249084248
3.883566090997192,2.7004395604395603,3.3,1.0049084249084248
3.885761839002953,2.7004395604395603,3.3,1.0049084249084248
3.885958077997202,2.7004395604395603,3.3,1.0049084249084248
3.8916011539986357,2.7004395604395603,3.3,1.0049084249084248
3.8919076829988626,2.6996336996336994,3.066300366300366,1.2563369963369961
3.89669070400123,2.9019047619047615,1.0137728937728938,0.9114285714285715
3.903455079998821,2.9019047619047615,1.0137728937728938,0.9114285714285715
3.9074293860030593,2.9019047619047615,1.0137728937728938,0.9114285714285715
3.9106491139973514,2.9019047619047615,1.0137728937728938,0.9114285714285715
3.911625927001296,2.9019047619047615,1.0137728937728938,0.9114285714285715
3.9126538720011013,2.9019047619047615,1.0137728937728938,0.9114285714285715
3.913546062001842,2.9019047619047615,1.0137728937728938,0.9114285714285715
3.9144931589980843,2.9019047619047615,1.0137728937728938,0.9114285714285715
3.9163719950011,2.9019047619047615,1.0137728937728938,0.9114285714285715
3.9208681719974265,2.9019047619047615,1.0137728937728938,0.9114285714285715
3.9212224919974688,2.9019047619047615,1.0137728937728938,0.9114285714285715
3.9255250849964796,2.9019047619047615,1.0137728937728938,0.9114285714285715
3.9264397809965885,2.9019047619047615,1.0137728937728938,0.9114285714285715
3.928080254001543,2.9019047619047615,1.0137728937728938,0.9114285714285715
3.9320213929968304,2.9019047619047615,1.0137728937728938,0.9114285714285715
3.936600934001035,2.7004395604395603,2.2556043956043954,0.7091575091575092
3.9414944759992068,2.7004395604395603,2.2556043956043954,0.7091575091575092
3.9461465929998667,2.5344322344322343,0.7623443223443224,0.0838095238095238
3.9464307320013177,2.5344322344322343,0.7623443223443224,0.0838095238095238
3.9522953319974476,2.5344322344322343,0.7623443223443224,0.0838095238095238
3.9581807409995236,2.6956043956043954,1.0258608058608059,0.9686446886446887
3.96366056700208,2.6665934065934067,0.43758241758241756,0.32153846153846155
3.965511301001243,2.6665934065934067,0.43758241758241756,0.32153846153846155
3.9683409979988937,2.6665934065934067,0.43758241758241756,0.32153846153846155
3.9734406220013625,2.6665934065934067,0.43758241758241756,0.32153846153846155
3.976017619999766,2.6665934065934067,0.43758241758241756,0.32153846153846155
3.98172519000218,2.6665934065934067,0.43758241758241756,0.32153846153846155
3.981947678999859,2.6665934065934067,0.43758241758241756,0.32153846153846155
3.9927236329967855,2.6665934065934067,0.43758241758241756,0.32153846153846155
4.00124068200239,2.6665934065934067,0.43758241758241756,0.32153846153846155
4.0066621270016185,2.6665934065934067,0.43758241758241756,0.32153846153846155
4.007512778996897,2.6665934065934067,0.43758241758241756,0.32153846153846155
4.009423522998986,2.6665934065934067,0.43758241758241756,0.32153846153846155
4.011794291000115,2.7197802197802194,0.767985347985348,0.4126007326007326
4.018159524996008,2.7197802197802194,0.767985347985348,0.4126007326007326
4.024619438001537,2.7778021978021976,0.2506227106227106,0.5641025641025641
4.0306304690020625,3.0147252747252744,3.2774358974358972,0.8405128205128204
4.037986577000993,2.697216117216117,2.988937728937729,0.7816849816849816
4.041422877999139,3.3,0.1378021978021978,0.7059340659340658
4.041717207997863,3.3,0.1378021978021978,0.7059340659340658
4.04703896400315,3.3,0.1378021978021978,0.7059340659340658
4.049802658999397,3.3,0.1378021978021978,0.7059340659340658
4.055223666000529,3.3,0.1378021978021978,0.7059340659340658
4.056597802002216,3.3,0.1378021978021978,0.7059340659340658
4.061746895000397,3.3,0.1378021978021978,0.7059340659340658
4.0649872360008885,3.3,0.1378021978021978,0.7059340659340658
4.067758420998871,3.3,0.1378021978021978,0.7059340659340658
4.073272000001452,3.3,0.1378021978021978,0.7059340659340658
4.073509032998118,2.702051282051282,0.6414652014652015,0.36344322344322344
4.081648820996634,2.702051282051282,0.6414652014652015,0.36344322344322344
4.088318704998528,2.723003663003663,0.3626373626373626,0.6068131868131869
4.0930632460003835,2.723003663003663,0.3626373626373626,0.6068131868131869
4.101350356002513,2.7197802197802194,3.3,1.2257142857142858
4.1102329490022385,2.7197802197802194,3.3,1.2257142857142858
4.116827263998857,2.7197802197802194,3.3,1.2257142857142858
4.1237875829974655,2.9873260073260073,0.19824175824175824,0.6108424908424909
4.129663202002121,2.9873260073260073,0.19824175824175824,0.6108424908424909
4.138018751000345,2.7004395604395603,1.191062271062271,0.967032967032967
4.142182962998049,3.3,0.3352380952380952,0.42065934065934063
4.144813856000837,3.3,0.3352380952380952,0.42065934065934063
4.149386058998061,3.3,0.6084249084249085,0.361025641025641
4.149748896998062,2.701245421245421,0.6358241758241758,0.386007326007326
4.157202483998844,2.701245421245421,0.6358241758241758,0.386007326007326
4.161166056001093,3.3,0.2756043956043956,0.6011721611721611
4.165095534001011,2.7858608058608056,0.5794139194139193,0.0975091575091575
4.171968818998721,2.7858608058608056,0.5794139194139193,0.0975091575091575
4.175163840001915,2.7858608058608056,0.5794139194139193,0.0975091575091575
4.177521104000334,2.7858608058608056,0.5794139194139193,0.0975091575091575
4.177736459001608,2.6649816849816848,0.4794871794871795,0.27238095238095233
4.184168902997044,2.6649816849816848,0.4794871794871795,0.27238095238095233
4.188825557997916,2.6649816849816848,0.4794871794871795,0.27238095238095233
4.194517554999038,2.6649816849816848,0.4794871794871795,0.27238095238095233
4.196361529000569,2.6649816849816848,0.4794871794871795,0.27238095238095233
4.198045124998316,2.6649816849816848,0.4794871794871795,0.27238095238095233
4.204011330999492,2.701245421245421,0.3586080586080586,0.5802197802197803
4.208599764002429,3.3,0.18454212454212454,0.25142857142857145
4.208927854000649,2.6633699633699632,1.917948717948718,1.5093772893772892
4.212814403996163,2.6633699633699632,1.917948717948718,1.5093772893772892
4.2174849809962325,2.723003663003663,2.4941391941391937,1.1556043956043955
4.22552894600085,2.723003663003663,2.4941391941391937,1.1556043956043955
4.231377270996745,2.723003663003663,2.4941391941391937,1.1556043956043955
4.231578084996727,2.723003663003663,2.4941391941391937,1.1556043956043955
4.240776081998774,2.723003663003663,2.4941391941391937,1.1556043956043955
4.246566128000268,2.723003663003663,2.4941391941391937,1.1556043956043955
4.255767586000729,2.723003663003663,2.4941391941391937,1.1556043956043955
4.261271392002527,2.723003663003663,2.4941391941391937,1.1556043956043955
4.262750841000525,2.723003663003663,2.4941391941391937,1.1556043956043955
4.266875838999113,2.723003663003663,2.4941391941391937,1.1556043956043955
4.271177638998779,3.1146520146520142,2.5521611721611723,1.32
4.272502182000608,3.1146520146520142,2.5521611721611723,1.32
4.2814165800009505,3.1146520146520142,2.5521611721611723,1.32
4.2895592269997,3.2854945054945053,0.4029304029304029,0.11684981684981684
4.2951181620010175,3.2854945054945053,0.4029304029304029,0.11684981684981684
4.295222670996736,3.2854945054945053,0.4029304029304029,0.11684981684981684
4.300897307002742,3.2854945054945053,0.4029304029304029,0.11684981684981684
4.301316979996045,2.673040293040293,0.4222710622710622,0.3545787545787546
4.307331655996677,2.673040293040293,0.4222710622710622,0.3545787545787546
4.311781867996615,2.6673992673992672,1.7664468864468863,1.4344322344322344
4.312025209001149,2.6673992673992672,1.7664468864468863,1.4344322344322344
4.321439713996369,2.6673992673992672,1.7664468864468863,1.4344322344322344
4.326831154001411,2.6673992673992672,1.7664468864468863,1.4344322344322344
4.329232882002543,2.6673992673992672,1.7664468864468863,1.4344322344322344
4.335582533996785,2.6673992673992672,1.7664468864468863,1.4344322344322344
4.338970169999811,2.697216117216117,3.3,1.058901098901099
4.339878566002881,2.697216117216117,3.3,1.058901098901099
4.340751796000404,2.697216117216117,3.3,1.058901098901099
4.34238095299952,2.697216117216117,3.3,1.058901098901099
4.346503660999588,2.697216117216117,3.3,1.058901098901099
4.349151360001997,2.697216117216117,3.3,1.058901098901099
4.355103818998032,2.697216117216117,3.3,1.058901098901099
4.359741137996025,2.697216117216117,3.3,1.058901098901099
4.359908872997039,2.697216117216117,3.3,1.058901098901099
4.36455169400142,2.697216117216117,3.3,1.058901098901099
4.364805625998997,2.697216117216117,3.3,1.058901098901099
4.369983479999064,2.697216117216117,3.3,1.058901098901099
4.373158335998596,2.697216117216117,1.1967032967032967,0.4198534798534798
4.3740299429991865,2.697216117216117,1.1967032967032967,0.4198534798534798
4.375693069996487,2.697216117216117,1.1967032967032967,0.4198534798534798
4.378841441997793,2.731062271062271,0.17567765567765567,0.6124542124542125
4.380379472997447,2.731062271062271,0.17567765567765567,0.6124542124542125
4.385795647998748,2.694798534798535,2.2128937728937728,0.585054945054945
4.387129725997511,2.694798534798535,2.2128937728937728,0.585054945054945
4.393288462000783,2.694798534798535,2.2128937728937728,0.585054945054945
4.397571419001906,2.694798534798535,2.2128937728937728,0.585054945054945
4.399416161002591,2.694798534798535,2.2128937728937728,0.585054945054945
4.40488842799823,2.694798534798535,2.2128937728937728,0.585054945054945
4.412081820002641,3.074358974358974,0.3892307692307692,0.11443223443223444
4.4176804599992465,2.698827838827839,0.6189010989010989,0.3771428571428571
4.418021261997637,2.698827838827839,0.6189010989010989,0.3771428571428571
4.426448694997816,2.698827838827839,0.6189010989010989,0.3771428571428571
4.432606581001892,2.698827838827839,0.6189010989010989,0.3771428571428571
4.438227792001271,2.698827838827839,0.6189010989010989,0.3771428571428571
4.438445485000557,2.698827838827839,0.6189010989010989,0.3771428571428571
4.445630729002005,2.698827838827839,0.6189010989010989,0.3771428571428571
4.4523147139989305,2.698827838827839,0.6189010989010989,0.3771428571428571
4.456073749999632,2.697216117216117,3.3,1.0734065934065933
4.460785005998332,2.697216117216117,3.3,1.0734065934065933
4.467400797002483,2.697216117216117,3.3,1.0734065934065933
4.473356599002727,2.697216117216117,3.3,1.0734065934065933
4.477226844996039,2.697216117216117,3.3,1.0734065934065933
4.481182548996003,2.697216117216117,3.3,1.0734065934065933
4.488375125001767,2.697216117216117,3.3,1.0734065934065933
4.491653431003215,2.697216117216117,3.3,1.0734065934065933
4.4925600700007635,2.697216117216117,3.3,1.0734065934065933
4.494398529001046,2.697216117216117,3.3,1.0734065934065933
4.49688138700003,2.697216117216117,3.3,1.0734065934065933
4.507030770000711,2.697216117216117,3.3,1.0734065934065933
4.515640063000319,2.697216117216117,3.3,1.0734065934065933
4.523830491001718,2.697216117216117,3.3,1.0734065934065933
4.531464202002098,2.697216117216117,3.3,1.0734065934065933
4.538295546997688,2.697216117216117,3.3,1.0734065934065933
4.542253596999217,2.697216117216117,3.3,1.0734065934065933
4.546164254999894,2.697216117216117,3.3,1.0734065934065933
4.550299376998737,2.697216117216117,3.3,1.0734065934065933
4.552717419996043,2.697216117216117,3.3,1.0734065934065933
4.559919036997599,2.697216117216117,3.3,1.0734065934065933
4.564784342001076,2.697216117216117,3.3,1.0734065934065933
4.573540061996027,3.3,0.7002930402930403,0.3537728937728937
4.578307374998985,2.6673992673992672,1.6133333333333333,1.386080586080586
4.578481088996341,2.6956043956043954,0.5246153846153846,0.44080586080586076
4.585376468996401,2.6956043956043954,0.5246153846153846,0.44080586080586076
4.590281261997006,2.6956043956043954,0.5246153846153846,0.44080586080586076
4.594164043999626,2.6956043956043954,0.5246153846153846,0.44080586080586076
4.598063311997976,2.6956043956043954,0.5246153846153846,0.44080586080586076
4.604641874000663,2.6956043956043954,0.5246153846153846,0.44080586080586076
4.608574065998255,3.3,1.3715750915750915,0.6277655677655677
4.613187267001194,3.3,1.3715750915750915,0.6277655677655677
4.613507093999942,3.3,1.3715750915750915,0.6277655677655677
4.621213903999887,3.3,1.3715750915750915,0.6277655677655677
4.625569258998439,2.677069597069597,0.4198534798534798,0.3529670329670329
4.627207550998719,2.677069597069597,0.4198534798534798,0.3529670329670329
4.631322280001768,2.677069597069597,0.4198534798534798,0.3529670329670329
4.636428904996137,2.677069597069597,0.4198534798534798,0.3529670329670329
4.639503254002193,2.677069597069597,0.4198534798534798,0.3529670329670329
4.639891961000103,2.677069597069597,0.4198534798534798,0.3529670329670329
4.648623335000593,2.677069597069597,0.4198534798534798,0.3529670329670329
4.657319489000656,2.677069597069597,0.4198534798534798,0.3529670329670329
4.663247527998465,2.677069597069597,0.4198534798534798,0.3529670329670329
4.670078495997586,2.677069597069597,0.4198534798534798,0.3529670329670329
4.67405200599751,2.677069597069597,0.4198534798534798,0.3529670329670329
4.6781948170028045,2.677069597069597,0.4198534798534798,0.3529670329670329
4.680289112999162,2.6996336996336994,0.7518681318681318,0.2643223443223443
4.681672288999835,2.6996336996336994,0.7518681318681318,0.2643223443223443
4.691385707999871,2.6996336996336994,0.7518681318681318,0.2643223443223443
4.6988296679992345,3.3,0.585054945054945,0.4448351648351648
4.708493990001443,3.3,0.585054945054945,0.4448351648351648
4.7158282680029515,2.698827838827839,2.4909157509157507,0.5318681318681319
4.7237183899997035,2.698827838827839,2.4909157509157507,0.5318681318681319
4.729648870998062,2.698827838827839,2.4909157509157507,0.5318681318681319
4.7356904659973225,2.698827838827839,2.4909157509157507,0.5318681318681319
4.739612751000095,2.698827838827839,2.4909157509157507,0.5318681318681319
4.742234051998821,2.6964102564102563,2.3007326007326006,0.5431501831501832
4.749127998999029,2.6964102564102563,2.3007326007326006,0.5431501831501832
4.756908290000865,2.6964102564102563,2.3007326007326006,0.5431501831501832
4.763994544002344,2.6964102564102563,2.3007326007326006,0.5431501831501832
4.769259194996266,2.6964102564102563,2.3007326007326006,0.5431501831501832
4.772378585003025,2.6964102564102563,2.3007326007326006,0.5431501831501832
4.772669523001241,2.6964102564102563,2.3007326007326006,0.5431501831501832
4.77809242499643,2.6964102564102563,2.3007326007326006,0.5431501831501832
4.779099733001203,1.6447619047619046,0.23531135531135527,0.7752380952380952
4.780038684999454,1.6447619047619046,0.23531135531135527,0.7752380952380952
4.780920632998459,1.6447619047619046,0.23531135531135527,0.7752380952380952
4.782599933998426,1.6447619047619046,0.23531135531135527,0.7752380952380952
4.789577622999786,3.3,0.14827838827838827,0.19743589743589743
4.795228775001306,3.3,0.14827838827838827,0.19743589743589743
4.80788301499706,2.698827838827839,3.3,1.0145787545787546
4.817576752000605,2.698827838827839,3.3,1.0145787545787546
4.825829795001482,2.698827838827839,3.3,1.0145787545787546
4.831703240000934,2.723003663003663,2.104102564102564,0.42952380952380953
4.837052991002565,2.7165567765567764,1.473113553113553,1.174139194139194
4.839192983999965,2.7165567765567764,1.473113553113553,1.174139194139194
4.839530569995986,2.7165567765567764,1.473113553113553,1.174139194139194
4.844185257999925,2.7165567765567764,1.473113553113553,1.174139194139194
4.844347703001404,0.27076923076923076,2.0194871794871796,0.3142857142857142
4.8522865699997055,0.27076923076923076,2.0194871794871796,0.3142857142857142
4.859613029002503,0.27076923076923076,2.0194871794871796,0.3142857142857142
4.866966162997414,2.6545054945054947,2.5400732600732603,0.5592673992673992
4.872748303001572,2.6545054945054947,2.5400732600732603,0.5592673992673992
4.880586548002611,2.6545054945054947,2.5400732600732603,0.5592673992673992
4.887752112997987,2.6545054945054947,2.5400732600732603,0.5592673992673992
4.893067930002871,2.6545054945054947,2.5400732600732603,0.5592673992673992
4.893943062998005,2.6545054945054947,2.5400732600732603,0.5592673992673992
4.895678412001871,2.6545054945054947,2.5400732600732603,0.5592673992673992
4.8995868589991005,2.6545054945054947,2.5400732600732603,0.5592673992673992
4.906763434999448,2.6545054945054947,2.5400732600732603,0.5592673992673992
4.912340025002777,2.6545054945054947,2.5400732600732603,0.5592673992673992
4.912617679001414,2.7004395604395603,1.854285714285714,0.3908424908424908
4.9198642740011564,2.7004395604395603,1.854285714285714,0.3908424908424908
4.9239256369983195,2.7004395604395603,1.854285714285714,0.3908424908424908
4.928453467997315,2.7004395604395603,1.854285714285714,0.3908424908424908
4.929368165998312,2.7004395604395603,1.1016117216117214,0.8284249084249083
4.930270814002142,2.7004395604395603,1.1016117216117214,0.8284249084249083
4.9319872350024525,2.7004395604395603,1.1016117216117214,0.8284249084249083
4.9402262959993095,2.7004395604395603,1.1016117216117214,0.8284249084249083
4.947206773002108,2.7004395604395603,1.1016117216117214,0.8284249084249083
4.95223588799854,2.7004395604395603,1.1016117216117214,0.8284249084249083
4.956648721003148,2.7004395604395603,3.3,0.6583882783882784
4.956935513000644,0.1378021978021978,0.5745787545787545,0.7212454212454212
4.9623469169964665,2.6956043956043954,0.5858608058608058,0.42630036630036633
4.963240876997588,2.6956043956043954,0.5858608058608058,0.42630036630036633
4.964904562999436,2.6956043956043954,0.5858608058608058,0.42630036630036633
4.9698019360002945,2.6956043956043954,0.5858608058608058,0.42630036630036633
4.976929548000044,2.6956043956043954,0.5858608058608058,0.42630036630036633
4.984266102001129,2.7004395604395603,2.347472527472527,0.9517216117216116
4.989209334999032,2.7004395604395603,2.347472527472527,0.9517216117216116
4.995770087996789,2.7004395604395603,2.347472527472527,0.9517216117216116
5.000736431997211,2.7004395604395603,2.347472527472527,0.9517216117216116
5.00553209699865,2.6956043956043954,0.5117216117216117,0.3199267399267399
5.012794620000932,2.6956043956043954,0.5117216117216117,0.3199267399267399
5.018826270999853,2.7246153846153844,3.3,1.1475457875457875
5.022683367002173,2.7246153846153844,3.3,1.1475457875457875
5.026520943996729,2.7246153846153844,3.3,1.1475457875457875
5.030471404003038,3.3,0.6736996336996337,0.34007326007326005
5.03491960199608,2.7004395604395603,3.3,0.954945054945055
5.035811725996609,2.7004395604395603,3.3,0.954945054945055
5.036695185997814,2.7004395604395603,3.3,0.954945054945055
5.038207919002161,2.7004395604395603,3.3,0.954945054945055
5.042626670998288,2.7004395604395603,3.3,0.954945054945055
5.0434992629961926,2.7004395604395603,3.3,0.954945054945055
5.045070357999066,2.7004395604395603,3.3,0.954945054945055
5.049349373999576,2.7004395604395603,3.3,0.954945054945055
5.05091388800065,2.7004395604395603,3.3,0.954945054945055
5.055591304997506,2.7004395604395603,3.3,0.954945054945055
5.055813093000324,2.7004395604395603,3.3,0.954945054945055
5.060654861998046,2.7004395604395603,3.3,0.954945054945055
5.065607488999376,2.7004395604395603,3.3,0.954945054945055
5.070250227996439,3.2387545787545786,0.332014652014652,0.12329670329670328
5.070469990001584,3.2387545787545786,0.332014652014652,0.12329670329670328
5.079748643998755,3.2387545787545786,0.332014652014652,0.12329670329670328
5.087344090003171,3.2387545787545786,0.332014652014652,0.12329670329670328
5.091593778997776,3.2387545787545786,0.332014652014652,0.12329670329670328
5.094065443998261,3.2387545787545786,0.332014652014652,0.12329670329670328
5.094245850996231,3.2387545787545786,0.332014652014652,0.12329670329670328
5.100894680996134,3.2387545787545786,0.332014652014652,0.12329670329670328
5.105730538998614,2.702051282051282,0.5076923076923077,0.3489377289377289
5.109091810998507,2.2926739926739925,0.8985347985347985,0.04996336996336996
5.109952715996769,2.2926739926739925,0.8985347985347985,0.04996336996336996
5.110868171002949,2.2926739926739925,0.8985347985347985,0.04996336996336996
5.111821993996273,2.2926739926739925,0.8985347985347985,0.04996336996336996
5.113040691998322,2.2926739926739925,0.8985347985347985,0.04996336996336996
5.113278725002601,2.2926739926739925,0.8985347985347985,0.04996336996336996
5.118739113997435,2.2926739926739925,0.8985347985347985,0.04996336996336996
5.119746766999015,2.2926739926739925,0.8985347985347985,0.04996336996336996
5.120585851997021,2.2926739926739925,0.8985347985347985,0.04996336996336996
5.122352402002434,2.2926739926739925,0.8985347985347985,0.04996336996336996
5.125672718997521,2.2926739926739925,0.8985347985347985,0.04996336996336996
5.125974543996563,2.2926739926739925,0.8985347985347985,0.04996336996336996
5.131116347001807,2.2926739926739925,0.8985347985347985,0.04996336996336996
5.136451421996753,2.697216117216117,3.3,0.9452747252747251
5.137330905999988,3.3,0.19743589743589743,0.5479853479853479
5.138974068999232,3.3,0.19743589743589743,0.5479853479853479
5.142829010997957,3.3,0.19743589743589743,0.5479853479853479
5.146717443996749,2.3539194139194137,0.8719413919413919,0.06043956043956044
5.15128597200237,2.3539194139194137,0.8719413919413919,0.06043956043956044
5.151534741999058,2.697216117216117,3.191208791208791,0.6873992673992674
5.157200360001298,2.697216117216117,3.191208791208791,0.6873992673992674
5.1575217740028165,2.697216117216117,3.191208791208791,0.6873992673992674
5.165654231997905,2.723003663003663,0.8485714285714284,0.32717948717948714
5.171757263997279,2.723003663003663,0.8485714285714284,0.32717948717948714
5.178234501996485,2.6996336996336994,2.1637362637362636,1.008937728937729
5.184096416996908,2.6682051282051282,0.6624175824175824,0.2909157509157509
5.192391368000244,2.6682051282051282,0.6624175824175824,0.2909157509157509
5.199387435997778,2.6682051282051282,0.6624175824175824,0.2909157509157509
5.206283065999742,2.6746520146520147,0.7075457875457875,0.2868864468864469
5.2104062110011,2.647252747252747,2.343443223443223,1.0443956043956042
5.212099787000625,2.647252747252747,2.343443223443223,1.0443956043956042
5.216001155000413,2.647252747252747,2.343443223443223,1.0443956043956042
5.2198612349966425,2.647252747252747,2.343443223443223,1.0443956043956042
5.223880523000844,2.647252747252747,2.343443223443223,1.0443956043956042
5.227638611999282,2.647252747252747,2.343443223443223,1.0443956043956042
5.2323862179982825,2.9712087912087912,1.7817582417582416,1.3095238095238093
5.23822282099718,2.9712087912087912,1.7817582417582416,1.3095238095238093
5.238341869000578,2.9712087912087912,1.7817582417582416,1.3095238095238093
5.243142451996391,2.9712087912087912,1.7817582417582416,1.3095238095238093
5.248907062996295,3.3,0.25223443223443226,0.2804395604395604
5.249079251996591,3.3,0.25223443223443226,0.2804395604395604
5.254520661001152,3.3,0.25223443223443226,0.2804395604395604
5.256889374999446,3.3,0.25223443223443226,0.2804395604395604
5.2664103520000936,3.3,0.25223443223443226,0.2804395604395604
5.274314827001945,3.3,0.25223443223443226,0.2804395604395604
5.2829048939966015,3.3,0.25223443223443226,0.2804395604395604
5.287078911002027,3.3,0.25223443223443226,0.2804395604395604
5.288708437001333,3.3,1.8365567765567765,1.2273260073260073
5.29188182100188,3.3,1.8365567765567765,1.2273260073260073
5.293585742001596,2.7004395604395603,3.3,0.9750915750915751
5.2967805250009405,2.7004395604395603,3.3,0.9750915750915751
5.299291290000838,2.7004395604395603,3.3,0.9750915750915751
5.304767629997514,2.7197802197802194,2.6673992673992672,0.4351648351648352
5.306385657997453,2.7197802197802194,2.6673992673992672,0.4351648351648352
5.31024980499933,2.8124542124542122,2.036410256410256,1.3619047619047617
5.314159260997258,2.8124542124542122,2.036410256410256,1.3619047619047617
5.318740675997105,2.8124542124542122,2.036410256410256,1.3619047619047617
5.318984102996183,2.697216117216117,0.7712087912087912,0.4126007326007326
5.3243781679993845,2.697216117216117,0.7712087912087912,0.4126007326007326
5.326774984001531,2.697216117216117,0.7712087912087912,0.4126007326007326
5.326892037999642,2.697216117216117,0.7712087912087912,0.4126007326007326
5.332557020999957,2.697216117216117,0.7712087912087912,0.4126007326007326
5.332798483002989,2.7004395604395603,3.2250549450549446,1.091135531135531
5.338138332997914,2.655311355311355,1.2450549450549449,0.8904761904761904
5.339814537001075,2.655311355311355,1.2450549450549449,0.8904761904761904
5.344745595000859,2.655311355311355,1.2450549450549449,0.8904761904761904
5.353446323999378,2.655311355311355,1.2450549450549449,0.8904761904761904
5.361264323000796,0.6865934065934066,0.4851282051282051,0.9726739926739927
5.370158249002998,0.6865934065934066,0.4851282051282051,0.9726739926739927
5.378316520000226,0.6865934065934066,0.4851282051282051,0.9726739926739927
5.387207986001158,0.6865934065934066,0.4851282051282051,0.9726739926739927
5.3941620089972275,0.6865934065934066,0.4851282051282051,0.9726739926739927
5.400537898000039,0.6865934065934066,0.4851282051282051,0.9726739926739927
5.406316193002567,2.721391941391941,0.796996336996337,0.5109157509157509
5.411878083999909,2.721391941391941,0.796996336996337,0.5109157509157509
5.412070878999657,2.721391941391941,0.796996336996337,0.5109157509157509
5.4216903779961285,2.721391941391941,0.796996336996337,0.5109157509157509
5.42699417899712,2.721391941391941,0.796996336996337,0.5109157509157509
5.429333813000994,2.721391941391941,0.796996336996337,0.5109157509157509
5.429531303998374,2.721391941391941,0.796996336996337,0.5109157509157509
5.438590446996386,2.721391941391941,0.796996336996337,0.5109157509157509
5.445850149000762,2.721391941391941,0.796996336996337,0.5109157509157509
5.451782730997365,2.721391941391941,0.796996336996337,0.5109157509157509
5.456688070000382,3.3,1.9485714285714284,1.2587545787545786
5.460602977997041,3.3,1.9485714285714284,1.2587545787545786
5.465355337997607,2.698827838827839,2.526373626373626,0.4383882783882784
5.471852098999079,3.3,0.5479853479853479,0.3287912087912088
5.475825494999299,3.3,0.5479853479853479,0.3287912087912088
5.480020372000581,3.3,1.2450549450549449,0.805054945054945
5.482566229999065,3.3,1.2450549450549449,0.805054945054945
5.4919371329960995,3.3,1.2450549450549449,0.805054945054945
5.497496919000696,3.3,2.2136996336996333,0.8453479853479853
5.498433808999835,2.693992673992674,0.3312087912087912,0.49076923076923074
5.5016240699987975,2.693992673992674,0.3312087912087912,0.49076923076923074
5.501997958999709,2.693992673992674,0.3312087912087912,0.49076923076923074
5.510764232996735,2.693992673992674,0.3312087912087912,0.49076923076923074
5.5166738420011825,3.3,0.4448351648351648,0.3158974358974359
5.528254325996386,3.3,0.4448351648351648,0.3158974358974359
5.541334898996865,3.3,0.4448351648351648,0.3158974358974359
5.551749521997408,3.3,0.4448351648351648,0.3158974358974359
5.561920890002511,3.3,0.4448351648351648,0.3158974358974359
5.571797475000494,3.3,0.4448351648351648,0.3158974358974359
5.576641624000331,2.7004395604395603,1.411062271062271,0.9920146520146519
5.582963613996981,2.7004395604395603,1.411062271062271,0.9920146520146519
5.590350354999828,3.3,0.21838827838827837,0.190989010989011
5.594483754000976,3.3,0.21838827838827837,0.190989010989011
5.598328596999636,3.3,0.21838827838827837,0.190989010989011
5.605718767001235,3.3,0.21838827838827837,0.190989010989011
5.60975542399683,3.3,0.21838827838827837,0.190989010989011
5.612435312003072,3.3,0.21838827838827837,0.190989010989011
5.61988131399994,3.3,0.21838827838827837,0.190989010989011
5.624394143997051,3.3,0.21838827838827837,0.190989010989011
5.625240538000071,3.3,0.21838827838827837,0.190989010989011
5.6267909739981405,3.3,0.21838827838827837,0.190989010989011
5.631201393996889,3.3,1.66007326007326,1.1902564102564102
5.632665090000955,3.3,1.66007326007326,1.1902564102564102
5.641662499001541,3.3,1.66007326007326,1.1902564102564102
5.6505536409968045,3.3,1.66007326007326,1.1902564102564102
5.657988849998219,3.3,1.66007326007326,1.1902564102564102
5.663068604997534,3.001831501831502,0.9025641025641026,0.8735531135531135
5.668210201001784,3.001831501831502,0.9025641025641026,0.8735531135531135
5.672378265000589,3.001831501831502,0.9025641025641026,0.8735531135531135
5.673302844996215,2.7004395604395603,2.5424908424908423,1.0306959706959706
5.674245766997046,2.7004395604395603,2.5424908424908423,1.0306959706959706
5.676361559002544,2.7004395604395603,2.5424908424908423,1.0306959706959706
5.676766698001302,2.7004395604395603,2.5424908424908423,1.0306959706959706
5.685581612997339,2.7004395604395603,2.5424908424908423,1.0306959706959706
5.690543646000151,2.697216117216117,2.6343589743589746,0.4625641025641025
5.695968451997032,2.697216117216117,2.6343589743589746,0.4625641025641025
5.696238718999666,2.685934065934066,0.39003663003663,0.49721611721611714
5.70499061299779,2.685934065934066,0.39003663003663,0.49721611721611714
5.710708926002553,2.2056410256410253,3.3,0.7107692307692308
5.716531409998424,2.2056410256410253,3.3,0.7107692307692308
5.717012943001464,2.2056410256410253,3.3,0.7107692307692308
5.7232370439960505,2.2056410256410253,3.3,0.7107692307692308
5.729089351996663,2.5505494505494504,3.3,0.614065934065934
5.737555275998602,2.5505494505494504,3.3,0.614065934065934
5.744586544002232,2.5505494505494504,3.3,0.614065934065934
5.750698376003129,2.5505494505494504,3.3,0.614065934065934
5.756570028999704,2.5505494505494504,3.3,0.614065934065934
5.761364368998329,2.5505494505494504,3.3,0.614065934065934
5.767241681001906,0.12974358974358974,2.3684249084249083,0.3457142857142857
5.775058480001462,0.12974358974358974,2.3684249084249083,0.3457142857142857
5.780653693000204,0.12974358974358974,2.3684249084249083,0.3457142857142857
5.780953845998738,0.12974358974358974,2.3684249084249083,0.3457142857142857
5.78864426400105,0.12974358974358974,2.3684249084249083,0.3457142857142857
5.79364704299951,3.3,1.6125274725274723,1.228131868131868
5.799628822998784,3.3,1.6125274725274723,1.228131868131868
5.80003867099731,3.3,1.6125274725274723,1.228131868131868
5.804713933997846,3.3,1.6125274725274723,1.228131868131868
5.808624821002013,3.3,1.6125274725274723,1.228131868131868
5.812586656997155,3.3,1.854285714285714,1.3852747252747253
5.818063514998357,3.3,1.854285714285714,1.3852747252747253
5.818438955000602,2.659340659340659,0.45692307692307693,0.3964835164835165
5.826815399996121,2.659340659340659,0.45692307692307693,0.3964835164835165
5.831489547999809,2.659340659340659,0.45692307692307693,0.3964835164835165
5.831943406999926,2.659340659340659,0.45692307692307693,0.3964835164835165
5.839654490002431,2.659340659340659,0.45692307692307693,0.3964835164835165
5.847076361998916,2.6762637362637363,0.6229304029304029,0.31267399267399265
5.854142629999842,3.3,0.4488644688644688,0.33282051282051284
5.859947076001845,3.3,0.4488644688644688,0.33282051282051284
5.866017203996307,3.3,0.4488644688644688,0.33282051282051284
5.873659561999375,3.3,0.4488644688644688,0.33282051282051284
5.880046926999057,3.3,0.4488644688644688,0.33282051282051284
5.886507265997352,2.702051282051282,0.7325274725274724,0.5181684981684981
5.8919402370011085,2.702051282051282,0.7325274725274724,0.5181684981684981
5.892295017998549,2.702051282051282,0.7325274725274724,0.5181684981684981
5.901844261003134,2.702051282051282,0.7325274725274724,0.5181684981684981
5.905982967000455,2.702051282051282,0.7325274725274724,0.5181684981684981
5.909934365998197,2.702051282051282,0.7325274725274724,0.5181684981684981
5.914238823999767,2.702051282051282,0.7325274725274724,0.5181684981684981
5.915976450996823,2.6956043956043954,3.3,1.0919413919413918
5.922460843001318,2.6956043956043954,3.3,1.0919413919413918
5.928454619002878,1.079047619047619,1.394139194139194,0.0
5.935421681999287,1.079047619047619,1.394139194139194,0.0
5.939521815002081,1.079047619047619,1.394139194139194,0.0
5.941860243001429,1.079047619047619,1.394139194139194,0.0
5.942003208998358,3.3,3.154945054945055,0.5068864468864469
5.948846230996423,3.3,3.154945054945055,0.5068864468864469
5.954234019001888,3.3,3.154945054945055,0.5068864468864469
5.955137356002524,2.702051282051282,1.3127472527472526,0.32073260073260074
5.956844872998772,2.702051282051282,1.3127472527472526,0.32073260073260074
5.959344900002179,2.702051282051282,1.3127472527472526,0.32073260073260074
5.959523015997547,2.702051282051282,1.3127472527472526,0.32073260073260074
5.964302647000295,2.702051282051282,1.3127472527472526,0.32073260073260074
5.964411594999547,2.702051282051282,1.3127472527472526,0.32073260073260074
5.970698561999598,2.702051282051282,1.3127472527472526,0.32073260073260074
5.974251040999661,2.702051282051282,1.3127472527472526,0.32073260073260074
5.9744140469993,2.702051282051282,1.3127472527472526,0.32073260073260074
5.980072199999995,2.702051282051282,1.3127472527472526,0.32073260073260074
5.980309337996005,2.697216117216117,2.1242490842490844,0.32556776556776557
5.988546143998974,2.697216117216117,2.1242490842490844,0.32556776556776557
5.9933004709964735,2.697216117216117,2.1242490842490844,0.32556776556776557
5.999701332999393,2.697216117216117,2.1242490842490844,0.32556776556776557
6.004332219999924,2.697216117216117,1.1805860805860806,0.16842490842490843
6.010335676000977,2.697216117216117,1.1805860805860806,0.16842490842490843
6.015445767996425,2.697216117216117,1.1805860805860806,0.16842490842490843
6.020297082002799,2.697216117216117,1.1805860805860806,0.16842490842490843
6.02759214300022,2.694798534798535,0.751062271062271,0.34087912087912087
6.03227233600046,2.548937728937729,0.3183150183150183,0.2071062271062271
6.032534552003199,2.548937728937729,0.3183150183150183,0.2071062271062271
6.042547972996545,2.548937728937729,0.3183150183150183,0.2071062271062271
6.051662846999534,2.6802930402930403,0.3489377289377289,0.42630036630036633
6.058743716996105,2.6802930402930403,0.3489377289377289,0.42630036630036633
6.06267924799613,2.6802930402930403,0.3489377289377289,0.42630036630036633
6.0681618390008225,2.6802930402930403,0.3489377289377289,0.42630036630036633
6.07054177900136,2.6802930402930403,0.3489377289377289,0.42630036630036633
6.076083091997134,2.6802930402930403,0.3489377289377289,0.42630036630036633
6.077679713001999,1.303076923076923,0.6261538461538461,0.8622710622710623
6.082159331002913,1.303076923076923,0.6261538461538461,0.8622710622710623
6.0825134350016015,2.698827838827839,0.9122344322344322,0.45772893772893775
6.089563360001193,2.698827838827839,0.9122344322344322,0.45772893772893775
6.094536438002251,2.698827838827839,0.9122344322344322,0.45772893772893775
6.102183089999016,0.8026373626373626,0.32395604395604394,1.0008791208791208
6.106174825996277,0.8026373626373626,0.32395604395604394,1.0008791208791208
6.108544764996623,0.8026373626373626,0.32395604395604394,1.0008791208791208
6.108825240000442,2.6956043956043954,1.7342124542124542,1.4618315018315018
6.113731061996077,2.6956043956043954,1.7342124542124542,1.4618315018315018
6.120943937996344,2.6956043956043954,1.7342124542124542,1.4618315018315018
6.126980952998565,2.6956043956043954,1.7342124542124542,1.4618315018315018
6.131028377996699,2.6956043956043954,1.7342124542124542,1.4618315018315018
6.1362327030001325,2.6956043956043954,1.7342124542124542,1.4618315018315018
6.138181597001676,2.6956043956043954,1.7342124542124542,1.4618315018315018
6.139922923000995,2.6956043956043954,1.7342124542124542,1.4618315018315018
6.142376099000103,2.6956043956043954,1.7342124542124542,1.4618315018315018
6.142604840999411,2.6956043956043954,1.7342124542124542,1.4618315018315018
6.1472365189983975,2.6956043956043954,1.7342124542124542,1.4618315018315018
6.147443371999543,3.3,2.41032967032967,1.543223443223443
6.153942614997504,3.3,2.41032967032967,1.543223443223443
6.158203412000148,3.3,2.41032967032967,1.543223443223443
6.1605331739992835,3.195238095238095,0.5560439560439561,0.66
6.16075180000189,3.195238095238095,0.5560439560439561,0.66
6.169291944002907,3.195238095238095,0.5560439560439561,0.66
6.176202483002271,3.3,2.0098168498168496,1.4569963369963368
6.181355007000093,1.7035897435897436,0.13377289377289378,0.8993406593406592
6.182848352997098,1.7035897435897436,0.13377289377289378,0.8993406593406592
6.189718330002506,1.7035897435897436,0.13377289377289378,0.8993406593406592
6.194349545003206,3.3,0.2328937728937729,0.20065934065934066
6.194608714002243,2.6617582417582417,1.0693772893772893,1.003296703296703
6.202598691997991,2.6617582417582417,1.0693772893772893,1.003296703296703
6.20878511799674,2.6617582417582417,1.0693772893772893,1.003296703296703
6.212028080000891,2.6617582417582417,1.1902564102564102,0.5560439560439561
6.213958699001523,2.6617582417582417,1.1902564102564102,0.5560439560439561
6.21593030099757,2.6617582417582417,1.1902564102564102,0.5560439560439561
6.220284041999548,0.6374358974358975,0.18373626373626373,0.8622710622710623
6.226676630998554,0.6374358974358975,0.18373626373626373,0.8622710622710623
6.230701394000789,2.706886446886447,0.5431501831501832,0.31750915750915754
6.239683599000273,3.1404395604395603,1.6495970695970694,1.2627838827838826
6.245972789001826,2.6617582417582417,1.5174358974358972,0.9082051282051282
6.252261538997118,2.6617582417582417,1.5174358974358972,0.9082051282051282
6.256428200998926,2.7246153846153844,1.8494505494505493,0.9484981684981684
6.257300580997253,2.7246153846153844,1.8494505494505493,0.9484981684981684
6.258244233002188,2.7246153846153844,1.8494505494505493,0.9484981684981684
6.259891800000332,2.7246153846153844,1.8494505494505493,0.9484981684981684
6.263157153000066,2.718974358974359,1.1024175824175824,0.17567765567765567
6.26562042599835,2.718974358974359,1.1024175824175824,0.17567765567765567
6.274659980001161,2.6585347985347987,2.323296703296703,1.270842490842491
6.281747205001011,3.0227838827838824,1.3216117216117216,1.1314285714285715
6.28705441999773,2.6698168498168497,2.629523809523809,0.43677655677655675
6.288379502002499,2.6698168498168497,2.629523809523809,0.43677655677655675
6.296633047000796,2.6698168498168497,2.629523809523809,0.43677655677655675
6.302426608002861,2.6488644688644687,0.6358241758241758,0.2651282051282051
6.310979556001257,2.7004395604395603,2.0509157509157507,0.3747252747252747
6.318873411997629,2.639194139194139,2.269304029304029,1.2893772893772892
6.32558411899663,2.639194139194139,2.269304029304029,1.2893772893772892
6.330404854998051,2.639194139194139,2.269304029304029,1.2893772893772892
6.336959373002173,2.639194139194139,2.269304029304029,1.2893772893772892
6.342007954997825,1.3336996336996336,0.12571428571428572,0.5866666666666667
6.3467109209959744,1.3336996336996336,0.12571428571428572,0.5866666666666667
6.356724220000615,3.3,0.17084249084249084,0.12893772893772892
6.362912491000316,3.3,0.356996336996337,0.42065934065934063
6.36823375899985,2.6738461538461538,0.8211721611721612,0.3167032967032967
6.371316824996029,2.6198534798534796,1.9719413919413917,1.261172161172161
6.3717042970019975,2.6198534798534796,1.9719413919413917,1.261172161172161
6.38011169800302,2.6198534798534796,1.9719413919413917,1.261172161172161
6.3850673159977305,3.3,0.361025641025641,0.8606593406593407
6.3897960190006415,3.3,0.361025641025641,0.8606593406593407
6.395303249002609,3.3,0.361025641025641,0.8606593406593407
6.3971049660030985,3.3,0.361025641025641,0.8606593406593407
6.399632180997287,3.3,0.361025641025641,0.8606593406593407
6.405829930998152,3.3,0.361025641025641,0.8606593406593407
6.410664736999024,1.278901098901099,1.9252014652014653,0.1668131868131868
6.416176719001669,1.278901098901099,1.9252014652014653,0.1668131868131868
6.417048770999827,1.278901098901099,1.9252014652014653,0.1668131868131868
6.418988145000185,1.278901098901099,1.9252014652014653,0.1668131868131868
6.420643571997061,1.278901098901099,1.9252014652014653,0.1668131868131868
6.424505581999256,1.278901098901099,1.9252014652014653,0.1668131868131868
6.429210600996157,3.3,0.18937728937728937,0.12732600732600732
6.429354662999685,3.3,0.18937728937728937,0.12732600732600732
6.434780593001051,3.3,0.18937728937728937,0.12732600732600732
6.436643291999644,0.3892307692307692,0.28608058608058606,0.7881318681318681
6.439238528997521,2.655311355311355,1.3046886446886445,0.48432234432234433
6.444660055996792,2.655311355311355,1.3046886446886445,0.48432234432234433
6.446438475999457,1.0492307692307692,0.8759706959706959,0.07897435897435898
6.449521850998281,1.0492307692307692,0.8759706959706959,0.07897435897435898
6.451871580997249,1.0492307692307692,0.8759706959706959,0.07897435897435898
6.452131154997915,1.0492307692307692,0.8759706959706959,0.07897435897435898
6.458216993996757,1.0492307692307692,0.8759706959706959,0.07897435897435898
6.466663287996198,1.0492307692307692,0.8759706959706959,0.07897435897435898
6.473250916002144,1.0492307692307692,0.8759706959706959,0.07897435897435898
6.479166498997074,1.0492307692307692,0.8759706959706959,0.07897435897435898
6.486148203002813,1.0492307692307692,0.8759706959706959,0.07897435897435898
6.490498245002527,0.30139194139194136,1.4287912087912087,0.0024175824175824176
6.491386200999841,0.30139194139194136,1.4287912087912087,0.0024175824175824176
