time,emg1,emg2,emg3
0.0027668319962685928,2.652087912087912,3.1807326007326004,2.1129670329670325
0.0413334559998475,2.7197802197802194,1.415091575091575,0.3795604395604395
0.0422623249978642,2.702051282051282,3.2846886446886447,2.374871794871795
0.04501154700119514,2.702051282051282,3.2846886446886447,2.374871794871795
0.04789710699697025,2.702051282051282,3.2846886446886447,2.374871794871795
0.05098875799740199,2.702051282051282,3.2846886446886447,2.374871794871795
0.0532811520024552,2.702051282051282,3.2846886446886447,2.374871794871795
0.062112364001222886,2.702051282051282,3.2846886446886447,2.374871794871795
0.06748705900099594,2.702051282051282,3.2846886446886447,2.374871794871795
0.06933465300244279,2.702051282051282,3.2846886446886447,2.374871794871795
0.07277081299980637,2.702051282051282,3.2846886446886447,2.374871794871795
0.07303137899725698,2.5553846153846154,1.6624908424908424,2.129084249084249
0.08131407600012608,2.6617582417582417,1.9026373626373623,2.6279120879120876
0.089523401002225,2.1879120879120877,1.1676923076923076,2.1226373626373625
0.0983293870012858,2.1879120879120877,1.1676923076923076,2.1226373626373625
0.10710847999871476,2.1879120879120877,1.1676923076923076,2.1226373626373625
0.11412182400090387,2.1879120879120877,1.1676923076923076,2.1226373626373625
0.11859504099993501,2.9220512820512816,1.3046886446886445,1.2660073260073261
0.11875789800251368,3.3,1.2853479853479852,0.4899633699633699
0.12341653399926145,3.3,1.2853479853479852,0.4899633699633699
0.12356592700234614,3.3,1.2853479853479852,0.4899633699633699
0.12839130900101736,3.3,1.2853479853479852,0.4899633699633699
0.1337372330017388,2.328131868131868,2.394212454212454,3.3
0.13672691200190457,2.328131868131868,2.394212454212454,3.3
0.13970047899783822,2.328131868131868,2.394212454212454,3.3
0.14197248600248713,2.328131868131868,2.394212454212454,3.3
0.14230471899645636,2.328131868131868,2.394212454212454,3.3
0.14689865599939367,2.328131868131868,2.394212454212454,3.3
0.14718848499614978,2.1637362637362636,0.7655677655677655,1.8824908424908422
0.15314335199946072,2.1637362637362636,0.7655677655677655,1.8824908424908422
0.16226452300179517,2.6778754578754578,3.3,2.5175091575091573
0.17124158600199735,2.6778754578754578,3.3,2.5175091575091573
0.17621166000026278,0.6728937728937728,0.9057875457875458,0.3602197802197802
0.18004796499735676,0.7502564102564102,0.8791941391941391,1.934065934065934
0.1850773449987173,0.7502564102564102,0.8791941391941391,1.934065934065934
0.18889630700141424,2.9679853479853477,2.189523809523809,1.0194139194139193
0.19367097200301941,2.9679853479853477,2.189523809523809,1.0194139194139193
0.19379930399736622,2.9679853479853477,2.189523809523809,1.0194139194139193
0.1984558179974556,2.9679853479853477,2.189523809523809,1.0194139194139193
0.19866622800327605,2.9679853479853477,2.189523809523809,1.0194139194139193
0.20399292199726915,2.9679853479853477,2.189523809523809,1.0194139194139193
0.20638304600288393,2.9679853479853477,2.189523809523809,1.0194139194139193
0.21290319500258192,0.689010989010989,0.21435897435897436,0.5729670329670329
0.21738768000068376,2.2354578754578753,2.3652014652014652,3.3
0.21782649499800755,2.8857875457875455,1.5416117216117216,1.6665201465201465
0.22630322899931343,2.8857875457875455,1.5416117216117216,1.6665201465201465
0.23484081799688283,2.8857875457875455,1.5416117216117216,1.6665201465201465
0.24448153800040018,2.655311355311355,3.3,2.194358974358974
0.2514661649984191,2.655311355311355,3.3,2.194358974358974
0.2557621719970484,2.655311355311355,3.3,2.194358974358974
0.2589760530026979,2.697216117216117,3.1227106227106223,2.311208791208791
0.25935233399650315,2.697216117216117,3.1227106227106223,2.311208791208791
0.2641214890027186,2.697216117216117,3.1227106227106223,2.311208791208791
0.26877940900158137,0.083003663003663,0.47142857142857136,0.25223443223443226
0.2689254680008162,0.083003663003663,0.47142857142857136,0.25223443223443226
0.2752784240001347,0.083003663003663,0.47142857142857136,0.25223443223443226
0.2808247310022125,0.083003663003663,0.47142857142857136,0.25223443223443226
0.2863423730013892,2.6714285714285713,1.456190476190476,2.2048351648351647
0.2872078930013231,2.6714285714285713,1.456190476190476,2.2048351648351647
0.28887293000298087,2.6714285714285713,1.456190476190476,2.2048351648351647
0.294896826002514,2.6714285714285713,1.456190476190476,2.2048351648351647
0.2981205179967219,2.6714285714285713,1.456190476190476,2.2048351648351647
0.29906280399882235,2.6714285714285713,1.456190476190476,2.2048351648351647
0.3000312739968649,2.6714285714285713,1.456190476190476,2.2048351648351647
0.3016549890016904,2.6714285714285713,1.456190476190476,2.2048351648351647
0.3055402769969078,2.6714285714285713,1.456190476190476,2.2048351648351647
0.3115835939970566,2.6714285714285713,1.456190476190476,2.2048351648351647
0.31721711000136565,3.2306959706959706,2.357142857142857,1.303076923076923
0.3226474129987764,3.2306959706959706,2.357142857142857,1.303076923076923
0.3256152940011816,3.3,2.0654212454212453,0.8920879120879119
0.3274223650005297,3.3,2.0654212454212453,0.8920879120879119
0.32994069199776277,3.3,2.0654212454212453,0.8920879120879119
0.3345196130030672,2.5634432234432234,2.0895970695970694,2.5827838827838825
0.3348544580003363,2.5634432234432234,2.0895970695970694,2.5827838827838825
0.33944080200308235,2.5634432234432234,2.0895970695970694,2.5827838827838825
0.3396928849979304,2.5634432234432234,2.0895970695970694,2.5827838827838825
0.3479882980027469,2.5634432234432234,2.0895970695970694,2.5827838827838825
0.3526452660007635,2.5634432234432234,2.0895970695970694,2.5827838827838825
0.35295197200321127,2.5634432234432234,2.0895970695970694,2.5827838827838825
0.35856676600087667,2.5634432234432234,2.0895970695970694,2.5827838827838825
0.358913580996159,2.5634432234432234,2.0895970695970694,2.5827838827838825
0.3651599869990605,2.5634432234432234,2.0895970695970694,2.5827838827838825
0.3691399020026438,2.5634432234432234,2.0895970695970694,2.5827838827838825
0.3732215679992805,2.5634432234432234,2.0895970695970694,2.5827838827838825
0.37799380700016627,2.5634432234432234,2.0895970695970694,2.5827838827838825
0.3819945360010024,0.083003663003663,0.6938461538461538,2.1427838827838825
0.38593327299895464,0.083003663003663,0.6938461538461538,2.1427838827838825
0.38992768099706154,0.083003663003663,0.6938461538461538,2.1427838827838825
0.3955986299988581,0.083003663003663,0.6938461538461538,2.1427838827838825
0.40039426799921785,0.083003663003663,0.6938461538461538,2.1427838827838825
0.406045941002958,0.083003663003663,0.6938461538461538,2.1427838827838825
0.40705039400199894,0.083003663003663,0.6938461538461538,2.1427838827838825
0.40758061000087764,0.083003663003663,0.6938461538461538,2.1427838827838825
0.41408608199708397,0.083003663003663,0.6938461538461538,2.1427838827838825
0.4172744800016517,0.083003663003663,0.6938461538461538,2.1427838827838825
0.4195826709983521,0.083003663003663,0.6938461538461538,2.1427838827838825
0.41970701800164534,0.083003663003663,0.6938461538461538,2.1427838827838825
0.4277624280002783,0.083003663003663,0.6938461538461538,2.1427838827838825
0.4336208320019068,0.083003663003663,0.6938461538461538,2.1427838827838825
0.4386756919993786,0.083003663003663,0.6938461538461538,2.1427838827838825
0.4470187389961211,0.083003663003663,0.6938461538461538,2.1427838827838825
0.4516853929962963,3.3,1.5569230769230769,1.141098901098901
0.4518403070032946,3.3,1.5569230769230769,1.141098901098901
0.4564521330030402,3.3,1.5569230769230769,1.141098901098901
0.45663028900162317,3.3,1.5569230769230769,1.141098901098901
0.4637812630026019,3.3,1.5569230769230769,1.141098901098901
0.46883171999797923,3.3,1.5956043956043955,1.456190476190476
0.4727573080017464,3.3,1.5956043956043955,1.456190476190476
0.4793026280021877,3.3,1.5956043956043955,1.456190476190476
0.4829189860029146,3.3,1.4803663003663003,1.1233699633699634
0.4884102089999942,3.3,1.4803663003663003,1.1233699633699634
0.4893691570032388,3.3,1.4803663003663003,1.1233699633699634
0.49097365100169554,3.3,1.4803663003663003,1.1233699633699634
0.4979445799981477,3.3,1.4803663003663003,1.1233699633699634
0.5026993080027751,3.3,1.4803663003663003,1.1233699633699634
0.5029313999984879,3.3,1.4803663003663003,1.1233699633699634
0.5086186999978963,3.3,1.4803663003663003,1.1233699633699634
0.515322778999689,3.3,1.4803663003663003,1.1233699633699634
0.5191744129988365,3.3,1.4803663003663003,1.1233699633699634
0.5249060689966427,3.3,1.4803663003663003,1.1233699633699634
0.5335362670011818,3.3,1.4803663003663003,1.1233699633699634
0.539008161998936,3.3,1.4803663003663003,1.1233699633699634
0.5433728680000058,3.3,1.4803663003663003,1.1233699633699634
0.5436265050011571,3.3,1.4803663003663003,1.1233699633699634
0.5479110879969085,3.3,1.4803663003663003,1.1233699633699634
0.5496248170020408,0.6712820512820512,0.19018315018315018,0.9356043956043956
0.5535073680002824,0.6712820512820512,0.19018315018315018,0.9356043956043956
0.5604270420008106,3.0389010989010985,1.6012454212454212,1.5996336996336995
0.5664942720031831,3.0389010989010985,1.6012454212454212,1.5996336996336995
0.5696242299964069,2.6617582417582417,2.298315018315018,1.0387545787545787
0.5719138159984141,2.6617582417582417,2.298315018315018,1.0387545787545787
0.5722249809987261,2.6617582417582417,2.298315018315018,1.0387545787545787
0.5795794149962603,2.6617582417582417,2.298315018315018,1.0387545787545787
0.5835909099987475,2.4425641025641025,1.4529670329670328,2.0267399267399266
0.5866808509963448,2.4425641025641025,1.4529670329670328,2.0267399267399266
0.5891109549993416,2.4425641025641025,1.4529670329670328,2.0267399267399266
0.5892568359995494,2.4425641025641025,1.4529670329670328,2.0267399267399266
0.597087135000038,2.4425641025641025,1.4529670329670328,2.0267399267399266
0.6018664720031666,2.4425641025641025,1.4529670329670328,2.0267399267399266
0.6020051110026543,2.4425641025641025,1.4529670329670328,2.0267399267399266
0.6066450349972001,2.4425641025641025,1.4529670329670328,2.0267399267399266
0.6069710520023364,2.4425641025641025,1.4529670329670328,2.0267399267399266
0.6130594990027021,2.4425641025641025,1.4529670329670328,2.0267399267399266
0.6162870620028116,2.655311355311355,1.788205128205128,2.6665934065934067
0.617913515001419,2.1137728937728935,1.228131868131868,1.573846153846154
0.6218070039976737,2.1137728937728935,1.228131868131868,1.573846153846154
0.6278460009998525,2.673040293040293,2.1975824175824172,0.9605860805860806
0.6329985699994722,2.673040293040293,2.1975824175824172,0.9605860805860806
0.633893910999177,2.795531135531135,2.0638095238095238,1.3272527472527473
0.6354844110028353,2.795531135531135,2.0638095238095238,1.3272527472527473
0.6392173770000227,2.795531135531135,2.0638095238095238,1.3272527472527473
0.6471823809988564,2.795531135531135,2.0638095238095238,1.3272527472527473
0.6517357429984258,3.3,1.527106227106227,0.6205128205128204
0.6525964710017433,3.3,1.527106227106227,0.6205128205128204
0.6541950469982112,3.3,1.527106227106227,0.6205128205128204
0.6593986610023421,3.3,1.527106227106227,0.6205128205128204
0.6630326719969162,3.3,1.527106227106227,0.6205128205128204
0.6697209289995953,3.2597069597069597,2.548937728937729,1.858315018315018
0.6752808489982272,3.2597069597069597,2.548937728937729,1.858315018315018
0.6756386299966834,3.2597069597069597,2.548937728937729,1.858315018315018
0.6814785090027726,3.2597069597069597,2.548937728937729,1.858315018315018
0.6862574059996405,3.2597069597069597,2.548937728937729,1.858315018315018
0.6922492189987679,3.2597069597069597,2.548937728937729,1.858315018315018
0.6993940239990479,2.2217582417582418,1.5883516483516482,3.236336996336996
0.7040821839982527,0.17003663003663003,0.10073260073260072,2.158095238095238
0.7043352839973522,3.3,3.016336996336996,2.0968498168498164
0.712281237996649,3.3,3.016336996336996,2.0968498168498164
0.7160518320015399,0.6535531135531135,0.13054945054945052,0.7961904761904761
0.7205663089989685,1.9816117216117215,0.6043956043956044,2.278974358974359
0.720918070001062,3.3,1.4094505494505494,0.826007326007326
0.7279040659996099,3.3,1.4094505494505494,0.826007326007326
0.7328684800013434,3.3,1.4094505494505494,0.826007326007326
0.7370434050026233,3.3,1.4094505494505494,0.826007326007326
0.7381885009963298,2.37003663003663,0.7019047619047618,2.2725274725274724
0.738545273001364,2.37003663003663,0.7019047619047618,2.2725274725274724
0.7479753040024661,2.37003663003663,0.7019047619047618,2.2725274725274724
0.7526331050030421,2.37003663003663,0.7019047619047618,2.2725274725274724
0.7528546679968713,3.0936996336996336,1.5754578754578754,1.411062271062271
0.7594673959974898,3.0936996336996336,1.5754578754578754,1.411062271062271
0.7641745820001233,3.3,1.5263003663003663,1.4537728937728938
0.7681270039975061,3.3,1.5263003663003663,1.4537728937728938
0.7712222920017666,3.3,1.5263003663003663,1.4537728937728938
0.7737836460000835,3.3,1.5263003663003663,1.4537728937728938
0.7740948970022146,3.3,1.5263003663003663,1.4537728937728938
0.7782663170000887,3.3,1.5263003663003663,1.4537728937728938
0.7792249409976648,3.3,1.5263003663003663,1.4537728937728938
0.7809031200013123,3.3,1.5263003663003663,1.4537728937728938
0.7847329939977499,3.3,1.5263003663003663,1.4537728937728938
0.789115731997299,3.3,1.5263003663003663,1.4537728937728938
0.7916058720002184,3.3,1.5263003663003663,1.4537728937728938
0.7976709599970491,3.3,1.5263003663003663,1.4537728937728938
0.8022931770028663,2.702051282051282,3.106593406593406,2.4788278388278386
0.8025109250011155,2.702051282051282,3.106593406593406,2.4788278388278386
0.8074023910012329,2.702051282051282,3.106593406593406,2.4788278388278386
0.8156055369981914,2.702051282051282,3.106593406593406,2.4788278388278386
0.8201532500024769,2.702051282051282,3.106593406593406,2.4788278388278386
0.8210082930017961,2.702051282051282,3.106593406593406,2.4788278388278386
0.8227649830005248,2.6504761904761907,2.4635164835164836,1.2337728937728938
0.828476121998392,2.6504761904761907,2.4635164835164836,1.2337728937728938
0.8323794929965516,1.9687179487179485,2.3555311355311352,3.3
0.8361966259981273,1.9687179487179485,2.3555311355311352,3.3
0.8400104960019235,1.9687179487179485,2.3555311355311352,3.3
0.8484190309973201,1.9687179487179485,2.3555311355311352,3.3
0.8530375979971723,1.9687179487179485,2.3555311355311352,3.3
0.8532849879993591,1.9687179487179485,2.3555311355311352,3.3
0.8599179500015453,1.9687179487179485,2.3555311355311352,3.3
0.8660756809986196,3.227472527472527,1.502124542124542,1.3296703296703296
0.8712802419977379,3.227472527472527,1.502124542124542,1.3296703296703296
0.8746122149968869,3.227472527472527,1.502124542124542,1.3296703296703296
0.8748995930000092,3.227472527472527,1.502124542124542,1.3296703296703296
0.8798980110004777,3.227472527472527,1.502124542124542,1.3296703296703296
0.8837222709989874,3.227472527472527,1.502124542124542,1.3296703296703296
0.8881230589977349,3.3,2.5908424908424905,1.3336996336996336
0.8889534109985107,3.3,2.5908424908424905,1.3336996336996336
0.8925551970023662,3.3,2.5908424908424905,1.3336996336996336
0.8980255749993376,3.3,2.5908424908424905,1.3336996336996336
0.8996108330029529,3.3,1.4578021978021978,0.963003663003663
0.9033497689961223,3.3,1.4578021978021978,0.963003663003663
0.9101048890006496,3.3,1.4578021978021978,0.963003663003663
0.9133932149998145,3.3,1.4578021978021978,0.963003663003663
0.914448536997952,3.3,1.4578021978021978,0.963003663003663
0.9147157690022141,3.3,1.4578021978021978,0.963003663003663
0.9201198169976124,3.3,1.4578021978021978,0.963003663003663
0.9223959610026213,3.3,1.2917948717948717,0.9122344322344322
0.9225953569984995,3.3,1.2917948717948717,0.9122344322344322
0.9297925990031217,3.3,1.2917948717948717,0.9122344322344322
0.9344382310009678,3.3,1.2917948717948717,0.9122344322344322
0.934692440998333,3.3,1.2917948717948717,0.9122344322344322
0.9411732879962074,3.3,1.2917948717948717,0.9122344322344322
0.9468744089972461,3.3,1.2917948717948717,0.9122344322344322
0.9526816340003279,1.4046153846153846,0.967032967032967,0.31347985347985347
0.9527987199980998,1.4046153846153846,0.967032967032967,0.31347985347985347
0.9591749539977172,1.4046153846153846,0.967032967032967,0.31347985347985347
0.9620672219971311,1.4046153846153846,0.967032967032967,0.31347985347985347
0.965144510002574,1.4046153846153846,0.967032967032967,0.31347985347985347
0.9667908999981591,1.4046153846153846,0.967032967032967,0.31347985347985347
0.9705106129986234,1.4046153846153846,0.967032967032967,0.31347985347985347
0.9812914579961216,1.4046153846153846,0.967032967032967,0.31347985347985347
0.9867324369988637,3.3,1.2474725274725273,1.2515018315018314
0.988331840999308,3.3,1.2474725274725273,1.2515018315018314
0.9937817359968903,3.3,1.2474725274725273,1.2515018315018314
0.9941438460009522,2.928498168498168,1.5335531135531135,2.2193406593406593
1.0000399130003643,2.928498168498168,1.5335531135531135,2.2193406593406593
1.0036637450029957,2.928498168498168,1.5335531135531135,2.2193406593406593
1.0038055879995227,2.9873260073260073,2.0509157509157507,0.8880586080586079
1.0093931299998076,2.9873260073260073,2.0509157509157507,0.8880586080586079
1.009689938997326,2.9873260073260073,2.0509157509157507,0.8880586080586079
1.0185510169976624,2.9873260073260073,2.0509157509157507,0.8880586080586079
1.0290896340011386,2.9873260073260073,2.0509157509157507,0.8880586080586079
1.037042151998321,2.9873260073260073,2.0509157509157507,0.8880586080586079
1.045443230003002,2.893040293040293,1.24021978021978,1.0492307692307692
1.0512972560027265,3.3,1.5972161172161172,0.6374358974358975
1.062078492002911,3.3,1.5972161172161172,0.6374358974358975
1.067299374997674,3.3,1.5972161172161172,0.6374358974358975
1.0703609549964312,3.3,1.5972161172161172,0.6374358974358975
1.0742583710016333,3.3,1.5972161172161172,0.6374358974358975
1.0810615430018515,3.3,1.5972161172161172,0.6374358974358975
1.085610900001484,3.3,1.1604395604395605,0.7849084249084248
1.093247919001442,2.6657875457875457,2.4594871794871795,1.4972893772893772
1.0979075169962016,2.6657875457875457,2.4594871794871795,1.4972893772893772
1.1032212770005572,2.6657875457875457,2.4594871794871795,1.4972893772893772
1.104901812999742,2.6657875457875457,2.4594871794871795,1.4972893772893772
1.1111050019972026,2.6657875457875457,2.4594871794871795,1.4972893772893772
1.1150719639990712,2.6657875457875457,2.4594871794871795,1.4972893772893772
1.1189339780030423,2.6657875457875457,2.4594871794871795,1.4972893772893772
1.12254720099736,2.6657875457875457,2.4594871794871795,1.4972893772893772
1.1312026110026636,2.6657875457875457,2.4594871794871795,1.4972893772893772
1.1375776119966758,0.1692307692307692,0.40695970695970696,0.2836630036630036
1.142420784002752,0.1692307692307692,0.40695970695970696,0.2836630036630036
1.1486775779994787,3.3,2.526373626373626,1.2974358974358973
1.1528668309983914,3.3,2.526373626373626,1.2974358974358973
1.1558803869993426,3.3,2.317655677655677,1.4698901098901098
1.1580907719981042,3.3,2.317655677655677,1.4698901098901098
1.1583611379974172,3.3,2.317655677655677,1.4698901098901098
1.1672097690025112,3.3,2.317655677655677,1.4698901098901098
1.173277636997227,1.991282051282051,1.9816117216117215,3.1904029304029304
1.1782687660015654,1.991282051282051,1.9816117216117215,3.1904029304029304
1.180727097998897,3.3,1.2378021978021978,0.506080586080586
1.1862162019970128,2.7906959706959706,2.5078388278388277,1.3909157509157508
1.1899640490009915,1.5641758241758241,0.9597802197802198,0.2506227106227106
1.1959076389975962,1.5641758241758241,0.9597802197802198,0.2506227106227106
1.1990696970024146,1.5641758241758241,0.9597802197802198,0.2506227106227106
1.2007525939989137,1.5641758241758241,0.9597802197802198,0.2506227106227106
1.2044659800012596,1.5641758241758241,0.9597802197802198,0.2506227106227106
1.20461105099821,1.5641758241758241,0.9597802197802198,0.2506227106227106
1.2100975889989058,1.5641758241758241,0.9597802197802198,0.2506227106227106
1.211646566996933,1.5641758241758241,0.9597802197802198,0.2506227106227106
1.2154683420012589,1.5641758241758241,0.9597802197802198,0.2506227106227106
1.2204320070013637,1.5641758241758241,0.9597802197802198,0.2506227106227106
1.2252676349962712,3.3,1.7398534798534797,0.7349450549450549
1.230691543998546,1.02021978021978,0.1402197802197802,0.7438095238095238
1.233267433999572,1.02021978021978,0.1402197802197802,0.7438095238095238
1.2389826829967205,1.02021978021978,0.1402197802197802,0.7438095238095238
1.2391200909987674,1.02021978021978,0.1402197802197802,0.7438095238095238
1.2435160579989315,1.02021978021978,0.1402197802197802,0.7438095238095238
1.2451081730032456,0.42388278388278383,0.5117216117216117,0.22644688644688646
1.2494737550005084,0.42388278388278383,0.5117216117216117,0.22644688644688646
1.2517178479974973,0.42388278388278383,0.5117216117216117,0.22644688644688646
1.2520259020020603,2.291062271062271,1.3844688644688645,0.9041758241758242
1.256369196002197,2.291062271062271,1.3844688644688645,0.9041758241758242
1.2580174249960692,2.291062271062271,1.3844688644688645,0.9041758241758242
1.262715680000838,2.291062271062271,1.3844688644688645,0.9041758241758242
1.2683789410002646,2.291062271062271,1.3844688644688645,0.9041758241758242
1.2686137190030422,2.291062271062271,1.3844688644688645,0.9041758241758242
1.272997457999736,2.291062271062271,1.3844688644688645,0.9041758241758242
1.274557709999499,2.291062271062271,1.3844688644688645,0.9041758241758242
1.2790458759991452,1.44007326007326,0.5342857142857143,1.8454212454212453
1.2798429480026243,1.44007326007326,0.5342857142857143,1.8454212454212453
1.2820413669978734,1.44007326007326,0.5342857142857143,1.8454212454212453
1.2828569409975898,2.6585347985347987,2.5062271062271058,1.3183882783882783
1.2844041869975626,2.6416117216117216,1.3191941391941393,0.3763369963369963
1.2888964910016512,2.6416117216117216,1.3191941391941393,0.3763369963369963
1.2904206539969891,2.6416117216117216,1.3191941391941393,0.3763369963369963
1.2941315689968178,2.6416117216117216,1.3191941391941393,0.3763369963369963
1.2995013929976267,2.689157509157509,3.3,2.378901098901099
1.3017355010015308,2.689157509157509,3.3,2.378901098901099
1.3020459749968722,2.689157509157509,3.3,2.378901098901099
1.3064710359976743,2.689157509157509,3.3,2.378901098901099
1.3074402990023373,2.689157509157509,3.3,2.378901098901099
1.3083105539990356,2.689157509157509,3.3,2.378901098901099
1.309845003997907,2.689157509157509,3.3,2.378901098901099
1.3148596719984198,2.689157509157509,3.3,2.378901098901099
1.3191561979983817,2.689157509157509,3.3,2.378901098901099
1.3206657139962772,2.689157509157509,3.3,2.378901098901099
1.3252826099997037,2.689157509157509,3.3,2.378901098901099
1.3254015679995064,2.689157509157509,3.3,2.378901098901099
1.3299698109985911,2.689157509157509,3.3,2.378901098901099
1.3302877419992,2.689157509157509,3.3,2.378901098901099
1.3347998190001817,2.689157509157509,3.3,2.378901098901099
1.3356620089980424,2.689157509157509,3.3,2.378901098901099
1.3372323009971296,2.689157509157509,3.3,2.378901098901099
1.3417009370023152,2.689157509157509,3.3,2.378901098901099
1.3425346229996649,2.689157509157509,3.3,2.378901098901099
1.3440926659968682,2.651282051282051,2.932527472527472,2.0154578754578756
1.348522154999955,2.651282051282051,2.932527472527472,2.0154578754578756
1.349384672997985,2.651282051282051,2.932527472527472,2.0154578754578756
1.351072170000407,2.651282051282051,2.932527472527472,2.0154578754578756
1.3540329500028747,2.651282051282051,2.932527472527472,2.0154578754578756
1.3570006890004152,2.651282051282051,2.932527472527472,2.0154578754578756
1.3600633469977765,2.651282051282051,2.932527472527472,2.0154578754578756
1.3616522629963583,2.651282051282051,2.932527472527472,2.0154578754578756
1.3660469189999276,2.651282051282051,2.932527472527472,2.0154578754578756
1.3677013109991094,2.651282051282051,2.932527472527472,2.0154578754578756
1.3707310440004221,2.651282051282051,2.932527472527472,2.0154578754578756
1.3736565400031395,2.651282051282051,2.932527472527472,2.0154578754578756
1.376699202999589,2.651282051282051,2.932527472527472,2.0154578754578756
1.3789702869980829,2.651282051282051,2.932527472527472,2.0154578754578756
1.379277849002392,2.651282051282051,2.932527472527472,2.0154578754578756
1.3839124829974025,2.651282051282051,2.932527472527472,2.0154578754578756
1.3841777199995704,2.651282051282051,2.932527472527472,2.0154578754578756
1.3886748509976314,2.651282051282051,2.932527472527472,2.0154578754578756
1.3895094100007555,2.651282051282051,2.932527472527472,2.0154578754578756
1.3911800920031965,2.3378021978021977,1.4336263736263737,1.9316483516483516
1.3944639129986172,2.3378021978021977,1.4336263736263737,1.9316483516483516
1.3953276469983393,2.3378021978021977,1.4336263736263737,1.9316483516483516
1.3968820849986514,2.3378021978021977,1.4336263736263737,1.9316483516483516
1.4019503520030412,2.3378021978021977,1.4336263736263737,1.9316483516483516
1.4074349270013045,2.3378021978021977,1.4336263736263737,1.9316483516483516
1.4084043010007008,2.3378021978021977,1.4336263736263737,1.9316483516483516
1.4093104319981649,2.3378021978021977,1.4336263736263737,1.9316483516483516
1.410995259997435,2.3378021978021977,1.4336263736263737,1.9316483516483516
1.4147978850014624,2.3378021978021977,1.4336263736263737,1.9316483516483516
1.4193622410020907,2.6875457875457873,2.8100366300366297,2.5715018315018314
1.4197269340002094,2.6875457875457873,2.8100366300366297,2.5715018315018314
1.4243681119987741,2.6875457875457873,2.8100366300366297,2.5715018315018314
1.4245511859990074,2.6875457875457873,2.8100366300366297,2.5715018315018314
1.4290331759984838,2.6875457875457873,2.8100366300366297,2.5715018315018314
1.4299075029994128,2.6875457875457873,2.8100366300366297,2.5715018315018314
1.431528214001446,2.6875457875457873,2.8100366300366297,2.5715018315018314
1.4352081659963005,2.9180219780219776,2.028351648351648,1.1467399267399265
1.440396204998251,1.066959706959707,0.4198534798534798,1.7398534798534797
1.4441554419972817,1.066959706959707,0.4198534798534798,1.7398534798534797
1.4494713629974285,1.066959706959707,0.4198534798534798,1.7398534798534797
1.4518678090025787,1.066959706959707,0.4198534798534798,1.7398534798534797
1.452072815001884,2.740732600732601,1.1193406593406594,1.1257875457875457
1.4571744060012861,2.740732600732601,1.1193406593406594,1.1257875457875457
1.4602924110004096,2.740732600732601,1.1193406593406594,1.1257875457875457
1.4618669940027758,3.3,1.1056410256410254,0.8066666666666666
1.4662568560015643,3.3,1.1056410256410254,0.8066666666666666
1.4672414629967534,3.3,1.1056410256410254,0.8066666666666666
1.4682479170005536,3.3,1.1056410256410254,0.8066666666666666
1.469142672001908,3.3,1.1056410256410254,0.8066666666666666
1.470723910999368,3.3,1.1056410256410254,0.8066666666666666
1.4746670039967285,3.3,1.1056410256410254,0.8066666666666666
1.4778311970003415,3.3,1.1056410256410254,0.8066666666666666
1.479383288999088,3.3,1.0717948717948718,0.6495238095238095
1.483197087996814,3.3,1.0717948717948718,0.6495238095238095
1.4876787109969882,3.3,1.0717948717948718,0.6495238095238095
1.4884911710032611,3.3,1.0717948717948718,0.6495238095238095
1.4900359780003782,2.3845421245421243,2.013846153846154,3.046153846153846
1.494525763002457,2.3845421245421243,2.013846153846154,3.046153846153846
1.4948545890001697,2.3845421245421243,2.013846153846154,3.046153846153846
1.4993502739962423,2.3845421245421243,2.013846153846154,3.046153846153846
1.5001637160021346,3.2008791208791205,0.9863736263736262,1.211208791208791
1.5018671349971555,3.2008791208791205,0.9863736263736262,1.211208791208791
1.505062819000159,3.2008791208791205,0.9863736263736262,1.211208791208791
1.5065745280007832,0.3457142857142857,0.1668131868131868,0.3497435897435897
1.511043949998566,0.3457142857142857,0.1668131868131868,0.3497435897435897
1.5126182469975902,0.3457142857142857,0.1668131868131868,0.3497435897435897
1.5164533330025733,0.3457142857142857,0.1668131868131868,0.3497435897435897
1.5215902709969669,1.771282051282051,0.5568498168498168,1.6463736263736264
1.5261998679998214,3.111428571428571,2.4828571428571427,1.6504029304029304
1.5263564139968366,3.111428571428571,2.4828571428571427,1.6504029304029304
1.531014250998851,3.111428571428571,2.4828571428571427,1.6504029304029304
1.5312797559963656,3.111428571428571,2.4828571428571427,1.6504029304029304
1.5359065149968956,2.673040293040293,3.3,2.345054945054945
1.5367005220032297,0.9791208791208791,0.43355311355311354,1.8953846153846152
1.538459862000309,0.9791208791208791,0.43355311355311354,1.8953846153846152
1.5422194610000588,0.9791208791208791,0.43355311355311354,1.8953846153846152
1.5465745879992028,0.9791208791208791,0.43355311355311354,1.8953846153846152
1.5490812540010666,0.9791208791208791,0.43355311355311354,1.8953846153846152
1.5543519529965124,0.9791208791208791,0.43355311355311354,1.8953846153846152
1.5573390709978412,0.9791208791208791,0.43355311355311354,1.8953846153846152
1.5596136759995716,0.9791208791208791,0.43355311355311354,1.8953846153846152
1.5599424859974533,0.9791208791208791,0.43355311355311354,1.8953846153846152
1.564456865999091,0.9791208791208791,0.43355311355311354,1.8953846153846152
1.5653135419997852,0.11282051282051282,0.44402930402930396,0.25223443223443226
1.5668768809991889,0.11282051282051282,0.44402930402930396,0.25223443223443226
1.571273009001743,0.11282051282051282,0.44402930402930396,0.25223443223443226
1.572834115002479,0.11282051282051282,0.44402930402930396,0.25223443223443226
1.5772015559996362,0.11282051282051282,0.44402930402930396,0.25223443223443226
1.5786996199967689,0.11282051282051282,0.44402930402930396,0.25223443223443226
1.583223547997477,0.11282051282051282,0.44402930402930396,0.25223443223443226
1.5840771069997572,0.11282051282051282,0.44402930402930396,0.25223443223443226
1.5856276370031992,0.11282051282051282,0.44402930402930396,0.25223443223443226
1.5899669689970324,0.11282051282051282,0.44402930402930396,0.25223443223443226
1.592347047997464,0.11282051282051282,0.44402930402930396,0.25223443223443226
1.5925427920010407,0.11282051282051282,0.44402930402930396,0.25223443223443226
1.5978962799999863,0.11282051282051282,0.44402930402930396,0.25223443223443226
1.600973560998682,3.3,1.0726007326007325,0.8703296703296703
1.6031860079965554,3.3,1.0726007326007325,0.8703296703296703
1.603452424002171,3.3,1.0726007326007325,0.8703296703296703
1.6087282820008113,3.3,1.0726007326007325,0.8703296703296703
1.6109676790001686,3.3,1.0726007326007325,0.8703296703296703
1.6118318299995735,3.3,1.0726007326007325,0.8703296703296703
1.6133645629961393,3.3,1.0726007326007325,0.8703296703296703
1.6171870719990693,0.8719413919413919,0.43355311355311354,1.950989010989011
1.6224590810015798,0.8719413919413919,0.43355311355311354,1.950989010989011
1.6256821479983046,0.8719413919413919,0.43355311355311354,1.950989010989011
1.6271692029986298,0.8719413919413919,0.43355311355311354,1.950989010989011
1.6316532769997139,0.8719413919413919,0.43355311355311354,1.950989010989011
1.6324931639974238,2.8164835164835162,1.17010989010989,1.1008058608058606
1.634002329003124,2.8164835164835162,1.17010989010989,1.1008058608058606
1.638286806002725,2.8164835164835162,1.17010989010989,1.1008058608058606
1.6404840649993275,3.034065934065934,0.9839560439560439,0.7736263736263735
1.6408458470032201,3.034065934065934,0.9839560439560439,0.7736263736263735
1.645795876000193,3.034065934065934,0.9839560439560439,0.7736263736263735
1.6510857250032132,1.5931868131868132,0.5745787545787545,1.1556043956043955
1.6542661909988965,1.5931868131868132,0.5745787545787545,1.1556043956043955
1.6551272470023832,1.5931868131868132,0.5745787545787545,1.1556043956043955
1.6566773820013623,1.5931868131868132,0.5745787545787545,1.1556043956043955
1.6620317499982775,2.3563369963369962,0.8147252747252747,1.427985347985348
1.6636983700009296,2.3563369963369962,0.8147252747252747,1.427985347985348
1.6677950439989218,2.3563369963369962,0.8147252747252747,1.427985347985348
1.6708558579994133,2.3563369963369962,0.8147252747252747,1.427985347985348
1.6731625140018878,2.789084249084249,1.157216117216117,0.9428571428571427
1.6734083620031015,2.789084249084249,1.157216117216117,0.9428571428571427
1.678209206002066,2.789084249084249,1.157216117216117,0.9428571428571427
1.6833151300015743,3.0066666666666664,1.0597069597069597,1.2184615384615385
1.6870697740014293,3.3,1.1177289377289377,0.7389743589743589
1.6923075439990498,3.3,1.1177289377289377,0.7389743589743589
1.6953732420006418,3.3,2.3845421245421243,1.332087912087912
1.6969580399963888,3.3,2.3845421245421243,1.332087912087912
1.7013705520002986,3.3,2.3845421245421243,1.332087912087912
1.7029323780006962,3.3,2.3845421245421243,1.332087912087912
1.7072562699977425,3.3,2.3845421245421243,1.332087912087912
1.708848358000978,3.3,2.3845421245421243,1.332087912087912
1.713169911003206,2.8100366300366297,1.9767765567765565,2.648058608058608
1.7147188699964317,2.8100366300366297,1.9767765567765565,2.648058608058608
1.7190953210010775,2.8100366300366297,1.9767765567765565,2.648058608058608
1.7199459170005866,2.8100366300366297,1.9767765567765565,2.648058608058608
1.722274847998051,2.8100366300366297,1.9767765567765565,2.648058608058608
1.722521333998884,2.8100366300366297,1.9767765567765565,2.648058608058608
1.7270688560020062,2.8100366300366297,1.9767765567765565,2.648058608058608
1.7273817410023184,2.8100366300366297,1.9767765567765565,2.648058608058608
1.731955786999606,2.8100366300366297,1.9767765567765565,2.648058608058608
1.7323004659992876,2.8100366300366297,1.9767765567765565,2.648058608058608
1.736846804000379,2.8100366300366297,1.9767765567765565,2.648058608058608
1.7376589400009834,2.8100366300366297,1.9767765567765565,2.648058608058608
1.7392711069987854,2.8100366300366297,1.9767765567765565,2.648058608058608
1.7431207789995824,2.8100366300366297,1.9767765567765565,2.648058608058608
1.748255564001738,2.1395604395604395,1.1926739926739927,0.332014652014652
1.7526326529987273,2.1395604395604395,1.1926739926739927,0.332014652014652
1.7542829399972106,2.1395604395604395,1.1926739926739927,0.332014652014652
1.7585817279978073,2.1395604395604395,1.1926739926739927,0.332014652014652
1.7595455549962935,1.9461538461538461,0.6865934065934066,1.4271794871794872
1.7612831209989963,1.9461538461538461,0.6865934065934066,1.4271794871794872
1.7642512840029667,1.9461538461538461,0.6865934065934066,1.4271794871794872
1.767232181999134,1.9461538461538461,0.6865934065934066,1.4271794871794872
1.7695154510001885,2.768131868131868,1.7785347985347983,2.4756043956043956
1.7698027509977692,2.880952380952381,2.2483516483516484,2.9679853479853477
1.7744946800012258,2.880952380952381,2.2483516483516484,2.9679853479853477
1.7746333940012846,2.880952380952381,2.2483516483516484,2.9679853479853477
1.7800860380011727,2.880952380952381,2.2483516483516484,2.9679853479853477
1.7816166459961096,2.880952380952381,2.2483516483516484,2.9679853479853477
1.7855179739999585,2.880952380952381,2.2483516483516484,2.9679853479853477
1.790013120000367,2.880952380952381,2.2483516483516484,2.9679853479853477
1.7908602620009333,2.880952380952381,2.2483516483516484,2.9679853479853477
1.79239655299898,2.880952380952381,2.2483516483516484,2.9679853479853477
1.796222516000853,2.880952380952381,2.2483516483516484,2.9679853479853477
1.800528633997601,2.880952380952381,2.2483516483516484,2.9679853479853477
1.8021147510007722,2.880952380952381,2.2483516483516484,2.9679853479853477
1.8066336109986878,2.880952380952381,2.2483516483516484,2.9679853479853477
1.8069966120019672,2.880952380952381,2.2483516483516484,2.9679853479853477
1.8115983879979467,2.0944322344322344,1.9397069597069596,3.016336996336996
1.8118930670025293,2.0944322344322344,1.9397069597069596,3.016336996336996
1.8162722479974036,2.0944322344322344,1.9397069597069596,3.016336996336996
1.817924786999356,2.0944322344322344,1.9397069597069596,3.016336996336996
1.8215230209971196,2.0944322344322344,1.9397069597069596,3.016336996336996
1.8216622330000973,2.0944322344322344,1.9397069597069596,3.016336996336996
1.826698906996171,2.0944322344322344,1.9397069597069596,3.016336996336996
1.8309707369990065,2.0944322344322344,1.9397069597069596,3.016336996336996
1.8325384689960629,2.0944322344322344,1.9397069597069596,3.016336996336996
1.8364415030009695,2.0944322344322344,1.9397069597069596,3.016336996336996
1.8402948189977906,2.46996336996337,0.8953113553113552,1.4424908424908425
1.8455190149979899,2.46996336996337,0.8953113553113552,1.4424908424908425
1.8483831830017152,2.46996336996337,0.8953113553113552,1.4424908424908425
1.8513346800027648,2.46996336996337,0.8953113553113552,1.4424908424908425
1.854455713997595,2.46996336996337,0.8953113553113552,1.4424908424908425
1.8559717550015193,2.46996336996337,0.8953113553113552,1.4424908424908425
1.8605065770025249,2.46996336996337,0.8953113553113552,1.4424908424908425
1.860861681998358,2.46996336996337,0.8953113553113552,1.4424908424908425
1.8652221680022194,2.46996336996337,0.8953113553113552,1.4424908424908425
1.8661126049992163,2.46996336996337,0.8953113553113552,1.4424908424908425
1.8677298429975053,2.46996336996337,0.8953113553113552,1.4424908424908425
1.8715237189971958,2.46996336996337,0.8953113553113552,1.4424908424908425
1.8758820599978208,2.655311355311355,1.1894505494505494,1.054065934065934
1.8783340099980705,2.655311355311355,1.1894505494505494,1.054065934065934
1.8834769949971815,2.655311355311355,1.1894505494505494,1.054065934065934
1.8881461540004238,2.655311355311355,1.1894505494505494,1.054065934065934
1.8882747809984721,2.655311355311355,1.1894505494505494,1.054065934065934
1.892961749996175,2.655311355311355,1.1894505494505494,1.054065934065934
1.8931973299986566,2.655311355311355,1.1894505494505494,1.054065934065934
1.8976373479963513,2.655311355311355,1.1894505494505494,1.054065934065934
1.8985005130016361,2.655311355311355,1.1894505494505494,1.054065934065934
1.9000312740026857,2.655311355311355,1.1894505494505494,1.054065934065934
1.9044160769990413,2.655311355311355,1.1894505494505494,1.054065934065934
1.905268882997916,2.655311355311355,1.1894505494505494,1.054065934065934
1.9068850679977913,2.655311355311355,1.1894505494505494,1.054065934065934
1.911622792002163,2.655311355311355,1.1894505494505494,1.054065934065934
1.9172776429986698,2.655311355311355,1.1894505494505494,1.054065934065934
1.9183086909979465,2.655311355311355,1.1894505494505494,1.054065934065934
1.9191093679983169,2.655311355311355,1.1894505494505494,1.054065934065934
1.9208797449973645,2.655311355311355,1.1894505494505494,1.054065934065934
1.92388924700208,2.655311355311355,1.1894505494505494,1.054065934065934
1.9263324760031537,2.655311355311355,1.1894505494505494,1.054065934065934
1.9265105099984794,2.655311355311355,1.1894505494505494,1.054065934065934
1.9309360799961723,2.655311355311355,1.1894505494505494,1.054065934065934
1.9324573060002876,2.655311355311355,1.1894505494505494,1.054065934065934
1.936130560003221,2.655311355311355,1.1894505494505494,1.054065934065934
1.9414226869994309,2.655311355311355,1.1894505494505494,1.054065934065934
1.9446457029989688,3.2838827838827838,1.0846886446886446,0.5399267399267399
1.9455281639966415,0.09106227106227105,0.27641025641025635,0.3183150183150183
1.9470874350008671,0.09106227106227105,0.27641025641025635,0.3183150183150183
1.9523439800032065,2.3200732600732596,1.5867399267399267,2.7334798534798534
1.9554361409973353,2.3200732600732596,1.5867399267399267,2.7334798534798534
1.9570536949977395,2.3200732600732596,1.5867399267399267,2.7334798534798534
1.9615069139981642,2.3200732600732596,1.5867399267399267,2.7334798534798534
1.9618526330013992,2.3200732600732596,1.5867399267399267,2.7334798534798534
1.966320232997532,2.3200732600732596,1.5867399267399267,2.7334798534798534
1.96728832199733,2.3200732600732596,1.5867399267399267,2.7334798534798534
1.9682169599982444,2.3200732600732596,1.5867399267399267,2.7334798534798534
1.969120533001842,2.3200732600732596,1.5867399267399267,2.7334798534798534
1.9706937270020717,2.3200732600732596,1.5867399267399267,2.7334798534798534
1.9751199449965497,2.3200732600732596,1.5867399267399267,2.7334798534798534
1.9754326620022766,2.3200732600732596,1.5867399267399267,2.7334798534798534
1.9798627830023179,2.3200732600732596,1.5867399267399267,2.7334798534798534
1.98141209899768,2.3200732600732596,1.5867399267399267,2.7334798534798534
1.9859739759995136,2.3200732600732596,1.5867399267399267,2.7334798534798534
1.9862365500011947,0.713992673992674,0.1418315018315018,0.4528937728937729
1.9916723299975274,0.713992673992674,0.1418315018315018,0.4528937728937729
1.9933539199992083,0.713992673992674,0.1418315018315018,0.4528937728937729
1.9970693360010046,0.713992673992674,0.1418315018315018,0.4528937728937729
2.0021376099975896,0.713992673992674,0.1418315018315018,0.4528937728937729
2.005215206001594,3.2645421245421247,1.0564835164835162,0.5931135531135531
2.007457334002538,3.2645421245421247,1.0564835164835162,0.5931135531135531
2.0082635619983193,3.2645421245421247,1.0564835164835162,0.5931135531135531
2.0098437130000093,3.2645421245421247,1.0564835164835162,0.5931135531135531
2.014338173001306,3.2645421245421247,1.0564835164835162,0.5931135531135531
2.0151643099961802,2.993772893772894,3.05018315018315,1.7213186813186814
2.0166988060009317,2.993772893772894,3.05018315018315,1.7213186813186814
2.021210687002167,2.993772893772894,3.05018315018315,1.7213186813186814
2.0221298019969254,2.993772893772894,3.05018315018315,1.7213186813186814
2.0230317460009246,2.993772893772894,3.05018315018315,1.7213186813186814
2.0247154739990947,2.993772893772894,3.05018315018315,1.7213186813186814
2.0283312749961624,2.993772893772894,3.05018315018315,1.7213186813186814
2.0334516759976395,2.1508424908424906,0.8759706959706959,1.3619047619047617
2.0377876139973523,3.3,1.6149450549450548,2.145201465201465
2.0400190579966875,3.0808058608058606,1.046007326007326,0.5173626373626373
2.0402578770008404,3.0808058608058606,1.046007326007326,0.5173626373626373
2.044966519002628,3.0808058608058606,1.046007326007326,0.5173626373626373
2.045147830998758,3.0808058608058606,1.046007326007326,0.5173626373626373
2.0496942789977766,0.8953113553113552,0.13941391941391942,0.5544322344322344
2.0505341129974113,0.8953113553113552,0.13941391941391942,0.5544322344322344
2.0521192890009843,0.8953113553113552,0.13941391941391942,0.5544322344322344
2.056373617000645,0.8953113553113552,0.13941391941391942,0.5544322344322344
2.058727818002808,0.8953113553113552,0.13941391941391942,0.5544322344322344
2.058903785000439,0.8953113553113552,0.13941391941391942,0.5544322344322344
2.0639538160030497,0.8953113553113552,0.13941391941391942,0.5544322344322344
2.0676760630012723,2.6923809523809523,3.12029304029304,1.9920879120879118
2.0727536319973296,2.6923809523809523,3.12029304029304,1.9920879120879118
2.0763592540024547,2.6923809523809523,3.12029304029304,1.9920879120879118
2.0814000940008555,2.6923809523809523,3.12029304029304,1.9920879120879118
2.0850250649964437,2.6649816849816848,3.2983882783882783,2.137948717948718
2.0851508990017464,2.6649816849816848,3.2983882783882783,2.137948717948718
2.0895310650012107,2.6649816849816848,3.2983882783882783,2.137948717948718
2.091044786000566,2.6649816849816848,3.2983882783882783,2.137948717948718
2.0955034290018375,2.6649816849816848,3.2983882783882783,2.137948717948718
2.096306489998824,2.6649816849816848,3.2983882783882783,2.137948717948718
2.097850373000256,2.6649816849816848,3.2983882783882783,2.137948717948718
2.1023709639994195,2.6649816849816848,3.2983882783882783,2.137948717948718
2.1032191530030104,2.6649816849816848,3.2983882783882783,2.137948717948718
2.1047665139994933,2.6649816849816848,3.2983882783882783,2.137948717948718
2.109212249997654,0.04029304029304029,0.42388278388278383,0.195018315018315
2.1100350039996556,0.04029304029304029,0.42388278388278383,0.195018315018315
2.1122676489976584,0.04029304029304029,0.42388278388278383,0.195018315018315
2.1125329790011165,0.04029304029304029,0.42388278388278383,0.195018315018315
2.117755811996176,0.04029304029304029,0.42388278388278383,0.195018315018315
2.121473364000849,0.04029304029304029,0.42388278388278383,0.195018315018315
2.125802422997367,0.04029304029304029,0.42388278388278383,0.195018315018315
2.128045621997444,0.04029304029304029,0.42388278388278383,0.195018315018315
2.1288704969992978,2.181465201465201,1.9622710622710622,3.0566300366300365
2.13051248100237,2.181465201465201,1.9622710622710622,3.0566300366300365
2.134513352997601,2.181465201465201,1.9622710622710622,3.0566300366300365
2.1387332619997323,2.181465201465201,1.9622710622710622,3.0566300366300365
2.1424937740011956,2.181465201465201,1.9622710622710622,3.0566300366300365
2.1469798420002917,2.181465201465201,1.9622710622710622,3.0566300366300365
2.1479874910000945,2.181465201465201,1.9622710622710622,3.0566300366300365
2.1488474430007045,2.181465201465201,1.9622710622710622,3.0566300366300365
2.1510447219989146,2.181465201465201,1.9622710622710622,3.0566300366300365
2.151304443999834,2.181465201465201,1.9622710622710622,3.0566300366300365
2.156465770000068,2.181465201465201,1.9622710622710622,3.0566300366300365
2.1594838410019292,2.6714285714285713,2.822124542124542,2.4393406593406595
2.1618008360019303,2.6714285714285713,2.822124542124542,2.4393406593406595
2.162092457001563,2.6714285714285713,2.822124542124542,2.4393406593406595
2.1666070990031585,2.6714285714285713,2.822124542124542,2.4393406593406595
2.167565960000502,2.6714285714285713,2.822124542124542,2.4393406593406595
2.1684044540015748,2.6714285714285713,2.822124542124542,2.4393406593406595
2.169990153000981,2.6714285714285713,2.822124542124542,2.4393406593406595
2.1744548299975577,2.6714285714285713,2.822124542124542,2.4393406593406595
2.1747994129982544,2.6714285714285713,2.822124542124542,2.4393406593406595
2.1793803670007037,2.6714285714285713,2.822124542124542,2.4393406593406595
2.179614111999399,2.6714285714285713,2.822124542124542,2.4393406593406595
2.184278879001795,2.6714285714285713,2.822124542124542,2.4393406593406595
2.1851673389974167,0.2345054945054945,0.18373626373626373,0.39890109890109887
2.1867027080006665,0.2345054945054945,0.18373626373626373,0.39890109890109887
2.191067726998881,0.2345054945054945,0.18373626373626373,0.39890109890109887
2.1926433159969747,0.2345054945054945,0.18373626373626373,0.39890109890109887
2.1971974780026358,0.2345054945054945,0.18373626373626373,0.39890109890109887
2.1981294930010336,0.2345054945054945,0.18373626373626373,0.39890109890109887
2.198988329997519,0.2345054945054945,0.18373626373626373,0.39890109890109887
2.2013676019996637,0.2345054945054945,0.18373626373626373,0.39890109890109887
2.2014880040005664,0.2345054945054945,0.18373626373626373,0.39890109890109887
2.206497869003215,0.2345054945054945,0.18373626373626373,0.39890109890109887
2.21007482099958,3.3,1.701978021978022,0.5947252747252747
2.2102011230017524,3.3,1.701978021978022,0.5947252747252747
2.215215411997633,3.3,1.701978021978022,0.5947252747252747
2.2188748979970114,3.3,1.701978021978022,0.5947252747252747
2.2190234669978963,2.9486446886446886,0.9654212454212454,0.9476923076923076
2.2235914780030726,2.9486446886446886,0.9654212454212454,0.9476923076923076
2.224411046001478,2.9486446886446886,0.9654212454212454,0.9476923076923076
2.2259605880026356,2.9486446886446886,0.9654212454212454,0.9476923076923076
2.230411964999803,2.9486446886446886,0.9654212454212454,0.9476923076923076
2.231280426000012,2.9486446886446886,0.9654212454212454,0.9476923076923076
2.2330440570003702,2.9486446886446886,0.9654212454212454,0.9476923076923076
2.2363238600009936,2.9486446886446886,0.9654212454212454,0.9476923076923076
2.2372328440033016,0.3102564102564102,0.1676190476190476,1.606080586080586
2.238985137002601,0.3102564102564102,0.1676190476190476,1.606080586080586
2.2425467310022213,0.3102564102564102,0.1676190476190476,1.606080586080586
2.2479260379986954,0.3102564102564102,0.1676190476190476,1.606080586080586
2.2509710700032883,1.290989010989011,0.3626373626373626,0.9605860805860806
2.2533780070007197,1.290989010989011,0.3626373626373626,0.9605860805860806
2.2588840710013756,1.290989010989011,0.3626373626373626,0.9605860805860806
2.2598633559973678,1.290989010989011,0.3626373626373626,0.9605860805860806
2.261585735999688,1.290989010989011,0.3626373626373626,0.9605860805860806
2.2640977109986125,1.290989010989011,0.3626373626373626,0.9605860805860806
2.2698195299963118,1.290989010989011,0.3626373626373626,0.9605860805860806
2.2701197659989703,1.290989010989011,0.3626373626373626,0.9605860805860806
2.2754211549981846,1.290989010989011,0.3626373626373626,0.9605860805860806
2.2779410680013825,1.290989010989011,0.3626373626373626,0.9605860805860806
2.283267917999183,3.137216117216117,1.021025641025641,0.622124542124542
2.2856207259974326,3.137216117216117,1.021025641025641,0.622124542124542
2.285793276001641,3.137216117216117,1.021025641025641,0.622124542124542
2.2911104849990807,3.137216117216117,1.021025641025641,0.622124542124542
2.293644479002978,3.137216117216117,1.021025641025641,0.622124542124542
2.2987724880003952,3.3,1.6455677655677654,2.067032967032967
2.3020282899960876,3.3,1.6455677655677654,2.067032967032967
2.3037484800006496,3.3,1.6455677655677654,2.067032967032967
2.3067184100000304,3.3,1.6455677655677654,2.067032967032967
2.3089597369980766,3.3,1.6455677655677654,2.067032967032967
2.3092353160027415,3.3,1.6455677655677654,2.067032967032967
2.3138424450007733,3.3,1.6455677655677654,2.067032967032967
2.3141566880003666,2.315238095238095,1.3852747252747253,0.9968498168498168
2.3185497559970827,2.315238095238095,1.3852747252747253,0.9968498168498168
2.320099372002005,2.315238095238095,1.3852747252747253,0.9968498168498168
2.3244973749970086,2.315238095238095,1.3852747252747253,0.9968498168498168
2.3253747779963305,0.61003663003663,0.14344322344322344,0.3997069597069597
2.326954880001722,0.61003663003663,0.14344322344322344,0.3997069597069597
2.3313273649982875,0.61003663003663,0.14344322344322344,0.3997069597069597
2.3335057980002603,0.61003663003663,0.14344322344322344,0.3997069597069597
2.335151033003058,0.61003663003663,0.14344322344322344,0.3997069597069597
2.3406861050025327,0.61003663003663,0.14344322344322344,0.3997069597069597
2.3409794390026946,0.61003663003663,0.14344322344322344,0.3997069597069597
2.3491812080028467,0.61003663003663,0.14344322344322344,0.3997069597069597
2.3562349299972993,2.0235164835164836,1.9526007326007324,3.0115018315018314
2.361523774001398,2.0235164835164836,1.9526007326007324,3.0115018315018314
2.363028555002529,2.0235164835164836,1.9526007326007324,3.0115018315018314
2.3673834899964277,2.0235164835164836,1.9526007326007324,3.0115018315018314
2.3690838719994645,2.0235164835164836,1.9526007326007324,3.0115018315018314
2.371888982997916,2.0235164835164836,1.9526007326007324,3.0115018315018314
2.375940988997172,2.0235164835164836,1.9526007326007324,3.0115018315018314
2.3787526230007643,2.0235164835164836,1.9526007326007324,3.0115018315018314
2.382871276997321,3.2258608058608056,1.1088644688644689,0.8469597069597068
2.385698585996579,3.3,3.1613919413919414,1.90989010989011
2.3891598990012426,3.3,3.1613919413919414,1.90989010989011
2.3899443289992632,3.3,3.1613919413919414,1.90989010989011
2.392017822996422,3.3,3.1613919413919414,1.90989010989011
2.3934766449965537,3.3,3.1613919413919414,1.90989010989011
2.3976263250006014,3.3,3.1613919413919414,1.90989010989011
2.4008575129992096,3.3,3.1613919413919414,1.90989010989011
2.402427850996901,3.3,3.1613919413919414,1.90989010989011
2.4061962080013473,3.3,3.1613919413919414,1.90989010989011
2.4108403330028523,3.3,3.1613919413919414,1.90989010989011
2.411125730999629,3.3,3.1613919413919414,1.90989010989011
2.4156111609991058,3.3,3.1613919413919414,1.90989010989011
2.416492543001368,3.3,3.1613919413919414,1.90989010989011
2.418132913997397,3.3,3.1613919413919414,1.90989010989011
2.421667028000229,3.3,3.1613919413919414,1.90989010989011
2.421896188003302,3.3,1.095164835164835,0.5721611721611721
2.4269113080008538,3.3,1.095164835164835,0.5721611721611721
2.431182943000749,1.5053479853479852,1.0073260073260073,0.2506227106227106
2.433428391996131,1.5053479853479852,1.0073260073260073,0.2506227106227106
2.434259358997224,1.5053479853479852,1.0073260073260073,0.2506227106227106
2.4364315650018398,1.5053479853479852,1.0073260073260073,0.2506227106227106
2.4374084739974933,1.5053479853479852,1.0073260073260073,0.2506227106227106
2.438259028996981,1.5053479853479852,1.0073260073260073,0.2506227106227106
2.440478359996632,1.5053479853479852,1.0073260073260073,0.2506227106227106
2.4408521250006743,1.5053479853479852,1.0073260073260073,0.2506227106227106
2.4451928510025027,1.5053479853479852,1.0073260073260073,0.2506227106227106
2.447435645997757,1.5053479853479852,1.0073260073260073,0.2506227106227106
2.4482574479989125,1.5053479853479852,1.0073260073260073,0.2506227106227106
2.4504298320025555,1.5053479853479852,1.0073260073260073,0.2506227106227106
2.451259248002316,1.5053479853479852,1.0073260073260073,0.2506227106227106
2.4528101199975936,2.803589743589743,1.9195604395604395,1.1008058608058606
2.457170560002851,2.803589743589743,1.9195604395604395,1.1008058608058606
2.459435516000667,2.803589743589743,1.9195604395604395,1.1008058608058606
2.459664743997564,2.9276923076923076,1.046007326007326,1.2893772893772892
2.464843681002094,2.9276923076923076,1.046007326007326,1.2893772893772892
2.468620589999773,2.9276923076923076,1.046007326007326,1.2893772893772892
2.4723361680007656,2.9276923076923076,1.046007326007326,1.2893772893772892
2.477503098998568,2.9276923076923076,1.046007326007326,1.2893772893772892
2.4814039560005767,2.9276923076923076,1.046007326007326,1.2893772893772892
2.4852027430024464,2.9276923076923076,1.046007326007326,1.2893772893772892
2.4896531639969908,0.8227838827838827,0.13054945054945052,0.7188278388278388
2.49199537000095,0.8227838827838827,0.13054945054945052,0.7188278388278388
2.492215414000384,0.8227838827838827,0.13054945054945052,0.7188278388278388
2.4972443229999044,0.8227838827838827,0.13054945054945052,0.7188278388278388
2.501679435998085,2.1226373626373625,0.8082783882783882,1.8276923076923077
2.5025393050018465,2.1226373626373625,0.8082783882783882,1.8276923076923077
2.504093219002243,2.1226373626373625,0.8082783882783882,1.8276923076923077
2.5092306149963406,2.1226373626373625,0.8082783882783882,1.8276923076923077
2.5122933230013587,2.1226373626373625,0.8082783882783882,1.8276923076923077
2.514456801000051,2.1226373626373625,0.8082783882783882,1.8276923076923077
2.5152544980010134,2.1226373626373625,0.8082783882783882,1.8276923076923077
2.5174793580008554,2.1226373626373625,0.8082783882783882,1.8276923076923077
2.5177996720012743,2.1226373626373625,0.8082783882783882,1.8276923076923077
2.5223118909998448,2.1226373626373625,0.8082783882783882,1.8276923076923077
2.5232037769965245,3.299194139194139,2.726227106227106,1.7454945054945055
2.5247351259968127,3.299194139194139,2.726227106227106,1.7454945054945055
2.52906993200304,0.9678388278388278,0.18534798534798536,0.6454945054945055
2.5306582859993796,0.9678388278388278,0.18534798534798536,0.6454945054945055
2.5357988589967135,2.3893772893772893,1.6262271062271063,1.7035897435897436
2.5394537760003004,2.3893772893772893,1.6262271062271063,1.7035897435897436
2.5446703039997374,2.3893772893772893,1.6262271062271063,1.7035897435897436
2.549887408997165,0.9275457875457875,0.7752380952380952,0.2208058608058608
2.552535021000949,0.9275457875457875,0.7752380952380952,0.2208058608058608
2.5590888770020683,2.5021978021978017,1.6632967032967032,1.012161172161172
2.5635753850001493,1.9364835164835164,0.6648351648351648,1.8857142857142855
2.563920947999577,1.9364835164835164,0.6648351648351648,1.8857142857142855
2.5719221100007417,1.9364835164835164,0.6648351648351648,1.8857142857142855
2.577966488999664,1.9364835164835164,0.6648351648351648,1.8857142857142855
2.584109614996123,1.9364835164835164,0.6648351648351648,1.8857142857142855
2.5905366969964234,1.9364835164835164,0.6648351648351648,1.8857142857142855
2.5952167799987365,1.9848351648351645,1.8051282051282052,3.032454212454212
2.603968310999335,1.9848351648351645,1.8051282051282052,3.032454212454212
2.6103748379973695,2.851941391941392,0.9654212454212454,0.963003663003663
2.61627175600006,2.851941391941392,0.9654212454212454,0.963003663003663
2.6220733700029086,2.851941391941392,0.9654212454212454,0.963003663003663
2.631166282997583,2.851941391941392,0.9654212454212454,0.963003663003663
2.638889554000343,2.851941391941392,0.9654212454212454,0.963003663003663
2.6446395719976863,2.851941391941392,0.9654212454212454,0.963003663003663
2.6523431070017978,2.851941391941392,0.9654212454212454,0.963003663003663
2.6598885069979588,2.851941391941392,0.9654212454212454,0.963003663003663
2.667408660003275,2.851941391941392,0.9654212454212454,0.963003663003663
2.675528938001662,0.5979487179487178,0.5971428571428571,0.23047619047619047
2.6820453539985465,2.5481318681318683,0.8598534798534798,1.099194139194139
2.6879673119983636,2.834212454212454,0.9694505494505494,1.232161172161172
2.694230235996656,2.834212454212454,0.9694505494505494,1.232161172161172
2.699105469000642,2.834212454212454,0.9694505494505494,1.232161172161172
2.703442580997944,2.834212454212454,0.9694505494505494,1.232161172161172
2.703879054002755,2.834212454212454,0.9694505494505494,1.232161172161172
2.7122458379963064,2.834212454212454,0.9694505494505494,1.232161172161172
2.7166360650007846,2.834212454212454,0.9694505494505494,1.232161172161172
2.7183936669971445,0.011282051282051281,0.12571428571428572,1.7438827838827837
2.7215071789978538,0.011282051282051281,0.12571428571428572,1.7438827838827837
2.723090068997408,0.011282051282051281,0.12571428571428572,1.7438827838827837
2.7275784829980694,0.011282051282051281,0.12571428571428572,1.7438827838827837
2.727865718996327,0.011282051282051281,0.12571428571428572,1.7438827838827837
2.733058288002212,2.067032967032967,1.987252747252747,3.094505494505494
2.736263434002467,2.067032967032967,1.987252747252747,3.094505494505494
2.7375149709987454,1.7946520146520144,0.8558241758241758,1.838974358974359
2.7429993920013658,1.7946520146520144,0.8558241758241758,1.838974358974359
2.7452326150014414,1.7946520146520144,0.8558241758241758,1.838974358974359
2.745510731001559,1.7946520146520144,0.8558241758241758,1.838974358974359
2.7501351359969703,1.7946520146520144,0.8558241758241758,1.838974358974359
2.750421094999183,2.3128205128205126,2.278974358974359,3.1742857142857144
2.754935889002809,2.3128205128205126,2.278974358974359,3.1742857142857144
2.755762102002336,1.6649084249084247,0.4851282051282051,1.9638827838827837
2.757356226997217,1.6649084249084247,0.4851282051282051,1.9638827838827837
2.761942167999223,2.8326007326007323,1.003296703296703,0.49076923076923074
2.762182958998892,2.8326007326007323,1.003296703296703,0.49076923076923074
2.769753986001888,2.8326007326007323,1.003296703296703,0.49076923076923074
2.7738808180001797,0.6978754578754578,0.15956043956043955,0.49238095238095236
2.7773650539966184,0.166007326007326,0.12813186813186814,1.763223443223443
2.7903348800027743,0.166007326007326,0.12813186813186814,1.763223443223443
2.80050480600039,0.166007326007326,0.12813186813186814,1.763223443223443
2.810258782999881,0.09267399267399268,0.24901098901098898,1.8115750915750917
2.819209895998938,0.09267399267399268,0.24901098901098898,1.8115750915750917
2.8273459499978344,0.1829304029304029,0.2224175824175824,1.676190476190476
2.8346203550026985,0.1829304029304029,0.2224175824175824,1.676190476190476
2.840337569003168,2.281391941391941,1.3973626373626373,0.8316483516483516
2.848194992002391,2.281391941391941,1.3973626373626373,0.8316483516483516
2.854678128998785,3.3,2.0484981684981682,0.917069597069597
2.860257025997271,2.693186813186813,3.3,2.37003663003663
2.860480142997403,2.693186813186813,3.3,2.37003663003663
2.866294753999682,2.693186813186813,3.3,2.37003663003663
2.8777512090018718,2.693186813186813,3.3,2.37003663003663
2.8861982169983094,2.0742857142857143,1.432014652014652,1.573846153846154
2.8931470300012734,2.0742857142857143,1.432014652014652,1.573846153846154
2.8970748170031584,2.194358974358974,1.6915018315018313,1.8832967032967032
2.9001339570022537,2.194358974358974,1.6915018315018313,1.8832967032967032
2.90174510700308,2.194358974358974,1.6915018315018313,1.8832967032967032
2.9069000849995064,2.194358974358974,1.6915018315018313,1.8832967032967032
2.911138823001238,1.6109157509157508,0.47142857142857136,1.012967032967033
2.9113649479986634,1.6109157509157508,0.47142857142857136,1.012967032967033
2.915940006998426,1.6109157509157508,0.47142857142857136,1.012967032967033
2.916245198000979,0.33604395604395604,0.28527472527472525,1.5875457875457875
2.9215096100015217,2.705274725274725,1.0661538461538462,0.8453479853479853
2.9249901689981925,2.705274725274725,1.0661538461538462,0.8453479853479853
2.9314768809999805,2.705274725274725,1.0661538461538462,0.8453479853479853
2.9352004890024546,2.041245421245421,1.5448351648351648,1.9276190476190476
2.9411247210009606,2.041245421245421,1.5448351648351648,1.9276190476190476
2.947617245001311,2.041245421245421,1.5448351648351648,1.9276190476190476
2.9514502890015137,2.041245421245421,1.5448351648351648,1.9276190476190476
2.956877220000024,2.681098901098901,3.3,2.3893772893772893
2.959661959997902,2.681098901098901,3.3,2.3893772893772893
2.962714039000275,2.681098901098901,3.3,2.3893772893772893
2.9650338159990497,2.681098901098901,3.3,2.3893772893772893
2.9652380909974454,2.681098901098901,3.3,2.3893772893772893
2.9696930089994567,2.681098901098901,3.3,2.3893772893772893
2.9712965700018685,2.681098901098901,3.3,2.3893772893772893
2.97645997699874,2.681098901098901,3.3,2.3893772893772893
2.9782791789984913,2.681098901098901,3.3,2.3893772893772893
2.980943025002489,2.681098901098901,3.3,2.3893772893772893
2.9852573730022414,2.681098901098901,3.3,2.3893772893772893
2.9868104350025533,2.681098901098901,3.3,2.3893772893772893
2.9935119319998194,2.681098901098901,3.3,2.3893772893772893
2.996953886002302,2.681098901098901,3.3,2.3893772893772893
2.9978432479983894,2.681098901098901,3.3,2.3893772893772893
2.9993464889994357,2.681098901098901,3.3,2.3893772893772893
3.0036770520018763,2.681098901098901,3.3,2.3893772893772893
3.0055950609967113,2.681098901098901,3.3,2.3893772893772893
3.0073339079972357,2.681098901098901,3.3,2.3893772893772893
3.012435673001164,2.681098901098901,3.3,2.3893772893772893
3.0144861309963744,2.6875457875457873,3.074358974358974,2.4949450549450547
3.0156539660019916,2.6875457875457873,3.074358974358974,2.4949450549450547
3.015946724997775,2.6875457875457873,3.074358974358974,2.4949450549450547
3.024356781003007,2.6875457875457873,3.074358974358974,2.4949450549450547
3.0297400380004547,2.6875457875457873,3.074358974358974,2.4949450549450547
3.0313289370023995,0.9565567765567766,0.1772893772893773,0.6164835164835165
3.034971991997736,0.9565567765567766,0.1772893772893773,0.6164835164835165
3.0350881630001822,0.9565567765567766,0.1772893772893773,0.6164835164835165
3.0415249950019643,0.9565567765567766,0.1772893772893773,0.6164835164835165
3.0453392150011496,0.9565567765567766,0.1772893772893773,0.6164835164835165
3.0497472529968945,0.9791208791208791,0.17003663003663003,0.6543589743589743
3.05067728299764,0.9791208791208791,0.17003663003663003,0.6543589743589743
3.0516591490013525,0.9791208791208791,0.17003663003663003,0.6543589743589743
3.0527774130023317,0.9791208791208791,0.17003663003663003,0.6543589743589743
3.053063156999997,0.9791208791208791,0.17003663003663003,0.6543589743589743
3.0606779110021307,0.9791208791208791,0.17003663003663003,0.6543589743589743
3.0644786049961112,0.9791208791208791,0.17003663003663003,0.6543589743589743
3.070360306999646,3.3,1.7221245421245421,0.6253479853479853
3.07771031500306,3.3,2.347472527472527,1.4005860805860806
3.081448074997752,1.1427106227106225,0.5342857142857143,1.7857875457875456
3.0858979350014124,1.1427106227106225,0.5342857142857143,1.7857875457875456
3.087471530001494,1.1427106227106225,0.5342857142857143,1.7857875457875456
3.0938870559984935,1.1427106227106225,0.5342857142857143,1.7857875457875456
3.0995880350019434,1.1427106227106225,0.5342857142857143,1.7857875457875456
3.1058446989991353,3.3,1.7398534798534797,0.8316483516483516
3.11083285100176,0.9726739926739927,0.1813186813186813,0.6285714285714284
3.115196933998959,2.6085714285714285,2.212087912087912,3.063882783882784
3.1168852050032,2.6085714285714285,2.212087912087912,3.063882783882784
3.1205964280015905,2.6085714285714285,2.212087912087912,3.063882783882784
3.1269009329989785,3.2226373626373626,1.0597069597069597,0.45692307692307693
3.129900836996967,3.2226373626373626,1.0597069597069597,0.45692307692307693
3.1340133150006295,2.0090109890109886,1.9920879120879118,3.0977289377289376
3.13559784500103,2.0090109890109886,1.9920879120879118,3.0977289377289376
3.140776332002133,2.0090109890109886,1.9920879120879118,3.0977289377289376
3.144120937002299,2.0090109890109886,1.9920879120879118,3.0977289377289376
3.1442833920009434,2.0090109890109886,1.9920879120879118,3.0977289377289376
3.148865779003245,2.0090109890109886,1.9920879120879118,3.0977289377289376
3.149709798002732,2.0090109890109886,1.9920879120879118,3.0977289377289376
3.1513257620026707,2.0090109890109886,1.9920879120879118,3.0977289377289376
3.1550232610024977,2.0090109890109886,1.9920879120879118,3.0977289377289376
3.162382244001492,2.0090109890109886,1.9920879120879118,3.0977289377289376
3.1667570189965772,3.2419780219780217,1.0492307692307692,0.4464468864468864
3.1684171090018936,3.2419780219780217,1.0492307692307692,0.4464468864468864
3.172101210002438,3.2419780219780217,1.0492307692307692,0.4464468864468864
3.1786328200032585,3.2419780219780217,1.0492307692307692,0.4464468864468864
3.18235358200036,3.2419780219780217,1.0492307692307692,0.4464468864468864
3.1824719970027218,3.2419780219780217,1.0492307692307692,0.4464468864468864
3.1877705579972826,3.2419780219780217,1.0492307692307692,0.4464468864468864
3.192707813002926,3.2419780219780217,1.0492307692307692,0.4464468864468864
3.1977591480026604,3.2419780219780217,1.0492307692307692,0.4464468864468864
3.1999709669980803,2.5441025641025643,0.9356043956043956,1.427985347985348
3.200238489996991,2.5441025641025643,0.9356043956043956,1.427985347985348
3.2046445239975583,2.5441025641025643,0.9356043956043956,1.427985347985348
3.2065534759967704,3.3,2.0235164835164836,0.9178754578754579
3.2096081400013645,3.3,2.0235164835164836,0.9178754578754579
3.210693546003313,3.3,2.0235164835164836,0.9178754578754579
3.211539948999416,3.3,2.0235164835164836,0.9178754578754579
3.212429733997851,3.3,2.0235164835164836,0.9178754578754579
3.2140083010017406,3.3,2.0235164835164836,0.9178754578754579
3.218288518997724,3.3,2.0235164835164836,0.9178754578754579
3.219851383997593,3.3,2.0235164835164836,0.9178754578754579
3.2268094649989507,3.3,2.0235164835164836,0.9178754578754579
3.2300462029961636,3.3,2.0235164835164836,0.9178754578754579
3.230914849002147,2.5682783882783884,1.767252747252747,2.024322344322344
3.232509310997557,2.5682783882783884,1.767252747252747,2.024322344322344
3.2361936989982496,2.5682783882783884,1.767252747252747,2.024322344322344
3.2364036119979573,2.5682783882783884,1.767252747252747,2.024322344322344
3.2438821800024016,2.5682783882783884,1.767252747252747,2.024322344322344
3.2494423929965706,2.5682783882783884,1.767252747252747,2.024322344322344
3.2496694619985647,2.5682783882783884,1.767252747252747,2.024322344322344
3.254367216999526,2.5682783882783884,1.767252747252747,2.024322344322344
3.261933722998947,2.5682783882783884,1.767252747252747,2.024322344322344
3.266412233002484,2.5682783882783884,1.767252747252747,2.024322344322344
3.2672762619986315,2.5682783882783884,1.767252747252747,2.024322344322344
3.268822389996785,2.5682783882783884,1.767252747252747,2.024322344322344
3.274024375001318,2.5682783882783884,1.767252747252747,2.024322344322344
3.2779252890031785,2.5682783882783884,1.767252747252747,2.024322344322344
3.2804750360010075,2.5682783882783884,1.767252747252747,2.024322344322344
3.2850835119970725,2.5682783882783884,1.767252747252747,2.024322344322344
3.285307737001858,2.5682783882783884,1.767252747252747,2.024322344322344
3.2911688730018795,2.5682783882783884,1.767252747252747,2.024322344322344
3.297516671002086,2.5682783882783884,1.767252747252747,2.024322344322344
3.301322280000022,2.5682783882783884,1.767252747252747,2.024322344322344
3.3067705139983445,3.3,2.6585347985347987,1.7317948717948717
3.309823770003277,3.3,2.6585347985347987,1.7317948717948717
3.3107019460003357,3.3,2.6585347985347987,1.7317948717948717
3.3122496729993145,2.763296703296703,1.1177289377289377,0.8735531135531135
3.316694364999421,2.763296703296703,1.1177289377289377,0.8735531135531135
3.318209899000067,2.763296703296703,1.1177289377289377,0.8735531135531135
3.3224447570028133,3.3,1.0580952380952382,0.9952380952380951
3.324398509997991,3.3,1.0580952380952382,0.9952380952380951
3.32674958500138,3.3,1.0580952380952382,0.9952380952380951
3.3319355990024633,2.8833699633699634,1.9268131868131868,2.66014652014652
3.3356811580015346,2.8833699633699634,1.9268131868131868,2.66014652014652
3.3419687549976516,2.8833699633699634,1.9268131868131868,2.66014652014652
3.3455233339991537,2.8833699633699634,1.9268131868131868,2.66014652014652
3.351729052999872,0.5350915750915751,0.12974358974358974,0.4214652014652014
3.3591024100023787,0.5350915750915751,0.12974358974358974,0.4214652014652014
3.3622356449996005,3.3,1.0717948717948718,0.7430036630036629
3.3638170729973353,3.3,1.0717948717948718,0.7430036630036629
3.369129940001585,3.3,1.0717948717948718,0.7430036630036629
3.3726344690003316,3.3,1.0717948717948718,0.7430036630036629
3.372841589996824,3.3,1.0717948717948718,0.7430036630036629
3.379223001000355,3.3,1.0717948717948718,0.7430036630036629
3.3829190600008587,3.3,1.0717948717948718,0.7430036630036629
3.3830447389991605,3.3,1.0717948717948718,0.7430036630036629
3.38816059200326,3.3,1.0717948717948718,0.7430036630036629
3.393271715998708,3.3,1.0717948717948718,0.7430036630036629
3.3950816099968506,2.8164835164835162,1.1652747252747253,1.995311355311355
3.3981503609975334,2.8164835164835162,1.1652747252747253,1.995311355311355
3.4011167159987963,2.8164835164835162,1.1652747252747253,1.995311355311355
3.4033591030020034,2.8164835164835162,1.1652747252747253,1.995311355311355
3.404523124001571,2.8164835164835162,1.1652747252747253,1.995311355311355
3.404778431999148,2.8164835164835162,1.1652747252747253,1.995311355311355
3.4134149809979135,2.8164835164835162,1.1652747252747253,1.995311355311355
3.41732778900041,0.0,0.1241025641025641,1.6826373626373625
3.423708907001128,0.0,0.1241025641025641,1.6826373626373625
3.4281067389965756,0.0,0.1241025641025641,1.6826373626373625
3.4284168250014773,0.0,0.1241025641025641,1.6826373626373625
3.432682514001499,0.0,0.1241025641025641,1.6826373626373625
3.4351114769960986,3.0453479853479855,1.1967032967032967,1.9904761904761903
3.435258409001108,3.0453479853479855,1.1967032967032967,1.9904761904761903
3.4422208169999067,3.0453479853479855,1.1967032967032967,1.9904761904761903
3.4457103989989264,2.399047619047619,1.3345054945054944,0.4158241758241758
3.4459433649972198,2.399047619047619,1.3345054945054944,0.4158241758241758
3.4503822960032267,2.399047619047619,1.3345054945054944,0.4158241758241758
3.45305040400126,2.399047619047619,1.3345054945054944,0.4158241758241758
3.459143182000844,2.399047619047619,1.3345054945054944,0.4158241758241758
3.4620689829971525,2.399047619047619,1.3345054945054944,0.4158241758241758
3.464561259999755,3.3,2.025128205128205,0.9654212454212454
3.469587578998471,3.3,2.025128205128205,0.9654212454212454
3.474892448000901,3.3,2.025128205128205,0.9654212454212454
3.478526872000657,3.3,2.025128205128205,0.9654212454212454
3.4828983659972437,3.3,2.025128205128205,0.9654212454212454
3.484448595001595,3.3,2.025128205128205,0.9654212454212454
3.4897126520008896,1.016190476190476,0.20388278388278389,0.8002197802197801
3.494150140999409,1.9163369963369963,1.9332600732600733,3.2677655677655677
3.495112919001258,2.7036630036630034,3.3,2.5054212454212452
3.4953855970015866,2.7036630036630034,3.3,2.5054212454212452
3.4998314039985416,2.7036630036630034,3.3,2.5054212454212452
3.5007412880004267,3.3,1.1161172161172161,0.48754578754578753
3.5023173579975264,3.3,1.1161172161172161,0.48754578754578753
3.5060345840029186,3.3,1.1161172161172161,0.48754578754578753
3.5149058219976723,3.3,1.1161172161172161,0.48754578754578753
3.5193684569967445,2.5795604395604395,0.9493040293040291,1.32
3.5203217969974503,2.5795604395604395,0.9493040293040291,1.32
3.5226376830032677,2.5795604395604395,0.9493040293040291,1.32
3.5293455479986733,0.2328937728937729,0.5012454212454212,0.19018315018315018
3.533122289001767,0.2328937728937729,0.5012454212454212,0.19018315018315018
3.538620596002147,2.586007326007326,0.9904029304029303,2.0654212454212453
3.5411294079967774,2.586007326007326,0.9904029304029303,2.0654212454212453
3.5475122979987646,2.8164835164835162,2.56989010989011,1.5037362637362637
3.551674845999514,0.7921611721611721,0.15956043956043955,0.5673260073260072
3.555427758001315,2.4957509157509157,1.4932600732600732,2.2169230769230768
3.5642696150025586,2.4957509157509157,1.4932600732600732,2.2169230769230768
3.570782570997835,3.3,1.1088644688644689,0.8163369963369963
3.5765662350022467,2.481245421245421,1.7334065934065934,1.9445421245421244
3.583029676003207,2.481245421245421,1.7334065934065934,1.9445421245421244
3.5881951749979635,2.481245421245421,1.7334065934065934,1.9445421245421244
3.5937471910001477,2.481245421245421,1.7334065934065934,1.9445421245421244
3.599732454000332,2.481245421245421,1.7334065934065934,1.9445421245421244
3.6035638419998577,3.235531135531135,1.05003663003663,0.49479853479853475
3.611289690998092,3.235531135531135,1.05003663003663,0.49479853479853475
3.61499823199847,3.235531135531135,1.05003663003663,0.49479853479853475
3.6151436419968377,3.235531135531135,1.05003663003663,0.49479853479853475
3.620429675000196,3.235531135531135,1.05003663003663,0.49479853479853475
3.623146320998785,3.2846886446886447,1.1435164835164835,0.9662271062271062
3.6304684529968654,3.2846886446886447,1.1435164835164835,0.9662271062271062
3.6341856889994233,3.2846886446886447,1.1435164835164835,0.9662271062271062
3.641611250001006,3.3,1.7358241758241757,2.1685714285714286
3.6473051790017053,3.3,1.7358241758241757,2.1685714285714286
3.6527273649990093,3.3,1.7358241758241757,2.1685714285714286
3.6536585680005373,3.3,1.7358241758241757,2.1685714285714286
3.6545479650012567,3.3,1.7358241758241757,2.1685714285714286
3.6568239289990743,3.3,1.7358241758241757,2.1685714285714286
3.6571752989984816,3.3,1.7358241758241757,2.1685714285714286
3.6631058549974114,3.3,1.7358241758241757,2.1685714285714286
3.6693872359974193,3.3,2.233846153846154,1.3361172161172161
3.6747169270020095,3.3,2.233846153846154,1.3361172161172161
3.677532314999553,3.3,2.233846153846154,1.3361172161172161
3.679832626999996,3.3,2.233846153846154,1.3361172161172161
3.680123571997683,2.9647619047619047,1.0387545787545787,1.2498901098901098
3.684609409996483,3.3,1.9969230769230766,0.8663003663003663
3.6849513049965026,3.3,1.9969230769230766,0.8663003663003663
3.691257307000342,3.3,1.9969230769230766,0.8663003663003663
3.695520519002457,3.3,1.9969230769230766,0.8663003663003663
3.695900452003116,3.3,1.9969230769230766,0.8663003663003663
3.7034105619968614,3.3,1.9969230769230766,0.8663003663003663
3.71285238800192,2.740732600732601,0.9525274725274724,0.9388278388278387
3.7197495360014727,2.419194139194139,1.5577289377289376,2.0694505494505493
3.7259166079966235,3.2774358974358972,1.062930402930403,0.6350183150183151
3.729863667002064,3.2774358974358972,1.062930402930403,0.6350183150183151
3.7329556889962987,3.2774358974358972,1.062930402930403,0.6350183150183151
3.73482944600255,2.2797802197802195,0.9065934065934066,1.9920879120879118
3.737704389997816,2.2797802197802195,0.9065934065934066,1.9920879120879118
3.7444183620027616,2.2797802197802195,0.9065934065934066,1.9920879120879118
3.747582363001129,2.2797802197802195,0.9065934065934066,1.9920879120879118
3.7492230179996113,2.2797802197802195,0.9065934065934066,1.9920879120879118
3.7529476630006684,2.523150183150183,1.4094505494505494,1.9896703296703295
3.7606786570031545,2.523150183150183,1.4094505494505494,1.9896703296703295
3.7667639720020816,3.1662271062271063,1.0194139194139193,0.42630036630036633
3.773473996996472,3.1662271062271063,1.0194139194139193,0.42630036630036633
3.7789525339976535,3.1662271062271063,1.0194139194139193,0.42630036630036633
3.7791039630028536,3.1662271062271063,1.0194139194139193,0.42630036630036633
3.783633455001109,3.1662271062271063,1.0194139194139193,0.42630036630036633
3.7844891880013165,3.1662271062271063,1.0194139194139193,0.42630036630036633
3.7860190589999547,3.1662271062271063,1.0194139194139193,0.42630036630036633
3.7922935530004906,3.1662271062271063,1.0194139194139193,0.42630036630036633
3.7964565599977504,3.1662271062271063,1.0194139194139193,0.42630036630036633
3.7980586389967357,2.2169230769230768,0.7067399267399267,1.1096703296703296
3.8018407249983284,2.2169230769230768,0.7067399267399267,1.1096703296703296
3.808101362999878,2.2169230769230768,0.7067399267399267,1.1096703296703296
3.811872853002569,0.5117216117216117,0.6422710622710622,0.23047619047619047
3.816366721999657,0.5117216117216117,0.6422710622710622,0.23047619047619047
3.817302916002518,0.5117216117216117,0.6422710622710622,0.23047619047619047
3.818891278002411,0.5117216117216117,0.6422710622710622,0.23047619047619047
3.8254140139979427,0.5117216117216117,0.6422710622710622,0.23047619047619047
3.8318169850026607,0.5117216117216117,0.6422710622710622,0.23047619047619047
3.8355428819995723,2.157289377289377,1.9364835164835164,3.098534798534798
3.8436888770011137,2.157289377289377,1.9364835164835164,3.098534798534798
3.8469182120024925,2.157289377289377,1.9364835164835164,3.098534798534798
3.8484988089985563,2.0847619047619044,1.037948717948718,1.6697435897435895
3.8522956669985433,2.0847619047619044,1.037948717948718,1.6697435897435895
3.860138965996157,2.0847619047619044,1.037948717948718,1.6697435897435895
3.864274095998553,0.06043956043956044,0.1378021978021978,1.7954578754578752
3.866610616001708,0.6253479853479853,0.1515018315018315,0.4383882783882784
3.86683643500146,0.6253479853479853,0.1515018315018315,0.4383882783882784
3.8725673090011696,0.6253479853479853,0.1515018315018315,0.4383882783882784
3.873115937996772,0.6253479853479853,0.1515018315018315,0.4383882783882784
3.8784616089978954,0.6253479853479853,0.1515018315018315,0.4383882783882784
3.8788007699986338,0.7913553113553113,0.39809523809523806,1.8075457875457877
3.88348333400063,0.7913553113553113,0.39809523809523806,1.8075457875457877
3.8837483129973407,0.7913553113553113,0.39809523809523806,1.8075457875457877
3.8896689050015993,0.7913553113553113,0.39809523809523806,1.8075457875457877
3.896699817996705,0.7913553113553113,0.39809523809523806,1.8075457875457877
3.9011729679987184,3.2258608058608056,1.0347252747252746,0.332014652014652
3.902051955999923,3.2258608058608056,1.0347252747252746,0.332014652014652
3.9036162109987345,3.2258608058608056,1.0347252747252746,0.332014652014652
3.9096500710002147,3.2258608058608056,1.0347252747252746,0.332014652014652
3.9138652490000823,3.2258608058608056,1.0347252747252746,0.332014652014652
3.9154990969982464,3.2258608058608056,1.0347252747252746,0.332014652014652
3.920222262997413,3.2258608058608056,1.0347252747252746,0.332014652014652
3.9290231150007457,2.6456410256410257,2.277362637362637,1.2345787545787545
3.936084009001206,2.6456410256410257,2.277362637362637,1.2345787545787545
3.941989722996368,2.6456410256410257,2.277362637362637,1.2345787545787545
3.946538235999469,2.6456410256410257,2.277362637362637,1.2345787545787545
3.9466929510017508,2.6456410256410257,2.277362637362637,1.2345787545787545
3.9523442880017683,2.0267399267399266,1.9646886446886445,3.1170695970695967
3.952584521997778,2.0267399267399266,1.9646886446886445,3.1170695970695967
3.958467181000742,2.0267399267399266,1.9646886446886445,3.1170695970695967
3.9649442640002235,2.0267399267399266,1.9646886446886445,3.1170695970695967
3.9695228490018053,2.0267399267399266,1.9646886446886445,3.1170695970695967
3.9796993019990623,2.445787545787546,1.6592673992673992,1.8808791208791207
3.98688925299939,2.652087912087912,2.0235164835164836,2.2846153846153845
3.993811997002922,2.652087912087912,2.0235164835164836,2.2846153846153845
3.9968704490020173,2.652087912087912,2.0235164835164836,2.2846153846153845
3.999260880998918,2.652087912087912,2.0235164835164836,2.2846153846153845
3.9994297020020895,2.652087912087912,2.0235164835164836,2.2846153846153845
4.004617879996658,2.652087912087912,2.0235164835164836,2.2846153846153845
4.008217440001317,2.652087912087912,2.0235164835164836,2.2846153846153845
4.008338332998392,1.7261538461538461,0.6785347985347985,1.3135531135531133
4.013068781001493,1.7261538461538461,0.6785347985347985,1.3135531135531133
4.013345822997508,1.7261538461538461,0.6785347985347985,1.3135531135531133
4.01802905099612,1.7261538461538461,0.6785347985347985,1.3135531135531133
4.018254600996443,1.7261538461538461,0.6785347985347985,1.3135531135531133
4.0227309740002966,1.7261538461538461,0.6785347985347985,1.3135531135531133
4.024665158998687,1.7261538461538461,0.6785347985347985,1.3135531135531133
4.02707327400276,1.7261538461538461,0.6785347985347985,1.3135531135531133
4.027298709996103,1.7261538461538461,0.6785347985347985,1.3135531135531133
4.032026355998823,1.7261538461538461,0.6785347985347985,1.3135531135531133
4.032190204001381,2.4393406593406595,1.759194139194139,2.586007326007326
4.03675695900165,2.4393406593406595,1.759194139194139,2.586007326007326
4.037675252999179,2.4393406593406595,1.759194139194139,2.586007326007326
4.040676063996216,2.4393406593406595,1.759194139194139,2.586007326007326
4.042031149001559,2.4393406593406595,1.759194139194139,2.586007326007326
4.047198432002915,2.8704761904761904,1.5915750915750915,0.5310622710622711
4.050145604996942,2.8704761904761904,1.5915750915750915,0.5310622710622711
4.053775303000293,2.8616117216117214,2.1395604395604395,2.9615384615384617
4.05389419200219,2.8616117216117214,2.1395604395604395,2.9615384615384617
4.059789965998789,2.8616117216117214,2.1395604395604395,2.9615384615384617
4.064415900997119,2.8616117216117214,2.1395604395604395,2.9615384615384617
4.06456050700217,2.8616117216117214,2.1395604395604395,2.9615384615384617
4.069206050000503,2.8616117216117214,2.1395604395604395,2.9615384615384617
4.069484589002968,2.8616117216117214,2.1395604395604395,2.9615384615384617
4.074607850001485,2.8616117216117214,2.1395604395604395,2.9615384615384617
4.0808880499971565,2.8616117216117214,2.1395604395604395,2.9615384615384617
4.08529605899821,3.3,2.864835164835165,1.90021978021978
4.085661593999248,3.3,2.864835164835165,1.90021978021978
4.093068191003113,3.3,2.864835164835165,1.90021978021978
4.097238868002023,3.3,2.864835164835165,1.90021978021978
4.100406252997345,3.037289377289377,0.9767032967032967,1.0798534798534798
4.101358027997776,3.037289377289377,0.9767032967032967,1.0798534798534798
4.1030033010029,3.037289377289377,0.9767032967032967,1.0798534798534798
4.1090237210009946,3.037289377289377,0.9767032967032967,1.0798534798534798
4.1127744170007645,3.037289377289377,0.9767032967032967,1.0798534798534798
4.117367717000889,2.66014652014652,2.157289377289377,2.3378021978021977
4.117594631003158,2.66014652014652,2.157289377289377,2.3378021978021977
4.122805396000331,2.66014652014652,2.157289377289377,2.3378021978021977
4.127179866001825,2.66014652014652,2.157289377289377,2.3378021978021977
4.1273826109973015,2.66014652014652,2.157289377289377,2.3378021978021977
4.132140066998545,2.66014652014652,2.157289377289377,2.3378021978021977
4.132285442996363,2.66014652014652,2.157289377289377,2.3378021978021977
4.136817202001112,2.66014652014652,2.157289377289377,2.3378021978021977
4.137172531998658,2.66014652014652,2.157289377289377,2.3378021978021977
4.143202058003226,2.66014652014652,2.157289377289377,2.3378021978021977
4.147618652998062,2.66014652014652,2.157289377289377,2.3378021978021977
4.1479879839971545,2.66014652014652,2.157289377289377,2.3378021978021977
4.152542169998924,2.66014652014652,2.157289377289377,2.3378021978021977
4.152862123002706,2.66014652014652,2.157289377289377,2.3378021978021977
4.158467790999566,2.66014652014652,2.157289377289377,2.3378021978021977
4.1586672339981305,2.66014652014652,2.157289377289377,2.3378021978021977
4.164131951001764,3.3,0.95010989010989,0.8139194139194139
4.165034241996182,3.3,0.95010989010989,0.8139194139194139
4.166600340002333,3.3,0.95010989010989,0.8139194139194139
4.170376966998447,2.851941391941392,1.514212454212454,1.9115018315018315
4.177146048001305,2.7939194139194137,2.1476190476190475,3.096117216117216
4.180439538999053,2.7939194139194137,2.1476190476190475,3.096117216117216
4.182018494000658,2.7939194139194137,2.1476190476190475,3.096117216117216
4.1860331740026595,2.7939194139194137,2.1476190476190475,3.096117216117216
4.191702730997349,0.6753113553113552,0.13296703296703297,0.506080586080586
4.197401896999509,0.6753113553113552,0.13296703296703297,0.506080586080586
4.1976593250001315,0.6753113553113552,0.13296703296703297,0.506080586080586
4.202866282001196,0.6753113553113552,0.13296703296703297,0.506080586080586
4.206614305003313,2.690769230769231,2.249157509157509,1.2273260073260073
4.212592338000832,0.95010989010989,0.2175824175824176,0.6946520146520146
4.217044343997259,2.6488644688644687,1.8969963369963367,2.250769230769231
4.217884097000933,0.7156043956043956,0.26109890109890105,1.8212454212454212
4.2194492729977355,0.7156043956043956,0.26109890109890105,1.8212454212454212
4.22598673000175,0.7156043956043956,0.26109890109890105,1.8212454212454212
4.229214769002283,0.6035897435897435,0.1402197802197802,0.5834432234432234
4.230709955998464,0.6035897435897435,0.1402197802197802,0.5834432234432234
4.235108364999178,0.6035897435897435,0.1402197802197802,0.5834432234432234
4.2367472870028,2.7036630036630034,3.0727472527472526,2.46996336996337
4.243096933001652,2.7036630036630034,3.0727472527472526,2.46996336996337
4.246331836999161,2.7036630036630034,3.0727472527472526,2.46996336996337
4.247975568003312,2.7036630036630034,3.0727472527472526,2.46996336996337
4.2518200409977,2.7036630036630034,3.0727472527472526,2.46996336996337
4.255667247998645,2.7036630036630034,3.0727472527472526,2.46996336996337
4.2631939010025235,2.536849816849817,1.0178021978021978,2.0807326007326004
4.268995840000571,3.3,3.042124542124542,2.0347985347985347
4.278249310002138,1.0927472527472526,0.24578754578754577,0.7687912087912088
4.2833766490002745,1.0927472527472526,0.24578754578754577,0.7687912087912088
4.288149016996613,1.0927472527472526,0.24578754578754577,0.7687912087912088
4.288323467000737,1.0927472527472526,0.24578754578754577,0.7687912087912088
4.299047776999942,1.0927472527472526,0.24578754578754577,0.7687912087912088
4.309056158002932,1.0927472527472526,0.24578754578754577,0.7687912087912088
4.313863720002701,0.5979487179487178,0.13538461538461538,0.618095238095238
4.313977384001191,0.5979487179487178,0.13538461538461538,0.618095238095238
4.318834090001474,0.5979487179487178,0.13538461538461538,0.618095238095238
4.318963507997978,0.5979487179487178,0.13538461538461538,0.618095238095238
4.325520361999224,0.5979487179487178,0.13538461538461538,0.618095238095238
4.329582248996303,0.5979487179487178,0.13538461538461538,0.618095238095238
4.332760133002012,0.5979487179487178,0.13538461538461538,0.618095238095238
4.335006178000185,0.5979487179487178,0.13538461538461538,0.618095238095238
4.335325890999229,0.9791208791208791,0.4754578754578754,1.9517948717948717
4.341603367996868,0.9791208791208791,0.4754578754578754,1.9517948717948717
4.345968469999207,0.9791208791208791,0.4754578754578754,1.9517948717948717
4.346784797999135,0.9791208791208791,0.4754578754578754,1.9517948717948717
4.348358784998709,0.9791208791208791,0.4754578754578754,1.9517948717948717
4.352480948000448,0.9791208791208791,0.4754578754578754,1.9517948717948717
4.354919694997079,0.9791208791208791,0.4754578754578754,1.9517948717948717
4.355155596997065,0.9791208791208791,0.4754578754578754,1.9517948717948717
4.361520359001588,0.9791208791208791,0.4754578754578754,1.9517948717948717
4.365461207002227,3.3,1.7978754578754577,0.8179487179487179
4.371368836997135,3.3,1.7978754578754577,0.8179487179487179
4.378764911998587,2.702857142857143,3.2774358974358972,1.995311355311355
4.382872094996856,2.702857142857143,3.2774358974358972,1.995311355311355
4.38684808400285,3.3,1.8816849816849814,0.8485714285714284
4.391627163997327,3.3,1.8816849816849814,0.8485714285714284
4.397556652998901,3.3,1.8816849816849814,0.8485714285714284
4.402385148998292,3.3,1.8816849816849814,0.8485714285714284
4.407697264003218,3.3,1.8816849816849814,0.8485714285714284
4.410488237001118,3.3,1.8816849816849814,0.8485714285714284
4.41225030500209,3.3,1.8816849816849814,0.8485714285714284
4.415489063998393,3.3,1.8816849816849814,0.8485714285714284
4.416383771997062,0.8654945054945055,0.2562637362637363,1.5585347985347984
4.4179878490031115,0.8654945054945055,0.2562637362637363,1.5585347985347984
4.4221848899978795,0.8654945054945055,0.2562637362637363,1.5585347985347984
4.426563196000643,0.8654945054945055,0.2562637362637363,1.5585347985347984
4.426728330996411,0.8654945054945055,0.2562637362637363,1.5585347985347984
4.431449570998666,0.8654945054945055,0.2562637362637363,1.5585347985347984
4.4315763609993155,0.8654945054945055,0.2562637362637363,1.5585347985347984
4.436379667000438,0.8654945054945055,0.2562637362637363,1.5585347985347984
4.436529302001873,0.8654945054945055,0.2562637362637363,1.5585347985347984
4.4434966089975205,0.8654945054945055,0.2562637362637363,1.5585347985347984
4.446574638001039,0.8654945054945055,0.2562637362637363,1.5585347985347984
4.449495257998933,0.8654945054945055,0.2562637362637363,1.5585347985347984
4.453108861001965,0.8654945054945055,0.2562637362637363,1.5585347985347984
4.453228526996099,2.573113553113553,1.016996336996337,2.07992673992674
4.462276598002063,1.5577289377289376,0.6608058608058608,2.0114285714285716
4.466882747001364,3.258095238095238,1.0226373626373626,0.826007326007326
4.4671635720005725,3.258095238095238,1.0226373626373626,0.826007326007326
4.471730236997246,3.258095238095238,1.0226373626373626,0.826007326007326
4.472656295001798,3.258095238095238,1.0226373626373626,0.826007326007326
4.473784624002292,3.258095238095238,1.0226373626373626,0.826007326007326
4.474029798999254,3.258095238095238,1.0226373626373626,0.826007326007326
4.479324713996903,3.258095238095238,1.0226373626373626,0.826007326007326
4.481554810998205,3.258095238095238,1.0226373626373626,0.826007326007326
4.482376318999741,3.258095238095238,1.0226373626373626,0.826007326007326
4.4839507389988285,3.258095238095238,1.0226373626373626,0.826007326007326
4.489486608996231,3.258095238095238,1.0226373626373626,0.826007326007326
4.4899963380012196,2.61018315018315,1.1604395604395605,1.4424908424908425
4.494911339003011,2.61018315018315,1.1604395604395605,1.4424908424908425
4.498015700999531,2.61018315018315,1.1604395604395605,1.4424908424908425
4.499610669998219,3.1565567765567764,0.9839560439560439,0.7752380952380952
4.503368625999428,3.1565567765567764,0.9839560439560439,0.7752380952380952
4.5034818350031856,3.1565567765567764,0.9839560439560439,0.7752380952380952
4.510429447997012,3.1565567765567764,0.9839560439560439,0.7752380952380952
4.514455174998147,2.797142857142857,1.7124542124542126,2.756849816849817
4.51789624599769,2.797142857142857,1.7124542124542126,2.756849816849817
4.518156509002438,3.3,1.046007326007326,0.43274725274725273
4.523154738002631,3.3,1.046007326007326,0.43274725274725273
4.528015408999636,3.3,1.046007326007326,0.43274725274725273
4.531813025001611,3.3,1.046007326007326,0.43274725274725273
4.536925483997038,3.3,1.046007326007326,0.43274725274725273
4.54202674300177,3.3,1.046007326007326,0.43274725274725273
4.545800291998603,2.6585347985347987,0.8566300366300367,0.9686446886446887
4.549547773996892,2.6585347985347987,0.8566300366300367,0.9686446886446887
4.555169496998133,2.6585347985347987,0.8566300366300367,0.9686446886446887
4.5554182560008485,0.8252014652014652,0.26593406593406593,1.6125274725274723
4.563580515998183,0.8252014652014652,0.26593406593406593,1.6125274725274723
4.569492096998147,3.3,2.523150183150183,1.2104029304029302
4.5770378739980515,2.3797069597069593,1.6012454212454212,2.4554578754578755
4.581533625001612,2.3797069597069593,1.6012454212454212,2.4554578754578755
4.582420289996662,2.3797069597069593,1.6012454212454212,2.4554578754578755
4.584030127996812,2.3797069597069593,1.6012454212454212,2.4554578754578755
4.587853839999298,0.8364835164835164,0.7276923076923076,0.24014652014652016
4.594316679998883,0.8364835164835164,0.7276923076923076,0.24014652014652016
4.598021587000403,0.8364835164835164,0.7276923076923076,0.24014652014652016
4.598134695996123,3.087252747252747,0.9573626373626374,0.8977289377289376
4.602544207002211,3.087252747252747,0.9573626373626374,0.8977289377289376
4.603553948996705,3.3,0.9968498168498168,0.6873992673992674
4.605241673998535,3.3,0.9968498168498168,0.6873992673992674
4.609702896996168,3.3,0.9968498168498168,0.6873992673992674
4.609949808997044,3.3,0.9968498168498168,0.6873992673992674
4.615184392001538,2.423223443223443,1.4819780219780219,1.0186080586080586
4.61746833199868,1.3167765567765568,0.43677655677655675,1.506959706959707
4.617831581002974,1.3167765567765568,0.43677655677655675,1.506959706959707
4.622352933001821,1.3167765567765568,0.43677655677655675,1.506959706959707
4.623390585002198,1.3167765567765568,0.43677655677655675,1.506959706959707
4.623724306002259,1.3167765567765568,0.43677655677655675,1.506959706959707
4.629828735000046,1.3167765567765568,0.43677655677655675,1.506959706959707
4.633624731999589,2.795531135531135,1.0742124542124543,1.1942857142857142
4.639183781997417,2.795531135531135,1.0742124542124543,1.1942857142857142
4.6413872049961356,2.5247619047619043,0.83003663003663,1.2378021978021978
4.648556018997624,2.6633699633699632,2.5086446886446883,1.295018315018315
4.653405561999534,0.5439560439560439,0.14827838827838827,0.4931868131868131
4.653554867996718,0.5439560439560439,0.14827838827838827,0.4931868131868131
4.662712826000643,0.5439560439560439,0.14827838827838827,0.4931868131868131
4.670440497000527,3.0034432234432233,0.954945054945055,1.046007326007326
4.675579476002895,3.0034432234432233,0.954945054945055,1.046007326007326
4.67883754200011,3.0034432234432233,0.954945054945055,1.046007326007326
4.680311741998594,3.0034432234432233,0.954945054945055,1.046007326007326
4.684712362002756,3.0034432234432233,0.954945054945055,1.046007326007326
4.685617431998253,2.0928205128205124,1.2821245421245422,0.356996336996337
4.68673615300213,2.0928205128205124,1.2821245421245422,0.356996336996337
4.687748573996942,2.0928205128205124,1.2821245421245422,0.356996336996337
4.68888597899786,2.0928205128205124,1.2821245421245422,0.356996336996337
4.689023819002614,2.0928205128205124,1.2821245421245422,0.356996336996337
4.696094141996582,2.0928205128205124,1.2821245421245422,0.356996336996337
4.700587316001474,2.0928205128205124,1.2821245421245422,0.356996336996337
4.7021081279963255,2.5344322344322343,0.8695238095238095,1.0653479853479852
4.70874457500031,2.5344322344322343,0.8695238095238095,1.0653479853479852
4.712738795002224,0.9065934065934066,0.17326007326007326,0.6672527472527472
4.716437069000676,2.7326739926739925,1.046007326007326,1.220879120879121
4.720870662997186,2.7326739926739925,1.046007326007326,1.220879120879121
4.7219347240024945,2.7326739926739925,1.046007326007326,1.220879120879121
4.723987520999799,2.7326739926739925,1.046007326007326,1.220879120879121
4.725786001996312,2.7326739926739925,1.046007326007326,1.220879120879121
4.729324335996353,2.7326739926739925,1.046007326007326,1.220879120879121
4.733808926001075,2.7326739926739925,1.046007326007326,1.220879120879121
4.73484837399883,2.7326739926739925,1.046007326007326,1.220879120879121
4.735128756001359,2.7326739926739925,1.046007326007326,1.220879120879121
4.744724160002079,2.7326739926739925,1.046007326007326,1.220879120879121
4.749631231999956,2.6536996336996337,2.9945787545787543,1.9719413919413917
4.753616832000262,2.6536996336996337,2.9945787545787543,1.9719413919413917
4.760723920997407,2.6536996336996337,2.9945787545787543,1.9719413919413917
4.764165950997267,2.6536996336996337,2.9945787545787543,1.9719413919413917
4.764434568001889,0.11765567765567764,0.2361172161172161,0.3578021978021978
4.7690662359964335,0.11765567765567764,0.2361172161172161,0.3578021978021978
4.7693321379992994,0.11765567765567764,0.2361172161172161,0.3578021978021978
4.777438796001661,0.11765567765567764,0.2361172161172161,0.3578021978021978
4.7812523859975045,0.11765567765567764,0.2361172161172161,0.3578021978021978
4.785710324002139,3.3,1.3079120879120878,0.61003663003663
4.787331236002501,3.3,1.3079120879120878,0.61003663003663
4.79470852099621,3.3,1.3079120879120878,0.61003663003663
4.798568936996162,2.6746520146520147,3.3,2.428864468864469
4.803042209001433,2.6746520146520147,3.3,2.428864468864469
4.803866955000558,2.6746520146520147,3.3,2.428864468864469
4.806536971998867,2.6746520146520147,3.3,2.428864468864469
4.811541752998892,1.979194139194139,1.7406593406593407,3.1396336996336993
4.813869632998831,1.979194139194139,1.7406593406593407,3.1396336996336993
4.814777653002238,1.979194139194139,1.7406593406593407,3.1396336996336993
4.815602791997662,1.979194139194139,1.7406593406593407,3.1396336996336993
4.817193276998296,1.979194139194139,1.7406593406593407,3.1396336996336993
4.823147547002009,1.979194139194139,1.7406593406593407,3.1396336996336993
4.828768624000077,3.04051282051282,1.6109157509157508,0.5995604395604395
4.834124184999382,3.04051282051282,1.6109157509157508,0.5995604395604395
4.836360381996201,3.04051282051282,1.6109157509157508,0.5995604395604395
4.836576513000182,3.04051282051282,1.6109157509157508,0.5995604395604395
4.844030100000964,3.04051282051282,1.6109157509157508,0.5995604395604395
4.847802190000948,3.04051282051282,1.6109157509157508,0.5995604395604395
4.852202321002551,3.04051282051282,1.6109157509157508,0.5995604395604395
4.854405778001819,3.04051282051282,1.6109157509157508,0.5995604395604395
4.855371514000581,3.04051282051282,1.6109157509157508,0.5995604395604395
4.857156423997367,3.04051282051282,1.6109157509157508,0.5995604395604395
4.86023913599638,3.04051282051282,1.6109157509157508,0.5995604395604395
4.861143121001078,3.04051282051282,1.6109157509157508,0.5995604395604395
4.8627069869980915,3.04051282051282,1.6109157509157508,0.5995604395604395
4.8671914619990275,3.04051282051282,1.6109157509157508,0.5995604395604395
4.8680876689977595,3.04051282051282,1.6109157509157508,0.5995604395604395
4.869010793001507,3.04051282051282,1.6109157509157508,0.5995604395604395
4.870578592999664,3.04051282051282,1.6109157509157508,0.5995604395604395
4.875001428001269,3.04051282051282,1.6109157509157508,0.5995604395604395
4.876645144999202,3.04051282051282,1.6109157509157508,0.5995604395604395
4.880431017001683,3.04051282051282,1.6109157509157508,0.5995604395604395
4.885625107002852,3.04051282051282,1.6109157509157508,0.5995604395604395
4.890026478002255,0.5391208791208791,0.21435897435897436,0.4851282051282051
4.890333251001721,0.5391208791208791,0.21435897435897436,0.4851282051282051
4.900004032999277,0.5391208791208791,0.21435897435897436,0.4851282051282051
4.909671845998673,2.6609523809523807,3.3,2.295091575091575
4.9154776180002955,2.6609523809523807,3.3,2.295091575091575
4.925447150999389,2.6609523809523807,3.3,2.295091575091575
4.931964868002979,2.6609523809523807,3.3,2.295091575091575
4.936308067000937,2.6609523809523807,3.3,2.295091575091575
4.937465162998706,3.3,0.9734798534798534,0.6720879120879121
4.9377626619971124,3.0775824175824176,0.8703296703296703,0.6946520146520146
4.948132106997946,3.0775824175824176,0.8703296703296703,0.6946520146520146
4.95486446400173,3.3,2.739120879120879,1.8712087912087911
4.961721016996307,3.3,2.739120879120879,1.8712087912087911
4.965646668999398,3.3,1.5641758241758241,0.8284249084249083
4.969369746002485,3.0227838827838824,1.8575091575091573,2.597289377289377
4.9766145550020155,3.0227838827838824,1.8575091575091573,2.597289377289377
4.980498828997952,2.4038827838827834,0.7671794871794871,1.6866666666666665
4.984973421996983,2.4038827838827834,0.7671794871794871,1.6866666666666665
4.985849684999266,2.7778021978021976,1.5077655677655677,0.47706959706959706
4.9881160509976326,2.7778021978021976,1.5077655677655677,0.47706959706959706
4.988351651998528,2.7778021978021976,1.5077655677655677,0.47706959706959706
4.994771634002973,2.7778021978021976,1.5077655677655677,0.47706959706959706
4.99849414700293,2.7778021978021976,1.5077655677655677,0.47706959706959706
5.003611687003286,2.7778021978021976,1.5077655677655677,0.47706959706959706
5.009277377001126,2.7778021978021976,1.5077655677655677,0.47706959706959706
5.014620103997004,2.7778021978021976,1.5077655677655677,0.47706959706959706
5.016943857001024,3.258095238095238,2.336996336996337,1.3312820512820513
5.017224445997272,3.258095238095238,2.336996336996337,1.3312820512820513
5.02239277499757,3.258095238095238,2.336996336996337,1.3312820512820513
5.02741216099821,3.258095238095238,2.336996336996337,1.3312820512820513
5.029033318001893,3.258095238095238,2.336996336996337,1.3312820512820513
5.032746514996688,3.258095238095238,2.336996336996337,1.3312820512820513
5.032853247997991,3.258095238095238,2.336996336996337,1.3312820512820513
5.037384894996649,3.258095238095238,2.336996336996337,1.3312820512820513
5.037893970002187,3.258095238095238,2.336996336996337,1.3312820512820513
5.043922962999204,3.258095238095238,2.336996336996337,1.3312820512820513
5.047663475001173,0.6728937728937728,0.15956043956043955,0.5165567765567766
5.053031374998682,0.6728937728937728,0.15956043956043955,0.5165567765567766
5.056074360996718,0.6728937728937728,0.15956043956043955,0.5165567765567766
5.058383442003105,0.6728937728937728,0.15956043956043955,0.5165567765567766
5.058542521001073,0.6728937728937728,0.15956043956043955,0.5165567765567766
5.0629938729980495,0.6728937728937728,0.15956043956043955,0.5165567765567766
5.065356316001271,0.6728937728937728,0.15956043956043955,0.5165567765567766
5.065543226002774,0.6728937728937728,0.15956043956043955,0.5165567765567766
5.071414222002204,0.6728937728937728,0.15956043956043955,0.5165567765567766
5.071547268002178,0.6728937728937728,0.15956043956043955,0.5165567765567766
5.076496724002936,0.6728937728937728,0.15956043956043955,0.5165567765567766
5.076592466997681,0.6728937728937728,0.15956043956043955,0.5165567765567766
5.081840758997714,0.6728937728937728,0.15956043956043955,0.5165567765567766
5.084345677998499,0.6728937728937728,0.15956043956043955,0.5165567765567766
5.084449925001536,0.6728937728937728,0.15956043956043955,0.5165567765567766
5.089636926997628,0.6728937728937728,0.15956043956043955,0.5165567765567766
5.093453798996052,0.6728937728937728,0.15956043956043955,0.5165567765567766
5.098183119996975,2.6794871794871793,3.3,2.46029304029304
5.098361828000634,2.6794871794871793,3.3,2.46029304029304
5.103006618002837,2.6794871794871793,3.3,2.46029304029304
5.1031732319970615,2.6794871794871793,3.3,2.46029304029304
5.108757576999778,2.6794871794871793,3.3,2.46029304029304
5.109612307998759,2.6794871794871793,3.3,2.46029304029304
5.111296337003296,2.6794871794871793,3.3,2.46029304029304
5.11555235600099,2.6794871794871793,3.3,2.46029304029304
5.117588993998652,1.9558241758241757,0.5890842490842491,1.274871794871795
5.11876055799803,1.9558241758241757,0.5890842490842491,1.274871794871795
5.119047836997197,1.9558241758241757,0.5890842490842491,1.274871794871795
5.126182250998681,1.9558241758241757,0.5890842490842491,1.274871794871795
5.130312305002008,0.3473260073260073,0.5286446886446886,0.30058608058608055
5.133297553002194,0.3473260073260073,0.5286446886446886,0.30058608058608055
5.136244526001974,0.3473260073260073,0.5286446886446886,0.30058608058608055
5.14164341599826,2.3716483516483513,0.7067399267399267,1.0838827838827838
5.143562320001365,2.9663736263736262,0.846153846153846,0.4754578754578754
5.1457699189995765,2.9663736263736262,0.846153846153846,0.4754578754578754
5.146634320000885,0.8582417582417583,0.224029304029304,0.6785347985347985
5.1482484610023675,0.8582417582417583,0.224029304029304,0.6785347985347985
5.152726663996873,0.8582417582417583,0.224029304029304,0.6785347985347985
5.15355618600006,0.8582417582417583,0.224029304029304,0.6785347985347985
5.155238154999097,0.8582417582417583,0.224029304029304,0.6785347985347985
5.1599281989983865,3.046959706959707,0.9404395604395603,0.9823443223443222
5.160076416002994,3.2903296703296703,1.008937728937729,0.9605860805860806
5.164911690997542,3.2903296703296703,1.008937728937729,0.9605860805860806
5.170328187996347,3.2903296703296703,1.008937728937729,0.9605860805860806
5.172210716002155,1.904249084249084,1.9123076923076923,3.2750183150183148
5.174896108001121,1.904249084249084,1.9123076923076923,3.2750183150183148
5.178715779999038,1.904249084249084,1.9123076923076923,3.2750183150183148
5.183241088001523,2.689157509157509,0.8276190476190476,1.3731868131868132
5.183537873002933,2.689157509157509,0.8276190476190476,1.3731868131868132
5.188418047000596,2.689157509157509,0.8276190476190476,1.3731868131868132
5.1928120770026,2.689157509157509,0.8276190476190476,1.3731868131868132
5.194415787002072,2.689157509157509,0.8276190476190476,1.3731868131868132
5.198108135002258,2.689157509157509,0.8276190476190476,1.3731868131868132
5.1982591319974745,2.689157509157509,0.8276190476190476,1.3731868131868132
5.20261010700051,2.689157509157509,0.8276190476190476,1.3731868131868132
5.204871121000906,3.1968498168498165,1.6979487179487176,0.6326007326007326
5.205202794997604,3.1968498168498165,1.6979487179487176,0.6326007326007326
5.211037349996332,3.1968498168498165,1.6979487179487176,0.6326007326007326
5.216049467002449,3.1968498168498165,1.6979487179487176,0.6326007326007326
5.2211344039969845,3.1968498168498165,1.6979487179487176,0.6326007326007326
5.2254821460010135,3.1968498168498165,1.6979487179487176,0.6326007326007326
5.2263441890027025,3.1968498168498165,1.6979487179487176,0.6326007326007326
5.227900457000942,3.1968498168498165,1.6979487179487176,0.6326007326007326
5.232318538997788,3.1968498168498165,1.6979487179487176,0.6326007326007326
5.2332293020008365,3.1968498168498165,1.6979487179487176,0.6326007326007326
5.234783328996855,3.1968498168498165,1.6979487179487176,0.6326007326007326
5.239208826998947,2.735897435897436,0.8695238095238095,1.3796336996336995
5.240031125998939,2.735897435897436,0.8695238095238095,1.3796336996336995
5.241590874000394,2.735897435897436,0.8695238095238095,1.3796336996336995
5.245969884002989,2.735897435897436,0.8695238095238095,1.3796336996336995
5.24688120099745,2.735897435897436,0.8695238095238095,1.3796336996336995
5.248473906001891,2.735897435897436,0.8695238095238095,1.3796336996336995
5.252221055001428,2.735897435897436,0.8695238095238095,1.3796336996336995
5.257474024001567,2.7125274725274724,1.810769230769231,1.2506959706959706
5.259937902999809,2.7125274725274724,1.810769230769231,1.2506959706959706
5.260072108998429,2.7125274725274724,1.810769230769231,1.2506959706959706
5.265246014998411,2.7125274725274724,1.810769230769231,1.2506959706959706
5.268192176998127,2.7125274725274724,1.810769230769231,1.2506959706959706
5.270514105002803,2.7125274725274724,1.810769230769231,1.2506959706959706
5.270805455998925,2.7125274725274724,1.810769230769231,1.2506959706959706
5.275392258998181,2.7125274725274724,1.810769230769231,1.2506959706959706
5.2762736860022414,2.7125274725274724,1.810769230769231,1.2506959706959706
5.277833526000904,2.7125274725274724,1.810769230769231,1.2506959706959706
5.282239462998405,2.7125274725274724,1.810769230769231,1.2506959706959706
5.283058626999264,2.7125274725274724,1.810769230769231,1.2506959706959706
5.284621651000634,2.7125274725274724,1.810769230769231,1.2506959706959706
5.288365558000805,2.7125274725274724,1.810769230769231,1.2506959706959706
5.293457774998387,2.7125274725274724,1.810769230769231,1.2506959706959706
5.297832782001933,2.7125274725274724,1.810769230769231,1.2506959706959706
5.299359099997673,2.7125274725274724,1.810769230769231,1.2506959706959706
5.3037137020000955,3.0115018315018314,0.9686446886446887,1.1346520146520145
5.305349713999021,3.0115018315018314,0.9686446886446887,1.1346520146520145
5.308892743996694,3.0115018315018314,0.9686446886446887,1.1346520146520145
5.309064458000648,3.0115018315018314,0.9686446886446887,1.1346520146520145
5.3150271699996665,3.0115018315018314,0.9686446886446887,1.1346520146520145
5.319360305998998,3.0115018315018314,0.9686446886446887,1.1346520146520145
5.320939063996775,2.8664468864468864,0.9331868131868131,1.212014652014652
5.325516388998949,2.8664468864468864,0.9331868131868131,1.212014652014652
5.325693865997891,2.8664468864468864,0.9331868131868131,1.212014652014652
5.330844320000324,2.8664468864468864,0.9331868131868131,1.212014652014652
5.333856190998631,2.8664468864468864,0.9331868131868131,1.212014652014652
5.337053707997256,2.8664468864468864,0.9331868131868131,1.212014652014652
5.337973221001448,2.8664468864468864,0.9331868131868131,1.212014652014652
5.339514901002985,2.8664468864468864,0.9331868131868131,1.212014652014652
5.343162664001284,2.8664468864468864,0.9331868131868131,1.212014652014652
5.348584341001697,2.8664468864468864,0.9331868131868131,1.212014652014652
5.350196669001889,2.4796336996336996,1.6205860805860803,2.15003663003663
5.3540396349999355,2.4796336996336996,1.6205860805860803,2.15003663003663
5.358377593001933,2.4796336996336996,1.6205860805860803,2.15003663003663
5.359973960003117,2.9905494505494503,0.913040293040293,0.9283516483516483
5.364832530001877,2.9905494505494503,0.913040293040293,0.9283516483516483
5.369641780998791,2.9147985347985346,2.6609523809523807,1.676190476190476
5.377285467002366,2.9147985347985346,2.6609523809523807,1.676190476190476
5.382068312996125,2.8503296703296703,1.1942857142857142,2.1443956043956045
5.387510417000158,2.8503296703296703,1.1942857142857142,2.1443956043956045
5.387870765996922,2.8503296703296703,1.1942857142857142,2.1443956043956045
5.398753570996632,2.8503296703296703,1.1942857142857142,2.1443956043956045
5.408414578996599,2.8503296703296703,1.1942857142857142,2.1443956043956045
5.416496234000078,2.8503296703296703,1.1942857142857142,2.1443956043956045
5.42410546100291,2.8503296703296703,1.1942857142857142,2.1443956043956045
5.428595370001858,2.8503296703296703,1.1942857142857142,2.1443956043956045
5.428738356997201,2.8503296703296703,1.1942857142857142,2.1443956043956045
5.434159735996218,2.8503296703296703,1.1942857142857142,2.1443956043956045
5.435723524999048,1.2998534798534798,0.6084249084249085,2.017875457875458
5.442906251002569,1.2998534798534798,0.6084249084249085,2.017875457875458
5.446878381000715,1.2998534798534798,0.6084249084249085,2.017875457875458
5.450751076998131,1.2998534798534798,0.6084249084249085,2.017875457875458
5.454594624003221,1.2998534798534798,0.6084249084249085,2.017875457875458
5.461246671999106,0.726080586080586,0.2328937728937729,1.8131868131868132
5.465082716000325,3.2645421245421247,0.9686446886446887,0.3626373626373626
5.470363585998712,1.5931868131868132,1.0331135531135531,0.3312087912087912
5.475011198002903,2.3563369963369962,1.0879120879120878,1.4876190476190476
5.480545033999078,2.3563369963369962,1.0879120879120878,1.4876190476190476
5.48085872700176,2.3563369963369962,1.0879120879120878,1.4876190476190476
5.485429266998835,2.3563369963369962,1.0879120879120878,1.4876190476190476
5.485691670000961,2.3563369963369962,1.0879120879120878,1.4876190476190476
5.492973947002611,1.157216117216117,0.31509157509157504,1.0016849816849815
5.496831293996365,1.157216117216117,0.31509157509157504,1.0016849816849815
5.501285247999476,1.157216117216117,0.31509157509157504,1.0016849816849815
5.502114012997481,1.157216117216117,0.31509157509157504,1.0016849816849815
5.503994040001999,1.157216117216117,0.31509157509157504,1.0016849816849815
5.509095082001295,1.157216117216117,0.31509157509157504,1.0016849816849815
5.5110462279990315,2.324102564102564,1.2192673992673992,1.6455677655677654
5.512640891996853,2.5030036630036627,0.9904029304029303,1.244249084249084
5.516951391000475,2.5030036630036627,0.9904029304029303,1.244249084249084
5.519136411996442,2.5030036630036627,0.9904029304029303,1.244249084249084
5.519459894996544,2.5030036630036627,0.9904029304029303,1.244249084249084
5.525513355998555,2.5030036630036627,0.9904029304029303,1.244249084249084
5.529178283002693,2.6617582417582417,3.3,2.27010989010989
5.529299786998308,2.6617582417582417,3.3,2.27010989010989
5.534332358998654,2.6617582417582417,3.3,2.27010989010989
5.538518913999724,2.6617582417582417,3.3,2.27010989010989
5.542797417001566,2.9567032967032967,0.9452747252747251,1.1644688644688646
5.543069747996924,2.9567032967032967,0.9452747252747251,1.1644688644688646
5.5477501429995755,2.9567032967032967,0.9452747252747251,1.1644688644688646
5.547949537001841,0.7542857142857142,0.14424908424908423,0.6736996336996337
5.553005961002782,0.7542857142857142,0.14424908424908423,0.6736996336996337
5.558430466000573,0.7542857142857142,0.14424908424908423,0.6736996336996337
5.559985154999595,0.7542857142857142,0.14424908424908423,0.6736996336996337
5.563914165999449,0.7542857142857142,0.14424908424908423,0.6736996336996337
5.567706032998103,0.7542857142857142,0.14424908424908423,0.6736996336996337
5.573041381001531,0.9033699633699634,0.21274725274725276,0.7027106227106227
5.575636987996404,0.9033699633699634,0.21274725274725276,0.7027106227106227
5.579472782002995,0.9033699633699634,0.21274725274725276,0.7027106227106227
5.583902808997664,0.9033699633699634,0.21274725274725276,0.7027106227106227
5.584771223002463,0.9033699633699634,0.21274725274725276,0.7027106227106227
5.586395004000224,0.9033699633699634,0.21274725274725276,0.7027106227106227
5.590656676002254,0.9033699633699634,0.21274725274725276,0.7027106227106227
5.593017006998707,3.3,2.8535531135531134,1.5536996336996336
5.59317200499936,3.3,1.5609523809523809,2.145201465201465
5.597912833000009,3.3,1.5609523809523809,2.145201465201465
5.598098324000603,3.2806593406593407,1.0234432234432234,0.838095238095238
5.602644933002011,3.2806593406593407,1.0234432234432234,0.838095238095238
5.6029078110004775,3.2806593406593407,1.0234432234432234,0.838095238095238
5.608387861000665,3.2806593406593407,1.0234432234432234,0.838095238095238
5.609239404002437,3.2806593406593407,1.0234432234432234,0.838095238095238
5.610833935999835,3.2806593406593407,1.0234432234432234,0.838095238095238
5.614921519001655,3.2806593406593407,1.0234432234432234,0.838095238095238
5.617169696997735,3.2806593406593407,1.0234432234432234,0.838095238095238
5.617431460996158,3.001831501831502,0.9202930402930403,1.1781684981684981
5.621919101999083,3.001831501831502,0.9202930402930403,1.1781684981684981
5.623902514002111,3.001831501831502,0.9202930402930403,1.1781684981684981
5.626806676998967,3.001831501831502,0.9202930402930403,1.1781684981684981
5.630499343002157,3.001831501831502,0.9202930402930403,1.1781684981684981
5.636010501999408,3.3,2.577948717948718,1.5327472527472528
5.6482758380007,3.3,1.3796336996336995,2.0984615384615384
5.658713094999257,3.3,1.3796336996336995,2.0984615384615384
5.667377090001537,2.339413919413919,1.0347252747252746,1.1918681318681317
5.676378962001763,0.8614652014652014,0.15633699633699633,0.5995604395604395
5.682082865998382,0.8614652014652014,0.15633699633699633,0.5995604395604395
5.691863822001324,0.8614652014652014,0.15633699633699633,0.5995604395604395
5.696025083998393,2.453846153846154,1.6576556776556775,2.1556776556776556
5.6989356220001355,2.453846153846154,1.6576556776556775,2.1556776556776556
5.702215176999744,2.453846153846154,1.6576556776556775,2.1556776556776556
5.702549053996336,2.453846153846154,1.6576556776556775,2.1556776556776556
5.70987949299888,2.453846153846154,1.6576556776556775,2.1556776556776556
5.713746565001202,2.453846153846154,1.6576556776556775,2.1556776556776556
5.719089068996254,2.453846153846154,1.6576556776556775,2.1556776556776556
5.721252844996343,2.453846153846154,1.6576556776556775,2.1556776556776556
5.721581357000105,2.453846153846154,1.6576556776556775,2.1556776556776556
5.728084914997453,2.453846153846154,1.6576556776556775,2.1556776556776556
5.73188890000165,2.453846153846154,1.6576556776556775,2.1556776556776556
5.740290649999224,2.453846153846154,1.6576556776556775,2.1556776556776556
5.744070455999463,2.453846153846154,1.6576556776556775,2.1556776556776556
5.7493714250013,0.7849084249084248,0.13216117216117215,0.6261538461538461
5.752546659998188,0.7849084249084248,0.13216117216117215,0.6261538461538461
5.754150961001869,2.6665934065934067,3.3,2.287032967032967
5.760072534998471,2.6665934065934067,3.3,2.287032967032967
5.763922384001489,2.6665934065934067,3.3,2.287032967032967
5.7677588279984775,1.0798534798534798,0.8469597069597068,0.25465201465201465
5.774101417999191,1.0798534798534798,0.8469597069597068,0.25465201465201465
5.778444347000914,2.9695970695970697,3.0227838827838824,1.7809523809523808
5.778692931999103,2.9695970695970697,3.0227838827838824,1.7809523809523808
5.783979141997406,2.9695970695970697,3.0227838827838824,1.7809523809523808
5.786398919997737,2.9695970695970697,3.0227838827838824,1.7809523809523808
5.796200787997805,2.9695970695970697,3.0227838827838824,1.7809523809523808
5.802827917003015,2.2064468864468862,1.2531135531135529,1.7366300366300367
5.809704717001296,2.2064468864468862,1.2531135531135529,1.7366300366300367
5.81377946199791,2.2064468864468862,1.2531135531135529,1.7366300366300367
5.816739722999046,2.2064468864468862,1.2531135531135529,1.7366300366300367
5.819656214000133,2.2064468864468862,1.2531135531135529,1.7366300366300367
5.8237993649963755,2.2064468864468862,1.2531135531135529,1.7366300366300367
5.826121250000142,2.2064468864468862,1.2531135531135529,1.7366300366300367
5.831715858003008,2.2064468864468862,1.2531135531135529,1.7366300366300367
5.832559932001459,2.2064468864468862,1.2531135531135529,1.7366300366300367
5.83437819199753,2.2064468864468862,1.2531135531135529,1.7366300366300367
5.838523557998997,2.2064468864468862,1.2531135531135529,1.7366300366300367
5.842172933000256,2.8358241758241753,0.9275457875457875,1.2732600732600732
5.8454568259985535,2.8358241758241753,0.9275457875457875,1.2732600732600732
5.845732540998142,2.8358241758241753,0.9275457875457875,1.2732600732600732
5.850891715002945,2.8358241758241753,0.9275457875457875,1.2732600732600732
5.857063174997165,2.8358241758241753,0.9275457875457875,1.2732600732600732
5.8607939170033205,3.09047619047619,0.9767032967032967,1.0701831501831502
5.865889296001114,3.09047619047619,0.9767032967032967,1.0701831501831502
5.871618534001755,3.09047619047619,0.9767032967032967,1.0701831501831502
5.8818543829984264,3.09047619047619,0.9767032967032967,1.0701831501831502
5.887154529998952,0.06769230769230769,0.17326007326007326,1.859120879120879
5.893258441996295,0.06769230769230769,0.17326007326007326,1.859120879120879
5.896877503000724,0.06769230769230769,0.17326007326007326,1.859120879120879
5.902137703000335,0.06769230769230769,0.17326007326007326,1.859120879120879
5.905909913999494,0.06769230769230769,0.17326007326007326,1.859120879120879
5.910805355000775,0.8324542124542124,0.12732600732600732,0.70996336996337
5.91528816200298,0.8324542124542124,0.12732600732600732,0.70996336996337
5.91557362399908,0.8324542124542124,0.12732600732600732,0.70996336996337
