time,emg1,emg2,emg3
0.0021418130017991643,0.0,0.004835164835164835,0.0
0.03524322600060259,0.0,0.004835164835164835,0.0
0.05354917300064699,0.0,0.004835164835164835,0.0
0.053746641002362594,0.0,0.004835164835164835,0.0
0.06335901500278851,0.0,0.004835164835164835,0.0
0.07091397900148877,0.0,0.004835164835164835,0.0
0.07626452000113204,0.0,0.004835164835164835,0.0
0.07887651700002607,0.0,0.0,0.012893772893772894
0.08242682399941259,0.0,0.0,0.012893772893772894
0.0825790290000441,0.0,0.0,0.0
0.08888705400022445,0.0,0.0,0.0
0.09263804900183459,0.0,0.0,0.0
0.09869013700154028,0.0,0.0,0.0
0.10212084500017227,0.0,0.0,0.08864468864468865
0.10233994000009261,0.0,0.0,0.08864468864468865
0.10832077300074161,0.0,0.0,0.08864468864468865
0.11314427500110469,0.0,0.0,0.08864468864468865
0.11883289300021715,0.0,0.0,0.08864468864468865
0.11906292300045607,0.0,0.0,0.08864468864468865
0.12445879000006244,0.0,0.0,0.08864468864468865
0.12668886400206247,0.0,0.0,0.08864468864468865
0.12688691100265714,0.0,0.0,0.08864468864468865
0.13206212200020673,0.0,0.0,0.016117216117216115
0.13584945700131357,0.0,0.0,0.006446886446886447
0.14110964000064996,0.0,0.0,0.006446886446886447
0.14281029099947773,0.0,0.0,0.006446886446886447
0.14936242800104083,0.0,0.0008058608058608059,0.010476190476190476
0.1524021810000704,0.0,0.0008058608058608059,0.010476190476190476
0.15545917700001155,0.0,0.00967032967032967,0.0
0.15841963999992004,0.0,0.00967032967032967,0.0
0.161477781002759,0.0,0.00967032967032967,0.0
0.16306333800093853,0.0,0.00967032967032967,0.0
0.16683882500001346,0.0,0.00967032967032967,0.0
0.1714683630016225,0.0,0.00967032967032967,0.0
0.1715728780000063,0.0,0.00967032967032967,0.0
0.17689735500243842,0.0,0.00967032967032967,0.0
0.17916111900194664,0.0,0.007252747252747252,0.0
0.1794343130022753,0.0,0.007252747252747252,0.0
0.18503780900209676,0.0,0.007252747252747252,0.0
0.18532027599940193,0.0,0.007252747252747252,0.0
0.19072655600029975,0.0,0.007252747252747252,0.0
0.19159693500114372,0.0,0.0008058608058608059,0.0
0.19314583700179355,0.0,0.0008058608058608059,0.0
0.19831461000285344,0.0,0.0008058608058608059,0.0
0.2007459119995474,0.0,0.0008058608058608059,0.0
0.20660682900052052,0.0,0.0008058608058608059,0.0
0.21153063500241842,0.0,0.0008058608058608059,0.0
0.2203074499993818,0.0,0.0008058608058608059,0.0
0.22662019900235464,0.0,0.0008058608058608059,0.0
0.2341513630017289,0.0,0.0008058608058608059,0.0
0.23868341100023827,0.0,0.0008058608058608059,0.0
0.23882889600281487,0.0,0.0024175824175824176,0.0273992673992674
0.2443962899997132,0.0,0.0024175824175824176,0.0273992673992674
0.24532478300170624,0.0,0.0024175824175824176,0.0136996336996337
0.24625808900236734,0.0,0.0024175824175824176,0.0136996336996337
0.24833416100227623,0.0,0.0024175824175824176,0.0136996336996337
0.24855565700272564,0.0,0.0024175824175824176,0.0136996336996337
0.25432954899952165,0.0,0.0024175824175824176,0.0136996336996337
0.2600967780017527,0.0,0.0024175824175824176,0.0136996336996337
0.264595153999835,0.0,0.004029304029304029,0.016923076923076923
0.26479959599964786,0.0,0.0,0.0
0.27091712599940365,0.0,0.0,0.0
0.2747754010015342,0.0,0.0,0.0
0.2795085870020557,0.0,0.0,0.0
0.28773853100210545,0.0,0.0024175824175824176,0.01934065934065934
0.29249545499988017,0.0,0.0024175824175824176,0.01934065934065934
0.30259199300053297,0.0,0.0024175824175824176,0.01934065934065934
0.3066995080007473,0.0,0.0024175824175824176,0.01934065934065934
0.3099683210020885,0.0,0.0024175824175824176,0.01934065934065934
0.31147291399975074,0.0,0.0024175824175824176,0.01934065934065934
0.31773321100263274,0.0,0.0024175824175824176,0.01934065934065934
0.3211043330011307,0.0,0.0024175824175824176,0.01934065934065934
0.32132863300284953,0.0,0.0024175824175824176,0.01934065934065934
0.32667914100238704,0.0,0.0024175824175824176,0.01934065934065934
0.32823215700045694,0.0,0.0024175824175824176,0.01934065934065934
0.3333061209996231,0.0,0.0024175824175824176,0.01934065934065934
0.33601027900294866,0.0,0.0024175824175824176,0.01934065934065934
0.3396621470019454,0.0,0.0024175824175824176,0.01934065934065934
0.34482258100251784,0.0,0.0,0.0032234432234432234
0.3464560270003858,0.0,0.0,0.0032234432234432234
0.3539547870022943,0.0,0.0,0.0032234432234432234
0.35870223399979295,0.0,0.0,0.0032234432234432234
0.36431099900073605,0.0,0.0,0.0032234432234432234
0.36441315400224994,0.0,0.0,0.0032234432234432234
0.3709000199996808,0.0,0.0,0.0032234432234432234
0.37493526600155747,0.0,0.0,0.0032234432234432234
0.3780702450021636,0.0,0.0,0.0032234432234432234
0.37958692200118094,0.0,0.0,0.0032234432234432234
0.3867535419994965,0.0,0.0,0.0032234432234432234
0.3925476490003348,0.0,0.0,0.0032234432234432234
0.39274481200118316,0.0,0.0024175824175824176,0.0
0.4036297359998571,0.0,0.0024175824175824176,0.0
0.4117161060021317,0.0,0.0024175824175824176,0.0
0.41823283600024297,0.0,0.0,0.0
0.42156288900150685,0.0,0.0,0.0
0.4224082990003808,0.0,0.0,0.0
0.424028099001589,0.0,0.004835164835164835,0.0
0.4274433840000711,0.0,0.004835164835164835,0.0
0.42757602400160977,0.0,0.0032234432234432234,0.008058608058608058
0.4366915220016381,0.0,0.0032234432234432234,0.008058608058608058
0.4408142080028483,0.0,0.0032234432234432234,0.008058608058608058
0.44326420099969255,0.0,0.0032234432234432234,0.008058608058608058
0.4433606439997675,0.0,0.0032234432234432234,0.008058608058608058
0.45247241600009147,0.0,0.0032234432234432234,0.008058608058608058
0.4573458570012008,0.0,0.0032234432234432234,0.008058608058608058
0.46291227000256185,0.0,0.0032234432234432234,0.008058608058608058
0.4629891549993772,0.0,0.0032234432234432234,0.008058608058608058
0.47102437099965755,0.0,0.0032234432234432234,0.008058608058608058
0.47566560600171215,0.0,0.0032234432234432234,0.008058608058608058
0.4758565650008677,0.0,0.0032234432234432234,0.008058608058608058
0.48134619900156395,0.0,0.0032234432234432234,0.008058608058608058
0.48159053700146615,0.0,0.004029304029304029,0.0
0.486812112001644,0.0,0.004835164835164835,0.0008058608058608059
0.48989894400074263,0.0,0.004835164835164835,0.0008058608058608059
0.4916863479993481,0.0,0.004835164835164835,0.0008058608058608059
0.49474972800089745,0.0,0.004835164835164835,0.0008058608058608059
0.4970454200010863,0.0,0.004835164835164835,0.0008058608058608059
0.4973024870014342,0.0,0.004835164835164835,0.0008058608058608059
0.5037810750000062,0.0,0.004835164835164835,0.0008058608058608059
0.5077796260011382,0.0,0.0032234432234432234,0.007252747252747252
0.5101472530004685,0.0,0.005641025641025641,0.0
0.5104141459996754,0.0,0.005641025641025641,0.0
0.516461014001834,0.0,0.005641025641025641,0.0
0.5206613690024824,0.0,0.005641025641025641,0.0
0.5215628810001363,0.0,0.005641025641025641,0.0
0.5231891120020009,0.0,0.005641025641025641,0.0
0.5263625430015964,0.0,0.005641025641025641,0.0
0.5280022959996131,0.0,0.0008058608058608059,0.0
0.5311240650007676,0.0,0.004835164835164835,0.0
0.5322135540009185,0.0,0.004835164835164835,0.0
0.5324445760015806,0.0,0.004835164835164835,0.0
0.5388712800013309,0.0,0.004835164835164835,0.0
0.5427826289997029,0.0,0.004835164835164835,0.0
0.5476687320006022,0.0,0.004835164835164835,0.0
0.5550218140015204,0.0,0.004029304029304029,0.0
0.5597011890022259,0.0,0.004029304029304029,0.0
0.5598785639995185,0.0,0.004029304029304029,0.0
0.5668362680007704,0.0,0.004029304029304029,0.0
0.5703234760003397,0.0,0.004029304029304029,0.0
0.5705210950000037,0.0,0.004029304029304029,0.0
0.5763778580003418,0.0,0.004029304029304029,0.0
0.5827793419994123,0.0,0.004029304029304029,0.0
0.5878037430011318,0.0,0.004029304029304029,0.0
0.590168373000779,0.0,0.004029304029304029,0.0
0.5903507110015198,0.0,0.004029304029304029,0.0
0.5955654860008508,0.0,0.004029304029304029,0.0
0.5996747429999232,0.0,0.0,0.0
0.6019956189993536,0.0,0.0008058608058608059,0.004029304029304029
0.6074656970013166,0.0,0.011282051282051281,0.0008058608058608059
0.6097379189995991,0.0,0.011282051282051281,0.0008058608058608059
0.6099997170022107,0.0,0.011282051282051281,0.0008058608058608059
0.6184945750028419,0.0,0.011282051282051281,0.0008058608058608059
0.6223992580016784,0.0,0.011282051282051281,0.0008058608058608059
0.6262028150013066,0.0,0.011282051282051281,0.0008058608058608059
0.6307641150015115,0.0,0.0,0.017728937728937726
0.6308904659999826,0.0,0.0,0.017728937728937726
0.6395282209996367,0.0,0.0,0.017728937728937726
0.6439903919999779,0.0,0.004835164835164835,0.00967032967032967
0.6443323160019645,0.0,0.008058608058608058,0.0
0.6510774920025142,0.0,0.008058608058608058,0.0
0.6544292700018559,0.0,0.008058608058608058,0.0
0.6552750800001377,0.0,0.0,0.04593406593406593
0.6568911690010282,0.0,0.0,0.04593406593406593
0.6606282390021079,0.0,0.0,0.04593406593406593
0.6690775830029452,0.0,0.0032234432234432234,0.0024175824175824176
0.6740255900003831,0.0,0.014505494505494505,0.01531135531135531
0.6770916400018905,0.0,0.014505494505494505,0.01531135531135531
0.6786974019996705,0.0,0.0032234432234432234,0.029816849816849816
0.6853380210013711,0.0,0.0032234432234432234,0.029816849816849816
0.6888138560025254,0.0,0.0,0.012087912087912087
0.688976403002016,0.0,0.0,0.0016117216117216117
0.6944011910018162,0.0,0.0,0.0016117216117216117
0.6952468400013458,0.0,0.0,0.0016117216117216117
0.6971309820000897,0.0,0.0,0.0016117216117216117
0.6999545390026469,0.0,0.0,0.0016117216117216117
0.7040826060001564,0.0,0.0,0.0016117216117216117
0.705679044000135,0.0,0.0,0.0016117216117216117
0.7103278569993563,0.0,0.0,0.008864468864468863
0.7105239520024043,0.0,0.0,0.008864468864468863
0.7182802950010228,0.0,0.0,0.008864468864468863
0.7226249910017941,0.0,0.0,0.008864468864468863
0.7235031449999951,0.0,0.0,0.004835164835164835
0.7252047830006632,0.0,0.0,0.004835164835164835
0.7283884190001118,0.0,0.0,0.004835164835164835
0.7301011900017329,0.0,0.0,0.004835164835164835
0.7349620770000911,0.0,0.0,0.004835164835164835
0.7374943840004562,0.0,0.0,0.004835164835164835
0.7421184609993361,0.0,0.0,0.004835164835164835
0.7423319980007363,0.0,0.011282051282051281,0.020146520146520144
0.7477630810026312,0.0,0.011282051282051281,0.020146520146520144
0.7488820649996342,0.0,0.0,0.0
0.7491982630017446,0.0,0.0,0.0
0.7555285580019699,0.0,0.0,0.0
0.7594082050018187,0.0,0.0,0.0
0.7633465979997709,0.0,0.0,0.0
0.7714578609993623,0.0,0.0,0.0
0.7762197690026369,0.0,0.0,0.0
0.7828575540006568,0.0,0.012893772893772894,0.0
0.788164339002833,0.0,0.012893772893772894,0.0
0.7890963710015058,0.0,0.0032234432234432234,0.0016117216117216117
0.7899516290017345,0.0,0.0032234432234432234,0.0016117216117216117
0.7915722850011662,0.0,0.0032234432234432234,0.0016117216117216117
0.7955082620028406,0.0,0.0032234432234432234,0.0016117216117216117
0.8013999720024003,0.0,0.0032234432234432234,0.0016117216117216117
0.8049076860006608,0.0,0.0032234432234432234,0.0016117216117216117
0.8051410950029094,0.0,0.0032234432234432234,0.0016117216117216117
0.8109196130026248,0.0,0.0032234432234432234,0.0016117216117216117
0.8173267470010614,0.0,0.0,0.007252747252747252
0.8208080139993399,0.0,0.010476190476190476,0.0008058608058608059
0.8209434490017884,0.0,0.010476190476190476,0.0008058608058608059
0.8265434320019267,0.0,0.010476190476190476,0.0008058608058608059
0.8266308430029312,0.0,0.0,0.008058608058608058
0.8341215170003125,0.0,0.0,0.008058608058608058
0.8409366090018011,0.0,0.0,0.008058608058608058
0.845501884999976,0.0,0.005641025641025641,0.008864468864468863
0.8456246060013655,0.0,0.005641025641025641,0.008864468864468863
0.8548041710018879,0.0,0.005641025641025641,0.008864468864468863
0.8592643660012982,0.0,0.005641025641025641,0.008864468864468863
0.8607792680013517,0.0,0.005641025641025641,0.008864468864468863
0.867031408000912,0.0,0.005641025641025641,0.008864468864468863
0.8704375870001968,0.0,0.0,0.0
0.8706247040026938,0.0,0.0,0.0
0.8760230560001219,0.0,0.0,0.0
0.8768706219998421,0.0,0.0,0.0
0.8791608020001149,0.0,0.0,0.0
0.8793189509997319,0.0,0.0,0.0
0.8860468290004064,0.0,0.0,0.0
0.8898010480006633,0.0,0.0,0.0
0.8942222139994556,0.0,0.0,0.006446886446886447
0.8959334050014149,0.0,0.0,0.006446886446886447
0.8997627160024422,0.0,0.0,0.006446886446886447
0.9033360440007527,0.0,0.0,0.006446886446886447
0.9089439859999402,0.0,0.0,0.006446886446886447
0.9097204270001384,0.0,0.0,0.006446886446886447
0.9112915610021446,0.0,0.0,0.006446886446886447
0.9178751409999677,0.0,0.0,0.006446886446886447
0.922208137002599,0.0,0.0,0.006446886446886447
0.923086039001646,0.0,0.005641025641025641,0.029816849816849816
0.9246651450011996,0.0,0.005641025641025641,0.029816849816849816
0.9286346990011225,0.0,0.005641025641025641,0.029816849816849816
0.9332599580011447,0.0,0.005641025641025641,0.029816849816849816
0.933399425000971,0.0,0.005641025641025641,0.029816849816849816
0.9384762410008989,0.0,0.005641025641025641,0.029816849816849816
0.940886798001884,0.0,0.0016117216117216117,0.0
0.9461892030012677,0.0,0.0016117216117216117,0.0
0.9506010660006723,0.0,0.0016117216117216117,0.0
0.9555794920015614,0.0,0.0016117216117216117,0.0
0.9594040400006634,0.0,0.0016117216117216117,0.0
0.9648153750022175,0.0,0.0016117216117216117,0.0
0.9659982500015758,0.0,0.0016117216117216117,0.0
0.9730242380028358,0.0,0.0016117216117216117,0.0
0.9777140110018081,0.0,0.00967032967032967,0.02175824175824176
0.9778372130022035,0.0,0.00967032967032967,0.02175824175824176
0.9860272950027138,0.0,0.008058608058608058,0.0
0.9907466790027684,0.0,0.004029304029304029,0.010476190476190476
0.9908949740020034,0.0,0.004029304029304029,0.010476190476190476
0.9962294489996566,0.0,0.004029304029304029,0.010476190476190476
0.9983563820023846,0.0,0.0016117216117216117,0.0024175824175824176
0.9997480500023812,0.0,0.0016117216117216117,0.0024175824175824176
1.0053884600019956,0.0,0.0016117216117216117,0.0024175824175824176
1.0054528159998881,0.0,0.0016117216117216117,0.0024175824175824176
1.0109350940001605,0.0,0.0016117216117216117,0.0024175824175824176
1.0117669100000057,0.0,0.0016117216117216117,0.0024175824175824176
1.0149559730016335,0.0,0.0016117216117216117,0.0024175824175824176
1.0152270390026388,0.0,0.0016117216117216117,0.0024175824175824176
1.021039153001766,0.0,0.0032234432234432234,0.04915750915750916
1.0265921970021736,0.0,0.0032234432234432234,0.04915750915750916
1.0276183259993559,0.0,0.0136996336996337,0.012893772893772894
1.0284518560001743,0.0,0.0136996336996337,0.012893772893772894
1.0318262060027337,0.0,0.0136996336996337,0.012893772893772894
1.0391528460022528,0.0,0.0136996336996337,0.012893772893772894
1.0440077849998488,0.0,0.006446886446886447,0.024175824175824173
1.0493848460027948,0.0,0.006446886446886447,0.024175824175824173
1.050684314002865,0.0,0.006446886446886447,0.024175824175824173
1.0564828040005523,0.0,0.006446886446886447,0.024175824175824173
1.0565521710013854,0.0,0.006446886446886447,0.024175824175824173
1.0618454950017622,0.0,0.006446886446886447,0.024175824175824173
1.0634690360020613,0.0,0.006446886446886447,0.024175824175824173
1.0701458410003397,0.0,0.006446886446886447,0.024175824175824173
1.074125200000708,0.0,0.006446886446886447,0.024175824175824173
1.0781219500022416,0.0,0.006446886446886447,0.024175824175824173
1.0826432560024841,0.0,0.0,0.0
1.0891894279993721,0.0,0.0,0.0
1.092942186001892,0.0,0.008058608058608058,0.0024175824175824176
1.0969359520022408,0.0,0.012893772893772894,0.004029304029304029
1.1033044010000594,0.0,0.012893772893772894,0.004029304029304029
1.1071761420025723,0.0,0.012893772893772894,0.004029304029304029
1.1109625810022408,0.0,0.012893772893772894,0.004029304029304029
1.1167199800001981,0.0,0.004029304029304029,0.007252747252747252
1.1209089090007183,0.0,0.004029304029304029,0.007252747252747252
1.1231088830027147,0.0,0.004029304029304029,0.007252747252747252
1.1233303930021066,0.0,0.004029304029304029,0.007252747252747252
1.1286213750026945,0.0,0.004029304029304029,0.007252747252747252
1.1317210020024504,0.0,0.004029304029304029,0.007252747252747252
1.1344568070016976,0.0,0.004029304029304029,0.007252747252747252
1.1376566010003444,0.0,0.004029304029304029,0.007252747252747252
1.1392152000007627,0.0,0.004029304029304029,0.007252747252747252
1.1431313780012715,0.0,0.004029304029304029,0.007252747252747252
1.146381910002674,0.0,0.004029304029304029,0.007252747252747252
1.1473245230008615,0.0,0.0024175824175824176,0.017728937728937726
1.1483365720014262,0.0,0.0024175824175824176,0.017728937728937726
1.1491644170018844,0.0,0.0024175824175824176,0.017728937728937726
1.1511076120004873,0.0,0.0024175824175824176,0.017728937728937726
1.153649445001065,0.0,0.0024175824175824176,0.017728937728937726
1.1537650230020517,0.0,0.0024175824175824176,0.017728937728937726
1.1596963020019757,0.0,0.0024175824175824176,0.017728937728937726
1.1662551620029262,0.0,0.0024175824175824176,0.017728937728937726
1.1724374219993479,0.0,0.0008058608058608059,0.012893772893772894
1.175925883002492,0.0,0.0032234432234432234,0.0
1.1760302880029485,0.0,0.0032234432234432234,0.0
1.1857884350029053,0.0,0.0,0.0
1.1904599440022139,0.0,0.0024175824175824176,0.0
1.1957428259993321,0.0,0.0024175824175824176,0.0
1.1982752110016008,0.0,0.0,0.004835164835164835
1.1983960140023555,0.0,0.0,0.004835164835164835
1.2039053600019543,0.0,0.0,0.006446886446886447
1.2040255710016936,0.0,0.0,0.006446886446886447
1.2093754529996659,0.0,0.0,0.006446886446886447
1.2123435130015423,0.0,0.0,0.006446886446886447
1.214988240000821,0.0,0.004029304029304029,0.008058608058608058
1.218848942000477,0.0,0.004029304029304029,0.008058608058608058
1.223334253001667,0.0,0.004029304029304029,0.008058608058608058
1.2234726160022547,0.0,0.004029304029304029,0.008058608058608058
1.2290010090000578,0.0,0.004029304029304029,0.008058608058608058
1.2293260469996312,0.0,0.004029304029304029,0.008058608058608058
1.2351678119994176,0.0,0.004029304029304029,0.008058608058608058
1.2401997440028936,0.0,0.004029304029304029,0.008058608058608058
1.243989214002795,0.0,0.004029304029304029,0.008058608058608058
1.2474148309993325,0.0,0.004029304029304029,0.008058608058608058
1.2476929020012903,0.0,0.004029304029304029,0.008058608058608058
1.2535345040014363,0.0,0.004029304029304029,0.008058608058608058
1.2588302020012634,0.0,0.0,0.0
1.2610870019998401,0.0,0.008058608058608058,0.0
1.26180610099982,0.0,0.008058608058608058,0.0
1.2642517700005556,0.0,0.008058608058608058,0.0
1.2643634640007804,0.0,0.0,0.006446886446886447
1.2701553010010684,0.0,0.0,0.006446886446886447
1.2755166070019186,0.0,0.0,0.006446886446886447
1.2785005700025067,0.0,0.0,0.006446886446886447
1.2815497610026796,0.0,0.0,0.006446886446886447
1.2833374069996353,0.0,0.0,0.006446886446886447
1.2867139260015392,0.0,0.0,0.006446886446886447
1.292123620001803,0.0,0.0,0.006446886446886447
1.2939547400019364,0.0,0.0,0.006446886446886447
1.295590516001539,0.0,0.0,0.006446886446886447
1.3004623310007446,0.0,0.0,0.006446886446886447
1.3059657820012944,0.0,0.0,0.006446886446886447
1.3068394290021388,0.0,0.0,0.006446886446886447
1.3086791320019984,0.0,0.0,0.006446886446886447
1.311181850000139,0.0,0.0,0.006446886446886447
1.3112676290002128,0.0,0.0,0.006446886446886447
1.3166955609995057,0.0,0.0,0.006446886446886447
1.3177825960010523,0.0,0.0,0.006446886446886447
1.318702562002727,0.0,0.0,0.006446886446886447
1.3195561950014962,0.0,0.0,0.006446886446886447
1.3217791790011688,0.0,0.0,0.006446886446886447
1.321978415002377,0.0,0.0,0.006446886446886447
1.3274196790007409,0.0,0.0,0.006446886446886447
1.3282677170027455,0.0,0.005641025641025641,0.0
1.3298834880006325,0.0,0.005641025641025641,0.0
1.3331928430015978,0.0,0.005641025641025641,0.0
1.333420061000652,0.0,0.004029304029304029,0.006446886446886447
1.3390267390022927,0.0,0.004029304029304029,0.006446886446886447
1.339319101000001,0.0,0.004029304029304029,0.006446886446886447
1.3447431410022546,0.0,0.004029304029304029,0.006446886446886447
1.345604373000242,0.0,0.004029304029304029,0.006446886446886447
1.3478774130016973,0.0,0.004029304029304029,0.006446886446886447
1.347978175002936,0.0,0.004029304029304029,0.006446886446886447
1.353860382001585,0.0,0.004029304029304029,0.006446886446886447
1.3539783760024875,0.0,0.004029304029304029,0.006446886446886447
1.3593008580028254,0.0,0.004029304029304029,0.006446886446886447
1.3608634160009387,0.0,0.0,0.0
1.3645976750012778,0.0,0.0,0.0
1.3695434940018458,0.0,0.0,0.0
1.3732020839997858,0.0,0.0,0.0
1.3733227630000329,0.0,0.0,0.0
1.3789997849999054,0.0,0.0,0.0
1.3790758610011835,0.0,0.0,0.0
1.3848521489999257,0.0,0.0,0.0
1.3850346450017241,0.0,0.0,0.016117216117216115
1.3903549930000736,0.0,0.0,0.016117216117216115
1.393324742999539,0.0,0.08622710622710622,0.01934065934065934
1.396343562999391,0.0,0.08622710622710622,0.01934065934065934
1.3987098870020418,0.0,0.08622710622710622,0.01934065934065934
1.398843510000006,0.0,0.08622710622710622,0.01934065934065934
1.404704415002925,0.0,0.08622710622710622,0.01934065934065934
1.4047811810014537,0.0,0.08622710622710622,0.01934065934065934
1.4101504960017337,0.0,0.08622710622710622,0.01934065934065934
1.4117579400008253,0.0,0.08622710622710622,0.01934065934065934
1.4183490089999395,0.0,0.0008058608058608059,0.0008058608058608059
1.4240281940001296,0.0,0.0008058608058608059,0.0008058608058608059
1.4289754769997671,0.0,0.004029304029304029,0.045128205128205125
1.4318129340026644,0.0,0.004029304029304029,0.045128205128205125
1.4356086850020802,0.0,0.004029304029304029,0.045128205128205125
1.4390793849997863,0.0,0.004029304029304029,0.045128205128205125
1.439893466002104,0.0,0.004029304029304029,0.045128205128205125
1.4419810620020144,0.0,0.004029304029304029,0.045128205128205125
1.442725008000707,0.0,0.004029304029304029,0.045128205128205125
1.4448753770011535,0.0,0.004029304029304029,0.045128205128205125
1.4456431440012238,0.0,0.0024175824175824176,0.016117216117216115
1.4478854469998623,0.0,0.0024175824175824176,0.016117216117216115
1.4481784460003837,0.0,0.0024175824175824176,0.016117216117216115
1.453621471002407,0.0,0.0024175824175824176,0.016117216117216115
1.4546097130005364,0.0,0.0,0.0
1.4553993840017938,0.0,0.0,0.0
1.4575299740026821,0.0,0.0,0.0
1.4588265820020752,0.0,0.0,0.0
1.4663252509999438,0.0,0.0,0.0
1.4731775149994064,0.0,0.0016117216117216117,0.01531135531135531
1.4771285880015057,0.0,0.0016117216117216117,0.01531135531135531
1.4795142930015572,0.0,0.0016117216117216117,0.01531135531135531
1.4796464440005366,0.0,0.0016117216117216117,0.01531135531135531
1.4864841230009915,0.0,0.0016117216117216117,0.01531135531135531
1.4914106169999286,0.0,0.0016117216117216117,0.01531135531135531
1.498297457001172,0.0,0.0032234432234432234,0.012087912087912087
1.5038504120020662,0.0,0.005641025641025641,0.03868131868131868
1.5085775540028408,0.0,0.006446886446886447,0.017728937728937726
1.5138336380005057,0.0,0.006446886446886447,0.017728937728937726
1.5179281220007397,0.0,0.006446886446886447,0.017728937728937726
1.5192936690000352,0.0,0.006446886446886447,0.017728937728937726
1.5245709590017213,0.0,0.006446886446886447,0.017728937728937726
1.5259865830012131,0.0,0.006446886446886447,0.017728937728937726
1.5314782220011693,0.0,0.006446886446886447,0.017728937728937726
1.5342120740024257,0.0,0.006446886446886447,0.017728937728937726
1.5373560180014465,0.0,0.006446886446886447,0.017728937728937726
1.5395702550013084,0.0,0.006446886446886447,0.017728937728937726
1.5404072300007101,0.0,0.006446886446886447,0.017728937728937726
1.541957295001339,0.0,0.006446886446886447,0.017728937728937726
1.5462337540011504,0.0,0.006446886446886447,0.017728937728937726
1.5483656800024619,0.0,0.006446886446886447,0.017728937728937726
1.5491476820025127,0.0,0.006446886446886447,0.017728937728937726
1.5509509799994703,0.0,0.006446886446886447,0.017728937728937726
1.5531857599999057,0.0,0.006446886446886447,0.017728937728937726
1.5540698879995034,0.0,0.006446886446886447,0.017728937728937726
1.5555708040010359,0.0,0.006446886446886447,0.017728937728937726
1.559263743001793,0.0,0.006446886446886447,0.017728937728937726
1.5593228319994523,0.0,0.006446886446886447,0.017728937728937726
1.5659429660008755,0.0,0.006446886446886447,0.017728937728937726
1.5706785479997052,0.0,0.006446886446886447,0.017728937728937726
1.5741819640024914,0.0,0.0024175824175824176,0.0
1.574372974002472,0.0,0.0024175824175824176,0.0
1.5793654629997036,0.0,0.0024175824175824176,0.0
1.5850475500010361,0.0,0.0,0.016923076923076923
1.5900402200022654,0.0,0.0,0.016923076923076923
1.594955780001328,0.0,0.011282051282051281,0.010476190476190476
1.5991015620020335,0.0,0.0008058608058608059,0.0
1.600798613999359,0.0,0.0008058608058608059,0.0
1.6037648980018275,0.0,0.0008058608058608059,0.0
1.6064959499999532,0.0,0.0008058608058608059,0.0
1.6108461330004502,0.0,0.0008058608058608059,0.0
1.6122890320002625,0.0,0.0008058608058608059,0.0
1.6183962630020687,0.0,0.0008058608058608059,0.0
1.6242353190027643,0.0,0.008864468864468863,0.09992673992673992
1.630203139000514,0.0,0.0,0.0136996336996337
1.633246761000919,0.0,0.0,0.0136996336996337
1.6362901499996951,0.0,0.0,0.0136996336996337
1.6390690590014856,0.0,0.0,0.0136996336996337
1.6425112960023398,0.0,0.0,0.0136996336996337
1.6432759470008023,0.0,0.004835164835164835,0.0
1.645494513999438,0.0,0.0,0.005641025641025641
1.6457129810005426,0.0,0.0,0.005641025641025641
1.6508766660008405,0.0,0.0,0.005641025641025641
1.653867633001937,0.0,0.0032234432234432234,0.004029304029304029
1.6559847810021893,0.0,0.0032234432234432234,0.004029304029304029
1.6568378709998797,0.0,0.004835164835164835,0.0008058608058608059
1.6589544390008086,0.0,0.004835164835164835,0.0008058608058608059
1.6597973400021147,0.0,0.004835164835164835,0.0008058608058608059
1.6613423220005643,0.0,0.011282051282051281,0.0
1.6667189010004222,0.0,0.011282051282051281,0.0
1.6676878050020605,0.0,0.011282051282051281,0.0
1.6694922860006045,0.0,0.011282051282051281,0.0
1.6723079050025262,0.0,0.011282051282051281,0.0
1.6751761640007317,0.0,0.011282051282051281,0.0
1.6780533750024915,0.0,0.011282051282051281,0.0
1.6808383730021887,0.0,0.011282051282051281,0.0
1.6845857610023813,0.0,0.011282051282051281,0.0
1.6847097760000906,0.0,0.011282051282051281,0.0
1.6899109219993989,0.0,0.011282051282051281,0.0
1.6923299920017598,0.0,0.011282051282051281,0.0
1.6974314130020502,0.0,0.0032234432234432234,0.0
1.7020349990016257,0.0,0.0032234432234432234,0.0
1.7021531480022531,0.0,0.0032234432234432234,0.0
1.7071029780017852,0.0,0.0032234432234432234,0.0
1.7120723250009178,0.0,0.008058608058608058,0.0
1.7187797920014418,0.0,0.008058608058608058,0.0
1.7231362940001418,0.0,0.008058608058608058,0.0
1.7234847510007967,0.0,0.008058608058608058,0.0
1.7313566140001058,0.0,0.008058608058608058,0.0
1.7383580630012148,0.0,0.008058608058608058,0.0
1.7432314040015626,0.0,0.008058608058608058,0.0838095238095238
1.7492052279994823,0.0,0.008058608058608058,0.0838095238095238
1.7535579249997681,0.0,0.008058608058608058,0.0838095238095238
1.7549721150026016,0.0,0.008058608058608058,0.0838095238095238
1.759285448002629,0.0,0.008058608058608058,0.0838095238095238
1.7615438290013117,0.0,0.008058608058608058,0.0838095238095238
1.7616768719999527,0.0,0.008058608058608058,0.0838095238095238
1.7667853839993768,0.0,0.008058608058608058,0.0838095238095238
1.7715490949995,0.0,0.008058608058608058,0.0838095238095238
1.7764891970000463,0.0,0.004835164835164835,0.0008058608058608059
1.781847504000325,0.0,0.004835164835164835,0.0008058608058608059
1.7843401470017852,0.0,0.004835164835164835,0.0008058608058608059
1.789411812002072,0.0,0.004835164835164835,0.0008058608058608059
1.7940994150012557,0.0,0.004835164835164835,0.0008058608058608059
1.794264716001635,0.0,0.004835164835164835,0.0008058608058608059
1.7992436150016147,0.0,0.004835164835164835,0.0008058608058608059
1.804156263002369,0.0,0.004835164835164835,0.0008058608058608059
1.8090617279995058,0.0,0.004835164835164835,0.0008058608058608059
1.8139043360024516,0.0,0.004835164835164835,0.0008058608058608059
1.8189265460023307,0.0,0.004835164835164835,0.0008058608058608059
1.8211580269999104,0.0,0.004835164835164835,0.0008058608058608059
1.82143047000136,0.0,0.004835164835164835,0.0008058608058608059
1.8265144520009926,0.0,0.004835164835164835,0.0008058608058608059
1.8307405930027016,0.0,0.004835164835164835,0.0008058608058608059
1.8323446960021101,0.0,0.004835164835164835,0.0008058608058608059
1.8368391000003612,0.0,0.004835164835164835,0.0008058608058608059
1.842643202002364,0.0,0.005641025641025641,0.02336996336996337
1.8427265530008299,0.0,0.005641025641025641,0.02336996336996337
1.848314423001284,0.0,0.005641025641025641,0.02336996336996337
1.8484165800000483,0.0,0.010476190476190476,0.0
1.8544194960013556,0.0,0.010476190476190476,0.0
1.8591201769995678,0.0,0.022564102564102562,0.0
1.8649017860007007,0.0,0.022564102564102562,0.0
1.8649788190014078,0.0,0.0016117216117216117,0.0
1.8711117780003406,0.0,0.0016117216117216117,0.0
1.874949971002934,0.0,0.0016117216117216117,0.0
1.8793879430013476,0.0,0.0016117216117216117,0.0
1.8795589790024678,0.0,0.0016117216117216117,0.0
1.8851581400012947,0.0,0.0016117216117216117,0.0
1.8853860160015756,0.0,0.0016117216117216117,0.0
1.8909796920015651,0.0,0.0016117216117216117,0.0
1.8917806120007299,0.0,0.0016117216117216117,0.0
1.893333302999963,0.0,0.0016117216117216117,0.0
1.8980091030025505,0.0,0.0016117216117216117,0.0
1.8981268960014859,0.0,0.004835164835164835,0.004029304029304029
1.9037907880010607,0.0,0.004835164835164835,0.004029304029304029
1.9038717140028893,0.0,0.004835164835164835,0.0
1.9088449500013667,0.0,0.004835164835164835,0.0
1.9123457150017202,0.0,0.004835164835164835,0.0
1.9124667750002118,0.0,0.004835164835164835,0.0
1.9182851870027662,0.0,0.004835164835164835,0.0
1.918414482002845,0.0,0.004835164835164835,0.0
1.9236568470005295,0.0,0.004835164835164835,0.0
1.9267881360028696,0.0,0.007252747252747252,0.0
1.9283527610023157,0.0,0.007252747252747252,0.0
1.932968412002083,0.0,0.007252747252747252,0.0
1.9331402710013208,0.0,0.0,0.012893772893772894
1.9386527200003911,0.0,0.0,0.012893772893772894
1.939447716002178,0.0,0.004029304029304029,0.06849816849816849
1.9411946100008208,0.0,0.004029304029304029,0.06849816849816849
1.944182887000352,0.0,0.012893772893772894,0.0
1.946422660999815,0.0,0.012893772893772894,0.0
1.9466815539999516,0.0,0.012893772893772894,0.0
1.9521949750014755,0.0,0.012893772893772894,0.0
1.9524414469997282,0.0,0.0,0.00967032967032967
1.957764679002139,0.0,0.0,0.00967032967032967
1.9597957730002236,0.0,0.0,0.00967032967032967
1.9606421740027145,0.0,0.0,0.00967032967032967
1.9620993700009421,0.0,0.0,0.00967032967032967
1.9668536160024814,0.0,0.0,0.00967032967032967
1.971825013999478,0.0,0.0,0.00967032967032967
1.9763332479997189,0.0,0.0,0.0
1.9771267979995173,0.0,0.0,0.0
1.9791119990004518,0.0,0.0,0.0
1.9807065050008532,0.0,0.0,0.0
1.9852434519998496,0.0,0.0032234432234432234,0.012087912087912087
1.9853523330020835,0.0,0.0032234432234432234,0.012087912087912087
1.9906805509999685,0.0,0.0032234432234432234,0.012087912087912087
1.9921215690010285,0.0,0.0032234432234432234,0.012087912087912087
1.9971517779995338,0.0,0.0032234432234432234,0.012087912087912087
2.002829337001458,0.0,0.0032234432234432234,0.012087912087912087
2.0030294640018838,0.0,0.0032234432234432234,0.012087912087912087
2.0083380510004645,0.0,0.0032234432234432234,0.012087912087912087
2.0111457420025545,0.0,0.0032234432234432234,0.012087912087912087
2.015782203001436,0.0,0.0032234432234432234,0.012087912087912087
2.021634663000441,0.0,0.0032234432234432234,0.012087912087912087
2.027857828001288,0.0,0.0032234432234432234,0.012087912087912087
2.031955004000338,0.0,0.0032234432234432234,0.012087912087912087
2.0344468460025382,0.0,0.0032234432234432234,0.012087912087912087
2.039739555999404,0.0,0.0032234432234432234,0.012087912087912087
2.041972564002208,0.0,0.0032234432234432234,0.012087912087912087
2.042139233999478,0.0,0.0032234432234432234,0.012087912087912087
2.0475547940004617,0.0,0.0032234432234432234,0.012087912087912087
2.0483652700022503,0.0,0.0032234432234432234,0.012087912087912087
2.050063074002537,0.0,0.0032234432234432234,0.012087912087912087
2.052842805002001,0.0,0.0032234432234432234,0.012087912087912087
2.0557050749994232,0.0,0.0032234432234432234,0.012087912087912087
2.059898093000811,0.0,0.0032234432234432234,0.012087912087912087
2.0627906350018748,0.0,0.0032234432234432234,0.012087912087912087
2.0651071339998452,0.0,0.0032234432234432234,0.012087912087912087
2.0653579240024555,0.0,0.0032234432234432234,0.012087912087912087
2.070497406002687,0.0,0.0032234432234432234,0.012087912087912087
2.073900554001739,0.0,0.0,0.011282051282051281
2.074070089001907,0.0,0.0,0.011282051282051281
2.0793764980007836,0.0,0.0,0.011282051282051281
2.0816468030025135,0.0,0.0032234432234432234,0.0
2.0818256189995736,0.0,0.0032234432234432234,0.0
2.0878628070022387,0.0,0.0032234432234432234,0.0
2.0931820910009264,0.0,0.0032234432234432234,0.0
2.094093055002304,0.0,0.0032234432234432234,0.0
2.094973456001753,0.0,0.0032234432234432234,0.0
2.096512778000033,0.0,0.0032234432234432234,0.0
2.101394462999451,0.0,0.0032234432234432234,0.0
2.105831410000974,0.0,0.0024175824175824176,0.017728937728937726
2.1060292229994957,0.0,0.0024175824175824176,0.017728937728937726
2.1113440620028996,0.0,0.0024175824175824176,0.017728937728937726
2.1129438710013346,0.0,0.0024175824175824176,0.017728937728937726
2.1175796589996025,0.0,0.0024175824175824176,0.017728937728937726
2.117700455000886,0.0,0.0024175824175824176,0.017728937728937726
2.122646537001856,0.0,0.0024175824175824176,0.017728937728937726
2.1227690539999458,0.0,0.0,0.0
2.1276506440008234,0.0,0.0,0.0
2.1320096220006235,0.0,0.0008058608058608059,0.008058608058608058
2.133751935001783,0.0,0.0008058608058608059,0.008058608058608058
2.1365858250028396,0.0,0.0008058608058608059,0.008058608058608058
2.13946463100001,0.0,0.0008058608058608059,0.008058608058608058
2.1429681690024154,0.0,0.0008058608058608059,0.008058608058608058
2.143026802001259,0.0,0.0008058608058608059,0.008058608058608058
2.1498364610015415,0.0,0.0008058608058608059,0.008058608058608058
2.154480772001989,0.0,0.014505494505494505,0.024175824175824173
2.161708356001327,0.0,0.014505494505494505,0.024175824175824173
2.1668146770025487,0.0,0.014505494505494505,0.024175824175824173
2.1695187210025324,0.0,0.014505494505494505,0.024175824175824173
2.17507892499998,0.0,0.014505494505494505,0.024175824175824173
2.1842791119997855,0.0,0.020146520146520144,0.0
2.1889513750029437,0.0,0.020146520146520144,0.0
2.189031084999442,0.0,0.020146520146520144,0.0
2.1950044889999845,0.0,0.01934065934065934,0.0
2.2020218319994456,0.0,0.004835164835164835,0.011282051282051281
2.2085571919997165,0.0,0.005641025641025641,0.0
2.2133447470005194,0.0,0.005641025641025641,0.0
2.2193767770004342,0.0,0.005641025641025641,0.0
2.2251668040007644,0.0,0.0024175824175824176,0.02901098901098901
2.2336389720003353,0.0,0.004835164835164835,0.0008058608058608059
2.240632632001507,0.0,0.008864468864468863,0.0
2.2463122720000683,0.0,0.008864468864468863,0.0
2.252533023001888,0.0,0.008864468864468863,0.0
2.257541156002844,0.0,0.008864468864468863,0.0
2.2600044749997323,0.0,0.008864468864468863,0.0
2.260154834999412,0.0,0.008864468864468863,0.0
2.2673736970027676,0.0,0.008864468864468863,0.0
2.2719013420028205,0.0,0.008864468864468863,0.0
2.272057931000745,0.0,0.008864468864468863,0.0
2.279452439001034,0.0,0.008864468864468863,0.0
2.284479112000554,0.0,0.008864468864468863,0.0
2.2896270860001096,0.0,0.004835164835164835,0.0273992673992674
2.289868429001217,0.0,0.004835164835164835,0.0273992673992674
2.299790548000601,0.0,0.006446886446886447,0.0
2.307949344001827,0.0,0.006446886446886447,0.0
2.313529937000567,0.0,0.0,0.0
2.3229520820023026,0.0,0.0,0.0
2.3306009770021774,0.0,0.0,0.0
2.3355875199995353,0.0,0.0,0.0
2.33921651700075,0.0,0.0,0.01531135531135531
2.339321351999388,0.0,0.0,0.01531135531135531
2.3451904930007004,0.0,0.0,0.01531135531135531
2.353119166000397,0.0,0.0,0.01531135531135531
2.3582960370004002,0.0,0.0,0.0
2.360546505002276,0.0,0.0,0.0
2.360718772000837,0.0,0.0,0.0
2.3656892600010906,0.0,0.0,0.0
2.369280647002597,0.0,0.0,0.0
2.369379686002503,0.0,0.0,0.0
2.3745627290008997,0.0,0.0,0.0
2.378171835000103,0.0,0.0,0.0
2.3832813930021075,0.0,0.0,0.0
2.38628792000236,0.0,0.0,0.0
2.388405783000053,0.0,0.0,0.0
2.389160789000016,0.0,0.0,0.0
2.3913132960005896,0.0,0.0,0.0
2.3920915740018245,0.0,0.004029304029304029,0.010476190476190476
2.3945747159996245,0.0,0.004029304029304029,0.010476190476190476
2.4002823030023137,0.0,0.0008058608058608059,0.0
2.400395804001164,0.0,0.00967032967032967,0.0
2.4053657570002542,0.0,0.00967032967032967,0.0
2.409817834999558,0.0,0.00967032967032967,0.0
2.4099284870026167,0.0,0.007252747252747252,0.0
2.417441871999472,0.0,0.007252747252747252,0.0
2.422963630000595,0.0,0.007252747252747252,0.0
2.4231690850028826,0.0,0.004029304029304029,0.0
2.4299411280007917,0.0,0.004029304029304029,0.0
2.434418954002467,0.0,0.004029304029304029,0.0
2.4352328310014855,0.0,0.004029304029304029,0.0
2.437390704999416,0.0,0.004835164835164835,0.016923076923076923
2.43813639000291,0.0,0.004835164835164835,0.016923076923076923
2.4404576609995274,0.0,0.004835164835164835,0.016923076923076923
2.4407820440028445,0.0,0.004835164835164835,0.016923076923076923
2.445684982001694,0.0,0.004835164835164835,0.016923076923076923
2.4504767800026457,0.0,0.005641025641025641,0.0
2.456123005002155,0.0,0.005641025641025641,0.0
2.4564817380014574,0.0,0.005641025641025641,0.0
2.461321961000067,0.0,0.005641025641025641,0.0
2.467080517002614,0.0,0.005641025641025641,0.0
2.472153265000088,0.0,0.005641025641025641,0.0
2.4755626219994156,0.0,0.004029304029304029,0.022564102564102562
2.4808502460000454,0.0,0.0024175824175824176,0.045128205128205125
2.484288605999609,0.0,0.0024175824175824176,0.045128205128205125
2.484403566002584,0.0,0.0024175824175824176,0.045128205128205125
2.489715365001757,0.0,0.0024175824175824176,0.045128205128205125
2.492174900002283,0.0,0.0024175824175824176,0.045128205128205125
2.496844975001295,0.0,0.0024175824175824176,0.045128205128205125
2.50285581800199,0.0,0.0024175824175824176,0.045128205128205125
2.5069325770018622,0.0,0.008058608058608058,0.004029304029304029
2.5107239810022293,0.0,0.008058608058608058,0.004029304029304029
2.515449938000529,0.0,0.008058608058608058,0.004029304029304029
2.5216387390028103,0.0,0.008058608058608058,0.004029304029304029
2.5257410520025587,0.0,0.008058608058608058,0.004029304029304029
2.528022967002471,0.0,0.008058608058608058,0.004029304029304029
2.528273824002099,0.0,0.008058608058608058,0.004029304029304029
2.5338559450028697,0.0,0.008058608058608058,0.004029304029304029
2.5339346360015043,0.0,0.008058608058608058,0.004029304029304029
2.5391956040002697,0.0,0.008058608058608058,0.004029304029304029
2.5414926420016855,0.0,0.0,0.024175824175824173
2.541770235002332,0.0,0.0,0.024175824175824173
2.5473690550024912,0.0,0.0,0.024175824175824173
2.5475757730018813,0.0,0.0,0.024175824175824173
2.5534864440014644,0.0,0.0,0.024175824175824173
2.5579204150017176,0.0,0.0,0.024175824175824173
2.558898791001411,0.0,0.0,0.024175824175824173
2.5597236850007903,0.0,0.0,0.024175824175824173
2.5612753210007213,0.0,0.0,0.024175824175824173
2.5663320670028043,0.0,0.011282051282051281,0.0032234432234432234
2.570520484001463,0.0,0.011282051282051281,0.0032234432234432234
2.572144420002587,0.0,0.011282051282051281,0.0032234432234432234
2.575483398999495,0.0,0.011282051282051281,0.0032234432234432234
2.576317259001371,0.0,0.011282051282051281,0.0032234432234432234
2.5781988540002203,0.0,0.011282051282051281,0.0032234432234432234
2.580648488001316,0.0,0.011282051282051281,0.0032234432234432234
2.5866419119993225,0.0,0.011282051282051281,0.0032234432234432234
2.5903070230015146,0.0,0.004029304029304029,0.004029304029304029
2.59038638399943,0.0,0.004029304029304029,0.004029304029304029
2.5958434010026394,0.0,0.004029304029304029,0.004029304029304029
2.59735051700045,0.0,0.004029304029304029,0.004029304029304029
2.602648500000214,0.0,0.004029304029304029,0.004029304029304029
2.605085543000314,0.0,0.004029304029304029,0.004029304029304029
2.614887710002222,0.0,0.004029304029304029,0.004029304029304029
2.624980376000167,0.0,0.004029304029304029,0.004029304029304029
2.633134586001688,0.0,0.0,0.0
2.6382309079999686,0.0,0.0,0.0
2.6422147120028967,0.0,0.0,0.0
2.6446703300025547,0.0,0.0,0.0
2.644726892001927,0.0,0.0,0.0
2.6503870360029396,0.0,0.0,0.0
2.6552469260022917,0.0,0.0,0.0
2.6553218930021103,0.0,0.0,0.008058608058608058
2.6608595910001895,0.0,0.0,0.008058608058608058
2.661144253001112,0.0,0.0,0.008058608058608058
2.667131034999329,0.0,0.0,0.008058608058608058
2.671518068000296,0.0,0.0024175824175824176,0.0
2.6723461270012194,0.0,0.0024175824175824176,0.0
2.6741244090007967,0.0,0.0024175824175824176,0.0
2.6764624419993197,0.0,0.0024175824175824176,0.0
2.676628086999699,0.0,0.0024175824175824176,0.0
2.68319555600101,0.0,0.0024175824175824176,0.0
2.686571690002893,0.0,0.0008058608058608059,0.04915750915750916
2.6873645980012952,0.0,0.0008058608058608059,0.04915750915750916
2.689627334999386,0.0,0.0008058608058608059,0.04915750915750916
2.6897326710022753,0.0,0.0008058608058608059,0.04915750915750916
2.694985447000363,0.0,0.0008058608058608059,0.04915750915750916
2.697884234999947,0.0,0.0008058608058608059,0.04915750915750916
2.7018345600008615,0.0,0.0008058608058608059,0.04915750915750916
2.7054774980024376,0.0,0.0008058608058608059,0.04915750915750916
2.7107685030023276,0.0,0.0008058608058608059,0.04915750915750916
2.713064760002453,0.0,0.0008058608058608059,0.04915750915750916
2.713332977000391,0.0,0.0008058608058608059,0.04915750915750916
2.7188420630009205,0.0,0.0008058608058608059,0.04915750915750916
2.7190263440024864,0.0,0.0008058608058608059,0.04915750915750916
2.724278203000722,0.0,0.0008058608058608059,0.04915750915750916
2.7279492340021534,0.0,0.0008058608058608059,0.04915750915750916
2.733134682999662,0.0,0.0008058608058608059,0.04915750915750916
2.736331808002433,0.0,0.0032234432234432234,0.004029304029304029
2.7365143230017566,0.0,0.0032234432234432234,0.004029304029304029
2.7425276230023883,0.0,0.0032234432234432234,0.004029304029304029
2.746513939000579,0.0,0.0,0.010476190476190476
2.750006543999916,0.0,0.0,0.010476190476190476
2.755493723001564,0.0,0.0,0.010476190476190476
2.7571403690017178,0.0,0.0,0.010476190476190476
2.76102255600199,0.0,0.0,0.010476190476190476
2.7650100749997364,0.0,0.0,0.010476190476190476
2.76864168800239,0.0,0.0,0.010476190476190476
2.7747296660018037,0.0,0.008058608058608058,0.004835164835164835
2.780215617000067,0.0,0.008058608058608058,0.004835164835164835
2.780374493002455,0.0,0.008058608058608058,0.004835164835164835
2.787782151001011,0.0,0.008058608058608058,0.004835164835164835
2.79795750500125,0.0,0.008058608058608058,0.004835164835164835
2.807133739999699,0.0,0.008058608058608058,0.004835164835164835
2.814541042000201,0.0,0.008058608058608058,0.004835164835164835
2.819012318002933,0.0,0.008058608058608058,0.004835164835164835
2.8192766920001304,0.0,0.008058608058608058,0.004835164835164835
2.8247167709996575,0.0,0.008058608058608058,0.004835164835164835
2.826978553999652,0.0,0.008058608058608058,0.004835164835164835
2.8272165130001667,0.0,0.008058608058608058,0.004835164835164835
2.833219675001601,0.0,0.008058608058608058,0.004835164835164835
2.840656833999674,0.0,0.008058608058608058,0.004835164835164835
2.845553233000828,0.0,0.008058608058608058,0.004835164835164835
2.855437633999827,0.0,0.0,0.0136996336996337
2.8661405839993677,0.0,0.0032234432234432234,0.0
2.873020188002556,0.0,0.0032234432234432234,0.0
2.879113734001294,0.0,0.0032234432234432234,0.0
2.887240644002304,0.0,0.0032234432234432234,0.0
2.8952893710011267,0.0,0.0032234432234432234,0.0
2.9032845290021214,0.0,0.0032234432234432234,0.0
2.907433463002235,0.0,0.0032234432234432234,0.0
2.9100977950001834,0.0,0.008058608058608058,0.0
2.9162791230010043,0.0,0.008058608058608058,0.0
2.919704570002068,0.0,0.008058608058608058,0.0
2.9197883240012743,0.0,0.008058608058608058,0.0
2.925732682000671,0.0,0.008058608058608058,0.0
2.9308439000014914,0.0,0.0,0.018534798534798533
2.935215141002118,0.0,0.0,0.018534798534798533
2.9353868910002348,0.0,0.004835164835164835,0.0
2.941011200000503,0.0,0.004835164835164835,0.0
2.941310065001744,0.0,0.004835164835164835,0.0
2.947098986001947,0.0,0.004835164835164835,0.0
2.9531786370025657,0.0,0.004835164835164835,0.0
2.957105686000432,0.0,0.004835164835164835,0.0
2.9600630380009534,0.0,0.0016117216117216117,0.02095238095238095
2.9652009180026653,0.0,0.0016117216117216117,0.02095238095238095
2.968929057002242,0.0,0.0016117216117216117,0.02095238095238095
2.9721418539993465,0.0,0.0016117216117216117,0.02095238095238095
2.9729898270015838,0.0,0.0016117216117216117,0.02095238095238095
2.9747381170018343,0.0,0.0016117216117216117,0.02095238095238095
2.9806220950013085,0.0,0.0016117216117216117,0.02095238095238095
2.985962329999893,0.0,0.0016117216117216117,0.02095238095238095
2.9862835300009465,0.0,0.0016117216117216117,0.02095238095238095
2.9916365720018803,0.0,0.0016117216117216117,0.02095238095238095
2.9931757930025924,0.0,0.0016117216117216117,0.02095238095238095
2.99956181500238,0.0,0.0016117216117216117,0.02095238095238095
3.0049669180007186,0.0,0.0016117216117216117,0.02095238095238095
3.0128422740017413,0.0,0.0016117216117216117,0.02095238095238095
3.019344558000739,0.0,0.0016117216117216117,0.02095238095238095
3.0232128060015384,0.0,0.0016117216117216117,0.008058608058608058
3.028765099999873,0.0,0.0016117216117216117,0.008058608058608058
3.028905469000165,0.0,0.0016117216117216117,0.008058608058608058
3.035279284002172,0.0,0.0016117216117216117,0.008058608058608058
3.0385524710000027,0.0,0.008058608058608058,0.012893772893772894
3.0394040860010136,0.0,0.008058608058608058,0.012893772893772894
3.041060049999942,0.0,0.0024175824175824176,0.03223443223443223
3.0443707260019437,0.0,0.0024175824175824176,0.03223443223443223
3.0465313080021588,0.0,0.0024175824175824176,0.03223443223443223
3.046899878001568,0.0,0.0024175824175824176,0.03223443223443223
3.0527700100028596,0.0,0.0024175824175824176,0.03223443223443223
3.056620178002049,0.0,0.0,0.0
3.061267184002645,0.0,0.0,0.0
3.061391524002829,0.0,0.0008058608058608059,0.016117216117216115
3.070654128001479,0.0,0.0008058608058608059,0.016117216117216115
3.0759126000011747,0.0,0.0008058608058608059,0.016117216117216115
3.0778546610017656,0.0,0.0008058608058608059,0.016117216117216115
3.079736302999663,0.0,0.007252747252747252,0.0
3.0851083400011703,0.0,0.007252747252747252,0.0
3.090582106000511,0.0,0.007252747252747252,0.0
3.0913443860008556,0.0,0.007252747252747252,0.0
3.092933530002483,0.0,0.007252747252747252,0.0
3.097709860001487,0.0,0.007252747252747252,0.0
3.1065722280000045,0.0,0.0,0.022564102564102562
3.1117368119994353,0.0,0.0,0.022564102564102562
3.1176068000022497,0.0,0.0,0.022564102564102562
3.1214040140002908,0.0,0.0,0.022564102564102562
3.12635646200215,0.0,0.0,0.022564102564102562
3.130690368001524,0.0,0.0,0.022564102564102562
3.1319133280012466,0.0,0.0,0.022564102564102562
3.1320861800013517,0.0,0.0,0.022564102564102562
3.1379147680017923,0.0,0.0,0.022564102564102562
3.142323349002254,0.0,0.0024175824175824176,0.0
3.1425197150019812,0.0,0.007252747252747252,0.0032234432234432234
3.1495572370004083,0.0,0.007252747252747252,0.0032234432234432234
3.1543605330007267,0.0,0.007252747252747252,0.0032234432234432234
3.159860750001826,0.0,0.007252747252747252,0.0032234432234432234
3.1608159440002055,0.0,0.007252747252747252,0.0032234432234432234
3.1616000079993682,0.0,0.007252747252747252,0.0032234432234432234
3.1651807710004505,0.0,0.007252747252747252,0.0032234432234432234
3.1723919159994693,0.0,0.007252747252747252,0.0032234432234432234
3.1761018770012015,0.0,0.007252747252747252,0.0032234432234432234
3.182009531999938,0.0,0.007252747252747252,0.0032234432234432234
3.1867767220028327,0.0,0.007252747252747252,0.0032234432234432234
3.1922063940000953,0.0,0.004029304029304029,0.004835164835164835
3.1930594770019525,0.0,0.004029304029304029,0.004835164835164835
3.194630631001928,0.0,0.004029304029304029,0.004835164835164835
3.202806925000914,0.0,0.02336996336996337,0.0016117216117216117
3.20679175999976,0.0,0.0032234432234432234,0.0
3.210694200999569,0.0,0.0032234432234432234,0.0
3.2157809080017614,0.0,0.0032234432234432234,0.0
3.218656421002379,0.0,0.006446886446886447,0.0
3.220963298001152,0.0,0.006446886446886447,0.0
3.2210925290019077,0.0,0.0024175824175824176,0.0032234432234432234
3.2264949769996747,0.0,0.0024175824175824176,0.0032234432234432234
3.2275371400028234,0.0,0.0024175824175824176,0.0032234432234432234
3.2278059060008673,0.0,0.0024175824175824176,0.0032234432234432234
3.23544338800275,0.0,0.0024175824175824176,0.0032234432234432234
3.2400473279994912,0.0,0.0024175824175824176,0.0032234432234432234
3.240349731000606,0.0,0.0024175824175824176,0.0032234432234432234
3.246311818002141,0.0,0.0024175824175824176,0.0032234432234432234
3.252465714002028,0.0,0.0,0.0
3.257023283000308,0.0,0.012893772893772894,0.00967032967032967
3.2571440560022893,0.0,0.0032234432234432234,0.0032234432234432234
3.2626295690024563,0.0,0.0032234432234432234,0.0032234432234432234
3.264311885999632,0.0,0.0032234432234432234,0.0032234432234432234
3.2676500660018064,0.0,0.0032234432234432234,0.0032234432234432234
3.2743414560027304,0.0,0.0032234432234432234,0.0032234432234432234
3.280326699001307,0.0,0.0032234432234432234,0.0032234432234432234
3.285941346002801,0.0,0.0032234432234432234,0.0032234432234432234
3.2892807009993703,0.0,0.004835164835164835,0.0
3.2908591699997487,0.0,0.004835164835164835,0.0
3.295075313999405,0.0,0.006446886446886447,0.0
3.2984855380018416,0.0,0.006446886446886447,0.0
3.3042257190027158,0.0,0.006446886446886447,0.0
3.304321522002283,0.0,0.006446886446886447,0.0
3.3103532860004634,0.0,0.006446886446886447,0.0
3.317301557002793,0.0,0.0136996336996337,0.016117216117216115
3.3226780950026296,0.0,0.005641025641025641,0.0136996336996337
3.3228379730026063,0.0,0.005641025641025641,0.0136996336996337
3.32968687399989,0.0,0.007252747252747252,0.01934065934065934
3.334955854999862,0.0,0.007252747252747252,0.01934065934065934
3.3358202910021646,0.0,0.007252747252747252,0.01934065934065934
3.337762343002396,0.0,0.007252747252747252,0.01934065934065934
3.3400495589994534,0.0,0.007252747252747252,0.01934065934065934
3.3401431500024046,0.0,0.007252747252747252,0.01934065934065934
3.3454087160025665,0.0,0.007252747252747252,0.01934065934065934
3.3486877420000383,0.0,0.007252747252747252,0.01934065934065934
3.3549726940000255,0.0,0.007252747252747252,0.01934065934065934
3.358901572999457,0.0,0.007252747252747252,0.01934065934065934
3.3637687360023847,0.0,0.007252747252747252,0.01934065934065934
3.369846867000888,0.0,0.0032234432234432234,0.0
3.373782790000405,0.0,0.0,0.0
3.378240807000111,0.0,0.0,0.0
3.3785013369997614,0.0,0.0,0.0
3.385400325001683,0.0,0.0,0.0
3.3893761830004223,0.0,0.004029304029304029,0.004835164835164835
3.3932329439994646,0.0,0.004029304029304029,0.004835164835164835
3.3997141559993906,0.0,0.004029304029304029,0.004835164835164835
3.403344492002361,0.0,0.004029304029304029,0.004835164835164835
3.4034564190005767,0.0,0.0,0.0
3.408815309001511,0.0,0.0,0.0
3.4111083810021228,0.0,0.0,0.0
3.411321947001852,0.0,0.0,0.0
3.4192834759996913,0.0,0.0,0.0
3.4239071020019765,0.0,0.0,0.0
3.4247115140024107,0.0,0.0,0.0
3.4262547889993584,0.0,0.0,0.0
3.431393393999315,0.0,0.0,0.0
3.435516172001371,0.0,0.0,0.0
3.4370339660017635,0.0,0.0032234432234432234,0.0
3.4408553650027898,0.0,0.0032234432234432234,0.0
3.444694015001005,0.0,0.0032234432234432234,0.0
3.449430331002077,0.0,0.0032234432234432234,0.0
3.4547333129994513,0.0,0.0032234432234432234,0.0
3.457521888001793,0.0,0.005641025641025641,0.0
3.461279496001225,0.0,0.005641025641025641,0.0
3.468046248999599,0.0,0.004835164835164835,0.0
3.4718767699996533,0.0,0.00967032967032967,0.0136996336996337
3.4775803120028286,0.0,0.00967032967032967,0.0136996336996337
3.47772511400035,0.0,0.008058608058608058,0.0
3.484639807000349,0.0,0.008058608058608058,0.0
3.4885288620025676,0.0,0.008058608058608058,0.0
3.4923273580025125,0.0,0.008058608058608058,0.0
3.498131252999883,0.0,0.008058608058608058,0.0
3.5035357090018806,0.0,0.008058608058608058,0.0
3.5037260919998516,0.0,0.008058608058608058,0.0
3.5119806969996716,0.0,0.008058608058608058,0.0
3.5199827300020843,0.0,0.008058608058608058,0.0
3.5237170639993565,0.0,0.008058608058608058,0.0
3.5290261789996293,0.0,0.0,0.0
3.531698222999694,0.0,0.0,0.0
3.5355192679999163,0.0,0.0,0.0
3.5404094309997163,0.0,0.0,0.0
3.5481933780029067,0.0,0.0,0.0
3.55402056100138,0.0,0.0032234432234432234,0.011282051282051281
3.558466964001127,0.0,0.0032234432234432234,0.011282051282051281
3.5586272760010615,0.0,0.0032234432234432234,0.011282051282051281
3.5657759140012786,0.0,0.0032234432234432234,0.011282051282051281
3.569358642002044,0.0,0.0032234432234432234,0.011282051282051281
3.5695065399995656,0.0,0.006446886446886447,0.0
3.575248327000736,0.0,0.006446886446886447,0.0
3.5753236310010834,0.0,0.006446886446886447,0.0
3.582534561999637,0.0,0.006446886446886447,0.0
3.5865248959999008,0.0,0.006446886446886447,0.0
3.5903075790010917,0.0,0.006446886446886447,0.0
3.59693869700277,0.0,0.006446886446886447,0.0
3.6009549880000122,0.0,0.006446886446886447,0.0
3.605381422999926,0.0,0.0032234432234432234,0.0
3.605556680002337,0.0,0.0032234432234432234,0.0
3.610174478002591,0.0,0.0032234432234432234,0.0
3.6103800100027,0.0,0.0008058608058608059,0.0
3.618138732999796,0.0,0.0008058608058608059,0.0
3.6219860000019253,0.0,0.0008058608058608059,0.0
3.626440095002181,0.0,0.0008058608058608059,0.0
3.626691094999842,0.0,0.0,0.024175824175824173
3.6340530900015438,0.0,0.0,0.024175824175824173
3.6379055110010086,0.0,0.0,0.024175824175824173
3.6423992769996403,0.0,0.0,0.024175824175824173
3.6432221249997383,0.0,0.0032234432234432234,0.0
3.6454975300002843,0.0,0.0032234432234432234,0.0
3.645745378002175,0.0,0.0032234432234432234,0.0
3.652471745001094,0.0,0.0032234432234432234,0.0
3.6562228510010755,0.0,0.0032234432234432234,0.0
3.6615681610019237,0.0,0.0032234432234432234,0.0
3.6669962360028876,0.0,0.0032234432234432234,0.0
3.667278274002456,0.0,0.0,0.008058608058608058
3.6727537010010565,0.0,0.0,0.008058608058608058
3.672981052000978,0.0,0.0,0.008058608058608058
3.679179072001716,0.0,0.011282051282051281,0.028205128205128206
3.6841331840005296,0.0,0.016117216117216115,0.02095238095238095
3.687302971000463,0.0,0.016117216117216115,0.02095238095238095
3.6895818910015805,0.0,0.016117216117216115,0.02095238095238095
3.689801106000232,0.0,0.016117216117216115,0.02095238095238095
3.695987776001857,0.0,0.016117216117216115,0.02095238095238095
3.7021535750027397,0.0,0.016117216117216115,0.02095238095238095
3.7058739660024003,0.0,0.0,0.01531135531135531
3.7106041810002353,0.0,0.0,0.01531135531135531
3.7107879649993265,0.0,0.0,0.01531135531135531
3.71754515000066,0.0,0.0,0.01531135531135531
3.7213308430000325,0.0,0.0016117216117216117,0.0
3.7255934160020843,0.0,0.0016117216117216117,0.0
3.7281289429993194,0.0,0.004029304029304029,0.0016117216117216117
3.7354183810020913,0.0,0.004029304029304029,0.0016117216117216117
3.7399443899994367,0.0,0.004835164835164835,0.0
3.740188935000333,0.0,0.004835164835164835,0.0
3.7462335340023856,0.0,0.004835164835164835,0.0
3.7528111770006944,0.0,0.004835164835164835,0.0
3.757140118999814,0.0,0.0,0.008058608058608058
3.758040261000133,0.0,0.0,0.008058608058608058
3.7598498030019982,0.0,0.0,0.008058608058608058
3.7622049180026806,0.0,0.0,0.008058608058608058
3.762329103999946,0.0,0.0,0.008058608058608058
3.7699747280021256,0.0,0.0,0.008058608058608058
3.7744182189999265,0.0,0.0032234432234432234,0.0
3.776242281001032,0.0,0.0,0.0419047619047619
3.7780852659998345,0.0,0.0,0.0419047619047619
3.782033343002695,0.0,0.0,0.0419047619047619
3.785246094001195,0.0,0.0,0.0419047619047619
3.7868638710024243,0.0,0.0,0.012087912087912087
3.789130479002779,0.0,0.0,0.012087912087912087
3.789391665999574,0.0,0.0,0.012087912087912087
3.794814918001066,0.0,0.0,0.012087912087912087
3.7982546029998048,0.0,0.0,0.012087912087912087
3.803123288002098,0.0,0.0,0.012087912087912087
3.8062241350016848,0.0,0.0,0.0
3.8078195220005,0.0,0.0,0.0
3.8115797589998692,0.0,0.0,0.0
3.819412254000781,0.0,0.0,0.0
3.823154383000656,0.0,0.0,0.0
3.829286489999504,0.0,0.0,0.0
3.8355409540017718,0.0,0.0136996336996337,0.024175824175824173
3.839419365001959,0.0,0.0136996336996337,0.024175824175824173
3.844154847000027,0.0,0.0,0.022564102564102562
3.8519559080014005,0.0,0.0,0.022564102564102562
3.8581450040001073,0.0,0.004029304029304029,0.0
3.864893595000467,0.0,0.006446886446886447,0.012893772893772894
3.8693002100008016,0.0,0.0,0.4456410256410256
3.8695701210017432,0.0,0.0,0.0
3.8750481690003653,0.0,0.0,0.0
3.8759539620004944,0.0,0.0,0.0
3.8768779740021273,0.0,0.0,0.0
3.8784669050000957,0.0,0.0,0.0
3.8870568590027688,0.0,0.0,0.0
3.8916017500014277,0.0,0.0,0.0
3.892402649002179,0.0,0.0,0.0
3.8940483770020364,0.0,0.0,0.0
3.8994009400012146,0.0,0.0,0.0
3.8995428689995606,0.0,0.0,0.0
3.906023510000523,0.0,0.0,0.0
3.9099245840006915,0.0,0.0,0.0024175824175824176
3.91802753400043,0.0,0.0,0.0024175824175824176
3.9218132210007752,0.0,0.0,0.0024175824175824176
3.9268302300006326,0.0,0.0,0.0024175824175824176
3.9324694050010294,0.0,0.0,0.0024175824175824176
3.943007440000656,0.0,0.0,0.0024175824175824176
3.9523057000005792,0.0,0.0,0.012893772893772894
3.957894176000991,0.0,0.008864468864468863,0.004029304029304029
3.958069649001118,0.0,0.004835164835164835,0.0
3.9678995210015273,0.0,0.004835164835164835,0.0
3.9735783180003637,0.0,0.004029304029304029,0.0
3.97383577599976,0.0,0.004029304029304029,0.0
3.9815631990022666,0.0,0.004029304029304029,0.0
3.9866472780013282,0.0,0.004029304029304029,0.0
3.991112701001839,0.0,0.004029304029304029,0.0
3.991194266000093,0.0,0.004029304029304029,0.0
4.000945072999457,0.0,0.004029304029304029,0.0
4.007155028000852,0.0,0.004029304029304029,0.0
4.010451797999849,0.0,0.004029304029304029,0.0
4.011418707999837,0.0,0.004029304029304029,0.0
4.012915522002004,0.0,0.004029304029304029,0.0
4.018872695000027,0.0,0.004029304029304029,0.0
4.022848095999507,0.0,0.004029304029304029,0.0
4.026614534002874,0.0,0.004029304029304029,0.024175824175824173
4.033128221002698,0.0,0.004029304029304029,0.024175824175824173
4.036736015001225,0.0,0.007252747252747252,0.010476190476190476
4.04207436300203,0.0,0.007252747252747252,0.010476190476190476
4.044008103002852,0.0,0.0008058608058608059,0.0
4.046010228001251,0.0,0.0008058608058608059,0.0
4.048232806002488,0.0,0.0,0.025787545787545788
4.048360393000621,0.0,0.0,0.025787545787545788
4.05571374200008,0.0,0.0,0.025787545787545788
4.06028144100128,0.0,0.0,0.025787545787545788
4.06043845000022,0.0,0.0,0.025787545787545788
4.068412469001487,0.0,0.0,0.025787545787545788
4.0729416030008,0.0,0.0,0.025787545787545788
4.073178591002943,0.0,0.0,0.025787545787545788
4.07882632700057,0.0,0.0,0.025787545787545788
4.086793734000821,0.0,0.0,0.025787545787545788
4.092160464002518,0.0,0.0,0.025787545787545788
4.094444859001669,0.0,0.010476190476190476,0.016117216117216115
4.095297395000671,0.0,0.010476190476190476,0.016117216117216115
4.0973309479995805,0.0,0.010476190476190476,0.016117216117216115
4.098485917002108,0.0,0.0024175824175824176,0.0032234432234432234
4.0988287159998436,0.0,0.0024175824175824176,0.0032234432234432234
4.10574359200109,0.0,0.0024175824175824176,0.0032234432234432234
4.110362302002613,0.0,0.0,0.0
4.111145029000909,0.0,0.0,0.0
4.114174547001312,0.0,0.0,0.0
4.117761818000872,0.0,0.0,0.0
4.1225712960003875,0.0,0.0,0.0
4.127187468002376,0.0,0.0032234432234432234,0.0
4.127322937001736,0.0,0.0032234432234432234,0.0
4.13532898700214,0.0,0.0032234432234432234,0.0
4.139149010999972,0.0,0.011282051282051281,0.0032234432234432234
4.142861632000859,0.0,0.011282051282051281,0.0032234432234432234
4.150470304000919,0.0,0.006446886446886447,0.0
4.154661781001778,0.0,0.006446886446886447,0.0
4.157658797001204,0.0,0.006446886446886447,0.0
4.1609687480013235,0.0,0.006446886446886447,0.0
4.168430509002064,0.0,0.006446886446886447,0.0
4.172420102000615,0.0,0.006446886446886447,0.0
4.176487970002199,0.0,0.006446886446886447,0.0
4.1807112240021524,0.0,0.006446886446886447,0.0
4.181771010000375,0.0,0.006446886446886447,0.0
4.182064488999458,0.0,0.006446886446886447,0.0
4.187998682002217,0.0,0.006446886446886447,0.0
4.193257691000326,0.0,0.006446886446886447,0.012893772893772894
4.196685110000544,0.0,0.006446886446886447,0.012893772893772894
4.203311831002793,0.0,0.007252747252747252,0.0
4.208177002001321,0.0,0.007252747252747252,0.0
4.214285860001837,0.0,0.0032234432234432234,0.017728937728937726
4.218307800001639,0.0,0.0032234432234432234,0.017728937728937726
4.221308981002949,0.0,0.0032234432234432234,0.017728937728937726
4.223715457999788,0.0,0.0032234432234432234,0.017728937728937726
4.223805715002527,0.0,0.0032234432234432234,0.017728937728937726
4.230007022000791,0.0,0.0032234432234432234,0.017728937728937726
4.233962992002489,0.0,0.005641025641025641,0.016117216117216115
4.236348005000764,0.0,0.02095238095238095,0.0032234432234432234
4.236448265000945,0.0,0.02095238095238095,0.0032234432234432234
4.242230579002353,0.0,0.02095238095238095,0.0032234432234432234
4.242329708002217,0.0,0.02095238095238095,0.0032234432234432234
4.249158214002819,0.0,0.02095238095238095,0.0032234432234432234
4.253619065999374,0.0,0.02095238095238095,0.0032234432234432234
4.253833153001324,0.0,0.02095238095238095,0.0032234432234432234
4.259626273000322,0.0,0.02095238095238095,0.0032234432234432234
4.2597897030027525,0.0,0.026593406593406595,0.008058608058608058
4.267568477000168,0.0,0.026593406593406595,0.008058608058608058
4.274465251000947,0.0,0.026593406593406595,0.008058608058608058
4.284133229000872,0.0,0.026593406593406595,0.008058608058608058
4.2937787610026135,0.0,0.008058608058608058,0.011282051282051281
4.305819093002356,0.0,0.008058608058608058,0.0
4.318128060000163,0.0,0.008058608058608058,0.0
4.326164938000147,0.0,0.008058608058608058,0.0
4.335384453002916,0.0,0.0008058608058608059,0.0
4.342259610999463,0.0,0.0008058608058608059,0.0
4.348870447000081,0.0,0.0008058608058608059,0.0
4.3533875810026075,0.0,0.0008058608058608059,0.0
4.353505494000274,0.0,0.0,0.05963369963369963
4.359690443001455,0.0,0.0,0.05963369963369963
4.364956056000665,0.0,0.0,0.05963369963369963
4.3666892040018865,0.0,0.0,0.05963369963369963
4.369763714999863,0.0,0.0,0.05963369963369963
4.371638057000382,0.0,0.004029304029304029,0.0
4.373508130000118,0.0,0.004029304029304029,0.0
4.3760925860005955,0.0,0.004029304029304029,0.0
4.382954587999848,0.0,0.004029304029304029,0.0
4.386605468000198,0.0,0.004029304029304029,0.0
4.392584474000614,0.0,0.004029304029304029,0.0
4.397241384001973,0.0,0.004029304029304029,0.0
4.403994874002819,0.0,0.004029304029304029,0.0
4.408232110999961,0.0,0.004029304029304029,0.0
4.411329735001345,0.0,0.004029304029304029,0.0
4.413171464999323,0.0,0.004029304029304029,0.0
4.416323336001369,0.0,0.004029304029304029,0.0
4.416568095999537,0.0,0.004029304029304029,0.0
4.425040320002154,0.0,0.004029304029304029,0.0
4.4294925419999345,0.0,0.004029304029304029,0.0
4.430511458002002,0.0,0.004029304029304029,0.0
4.431884049001383,0.0,0.004029304029304029,0.0
4.436855652002123,0.0,0.004029304029304029,0.0
4.4438760990015,0.0,0.004029304029304029,0.0
4.450101599999471,0.0,0.004029304029304029,0.0
4.454611126002419,0.0,0.004029304029304029,0.0
4.454744836999453,0.0,0.004029304029304029,0.0
4.461743245999969,0.0,0.004029304029304029,0.0
4.46954464600276,0.0,0.0024175824175824176,0.04271062271062271
4.47334433099968,0.0,0.0024175824175824176,0.04271062271062271
4.479539257001306,0.0,0.0024175824175824176,0.04271062271062271
4.483694664999348,0.0,0.0032234432234432234,0.033846153846153845
4.485414687002049,0.0,0.0032234432234432234,0.033846153846153845
4.488663593001547,0.0,0.0032234432234432234,0.033846153846153845
4.4889040640009625,0.0,0.006446886446886447,0.0
4.498423561999516,0.0,0.006446886446886447,0.0
4.503708837000886,0.0,0.006446886446886447,0.0
4.503928416001145,0.0,0.006446886446886447,0.0
4.509147697001026,0.0,0.006446886446886447,0.0
4.51356044700151,0.0,0.0,0.008058608058608058
4.513790707002045,0.0,0.0032234432234432234,0.0008058608058608059
4.522677165001369,0.0,0.0032234432234432234,0.0008058608058608059
4.527174531001947,0.0,0.0008058608058608059,0.7405860805860806
4.527506673999596,0.0,0.0008058608058608059,0.7405860805860806
4.53908954399958,0.0,0.0008058608058608059,0.7405860805860806
4.549186388001544,0.0,0.0,0.0
4.554345819000446,0.0,0.0032234432234432234,0.005641025641025641
4.557284457001515,0.0,0.006446886446886447,0.0
4.559534882002481,0.0,0.006446886446886447,0.0
4.559718455002439,0.0,0.006446886446886447,0.0
4.567204326001956,0.0,0.006446886446886447,0.0
4.571142906999739,0.0,0.006446886446886447,0.0
4.5749861570002395,0.0,0.006446886446886447,0.0
4.579066334001254,0.0,0.0016117216117216117,0.0008058608058608059
4.5820633149996866,0.0,0.0016117216117216117,0.0008058608058608059
4.584811456999887,0.0,0.0016117216117216117,0.0008058608058608059
4.588591343002918,0.0,0.0016117216117216117,0.0008058608058608059
4.592288068000926,0.0,0.0,0.0
4.600247403999674,0.0,0.0,0.012087912087912087
4.604448702000809,0.0,0.008058608058608058,0.0
4.606001923999429,0.0,0.0,0.0
4.6102102320000995,0.0,0.0,0.0
4.61116018300163,0.0,0.0,0.0
4.612295072001871,0.0,0.0,0.0
4.612413270002435,0.0,0.0,0.0
4.620536615002493,0.0,0.0,0.0
4.625886559999344,0.0,0.0,0.0
4.628945844000555,0.0,0.0,0.0
4.631207559999893,0.0,0.0,0.0
4.631367919002514,0.0,0.0,0.0
4.637404219000018,0.0,0.0,0.0
4.64336266400278,0.0,0.0,0.0
4.651532518000749,0.0,0.0,0.0
4.655326862000948,0.0,0.0024175824175824176,0.0
4.660847164999723,0.0,0.0024175824175824176,0.0
4.662459548999323,0.0,0.0024175824175824176,0.0
4.671192420999432,0.0,0.0024175824175824176,0.0
4.675771414000337,0.0,0.0024175824175824176,0.0
4.676006973000767,0.0,0.0016117216117216117,0.008058608058608058
4.684053040000435,0.0,0.0016117216117216117,0.008058608058608058
4.688014321000082,0.0,0.0016117216117216117,0.008058608058608058
4.691030603000399,0.0,0.0016117216117216117,0.008058608058608058
4.692561432999355,0.0,0.0016117216117216117,0.008058608058608058
4.6986068280020845,0.0,0.0016117216117216117,0.008058608058608058
4.70464740800162,0.0,0.0,0.020146520146520144
4.708574565000163,0.0,0.0,0.020146520146520144
4.71174369900109,0.0,0.0,0.020146520146520144
4.7152781520017015,0.0,0.0,0.020146520146520144
4.720597052000812,0.0,0.0,0.020146520146520144
4.7222060640015115,0.0,0.0,0.025787545787545788
4.726029946999915,0.0,0.0,0.025787545787545788
4.730696303002333,0.0,0.0,0.025787545787545788
4.737408928001969,0.0,0.004835164835164835,0.0
4.741070894000586,0.0,0.0032234432234432234,0.022564102564102562
4.7487282889997005,0.0,0.0032234432234432234,0.022564102564102562
4.754697923002823,0.0,0.008864468864468863,0.0032234432234432234
4.7588512580005045,0.0,0.008864468864468863,0.0032234432234432234
4.760441847000038,0.0,0.008864468864468863,0.0032234432234432234
4.767532600002596,0.0,0.004029304029304029,0.03223443223443223
4.771343730000808,0.0,0.004029304029304029,0.03223443223443223
4.776635578000423,0.0,0.004029304029304029,0.03223443223443223
4.779934682999738,0.0,0.004029304029304029,0.03223443223443223
4.788645256001473,0.0,0.004029304029304029,0.03223443223443223
4.793416282001999,0.0,0.004029304029304029,0.03223443223443223
4.802457428002526,0.0,0.004029304029304029,0.03223443223443223
4.80725146199984,0.0,0.004029304029304029,0.03223443223443223
4.813950058000046,0.0,0.0008058608058608059,0.0
4.8176371100016695,0.0,0.004029304029304029,0.0
4.822581290001835,0.0,0.004029304029304029,0.0
4.826600194999628,0.0,0.0032234432234432234,0.0016117216117216117
4.83062845799941,0.0,0.0032234432234432234,0.0016117216117216117
4.834293678002723,0.0,0.0032234432234432234,0.0016117216117216117
4.838808989999961,0.0,0.0024175824175824176,0.004029304029304029
4.838928376000695,0.0,0.0024175824175824176,0.004029304029304029
4.844362643001659,0.0,0.0024175824175824176,0.004029304029304029
4.845421092002653,0.0,0.0024175824175824176,0.004029304029304029
4.8457585600008315,0.0,0.0024175824175824176,0.004029304029304029
4.851790099000937,0.0,0.0024175824175824176,0.004029304029304029
4.855725747001998,0.0,0.0024175824175824176,0.004029304029304029
4.859477621001133,0.0,0.0,0.025787545787545788
4.867172057001881,0.0,0.0,0.025787545787545788
4.871185970001534,0.0,0.0032234432234432234,0.02175824175824176
4.873537138999382,0.0,0.0,0.0
4.873616569002479,0.0,0.0,0.0
4.880879218002519,0.0,0.0,0.0
4.885566072000074,0.0,0.0,0.0273992673992674
4.890831464999792,0.0,0.0,0.0273992673992674
4.893854492001992,0.0,0.006446886446886447,0.0
4.897238472000026,0.0,0.006446886446886447,0.0
4.8974273200001335,0.0,0.006446886446886447,0.0
4.903460442001233,0.0,0.006446886446886447,0.0
4.907926088999375,0.0,0.006446886446886447,0.0
4.908083902002545,0.0,0.006446886446886447,0.0
4.915761430002021,0.0,0.006446886446886447,0.0
4.920123088999389,0.0,0.0,0.0008058608058608059
4.922048065000126,0.0,0.0,0.0008058608058608059
4.924339982000674,0.0,0.0,0.0008058608058608059
4.924468019002234,0.0,0.0,0.0008058608058608059
4.930414484999346,0.0,0.0,0.0008058608058608059
4.936282621001737,0.0,0.0032234432234432234,0.007252747252747252
4.941255153000384,0.0,0.0032234432234432234,0.007252747252747252
4.945741957999417,0.0,0.0032234432234432234,0.007252747252747252
4.946035828001186,0.0,0.0032234432234432234,0.007252747252747252
4.953344494999328,0.0,0.0032234432234432234,0.007252747252747252
4.95877020700209,0.0,0.004029304029304029,0.010476190476190476
4.958931247001601,0.0,0.004029304029304029,0.010476190476190476
4.967246449999948,0.0,0.004029304029304029,0.010476190476190476
4.971145310002612,0.0,0.004029304029304029,0.010476190476190476
4.975026002000959,0.0,0.004029304029304029,0.010476190476190476
4.97895088000223,0.0,0.0,0.004835164835164835
4.983604908000416,0.0,0.0,0.004835164835164835
4.990434191000531,0.0,0.0,0.004835164835164835
4.996299981001357,0.0,0.004835164835164835,0.0
5.003872846002196,0.0,0.004835164835164835,0.0
5.008431948001089,0.0,0.007252747252747252,0.0
5.008571951002523,0.0,0.007252747252747252,0.0
5.015991969001334,0.0,0.007252747252747252,0.0
5.0201987420005025,0.0,0.007252747252747252,0.0
5.02186669799994,0.0,0.007252747252747252,0.0
5.02620767299959,0.0,0.007252747252747252,0.0
5.026484322002943,0.0,0.007252747252747252,0.0
5.035430556999927,0.0,0.007252747252747252,0.0
5.040755907000857,0.0,0.01531135531135531,0.0
5.042990547000954,0.0,0.01531135531135531,0.0
5.043989032001264,0.0,0.01531135531135531,0.0
5.044206827002199,0.0,0.01531135531135531,0.0
5.05140130899963,0.0,0.01531135531135531,0.0
5.056030446001387,0.0,0.0,0.0
5.061209302999487,0.0,0.0,0.0
5.064236227000947,0.0,0.0,0.0
5.066073756999685,0.0,0.0,0.0
5.06882223300272,0.0,0.0,0.0
5.071150307001517,0.0,0.0,0.0
5.071465471002739,0.0,0.0,0.0
5.077022624001984,0.0,0.0,0.0
5.0773388750021695,0.0,0.0,0.0
5.083459178000339,0.0,0.0,0.0
5.086607697001455,0.0,0.0,0.0
5.088930075002281,0.0,0.0,0.0
5.095542862000002,0.0,0.0,0.0
5.099026408999634,0.0,0.0032234432234432234,0.029816849816849816
5.099117539000872,0.0,0.0032234432234432234,0.029816849816849816
5.107614116001059,0.0,0.0032234432234432234,0.029816849816849816
5.1133781200005615,0.0,0.0032234432234432234,0.029816849816849816
5.121532514000137,0.0,0.0032234432234432234,0.029816849816849816
5.127963445000205,0.0,0.0032234432234432234,0.029816849816849816
5.132303468999453,0.0,0.005641025641025641,0.004835164835164835
5.133961972001998,0.0,0.005641025641025641,0.004835164835164835
5.136987960002443,0.0,0.0,0.0
5.139216321000276,0.0,0.0,0.0
5.139436512999964,0.0,0.0,0.0
5.14490717100125,0.0,0.008864468864468863,0.01531135531135531
5.148615505000635,0.0,0.008864468864468863,0.01531135531135531
5.151705370000855,0.0,0.008864468864468863,0.01531135531135531
5.152591546000622,0.0,0.008864468864468863,0.01531135531135531
5.153524647001177,0.0,0.008864468864468863,0.01531135531135531
5.155206254999939,0.0,0.008864468864468863,0.01531135531135531
5.159141012001783,0.0,0.008864468864468863,0.01531135531135531
5.165675066000404,0.0,0.008864468864468863,0.0
5.169254407999688,0.0,0.008864468864468863,0.0
5.169324689999485,0.0,0.0032234432234432234,0.0
5.174782468002377,0.0,0.0032234432234432234,0.0
5.176388558000326,0.0,0.0032234432234432234,0.0
5.180190708000737,0.0,0.0032234432234432234,0.0
5.184074861001136,0.0,0.0032234432234432234,0.0
5.187779953001154,0.0,0.004029304029304029,0.014505494505494505
5.1922003620020405,0.0,0.004029304029304029,0.014505494505494505
5.193061239002418,0.0,0.0024175824175824176,0.0032234432234432234
5.194606480999937,0.0,0.0024175824175824176,0.0032234432234432234
5.198330519000592,0.0,0.0024175824175824176,0.0032234432234432234
5.20381887700205,0.0,0.0024175824175824176,0.0032234432234432234
5.20535403300164,0.0,0.0024175824175824176,0.0032234432234432234
5.209851756000717,0.0,0.0024175824175824176,0.0032234432234432234
5.210105258000112,0.0,0.0,0.012893772893772894
5.215597410002374,0.0,0.0,0.012893772893772894
5.2172528250011965,0.0,0.0,0.012893772893772894
5.220281657002488,0.0,0.0,0.012893772893772894
5.22267595700032,0.0,0.004835164835164835,0.0032234432234432234
5.227917495001748,0.0,0.004835164835164835,0.0
5.230875991001085,0.0,0.004835164835164835,0.0
5.232460658000491,0.0,0.004835164835164835,0.0
5.237948802001483,0.0,0.004835164835164835,0.0
5.238772753000376,0.0,0.004835164835164835,0.0
5.241021144000115,0.0,0.004835164835164835,0.0
5.241130015001545,0.0,0.004835164835164835,0.0
5.246390907002933,0.0,0.004835164835164835,0.0
5.248731986001076,0.0,0.0024175824175824176,0.03223443223443223
5.2489850990023115,0.0,0.005641025641025641,0.0273992673992674
5.254202066000289,0.0,0.005641025641025641,0.0273992673992674
5.257912192999356,0.0,0.0,0.0
5.262452792001568,0.0,0.006446886446886447,0.01934065934065934
5.262712867999653,0.0,0.006446886446886447,0.01934065934065934
5.268253417001688,0.0,0.006446886446886447,0.01934065934065934
5.268452341002558,0.0,0.0016117216117216117,0.016117216117216115
5.274450864002574,0.0,0.0016117216117216117,0.016117216117216115
5.278869726000266,0.0,0.0016117216117216117,0.016117216117216115
5.279700533999858,0.0,0.0016117216117216117,0.016117216117216115
5.281254921999789,0.0,0.0016117216117216117,0.016117216117216115
5.285010366002098,0.0,0.0016117216117216117,0.016117216117216115
5.288739913001336,0.0,0.0016117216117216117,0.016117216117216115
5.293209346000367,0.0,0.0016117216117216117,0.016117216117216115
5.2940669279996655,0.0,0.0016117216117216117,0.016117216117216115
5.295576079002785,0.0,0.006446886446886447,0.0
5.299320093999995,0.0,0.006446886446886447,0.0
5.304557231000217,0.0,0.0,0.006446886446886447
5.30755204000161,0.0,0.0,0.006446886446886447
5.30985685700216,0.0,0.0,0.006446886446886447
5.310032875000616,0.0,0.0,0.006446886446886447
5.315433742001915,0.0,0.0,0.006446886446886447
5.319109301999561,0.0,0.0,0.006446886446886447
5.324194982000336,0.0,0.0,0.006446886446886447
5.325047106001875,0.0,0.005641025641025641,0.0
5.326567026000703,0.0,0.005641025641025641,0.0
5.330364376000944,0.0,0.0032234432234432234,0.017728937728937726
5.3358450529995025,0.0,0.0032234432234432234,0.017728937728937726
5.337405932001275,0.0,0.020146520146520144,0.0
5.341839259999688,0.0,0.020146520146520144,0.0
5.341988012001821,0.0,0.020146520146520144,0.0
5.347349638999731,0.0,0.020146520146520144,0.0
5.348205313002836,0.0,0.008058608058608058,0.0
5.349772140001733,0.0,0.008058608058608058,0.0
5.353469640002004,0.0,0.008058608058608058,0.0
5.358774178999738,0.0,0.008058608058608058,0.0
5.361026372000197,0.0,0.008058608058608058,0.0
5.361329120001756,0.0,0.008058608058608058,0.0
5.36669023000286,0.0,0.008058608058608058,0.0
5.36764867400052,0.0,0.008058608058608058,0.0
5.368459711000469,0.0,0.008058608058608058,0.0
5.370131132000097,0.0,0.008058608058608058,0.0
5.3733246289993986,0.0,0.008058608058608058,0.0
5.374245512000925,0.0,0.008058608058608058,0.0
5.3751879049996205,0.0,0.008058608058608058,0.0
5.3763747200027865,0.0,0.008058608058608058,0.0
5.376528990000224,0.0,0.008058608058608058,0.0
5.383572474001994,0.0,0.008058608058608058,0.0
5.389664839000034,0.0,0.014505494505494505,0.005641025641025641
5.3949703770013,0.0,0.014505494505494505,0.005641025641025641
5.395318856000813,0.0,0.004029304029304029,0.014505494505494505
5.404333590002352,0.0,0.004029304029304029,0.014505494505494505
5.409696615002758,0.0,0.004029304029304029,0.014505494505494505
5.41070295100144,0.0,0.004029304029304029,0.014505494505494505
5.412310181000066,0.0,0.004029304029304029,0.014505494505494505
5.4184293470025295,0.0,0.004029304029304029,0.0
5.422458539000218,0.0,0.004029304029304029,0.0
5.426967400002468,0.0,0.004029304029304029,0.0
5.427216120002413,0.0,0.004029304029304029,0.0
5.435725832001481,0.0,0.004029304029304029,0.0
5.441164283001854,0.0,0.004029304029304029,0.0
5.442717804002314,0.0,0.004029304029304029,0.0
5.449025965001056,0.0,0.004029304029304029,0.0
5.4542491380016145,0.0,0.004029304029304029,0.0
5.458348146999924,0.0,0.004029304029304029,0.0
5.459757644999627,0.0,0.004029304029304029,0.0
5.4653370850028296,0.0,0.004029304029304029,0.0
5.465595736000978,0.0,0.0032234432234432234,0.0
5.474205038000946,0.0,0.0032234432234432234,0.0
5.483178542999667,0.0,0.0032234432234432234,0.0
5.487403574999917,0.0,0.0032234432234432234,0.0
5.488949316000799,0.0,0.0032234432234432234,0.0
5.493449969999347,0.0,0.006446886446886447,0.0
5.494466312000441,0.0,0.006446886446886447,0.0
5.494676417001756,0.0,0.006446886446886447,0.0
5.505136055002367,0.0,0.006446886446886447,0.0
5.513254409001092,0.0,0.006446886446886447,0.0
5.518980282002303,0.0,0.0008058608058608059,0.0032234432234432234
5.519077387001744,0.0,0.012087912087912087,0.014505494505494505
5.526042386001791,0.0,0.012087912087912087,0.014505494505494505
5.534031564002362,0.0,0.008058608058608058,0.017728937728937726
5.538258657001279,0.0,0.008058608058608058,0.017728937728937726
5.540526843000407,0.0,0.008058608058608058,0.017728937728937726
5.540740365002421,0.0,0.008058608058608058,0.017728937728937726
5.54800281200005,0.0,0.008058608058608058,0.017728937728937726
5.551399837000645,0.0,0.008058608058608058,0.017728937728937726
5.552245144001063,0.0,0.008058608058608058,0.017728937728937726
5.5547212090023095,0.0,0.008058608058608058,0.017728937728937726
5.554805561001558,0.0,0.008058608058608058,0.017728937728937726
5.561355247002211,0.0,0.008058608058608058,0.017728937728937726
5.568968503001088,0.0,0.0016117216117216117,0.0016117216117216117
5.573113171001751,0.0,0.011282051282051281,0.0008058608058608059
5.576395807001973,0.0,0.0032234432234432234,0.008058608058608058
5.577274703002331,0.0,0.0032234432234432234,0.008058608058608058
5.580245351000485,0.0,0.0032234432234432234,0.008058608058608058
5.583252169002662,0.0,0.0032234432234432234,0.008058608058608058
5.58429905900266,0.0,0.0032234432234432234,0.008058608058608058
5.58455855700231,0.0,0.0032234432234432234,0.008058608058608058
5.595591449000494,0.0,0.0032234432234432234,0.008058608058608058
5.6044872400016175,0.0,0.0032234432234432234,0.008058608058608058
5.609677922002447,0.0,0.004835164835164835,0.0
5.613490329000342,0.0,0.004835164835164835,0.0
5.617726323001989,0.0,0.004835164835164835,0.0
5.619340187000489,0.0,0.004835164835164835,0.0
5.623261046999687,0.0,0.004835164835164835,0.0
5.627004714002396,0.0,0.004835164835164835,0.0
5.63263472700055,0.0,0.0032234432234432234,0.07575091575091575
5.637842399002693,0.0,0.0024175824175824176,0.004835164835164835
5.64155347400083,0.0,0.0024175824175824176,0.004835164835164835
5.6485086970023985,0.0,0.0016117216117216117,0.0032234432234432234
5.6537059799993585,0.0,0.0016117216117216117,0.0032234432234432234
5.654563448002591,0.0,0.008864468864468863,0.0
5.656153844000073,0.0,0.008864468864468863,0.0
5.659888004000095,0.0,0.008864468864468863,0.0
5.664952940001967,0.0,0.008864468864468863,0.0
5.667976044001989,0.0,0.0,0.0
5.670350358002906,0.0,0.004835164835164835,0.007252747252747252
5.670462295001926,0.0,0.004835164835164835,0.007252747252747252
5.675985600002605,0.0,0.004835164835164835,0.007252747252747252
5.676270536001539,0.0,0.004835164835164835,0.007252747252747252
5.683968876001018,0.0,0.004835164835164835,0.007252747252747252
5.688926054001058,0.0,0.004835164835164835,0.007252747252747252
5.691880181002489,0.0,0.0032234432234432234,0.02336996336996337
5.693501590001688,0.0,0.0032234432234432234,0.02336996336996337
5.700654868000129,0.0,0.0032234432234432234,0.02336996336996337
5.704415385000175,0.0,0.0032234432234432234,0.02336996336996337
5.709842364001815,0.0,0.0032234432234432234,0.02336996336996337
5.712779023000621,0.0,0.0032234432234432234,0.02336996336996337
5.71410795400152,0.0,0.0032234432234432234,0.02336996336996337
5.719772299002216,0.0,0.0032234432234432234,0.02336996336996337
5.725370668002142,0.0,0.0032234432234432234,0.02336996336996337
5.725542129999667,0.0,0.0032234432234432234,0.0
5.734682558999339,0.0,0.0032234432234432234,0.0
5.7394264089998615,0.0,0.0032234432234432234,0.0
5.744661241002177,0.0,0.0,0.010476190476190476
5.750715059002687,0.0,0.0,0.010476190476190476
5.753914507000445,0.0,0.0,0.010476190476190476
5.7562193459998525,0.0,0.0,0.010476190476190476
5.756327548002446,0.0,0.0,0.010476190476190476
5.762106581001717,0.0,0.0,0.010476190476190476
5.7693886130000465,0.0,0.0,0.010476190476190476
5.7744974230008665,0.0,0.0,0.010476190476190476
5.779598468001495,0.0,0.0,0.0
5.782159934002266,0.0,0.0,0.008864468864468863
5.785484891002852,0.0,0.006446886446886447,0.006446886446886447
5.786367422002513,0.0,0.008864468864468863,0.0032234432234432234
5.787915799002803,0.0,0.008864468864468863,0.0032234432234432234
5.791644951001217,0.0,0.008864468864468863,0.0032234432234432234
5.797149578000244,0.0,0.008864468864468863,0.0032234432234432234
5.798429809001391,0.0,0.008864468864468863,0.0032234432234432234
5.804418143001385,0.0,0.008864468864468863,0.0032234432234432234
5.809349440001824,0.0,0.008864468864468863,0.0032234432234432234
5.816080434000469,0.0,0.008864468864468863,0.0032234432234432234
5.819447109999601,0.0,0.008864468864468863,0.0032234432234432234
5.8197080780009856,0.0,0.008864468864468863,0.0032234432234432234
5.825300912001694,0.0,0.004029304029304029,0.008864468864468863
5.825546973002929,0.0,0.004029304029304029,0.008864468864468863
5.833093966000888,0.0,0.004029304029304029,0.008864468864468863
5.838063268001861,0.0,0.004029304029304029,0.008864468864468863
5.841791126000317,0.0,0.004029304029304029,0.008864468864468863
5.847154695002246,0.0,0.00967032967032967,0.004029304029304029
5.847428184999444,0.0,0.00967032967032967,0.004029304029304029
5.853206046002015,0.0,0.008058608058608058,0.006446886446886447
5.858733586999733,0.0,0.008058608058608058,0.006446886446886447
5.858882922002522,0.0,0.008058608058608058,0.006446886446886447
5.866608215001179,0.0,0.012893772893772894,0.03223443223443223
5.871188772001915,0.0,0.004029304029304029,0.017728937728937726
5.871428579001076,0.0,0.004029304029304029,0.017728937728937726
5.877021552001679,0.0,0.004029304029304029,0.017728937728937726
5.877407476000371,0.0,0.0,0.02095238095238095
5.886180355999386,0.0,0.0,0.02095238095238095
5.890971508000803,0.0,0.0,0.02095238095238095
5.895668851000664,0.0,0.0,0.02095238095238095
5.89586493400202,0.0,0.0,0.02095238095238095
5.904037827000138,0.0,0.0,0.02095238095238095
5.908553659002791,0.0,0.0,0.02095238095238095
5.909455709999747,0.0,0.004835164835164835,0.0
5.9111114490006,0.0,0.004835164835164835,0.0
5.917202382999676,0.0,0.004835164835164835,0.0
5.921384102002776,0.0,0.0,0.0008058608058608059
5.922428636000404,0.0,0.004835164835164835,0.0024175824175824176
5.9232610409999324,0.0,0.0008058608058608059,0.0
5.925166820001323,0.0,0.0008058608058608059,0.0
5.926718575999985,0.0,0.0016117216117216117,0.0
5.935211600000912,0.0,0.0016117216117216117,0.0
5.942603292001877,0.0,0.0016117216117216117,0.0
5.948639985999762,0.0,0.0016117216117216117,0.0
5.9531744020023325,0.0,0.0016117216117216117,0.0
5.958739904002869,0.0,0.0016117216117216117,0.0
5.959699344002729,0.0,0.004835164835164835,0.0
5.959872109000571,0.0,0.004835164835164835,0.0
5.9685586520026845,0.0,0.004835164835164835,0.0
5.974200024000311,0.0,0.004835164835164835,0.0
5.974382222000713,0.0,0.004835164835164835,0.0
5.982295305002481,0.0,0.004835164835164835,0.0
5.987094585001614,0.0,0.0,0.0
5.991876545002015,0.0,0.0,0.0
6.000466151002911,0.0,0.0,0.0
6.0060089960024925,0.0,0.0,0.0
6.0061293940016185,0.0,0.0,0.0
6.015771026999573,0.0,0.0,0.0
6.0229663210011495,0.0,0.0,0.0
6.027605761999439,0.0,0.0,0.0
6.037568767002085,0.0,0.0,0.0
6.042110218000744,0.0,0.0,0.0
6.042437379001058,0.0,0.0,0.0
6.05185706300108,0.0,0.0,0.0
6.057238151999627,0.0,0.007252747252747252,0.0
6.058197021000524,0.0,0.007252747252747252,0.0
6.0584184440012905,0.0,0.007252747252747252,0.0
6.065589861002081,0.0,0.007252747252747252,0.0
6.070165846002055,0.0,0.007252747252747252,0.0
6.070322978001059,0.0,0.007252747252747252,0.0
6.078525057000661,0.0,0.007252747252747252,0.0
6.084449285001028,0.0,0.007252747252747252,0.0
6.088187680001283,0.0,0.007252747252747252,0.0
6.093772461001208,0.0,0.007252747252747252,0.0
6.093832743001258,0.0,0.007252747252747252,0.0
6.102703231001215,0.0,0.007252747252747252,0.0
6.107504696999968,0.0,0.007252747252747252,0.0
6.107726369002194,0.0,0.007252747252747252,0.0
6.115612006000447,0.0,0.007252747252747252,0.0
6.119968774000881,0.0,0.007252747252747252,0.0
6.120940365999559,0.0,0.007252747252747252,0.0
6.121805140002834,0.0,0.007252747252747252,0.0
6.123859548999462,0.0,0.007252747252747252,0.0
6.12659153000277,0.0,0.007252747252747252,0.0
6.130823133000376,0.0,0.007252747252747252,0.0
6.131082530002459,0.0,0.007252747252747252,0.0
6.138147095000022,0.0,0.007252747252747252,0.0
6.143148508002923,0.0,0.007252747252747252,0.0
6.15191839900217,0.0,0.007252747252747252,0.0
6.158070650002628,0.0,0.007252747252747252,0.0
6.163149326002895,0.0,0.0,0.005641025641025641
6.166214488002879,0.0,0.0,0.005641025641025641
6.166418018001423,0.0,0.0,0.005641025641025641
6.173029253001005,0.0,0.0,0.005641025641025641
6.177343256000313,0.0,0.0,0.005641025641025641
6.1775179720025335,0.0,0.0,0.005641025641025641
6.187971917002869,0.0,0.0,0.005641025641025641
6.1963859730021795,0.0,0.0,0.005641025641025641
6.202909923002153,0.0,0.0,0.0
6.206480340002599,0.0,0.0,0.0
6.206769591000921,0.0,0.0,0.0
6.211724411001342,0.0,0.0,0.006446886446886447
6.2152509139996255,0.0,0.0,0.006446886446886447
6.215383357000974,0.0,0.0,0.006446886446886447
6.220402180002566,0.0,0.0,0.006446886446886447
6.225854133001121,0.0,0.0,0.006446886446886447
6.2260140370017325,0.0,0.0,0.006446886446886447
6.234097275999375,0.0,0.0,0.006446886446886447
6.243448874000023,0.0,0.0,0.006446886446886447
6.2525149950015475,0.0,0.0,0.006446886446886447
6.2612337000027765,0.0,0.0,0.020146520146520144
6.271688767999876,0.0,0.0,0.020146520146520144
6.27741673300261,0.0,0.0,0.020146520146520144
6.2775517150003,0.0,0.025787545787545788,0.0032234432234432234
6.28869042000224,0.0,0.025787545787545788,0.0032234432234432234
6.298877044002438,0.0,0.025787545787545788,0.0032234432234432234
6.307361266000953,0.0,0.007252747252747252,0.0
6.313705642001878,0.0,0.007252747252747252,0.0
6.3169294520012045,0.0,0.007252747252747252,0.0
6.318503558002703,0.0,0.0016117216117216117,0.01531135531135531
6.322444216999429,0.0,0.0016117216117216117,0.01531135531135531
6.326590279000811,0.0,0.0016117216117216117,0.01531135531135531
6.328998747001606,0.0,0.0016117216117216117,0.01531135531135531
6.32916038500116,0.0,0.0016117216117216117,0.01531135531135531
6.33462164500088,0.0,0.0016117216117216117,0.01531135531135531
6.335607081000489,0.0,0.0016117216117216117,0.01531135531135531
6.336397486000351,0.0,0.0016117216117216117,0.01531135531135531
6.3379912420023174,0.0,0.0016117216117216117,0.01531135531135531
6.341827225001907,0.0,0.0016117216117216117,0.01531135531135531
6.345665985001688,0.0,0.0016117216117216117,0.01531135531135531
6.3493923300011375,0.0,0.0016117216117216117,0.01531135531135531
6.355019119000644,0.0,0.0016117216117216117,0.01531135531135531
6.355314766002266,0.0,0.0,0.0
6.362928099999408,0.0,0.0,0.0
6.368523749002634,0.0,0.0,0.0
6.3687208330011345,0.0,0.0016117216117216117,0.0
6.37420461000147,0.0,0.0,0.011282051282051281
6.376299346000451,0.0,0.012087912087912087,0.004029304029304029
6.376507056000264,0.0,0.012087912087912087,0.004029304029304029
6.385842130002857,0.0,0.012087912087912087,0.004029304029304029
6.3923563650023425,0.0,0.012087912087912087,0.004029304029304029
6.399042941000516,0.0,0.011282051282051281,0.004835164835164835
6.404211005999969,0.0,0.011282051282051281,0.004835164835164835
6.405317951001052,0.0,0.011282051282051281,0.004835164835164835
6.4056165809997765,0.0,0.011282051282051281,0.004835164835164835
6.4139394289995835,0.0,0.011282051282051281,0.004835164835164835
6.420633075002115,0.0,0.011282051282051281,0.004835164835164835
6.425086848001229,0.0,0.008864468864468863,0.022564102564102562
6.425201412999741,0.0,0.008864468864468863,0.022564102564102562
6.433944211999915,0.0,0.008864468864468863,0.022564102564102562
6.4416808269998,0.0,0.008864468864468863,0.022564102564102562
6.445620067002892,0.0,0.008864468864468863,0.022564102564102562
6.449307996001153,0.0,0.008864468864468863,0.022564102564102562
6.4494445950003865,0.0,0.0008058608058608059,0.008864468864468863
6.454746033999982,0.0,0.0008058608058608059,0.008864468864468863
6.458356608000031,0.0,0.0008058608058608059,0.008864468864468863
6.464978787000291,0.0,0.0008058608058608059,0.008864468864468863
6.470114105999528,0.0,0.0008058608058608059,0.008864468864468863
6.4731090660025075,0.0,0.0008058608058608059,0.008864468864468863
6.475308297001902,0.0,0.0008058608058608059,0.008864468864468863
6.476164225001412,0.0,0.0008058608058608059,0.008864468864468863
6.477914322000288,0.0,0.0008058608058608059,0.008864468864468863
6.480955008002638,0.0,0.0008058608058608059,0.008864468864468863
6.483232762002444,0.0,0.0008058608058608059,0.008864468864468863
6.483440343999973,0.0,0.0008058608058608059,0.008864468864468863
6.488664119002351,0.0,0.0008058608058608059,0.008864468864468863
6.491765442002361,0.0,0.0008058608058608059,0.008864468864468863
6.4932578620027925,0.0,0.0008058608058608059,0.008864468864468863
6.4977351060006185,0.0,0.004835164835164835,0.0
6.49787982700218,0.0,0.004835164835164835,0.0
6.503490556002362,0.0,0.004835164835164835,0.0
6.503616723999585,0.0,0.0,0.007252747252747252
6.509045357001014,0.0,0.0,0.007252747252747252
6.509948653001629,0.0,0.0,0.007252747252747252
6.511616740001045,0.0,0.0,0.007252747252747252
6.5146192430001975,0.0,0.0,0.007252747252747252
6.51790923900262,0.0,0.0016117216117216117,0.0
6.518135823000193,0.0,0.0016117216117216117,0.0
6.523400774000038,0.0,0.0016117216117216117,0.0
6.52578021500085,0.0,0.0016117216117216117,0.0
6.525880290002533,0.0,0.0016117216117216117,0.0
6.531275641002139,0.0,0.0016117216117216117,0.0
6.532633040002111,0.0,0.0016117216117216117,0.0
6.536718720002682,0.0,0.0016117216117216117,0.0
6.539504763000878,0.0,0.0016117216117216117,0.0
6.542909010000585,0.0,0.0032234432234432234,0.0032234432234432234
6.543693302002794,0.0,0.0032234432234432234,0.0032234432234432234
6.545825426001102,0.0,0.0032234432234432234,0.0032234432234432234
6.546598506000009,0.0,0.0032234432234432234,0.0032234432234432234
6.5486302850003995,0.0,0.0032234432234432234,0.0032234432234432234
6.550020679002046,0.0,0.0032234432234432234,0.0032234432234432234
6.554762091000157,0.0,0.004029304029304029,0.004029304029304029
6.554977517000225,0.0,0.004029304029304029,0.004029304029304029
6.559715862000303,0.0,0.004029304029304029,0.004029304029304029
6.55977349600289,0.0,0.004029304029304029,0.004029304029304029
6.564547756999673,0.0,0.004029304029304029,0.004029304029304029
6.569327500001236,0.0,0.004029304029304029,0.004029304029304029
6.569384702001116,0.0,0.004029304029304029,0.004029304029304029
6.574202843999956,0.0,0.004029304029304029,0.004029304029304029
6.574268091000704,0.0,0.004029304029304029,0.004029304029304029
6.57926356200187,0.0,0.004029304029304029,0.004029304029304029
6.583935565002321,0.0,0.004029304029304029,0.004029304029304029
6.589287230999616,0.0,0.004029304029304029,0.004029304029304029
6.592315592002706,0.0,0.004029304029304029,0.004029304029304029
6.595829682999465,0.0,0.004029304029304029,0.004029304029304029
6.599676204001298,0.0,0.004029304029304029,0.004029304029304029
6.603844934001245,0.0,0.004029304029304029,0.004029304029304029
6.606599822000135,0.0,0.004029304029304029,0.004029304029304029
6.610111303001759,0.0,0.0,0.012893772893772894
6.6103235539994785,0.0,0.0,0.012893772893772894
6.615466159000789,0.0,0.0,0.012893772893772894
6.618476907002332,0.0,0.0,0.012893772893772894
6.620043311999325,0.0,0.0,0.012893772893772894
6.624218031000055,0.0,0.010476190476190476,0.0
6.6265341300022556,0.0,0.010476190476190476,0.0
6.626636667002458,0.0,0.010476190476190476,0.0
6.632174410002335,0.0,0.010476190476190476,0.0
6.632926605001558,0.0,0.010476190476190476,0.0
6.635064637001051,0.0,0.012893772893772894,0.007252747252747252
6.635817329002748,0.0,0.012893772893772894,0.007252747252747252
6.638026868000452,0.0,0.012893772893772894,0.007252747252747252
6.638323183000466,0.0,0.012893772893772894,0.007252747252747252
6.6432013170015125,0.0,0.012893772893772894,0.007252747252747252
6.647343597000145,0.0,0.012893772893772894,0.007252747252747252
6.649430370001937,0.0,0.012893772893772894,0.007252747252747252
6.650236347002647,0.0,0.012893772893772894,0.007252747252747252
6.65170472400132,0.0,0.012893772893772894,0.007252747252747252
6.655790654000157,0.0,0.012893772893772894,0.007252747252747252
6.6601984500011895,0.0,0.012893772893772894,0.007252747252747252
6.660440248000668,0.0,0.004835164835164835,0.0136996336996337
6.667000015000667,0.0,0.004835164835164835,0.0136996336996337
6.674129115999676,0.0,0.004835164835164835,0.0136996336996337
6.681127093001123,0.0,0.0008058608058608059,0.0
6.6851388230024895,0.0,0.0032234432234432234,0.008864468864468863
6.688289910001913,0.0,0.0032234432234432234,0.008864468864468863
6.68987977100187,0.0,0.0032234432234432234,0.008864468864468863
6.693701608000993,0.0,0.0032234432234432234,0.008864468864468863
6.698165369001799,0.0,0.0032234432234432234,0.008864468864468863
6.698437258000922,0.0,0.0032234432234432234,0.008864468864468863
6.703791331001412,0.0,0.0032234432234432234,0.008864468864468863
6.706030279001425,0.0,0.0032234432234432234,0.008864468864468863
6.70613773399964,0.0,0.0032234432234432234,0.008864468864468863
6.711549060000834,0.0,0.0024175824175824176,3.2298901098901096
6.713130985001044,0.0,0.0024175824175824176,3.2298901098901096
6.716887747999863,0.0,0.0024175824175824176,3.2298901098901096
6.716992851001123,0.0,0.0024175824175824176,3.2298901098901096
6.722057713002869,0.0,0.0024175824175824176,3.2298901098901096
6.726866625002003,0.0,0.0,2.573919413919414
6.731670034001581,0.0,0.0,2.573919413919414
6.737043048000487,0.0,0.0,2.573919413919414
6.738586546001898,0.0,0.0,2.573919413919414
6.742205987000489,0.0,0.0,2.573919413919414
6.742283179002698,0.0,0.0,2.573919413919414
6.747156888002792,0.0,0.0,2.573919413919414
6.752083496001433,0.0,0.008058608058608058,2.5747252747252745
6.756959854999877,0.0,0.008058608058608058,2.5747252747252745
6.761794991001807,0.0,0.008058608058608058,2.5747252747252745
6.761870747002831,0.0,0.0,1.9405128205128204
6.7675389960022585,0.0,0.0,1.9405128205128204
6.767757581001206,0.0,0.0,1.9405128205128204
6.773253008002939,0.0,0.0,1.9405128205128204
6.774646010002471,0.0,0.0032234432234432234,0.012893772893772894
6.779234712001198,0.0,0.0032234432234432234,0.012893772893772894
6.779499325002689,0.0,0.010476190476190476,0.02095238095238095
6.784438959002728,0.0,0.010476190476190476,0.02095238095238095
6.784527665000496,0.0,0.010476190476190476,0.02095238095238095
6.78927639000176,0.0,0.004029304029304029,0.1087912087912088
6.789359480000712,0.0,0.004029304029304029,0.1087912087912088
6.794093223001255,0.0,0.004029304029304029,0.1087912087912088
6.798920170000201,0.0,0.0032234432234432234,0.0
6.803565385002003,0.0,0.0032234432234432234,0.0
6.803881555999396,0.0,0.0024175824175824176,1.6415384615384614
6.808642440002586,0.0,0.0024175824175824176,1.6415384615384614
6.808814035000978,0.0,0.0024175824175824176,1.6415384615384614
6.813623014000768,0.0,0.0024175824175824176,1.6415384615384614
6.818520422999427,0.0,0.0024175824175824176,1.6415384615384614
6.823418063002464,0.0,0.012893772893772894,0.05399267399267399
6.828853121001885,0.0,0.012893772893772894,0.05399267399267399
6.830529195001873,0.0,0.012893772893772894,0.05399267399267399
6.833561467999971,0.0,0.012893772893772894,0.05399267399267399
6.837313657000777,0.0,0.012893772893772894,0.05399267399267399
6.842492523002875,0.0,0.012893772893772894,0.05399267399267399
6.846233522002876,0.0,0.012893772893772894,0.05399267399267399
6.851590802001738,0.0,0.012893772893772894,0.05399267399267399
6.854041737002262,0.0,0.012893772893772894,0.05399267399267399
6.854172507002659,0.0,0.012893772893772894,0.05399267399267399
6.85956975299996,0.0,0.012893772893772894,0.05399267399267399
6.861975187999633,0.0,0.008864468864468863,0.0
6.862113518000115,0.0,0.008864468864468863,0.0
6.867733718001546,0.0,0.008864468864468863,0.0
6.8679625520017,0.0,0.008864468864468863,0.0
6.873510032000922,0.0,0.008864468864468863,0.0
6.875189226000657,0.0,0.008864468864468863,0.0
6.87893112600068,0.0,0.004835164835164835,0.0
6.883491732001858,0.0,0.004835164835164835,0.0
6.88372481800252,0.0,0.004835164835164835,0.0
6.8889705300025526,0.0,0.004835164835164835,0.0
6.892256636001548,0.0,0.004835164835164835,0.0
6.893082007001794,0.0,0.004835164835164835,0.0
6.894894043001841,0.0,0.004835164835164835,0.0
6.898034064000967,0.0,0.004835164835164835,0.0
6.898901355001726,0.0,0.004835164835164835,0.0
6.9005229890026385,0.0,0.004835164835164835,0.0
6.905052557001909,0.0,0.004835164835164835,0.0
6.905321618000016,0.0,0.004835164835164835,0.0
6.910768271001871,0.0,0.004835164835164835,0.0
6.911662329999672,0.0,0.004835164835164835,0.0
6.912536468000326,0.0,0.004835164835164835,0.0
6.914220329999807,0.0,0.004835164835164835,0.0
6.918087745001685,0.0,0.004835164835164835,0.0
6.922677206999651,0.0,0.004835164835164835,0.0
6.928191642000456,0.0,0.004835164835164835,0.0
6.928414856000018,0.0,0.004835164835164835,0.0
6.934017695002694,0.0,0.004835164835164835,0.0
6.934323003002646,0.0,0.006446886446886447,0.0
6.939521080999839,0.0,0.006446886446886447,0.0
6.943191903999832,0.0,0.006446886446886447,0.0
6.943271882002591,0.0,0.006446886446886447,0.0
6.948549974000343,0.0,0.006446886446886447,0.0
6.950137251002161,0.0,0.006446886446886447,0.0
6.954064940000535,0.0,0.006446886446886447,0.0
6.957174642000609,0.0,0.0,0.011282051282051281
6.959435697001027,0.0,0.0,0.025787545787545788
6.959622935002699,0.0,0.0,0.025787545787545788
6.965104205999523,0.0,0.0,0.025787545787545788
6.966610973002389,0.0,0.0,0.025787545787545788
6.970932599000662,0.0,0.0,0.025787545787545788
6.972321648001525,0.0,0.0,0.025787545787545788
6.972387735000666,0.0,0.0,0.025787545787545788
6.977358156000264,0.0,0.0,0.025787545787545788
6.982136643000558,0.0,0.0,0.025787545787545788
6.986177967999538,0.0,0.00967032967032967,0.0
6.988321057000576,0.0,0.00967032967032967,0.0
6.989079083999968,0.0,0.00967032967032967,0.0
6.99114638500032,0.0,0.00967032967032967,0.0
6.9925867920028395,0.0,0.00967032967032967,0.0
6.9973452990016085,0.0,0.0016117216117216117,0.00967032967032967
7.002214594001998,0.0,0.0,0.03142857142857143
7.002273999001773,0.0,0.0,0.03142857142857143
7.0070313249998435,0.0,0.0,0.03142857142857143
7.011801103002654,0.0,0.0,0.03142857142857143
7.012003056002868,0.0,0.0,0.03142857142857143
7.016875428002095,0.0,0.0,0.03142857142857143
7.017096228002629,0.0,0.0,0.03142857142857143
7.02195269799995,0.0,0.0,0.03142857142857143
7.022109307999926,0.0,0.0,0.03142857142857143
7.027399623999372,0.0,0.0,0.03142857142857143
7.031384690999403,0.0,0.012893772893772894,0.0
7.034598379999807,0.0,0.0,0.017728937728937726
7.0354496280015155,0.0,0.0,0.017728937728937726
7.037062890001835,0.0,0.0,0.017728937728937726
7.040909537001426,0.0,0.0,0.017728937728937726
7.0445775910011434,0.0,0.0,0.017728937728937726
7.04981909900016,0.0,0.0,0.017728937728937726
7.052288402002887,0.0,0.0,0.017728937728937726
7.057499935002852,0.0,0.0,0.017728937728937726
7.0599203140009195,0.0,0.008058608058608058,0.010476190476190476
7.06555279800159,0.0,0.008864468864468863,0.045128205128205125
7.065814769001008,0.0,0.008864468864468863,0.0
7.07120285000201,0.0,0.008864468864468863,0.0
7.073643527000968,0.0,0.008864468864468863,0.0
7.073767146001046,0.0,0.008864468864468863,0.0
7.079277734999778,0.0,0.008864468864468863,0.0
7.079431104000832,0.0,0.0,0.0
7.084843652999552,0.0,0.0,0.0
7.086257111001032,0.0,0.0024175824175824176,0.0
7.086318236000807,0.0,0.0024175824175824176,0.0
7.091684571001679,0.0,0.0024175824175824176,0.0
7.09335956400173,0.0,0.0024175824175824176,0.0
7.097626484999637,0.0,0.0024175824175824176,0.0
7.0990203880028275,0.0,0.0024175824175824176,0.0
7.104042013001163,0.0,0.0024175824175824176,0.0
7.1079420919995755,0.0,0.0024175824175824176,0.0
7.110308948002057,0.0,0.0024175824175824176,0.0
7.110517406999861,0.0,0.0024175824175824176,0.0
7.1157585510009085,0.0,0.0024175824175824176,0.0
7.118879564000963,0.0,0.0,0.0
7.120396427002561,0.0,0.0,0.0
7.124937692002277,0.0,0.0,0.0
7.1257167420008045,0.0,0.0,0.0
7.128066307999688,0.0,0.0,0.0
7.133561623999412,0.0,0.0,0.0
7.134482420002314,0.0,0.0,0.0
7.13529369400203,0.0,0.0,0.0
7.137690545001533,0.0,0.0,0.0
7.142914707001182,0.0,0.0,0.0
7.145270806002372,0.0,0.0,0.0
7.145388115000969,0.0,0.0,0.0
7.150620281001466,0.0,0.0,0.0
7.153459057000873,0.0,0.0,0.0
7.156879701000435,0.0,0.0,0.0
7.157113406999997,0.0,0.0,0.0
7.162039315000584,0.0,0.0,0.0
7.166364746000909,0.0,0.0,0.06769230769230769
7.167857472002652,0.0,0.0,0.06769230769230769
7.1720163190002495,0.0,0.0,0.06769230769230769
7.173464039002283,0.0,0.0,0.06769230769230769
7.178460316001292,0.0,0.0,0.06769230769230769
7.182614334000391,0.0,0.0,0.06769230769230769
7.184068626000226,0.0,0.007252747252747252,0.008864468864468863
7.188268306999817,0.0,0.007252747252747252,0.008864468864468863
7.190423066000221,0.0,0.007252747252747252,0.008864468864468863
7.19120101000226,0.0,0.007252747252747252,0.008864468864468863
7.193351505000464,0.0,0.007252747252747252,0.008864468864468863
7.194146362002357,0.0,0.007252747252747252,0.008864468864468863
7.196257939001953,0.0,0.007252747252747252,0.008864468864468863
7.1976931690005586,0.0,0.007252747252747252,0.008864468864468863
7.201823535000585,0.0,0.007252747252747252,0.008864468864468863
7.203906746999564,0.0,0.007252747252747252,0.008864468864468863
7.205317309999373,0.0,0.007252747252747252,0.008864468864468863
7.210146928002359,0.0,0.007252747252747252,0.008864468864468863
7.215021768999577,0.0,0.007252747252747252,0.008864468864468863
7.219092866002029,0.0,0.007252747252747252,0.008864468864468863
7.221288476001064,0.0,0.007252747252747252,0.008864468864468863
7.222736136001913,0.0,0.007252747252747252,0.008864468864468863
7.227009922000434,0.0,0.007252747252747252,0.008864468864468863
7.22844117600107,0.0,0.007252747252747252,0.008864468864468863
7.233397149000666,0.0,0.007252747252747252,0.008864468864468863
7.23785959000088,0.0,0.007252747252747252,0.008864468864468863
7.238659842001653,0.0,0.007252747252747252,0.008864468864468863
7.241010834000917,0.0,0.007252747252747252,0.008864468864468863
7.241142574999685,0.0,0.007252747252747252,0.008864468864468863
7.246718611000688,0.0,0.007252747252747252,0.008864468864468863
7.246834932000638,0.0,0.007252747252747252,0.008864468864468863
7.252205720000347,0.0,0.007252747252747252,0.008864468864468863
7.2553455350025615,0.0,0.0016117216117216117,0.0
7.25619065200226,0.0,0.0016117216117216117,0.0
7.257925190002425,0.0,0.0016117216117216117,0.0
7.26087983600155,0.0,0.008058608058608058,0.0
7.26248072800081,0.0,0.008058608058608058,0.0
7.266923121002037,0.0,0.008058608058608058,0.0
7.267770623002434,0.0,0.008058608058608058,0.0
7.269315855002787,0.0,0.008058608058608058,0.0
7.273704653001914,0.0,0.008058608058608058,0.0
7.273962541999936,0.0,0.008058608058608058,0.0
7.279255534002004,0.0,0.008058608058608058,0.0
7.2815257940019364,0.0,0.008058608058608058,0.0
7.281673282999691,0.0,0.008058608058608058,0.0
7.2871098190007615,0.0,0.004835164835164835,0.0
7.287987719999364,0.0,0.0032234432234432234,0.02901098901098901
7.289576095001394,0.0,0.0032234432234432234,0.02901098901098901
7.293348933002562,0.0,0.005641025641025641,0.010476190476190476
7.298599281999486,0.0,0.005641025641025641,0.010476190476190476
7.300958960000571,0.0,0.005641025641025641,0.010476190476190476
7.306273194000823,0.0,0.005641025641025641,0.010476190476190476
7.307967543001723,0.0,0.005641025641025641,0.010476190476190476
7.311116056000174,0.0,0.005641025641025641,0.010476190476190476
7.311912731001939,0.0,0.0,0.0
7.31346499600113,0.0,0.0,0.0
7.318791540001257,0.0,0.0,0.0
7.321321867999359,0.0,0.0,0.0
7.325956888002111,0.0,0.0,0.0
7.326031967000745,0.0,0.0,0.0
7.3317668170020625,0.0,0.0,0.0
7.331978139001876,0.0,0.0,0.0
7.33688673800134,0.0,0.0,0.0
7.341122912999708,0.0,0.004835164835164835,0.008058608058608058
7.342520679001609,0.0,0.004835164835164835,0.008058608058608058
7.346734083999763,0.0,0.01934065934065934,0.0
7.348987642002612,0.0,0.01934065934065934,0.0
7.349723549999908,0.0,0.01934065934065934,0.0
7.351883010000165,0.0,0.01934065934065934,0.0
7.352130774001125,0.0,0.01934065934065934,0.0
7.357220687001245,0.0,0.01934065934065934,0.0
7.36052302600001,0.0,0.01934065934065934,0.0
7.360712132001936,0.0,0.01934065934065934,0.0
7.36608883900044,0.0,0.01934065934065934,0.0
7.366888671000197,0.0,0.01934065934065934,0.0
7.368480740002269,0.0,0.01934065934065934,0.0
7.372428899001534,0.0,0.01934065934065934,0.0
7.37632357700204,0.0,0.01934065934065934,0.0
7.3795939320007164,0.0,0.01934065934065934,0.0
7.379823358001886,0.0,0.004835164835164835,0.0
7.384956183999748,0.0,0.004835164835164835,0.0
7.387409915001626,0.0,0.004835164835164835,0.0
7.3928397390009195,0.0,0.004835164835164835,0.0
7.39440749500136,0.0,0.004835164835164835,0.0
7.398579398999573,0.0,0.004835164835164835,0.0
7.4013394430003245,0.0,0.0,0.007252747252747252
7.40484983100032,0.0,0.011282051282051281,0.08542124542124542
7.404991878000146,0.0,0.011282051282051281,0.08542124542124542
7.409765142001561,0.0,0.011282051282051281,0.08542124542124542
7.409840521002479,0.0,0.011282051282051281,0.08542124542124542
7.414712170000712,0.0,0.011282051282051281,0.08542124542124542
7.414814128002035,0.0,0.011282051282051281,0.08542124542124542
7.419609922999371,0.0,0.011282051282051281,0.08542124542124542
7.419789661002142,0.0,0.011282051282051281,0.08542124542124542
7.42472158199962,0.0,0.011282051282051281,0.08542124542124542
7.429516888001672,0.0,0.004835164835164835,0.011282051282051281
7.433742566001456,0.0,0.004835164835164835,0.0
7.435890396001923,0.0,0.0,0.0
7.436745885999699,0.0,0.0,0.0
7.43885469900124,0.0,0.0,0.0
7.439649667001504,0.0,0.0,0.0
7.441776900999685,0.0,0.0,0.0
7.442552657001215,0.0,0.008058608058608058,0.028205128205128206
7.444730070001242,0.0,0.008058608058608058,0.028205128205128206
7.446139974999824,0.0,0.008058608058608058,0.028205128205128206
7.4502732410001045,0.0,0.0,0.0
7.4536874030018225,0.0,0.0,0.0
7.4538239060020715,0.0,0.0,0.0
7.458578234000015,0.0,0.0,0.0
7.463360306002869,0.0,0.0,0.0
7.4635209100015345,0.0,0.007252747252747252,0.11362637362637362
7.4684222169998975,0.0,0.007252747252747252,0.11362637362637362
7.472990234000463,0.0,0.007252747252747252,0.11362637362637362
7.473168763001013,0.0,0.007252747252747252,0.11362637362637362
7.478810151002108,0.0,0.007252747252747252,0.11362637362637362
7.4797799219995795,0.0,0.007252747252747252,0.11362637362637362
7.481491136000841,0.0,0.007252747252747252,0.11362637362637362
7.484748814000341,0.0,0.007252747252747252,0.11362637362637362
7.485621359002835,0.0,0.0136996336996337,0.0
7.488093657000718,0.0,0.005641025641025641,0.005641025641025641
7.488185810001596,0.0,0.005641025641025641,0.005641025641025641
7.4934194199995545,0.0,0.005641025641025641,0.005641025641025641
7.495693401000608,0.0,0.0,0.0
7.495821122000052,0.0,0.0,0.0
7.501050253002177,0.0,0.0,0.0
7.502789176000078,0.0,0.0,0.0
7.5057960910016845,0.0,0.0,0.0
7.508176104001905,0.0,0.0,0.0
7.508327199000632,0.0,0.007252747252747252,0.0
7.513652026002092,0.0,0.007252747252747252,0.0
7.516149922001205,0.0,0.007252747252747252,0.0
7.520989038002881,0.0,0.007252747252747252,0.0
7.525400383001397,0.0,0.007252747252747252,0.0
7.526210391999484,0.0,0.0,0.0
7.527925128000788,0.0,0.0,0.0
7.530907535001461,0.0,0.0,0.0
7.532480932000908,0.0,0.0,0.0
7.536923840001691,0.0,0.0,0.0
7.537764575001347,0.0,0.0,0.0
7.5400039260021,0.0,0.0,0.0
7.54018670500227,0.0,0.0,0.0
7.545728375000181,0.0,0.0,0.0
7.547532619002595,0.0,0.0,0.0
7.549830495001515,0.0,0.0,0.0
7.549979603001702,0.0,0.0,0.0
7.555498380999779,0.0,0.005641025641025641,0.004835164835164835
7.555727820999891,0.0,0.004029304029304029,0.0024175824175824176
7.5611378220019105,0.0,0.004029304029304029,0.0024175824175824176
7.561911089000205,0.0,0.004029304029304029,0.0024175824175824176
7.563498752002488,0.0,0.004029304029304029,0.0024175824175824176
7.5680152000022645,0.0,0.004029304029304029,0.0024175824175824176
7.568329970999912,0.0,0.014505494505494505,0.0032234432234432234
7.573672501002875,0.0,0.014505494505494505,0.0032234432234432234
7.575351303999923,0.0,0.014505494505494505,0.0032234432234432234
7.5789061520008545,0.0,0.014505494505494505,0.0032234432234432234
7.583855897999456,0.0,0.014505494505494505,0.0032234432234432234
7.588618339999812,0.0,0.014505494505494505,0.0032234432234432234
7.588707555001747,0.0,0.0,0.010476190476190476
7.593470228002843,0.0,0.0,0.010476190476190476
7.593533696002851,0.0,0.4432234432234432,0.0
7.598388140002498,0.0,0.4432234432234432,0.0
7.602535534002527,0.0,0.012893772893772894,0.022564102564102562
7.606049907000852,0.0,0.012893772893772894,0.022564102564102562
7.606323889001942,0.0,0.0016117216117216117,0.0273992673992674
7.611061573999905,0.0,0.0016117216117216117,0.0273992673992674
7.611138558000675,0.0,0.0016117216117216117,0.0273992673992674
7.61601494000206,0.0,0.0016117216117216117,0.0273992673992674
7.620123482000054,0.0,0.0016117216117216117,0.0273992673992674
7.622194773000956,0.0,0.0016117216117216117,0.0273992673992674
7.623019182999997,0.0,0.0016117216117216117,0.0273992673992674
7.62472825200166,0.0,0.0016117216117216117,0.0273992673992674
7.627784688000247,0.0,0.0016117216117216117,0.0273992673992674
7.629384938001749,0.0,0.0016117216117216117,0.0273992673992674
7.634125581000262,0.0,0.0016117216117216117,0.0273992673992674
7.639475334999588,0.0,0.0,0.0
7.6402972970026894,0.0,0.008864468864468863,0.0024175824175824176
7.641859319002833,0.0,0.008864468864468863,0.0024175824175824176
7.646281458000885,0.0,0.008864468864468863,0.0024175824175824176
7.647098684999946,0.0,0.008864468864468863,0.0024175824175824176
7.648634642002435,0.0,0.004835164835164835,0.0032234432234432234
7.652406421002524,0.0,0.004835164835164835,0.0032234432234432234
7.656865888002358,0.0,0.004835164835164835,0.0032234432234432234
7.658387904000847,0.0,0.004835164835164835,0.0032234432234432234
7.6627695160022995,0.0,0.004835164835164835,0.0032234432234432234
7.663613611999608,0.0,0.052380952380952375,0.04915750915750916
7.665696125000977,0.0,0.052380952380952375,0.04915750915750916
7.666502771000523,0.0,0.052380952380952375,0.04915750915750916
7.668673242002114,0.0,0.052380952380952375,0.04915750915750916
7.670214186000521,0.0,0.052380952380952375,0.04915750915750916
7.674309273999825,0.0,0.052380952380952375,0.04915750915750916
7.677103571000771,0.0,0.052380952380952375,0.04915750915750916
7.680671534002613,0.0,0.052380952380952375,0.04915750915750916
7.680822299000283,0.0,0.006446886446886447,0.025787545787545788
7.685667581001326,0.0,0.0,0.20065934065934066
7.690936855000473,0.0,0.0024175824175824176,0.0
7.693387231000088,0.0,0.0,0.017728937728937726
7.698655824002344,0.0,0.0,0.017728937728937726
7.7020138050029345,0.0,0.0,0.017728937728937726
7.702161324999906,0.0,0.0,0.017728937728937726
7.70765138200295,0.0,0.0,0.017728937728937726
7.708638566000445,0.0,0.0,0.017728937728937726
7.709445509000943,0.0,0.0,0.017728937728937726
7.711117568000191,0.0,0.0,0.017728937728937726
7.71430037400205,0.0,0.0,0.017728937728937726
7.715800496000156,0.0,0.004029304029304029,0.006446886446886447
7.720346458001586,0.0,0.004029304029304029,0.006446886446886447
7.720534214000509,0.0,0.004029304029304029,0.006446886446886447
7.725810347001243,0.0,0.004029304029304029,0.006446886446886447
7.728209624001465,0.0,0.004029304029304029,0.006446886446886447
7.7284353130016825,0.0,0.004029304029304029,0.006446886446886447
7.733729466002842,0.0,0.004029304029304029,0.006446886446886447
7.736097080000036,0.0,0.0,0.0
7.7361856490024365,0.0,0.0,0.0
7.741752306999842,0.0,0.0,0.0
7.741975021999679,0.0,0.0,0.0
7.747280994000903,0.0,0.0,0.0
7.749570277999737,0.0,0.0,0.0
7.749725705001765,0.0,0.0,0.0
7.755013950001739,0.0,0.0,0.0
7.756389515001501,0.0,0.0,0.0
7.761308062999888,0.0,0.0,0.0
7.766176058001292,0.0,0.0,0.0
7.766268323000986,0.0,0.0,0.0
7.771166913000343,0.0,0.0,0.0
7.774675859000126,0.0,0.0,0.0
7.774874594000721,0.0,0.0,0.0
7.779778858999634,0.0,0.0,0.0
7.784724441000435,0.0,0.004835164835164835,0.024175824175824173
7.784784329000104,0.0,0.004835164835164835,0.024175824175824173
7.789797587000066,0.0,0.004835164835164835,0.024175824175824173
7.793890917000681,0.0,0.0,0.06849816849816849
7.796667556001921,0.0,0.0,0.06849816849816849
7.800196003001474,0.0,0.0,0.06849816849816849
7.800323966999713,0.0,0.0,0.06849816849816849
7.805100214001868,0.0,0.0,0.06849816849816849
7.810066081001423,0.0,0.0,0.06849816849816849
7.814179711000179,0.0,0.0008058608058608059,0.024175824175824173
7.817036382999504,0.0,0.0008058608058608059,0.024175824175824173
7.819828501000302,0.0,0.0008058608058608059,0.024175824175824173
7.823285951999424,0.0,0.0008058608058608059,0.0
7.8241045140021015,0.0,0.0008058608058608059,0.0
7.8255346690020815,0.0,0.0008058608058608059,0.0
7.829710715999681,0.0,0.0008058608058608059,0.0
7.832524773999467,0.0,0.0008058608058608059,0.0
7.835966603000998,0.0,0.0008058608058608059,0.0
7.836184333002166,0.0,0.0008058608058608059,0.0
7.841147475999605,0.0,0.0008058608058608059,0.0
7.844662758001505,0.0,0.0008058608058608059,0.0
7.8448819760014885,0.0,0.0008058608058608059,0.0
7.849692250001681,0.0,0.0008058608058608059,0.0
7.853795339000499,0.0,0.0008058608058608059,0.0
7.8559045210022305,0.0,0.0008058608058608059,0.0
7.857428180002898,0.0,0.0008058608058608059,0.0
7.86162100400179,0.0,0.0008058608058608059,0.0
7.864458296000521,0.0,0.0008058608058608059,0.0
7.867864334002661,0.0,0.0008058608058608059,0.0
7.868028052002046,0.0,0.006446886446886447,0.0
7.872907028002373,0.0,0.006446886446886447,0.0
7.877105306000885,0.0,0.006446886446886447,0.0
7.878621347001172,0.0,0.006446886446886447,0.0
7.882796046000294,0.0,0.006446886446886447,0.0
7.884906278999551,0.0,0.008864468864468863,0.09106227106227105
7.88572093500261,0.0,0.008864468864468863,0.09106227106227105
7.887885110001662,0.0,0.008864468864468863,0.09106227106227105
7.888706522000575,0.0,0.008864468864468863,0.09106227106227105
7.890772515002027,0.0,0.008058608058608058,0.0
7.892178278001666,0.0,0.008058608058608058,0.0
7.896997276002367,0.0,0.004835164835164835,0.0
7.90253340700292,0.0,0.004835164835164835,0.0
7.902727029002563,0.0,0.004835164835164835,0.0
7.907699589002732,0.0,0.004835164835164835,0.0
7.91121429100167,0.0,0.0032234432234432234,0.022564102564102562
7.911325155000668,0.0,0.0032234432234432234,0.022564102564102562
7.916269969002315,0.0,0.0032234432234432234,0.022564102564102562
7.921415534001426,0.0,0.0032234432234432234,0.022564102564102562
7.923984670000209,0.0,0.0032234432234432234,0.022564102564102562
7.928623839001375,0.0,0.0032234432234432234,0.022564102564102562
7.928783313000167,0.0,0.0032234432234432234,0.022564102564102562
7.934309324002243,0.0,0.0032234432234432234,0.022564102564102562
7.935346030000801,0.0,0.0,0.0
7.935577208001632,0.0,0.0,0.0
7.9410426240028755,0.0,0.0,0.0
7.942004995002208,0.0,0.0032234432234432234,0.01934065934065934
7.94284253600199,0.0,0.0032234432234432234,0.01934065934065934
7.944401017000928,0.0,0.0032234432234432234,0.01934065934065934
7.949107044001721,0.0,0.0032234432234432234,0.01934065934065934
7.954659091999929,0.0,0.0032234432234432234,0.01934065934065934
7.955639529001928,0.0,0.0,0.0
7.956448341999931,0.0,0.0,0.0
7.958205306000309,0.0,0.0,0.0
7.961269171999447,0.0,0.0,0.0
7.96214270800192,0.0,0.0,0.0
7.963723986002151,0.0,0.0,0.0
7.967473092001455,0.0,0.0,0.0
7.9675683730019955,0.0,0.0,0.0
7.972954939999909,0.0,0.0,0.0
7.974534110002423,0.0,0.0,0.0
7.978341092999472,0.0,0.0,0.0
7.983911885999987,0.0,0.0,0.0
7.984022382999683,0.0,0.0,0.0
7.9895721370012325,0.0,0.0,0.0
7.989777307000622,0.0,0.0008058608058608059,0.03062271062271062
7.995391291002306,0.0,0.0008058608058608059,0.03062271062271062
7.995624557002884,0.0,0.0008058608058608059,0.03062271062271062
8.00093151600231,0.0,0.0008058608058608059,0.03062271062271062
8.003896907001035,0.0,0.0008058608058608059,0.03062271062271062
8.006850810001197,0.0,0.0008058608058608059,0.03062271062271062
8.009045643000718,0.0,0.006446886446886447,0.0
8.009827904999838,0.0,0.006446886446886447,0.0
8.011979535000137,0.0,0.006446886446886447,0.0
8.013456763001159,0.0,0.006446886446886447,0.0
8.017640559999563,0.0,0.006446886446886447,0.0
8.020433942001546,0.0,0.006446886446886447,0.0
8.023911120002595,0.0,0.004835164835164835,2.3635897435897433
8.024138880002283,0.0,0.0008058608058608059,0.06205128205128205
8.029578536999907,0.0,0.004835164835164835,0.0032234432234432234
8.030405639001401,0.0,0.004835164835164835,0.0008058608058608059
8.031993599000998,0.0,0.004835164835164835,0.0008058608058608059
8.035684185000719,0.0,0.004835164835164835,0.0008058608058608059
8.04011370200169,0.0,0.004835164835164835,0.0008058608058608059
8.04099625500021,0.0,0.004835164835164835,0.0008058608058608059
8.042601969002135,0.0,0.004835164835164835,0.0008058608058608059
8.047054332000698,0.0,0.004835164835164835,0.0008058608058608059
8.047324647002824,0.0,0.004835164835164835,0.0008058608058608059
8.05259800100248,0.0,0.004835164835164835,0.0008058608058608059
8.055800494999858,0.0,0.004835164835164835,0.0008058608058608059
8.056666166001378,0.0,0.004835164835164835,0.0008058608058608059
8.059126149000804,0.0,0.004835164835164835,0.0008058608058608059
8.06466093200288,0.0,0.004835164835164835,0.0008058608058608059
8.064829902999918,0.0,0.004835164835164835,0.0008058608058608059
8.070192924002185,0.0,0.004835164835164835,0.0008058608058608059
8.07174113000292,0.0,0.004835164835164835,0.0008058608058608059
8.075517614001,0.0,0.004835164835164835,0.0008058608058608059
8.080012403999717,0.0,0.004835164835164835,0.0008058608058608059
8.080323829002737,0.0,0.004835164835164835,0.0008058608058608059
8.085568755999702,0.0,0.004835164835164835,0.0008058608058608059
8.08810263200212,0.0,0.004835164835164835,0.0008058608058608059
8.092694500002835,0.0,0.004835164835164835,0.0008058608058608059
8.092772983000032,0.0,0.004835164835164835,0.0008058608058608059
8.09825567200096,0.0,0.004835164835164835,0.0008058608058608059
8.098521993000759,0.0,0.004835164835164835,0.0008058608058608059
8.104052869999578,0.0,0.004835164835164835,0.0008058608058608059
8.105031937000604,0.0,0.004835164835164835,0.0008058608058608059
8.105840752999939,0.0,0.004835164835164835,0.0008058608058608059
8.10833303400068,0.0,0.004835164835164835,0.0008058608058608059
8.113739356002043,0.0,0.004835164835164835,0.0008058608058608059
8.115961943000002,0.0,0.004835164835164835,0.0008058608058608059
