time,emg1,emg2,emg3
0.03497365699877264,0.0,0.006446886446886447,0.0
0.04597625399765093,0.0,0.0024175824175824176,0.007252747252747252
0.056191420000686776,0.0,0.0024175824175824176,0.007252747252747252
0.05634706699856906,0.0,0.006446886446886447,0.0
0.06373681299737655,0.0,0.006446886446886447,0.0
0.06910873599917977,0.0,0.0008058608058608059,0.0
0.07008498799768859,0.0,0.0008058608058608059,0.0
0.07107812200047192,0.0,0.0008058608058608059,0.0
0.07137005799813778,0.0,0.0008058608058608059,0.0
0.07677952499943785,0.0,0.0008058608058608059,0.0
0.07702916799826198,0.0,0.0008058608058608059,0.0
0.08408646099996986,0.0,0.0008058608058608059,0.0
0.0884033289985382,0.0,0.0008058608058608059,0.0
0.09097881900015636,0.0,0.0008058608058608059,0.0
0.09665307300019776,0.0,0.0008058608058608059,0.0
0.09680113099966547,0.0,0.0008058608058608059,0.0
0.1050243159988895,0.0,0.0008058608058608059,0.0
0.11106831299912301,0.0,0.006446886446886447,0.0
0.11601969899857068,0.0,0.0024175824175824176,0.008058608058608058
0.12092639199909172,0.0,0.0024175824175824176,0.008058608058608058
0.1258992519979074,0.0,0.0024175824175824176,0.008058608058608058
0.12908607899953495,0.0,0.0024175824175824176,0.008058608058608058
0.129906772999675,0.0,0.0024175824175824176,0.008058608058608058
0.13145127999814576,0.0,0.0024175824175824176,0.008058608058608058
0.1351580019982066,0.0,0.0024175824175824176,0.008058608058608058
0.1402901910005312,0.0,0.0024175824175824176,0.008058608058608058
0.1432891810000001,0.0,0.0,0.0136996336996337
0.14555234200088307,0.0,0.0,0.0136996336996337
0.14584465100051602,0.0,0.0,0.0136996336996337
0.15275267999822972,0.0,0.0,0.0136996336996337
0.1590211000002455,0.0,0.008058608058608058,0.0
0.16282932999820332,0.0,0.007252747252747252,0.008058608058608058
0.16735796699867933,0.0,0.007252747252747252,0.008058608058608058
0.16750647599837976,0.0,0.0016117216117216117,0.011282051282051281
0.1727578669997456,0.0,0.0016117216117216117,0.011282051282051281
0.17434356199737522,0.0,0.004835164835164835,0.0
0.1781305379990954,0.0,0.004029304029304029,0.00967032967032967
0.18365475300015532,0.0,0.004029304029304029,0.00967032967032967
0.18384791599964956,0.0,0.004029304029304029,0.00967032967032967
0.18939353399764514,0.0,0.004029304029304029,0.00967032967032967
0.19018605499877594,0.0,0.004029304029304029,0.00967032967032967
0.19180317299833405,0.0,0.004029304029304029,0.00967032967032967
0.19553824299873668,0.0,0.004029304029304029,0.00967032967032967
0.19928293200064218,0.0,0.004029304029304029,0.00967032967032967
0.20402665499932482,0.0,0.006446886446886447,0.0
0.20856917799756047,0.0,0.006446886446886447,0.0
0.2088455929988413,0.0,0.008058608058608058,0.0032234432234432234
0.21470087700072327,0.0,0.008058608058608058,0.0032234432234432234
0.2197246499999892,0.0,0.008058608058608058,0.0032234432234432234
0.22520689299926744,0.0,0.008058608058608058,0.0032234432234432234
0.2358769879974716,0.0,0.008058608058608058,0.0032234432234432234
0.24407732899999246,0.0,0.008058608058608058,0.0032234432234432234
0.25164566400053445,0.0,0.008058608058608058,0.0032234432234432234
0.2560237559991947,0.0,0.008058608058608058,0.0032234432234432234
0.25692142299885745,0.0,0.008058608058608058,0.0032234432234432234
0.258696795997821,0.0,0.008058608058608058,0.0032234432234432234
0.26202615999864065,0.0,0.008058608058608058,0.0032234432234432234
0.2622612890008895,0.0,0.008058608058608058,0.0032234432234432234
0.27074588899995433,0.0,0.0,0.0
0.27630579700053204,0.0,0.008058608058608058,0.006446886446886447
0.27798169199741096,0.0,0.008058608058608058,0.006446886446886447
0.2842823600003612,0.0,0.008058608058608058,0.006446886446886447
0.28758370200011996,0.0,0.008058608058608058,0.006446886446886447
0.2884502649976639,0.0,0.008058608058608058,0.006446886446886447
0.2902984110005491,0.0,0.008058608058608058,0.006446886446886447
0.29265598399797454,0.0,0.008058608058608058,0.006446886446886447
0.2928516209976806,0.0,0.008058608058608058,0.006446886446886447
0.2996081450000929,0.0,0.008058608058608058,0.006446886446886447
0.3029729789996054,0.0,0.008058608058608058,0.006446886446886447
0.30392617599864025,0.0,0.008058608058608058,0.006446886446886447
0.3055324019987893,0.0,0.008058608058608058,0.006446886446886447
0.3094260680009029,0.0,0.008058608058608058,0.006446886446886447
0.3126710500000627,0.0,0.008058608058608058,0.006446886446886447
0.3136403299977246,0.0,0.008058608058608058,0.006446886446886447
0.31642952900074306,0.0,0.008058608058608058,0.006446886446886447
0.31948668800032465,0.0,0.008058608058608058,0.006446886446886447
0.3209635999992315,0.0,0.008058608058608058,0.006446886446886447
0.32589659999939613,0.0,0.008058608058608058,0.006446886446886447
0.3297760030000063,0.0,0.008058608058608058,0.006446886446886447
0.336434384000313,0.0,0.008058608058608058,0.006446886446886447
0.34007291499801795,0.0,0.008058608058608058,0.006446886446886447
0.3457009729972924,0.0,0.008058608058608058,0.006446886446886447
0.34585245799826225,0.0,0.006446886446886447,0.00967032967032967
0.3537983679998433,0.0,0.006446886446886447,0.00967032967032967
0.35861848299828125,0.0,0.005641025641025641,0.01934065934065934
0.36529509499814594,0.0,0.0,0.0
0.3691577169993252,0.0,0.0,0.0
0.37409028799811495,0.0,0.0,0.0
0.3787195269978838,0.0,0.0,0.006446886446886447
0.3788828859978821,0.0,0.0,0.006446886446886447
0.38509795099889743,0.0,0.0,0.006446886446886447
0.3890842699984205,0.0,0.0,0.006446886446886447
0.3928695049980888,0.0,0.016923076923076923,0.0
0.39685613899928285,0.0,0.016923076923076923,0.0
0.4004473950008105,0.0,0.004835164835164835,0.017728937728937726
0.40603422400090494,0.0,0.008058608058608058,0.0
0.40619498699743417,0.0,0.0,0.0
0.41163304499787046,0.0,0.0,0.0
0.4133243879987276,0.0,0.0,0.0
0.41734809699846664,0.0,0.0,0.0
0.4193391539993172,0.0,0.007252747252747252,0.0
0.4202324299985776,0.0,0.007252747252747252,0.0
0.4218883520006784,0.0,0.007252747252747252,0.0
0.42582721399958245,0.0,0.007252747252747252,0.0
0.42827327199847787,0.0,0.007252747252747252,0.0
0.4385924909984169,0.0,0.007252747252747252,0.0
0.4443270219999249,0.0,0.007252747252747252,0.0
0.44444488199951593,0.0,0.007252747252747252,0.0
0.45299116000023787,0.0,0.007252747252747252,0.0
0.4602854139993724,0.0,0.0016117216117216117,0.006446886446886447
0.46701501999996253,0.0,0.0016117216117216117,0.006446886446886447
0.4729888279980514,0.0,0.00967032967032967,0.0008058608058608059
0.47857285300051444,0.0,0.00967032967032967,0.0008058608058608059
0.48668418699890026,0.0,0.00967032967032967,0.0008058608058608059
0.4926492619997589,0.0,0.005641025641025641,0.0
0.4979615759984881,0.0,0.005641025641025641,0.0
0.4992788460003794,0.0,0.005641025641025641,0.0
0.5060277929987933,0.0,0.005641025641025641,0.0
0.5109701729998051,0.0,0.005641025641025641,0.0
0.5161294619974797,0.0,0.0008058608058608059,0.006446886446886447
0.5163708879990736,0.0,0.006446886446886447,0.0
0.5218216529974598,0.0,0.006446886446886447,0.0
0.5219928990009066,0.0,0.006446886446886447,0.0
0.5275035769991518,0.0,0.006446886446886447,0.0
0.5283316489985737,0.0,0.006446886446886447,0.0
0.531117615999392,0.0,0.006446886446886447,0.0
0.5380420170004072,0.0,0.006446886446886447,0.0
0.5419650629992248,0.0,0.004835164835164835,0.0
0.545886376999988,0.0,0.004835164835164835,0.0
0.5499931829981506,0.0,0.004835164835164835,0.0
0.552557020997483,0.0,0.004835164835164835,0.0
0.5581636239985528,0.0,0.004835164835164835,0.0
0.5583951169974171,0.0,0.004835164835164835,0.0
0.564164791998337,0.0,0.004835164835164835,0.0
0.5707794939989981,0.0,0.0008058608058608059,0.0
0.5747092140009045,0.0,0.008864468864468863,0.0
0.5786144720004813,0.0,0.008864468864468863,0.0
0.5835866409979644,0.0,0.008864468864468863,0.0
0.5860710809974989,0.0,0.0032234432234432234,0.006446886446886447
0.5918052019987954,0.0,0.0032234432234432234,0.006446886446886447
0.5921014209998248,0.0,0.0016117216117216117,0.01934065934065934
0.5983080509977299,0.0,0.0016117216117216117,0.01934065934065934
0.6042471069995372,0.0,0.0016117216117216117,0.01934065934065934
0.6080835609973292,0.0,0.0016117216117216117,0.01934065934065934
0.6120130609997432,0.0,0.006446886446886447,0.0
0.6161985479993746,0.0,0.006446886446886447,0.0
0.6176512749989342,0.0,0.006446886446886447,0.0
0.6217473289980262,0.0,0.006446886446886447,0.0
0.6249293239998224,0.0,0.006446886446886447,0.0
0.6265828350005904,0.0,0.006446886446886447,0.0
0.6298219019990938,0.0,0.006446886446886447,0.0
0.6308401139976922,0.0,0.006446886446886447,0.0
0.6311050879994582,0.0,0.006446886446886447,0.0
0.6365394860004017,0.0,0.006446886446886447,0.0
0.637397794998833,0.0,0.006446886446886447,0.0
0.6390188939985819,0.0,0.006446886446886447,0.0
0.6430016060003254,0.0,0.006446886446886447,0.0
0.6462928359978832,0.0,0.006446886446886447,0.0
0.6473187579977093,0.0,0.006446886446886447,0.0
0.6487613639983465,0.0,0.006446886446886447,0.0
0.6539601639997272,0.0,0.006446886446886447,0.0
0.6563487229977909,0.0,0.0,0.004835164835164835
0.6609957039981964,0.0,0.0,0.004835164835164835
0.6611619420000352,0.0,0.0,0.004835164835164835
0.6680622610001592,0.0,0.0,0.004835164835164835
0.6713081669986423,0.0,0.0,0.004835164835164835
0.6722247609977785,0.0,0.0,0.004835164835164835
0.673802863999299,0.0,0.0,0.02175824175824176
0.678415350997966,0.0,0.0,0.02175824175824176
0.6786089909983275,0.0,0.0,0.02175824175824176
0.6849908709991723,0.0,0.0,0.02175824175824176
0.6890701739976066,0.0,0.0032234432234432234,0.006446886446886447
0.6915493779997632,0.0,0.0032234432234432234,0.006446886446886447
0.6982966930008843,0.0,0.0032234432234432234,0.006446886446886447
0.7030446569988271,0.0,0.0032234432234432234,0.006446886446886447
0.7101388439987204,0.0,0.02498168498168498,0.0024175824175824176
0.7175841169992054,0.0,0.02498168498168498,0.0024175824175824176
0.7216422040000907,0.0,0.02498168498168498,0.0024175824175824176
0.724808007998945,0.0,0.02498168498168498,0.0024175824175824176
0.7275643760003732,0.0,0.02498168498168498,0.0024175824175824176
0.7316841869978816,0.0,0.02498168498168498,0.0024175824175824176
0.7331907579973631,0.0,0.02498168498168498,0.0024175824175824176
0.7373274809979193,0.0,0.02498168498168498,0.0024175824175824176
0.7392073959999834,0.0,0.02498168498168498,0.0024175824175824176
0.7416707269985636,0.0,0.02498168498168498,0.0024175824175824176
0.7418614210000669,0.0,0.02498168498168498,0.0024175824175824176
0.7505398149987741,0.0,0.02498168498168498,0.0024175824175824176
0.7571759089987609,0.0,0.02498168498168498,0.0024175824175824176
0.7619765399977041,0.0,0.02498168498168498,0.0024175824175824176
0.7706281149985443,0.0,0.02498168498168498,0.0024175824175824176
0.7766248080006335,0.0,0.02498168498168498,0.0024175824175824176
0.7824543909991917,0.0,0.0,0.0
0.7898754149973684,0.0,0.0,0.0
0.7977351989975432,0.0,0.0,0.0
0.8045800069994584,0.0,0.0032234432234432234,0.0016117216117216117
0.8101459909994446,0.0,0.0,0.0
0.8103755169977376,0.0,0.007252747252747252,0.010476190476190476
0.819435766999959,0.0,0.007252747252747252,0.010476190476190476
0.8245771599977161,0.0,0.007252747252747252,0.0032234432234432234
0.8273918249979033,0.01531135531135531,0.0016117216117216117,0.0032234432234432234
0.8325469890005479,0.01531135531135531,0.0016117216117216117,0.0032234432234432234
0.8329574259987567,0.01531135531135531,0.0016117216117216117,0.0032234432234432234
0.8423947289993521,0.01531135531135531,0.0016117216117216117,0.0032234432234432234
0.8502513629973691,0.01531135531135531,0.0016117216117216117,0.0032234432234432234
0.8571663439979602,0.0,0.0,0.0
0.8614921740008867,0.0,0.0,0.0
0.8640710119980213,0.0,0.0,0.0
0.8713719970000966,0.0,0.0,0.0
0.8758818569986033,0.0,0.0,0.0
0.8774105310003506,0.0,0.0,0.0
0.8838097369989555,0.0,0.0,0.0
0.889209156997822,0.0,0.0032234432234432234,0.0
0.8893917969980976,0.0,0.0032234432234432234,0.0
0.9000753250002163,0.0,0.0032234432234432234,0.0
0.9085907219996443,0.0,0.0032234432234432234,0.0
0.9183733919999213,0.0,0.0032234432234432234,0.0
0.9231234219987527,0.0,0.0,0.0024175824175824176
0.9232387310003105,0.0,0.0,0.0024175824175824176
0.9291678150002554,0.0,0.0,0.0024175824175824176
0.9363115179985471,0.0,0.012087912087912087,0.01934065934065934
0.9425486410000303,0.0,0.0024175824175824176,0.0
0.9490427069977159,0.0,0.0,0.03223443223443223
0.9527505589976499,0.0,0.012893772893772894,0.005641025641025641
0.957971882999118,0.0,0.012893772893772894,0.005641025641025641
0.9607311519976065,0.0,0.004835164835164835,0.0
0.9637031620004564,0.0,0.004835164835164835,0.0
0.9659619749982085,0.0,0.004835164835164835,0.0
0.9717753479999374,0.0,0.004835164835164835,0.0
0.9718569190008566,0.0,0.004835164835164835,0.0
0.9772576289979042,0.0,0.004835164835164835,0.0
0.9789946259988938,0.0,0.004835164835164835,0.0
0.9827110990008805,0.0,0.004835164835164835,0.0
0.988659465998353,0.0,0.33604395604395604,0.008864468864468863
0.9932995659983135,0.0,0.0032234432234432234,0.0
0.9935003600003256,0.0,0.0032234432234432234,0.0
1.0005098059991724,0.0,0.0032234432234432234,0.0
1.0045253759999468,0.0,0.0032234432234432234,0.0
1.0077075240005797,0.0,0.0032234432234432234,0.0
1.0101053559992579,0.0,0.0032234432234432234,0.0
1.0192152370000258,0.0,0.0032234432234432234,0.0
1.025492292999843,0.0,0.0032234432234432234,0.0
1.0287030910003523,0.0,0.0,0.0136996336996337
1.0313160109981254,0.0,0.0,0.0136996336996337
1.0361992100006319,0.0,0.0,0.0136996336996337
1.0393336489978537,0.0,0.0,0.0136996336996337
1.041049089999433,0.0,0.0,0.0136996336996337
1.044906593997439,0.0,0.0,0.0136996336996337
1.0504952409974067,0.0,0.0,0.0136996336996337
1.0507992200000444,0.0,0.0,0.0136996336996337
1.0564023429978988,0.0,0.0,0.0136996336996337
1.0566107189988543,0.0,0.0,0.0136996336996337
1.0619089430001623,0.0,0.0,0.0136996336996337
1.0655503069974657,0.0,0.0,0.0136996336996337
1.071832056997664,0.0,0.0,0.0136996336996337
1.07566450000013,0.0,0.0,0.007252747252747252
1.0805662179991486,0.0,0.0,0.007252747252747252
1.0901347830003942,0.0,0.0,0.007252747252747252
1.100299506997544,0.0,0.008864468864468863,0.0
1.109327291000227,0.0,0.008864468864468863,0.0
1.116505882000638,0.0,0.008864468864468863,0.0
1.120502730998851,0.0,0.0008058608058608059,0.0
1.1257418009990943,0.0,0.0008058608058608059,0.0
1.1266306699981214,0.0,0.0008058608058608059,0.0
1.1275829799997155,0.0,0.0008058608058608059,0.0
1.1284843059984269,0.0,0.0008058608058608059,0.0
1.1303412319975905,0.0,0.0008058608058608059,0.0
1.1329292320006061,0.0,0.0008058608058608059,0.0
1.1374919829977443,0.0,0.0,0.0
1.1377431629989587,0.0,0.0,0.0
1.1434495600005903,0.0,0.0,0.0
1.1494811619995744,0.0,0.006446886446886447,0.0
1.154611190999276,0.0,0.006446886446886447,0.0
1.1571730489995389,0.0,0.006446886446886447,0.0
1.1620669839976472,0.0,0.0,0.006446886446886447
1.1670999189991562,0.0,0.004029304029304029,0.026593406593406595
1.1705617810002877,0.0,0.004029304029304029,0.026593406593406595
1.1789499869992142,0.0,0.004029304029304029,0.026593406593406595
1.1873214119987097,0.0,0.004029304029304029,0.026593406593406595
1.1927779849975195,0.0,0.004029304029304029,0.026593406593406595
1.1943494029983412,0.0,0.004029304029304029,0.026593406593406595
1.2015843789995415,0.0,0.004029304029304029,0.026593406593406595
1.2055209530008142,0.0,0.004029304029304029,0.026593406593406595
1.2093347429981804,0.0,0.004029304029304029,0.026593406593406595
1.2142710779990011,0.0,0.0,0.008864468864468863
1.2171625429982669,0.0,0.0,0.0
1.2201988720007648,0.0,0.0,0.0
1.2225347499988857,0.0,0.0,0.0
1.2227047739979753,0.0,0.0,0.0
1.2282106279999425,0.0,0.004029304029304029,0.008864468864468863
1.229061088997696,0.0,0.004029304029304029,0.008864468864468863
1.2307419409989961,0.0,0.004029304029304029,0.008864468864468863
1.2339446939986374,0.0,0.004029304029304029,0.008864468864468863
1.2349660599975323,0.0,0.0032234432234432234,0.0
1.2358953449984256,0.0,0.005641025641025641,0.0
1.2368008970006485,0.0,0.006446886446886447,0.04029304029304029
1.237712936999742,0.0,0.006446886446886447,0.04029304029304029
1.238709072000347,0.0,0.006446886446886447,0.04029304029304029
1.2395333499989647,0.0,0.006446886446886447,0.04029304029304029
1.2412336269990192,0.0,0.004835164835164835,0.008058608058608058
1.2452366819998133,0.0,0.004835164835164835,0.008058608058608058
1.2501912049992825,0.0,0.004835164835164835,0.008058608058608058
1.253417759999138,0.0,0.004835164835164835,0.008058608058608058
1.254240727997967,0.0,0.004835164835164835,0.008058608058608058
1.256624337998801,0.0,0.004835164835164835,0.008058608058608058
1.2567079969994666,0.0,0.004835164835164835,0.008058608058608058
1.2620194320006703,0.0,0.004835164835164835,0.008058608058608058
1.265297924997867,0.0,0.004835164835164835,0.008058608058608058
1.2661651460002759,0.0,0.004835164835164835,0.008058608058608058
1.2677364359988132,0.0,0.004835164835164835,0.008058608058608058
1.2716882659988187,0.0,0.004835164835164835,0.008058608058608058
1.274667142999533,0.0,0.0,0.0016117216117216117
1.2770942009992723,0.0,0.004029304029304029,0.0
1.277238219998253,0.0,0.004029304029304029,0.0
1.282789815999422,0.0,0.004029304029304029,0.0
1.282989376999467,0.0,0.0,0.004835164835164835
1.2885284570002113,0.0,0.0,0.004835164835164835
1.288836227999127,0.0,0.0,0.004835164835164835
1.2937737899992499,0.0,0.0,0.004835164835164835
1.2985306279988436,0.0,0.0,0.004835164835164835
1.3026973039995937,0.0,0.0,0.004835164835164835
1.3048798089985212,0.0,0.0,0.004835164835164835
1.3050833029992646,0.0,0.0,0.004835164835164835
1.3100258109989227,0.0,0.0,0.004835164835164835
1.3142495289976068,0.0,0.0,0.004835164835164835
1.3164427109986718,0.0,0.0,0.004835164835164835
1.3172350610002468,0.0,0.0,0.004835164835164835
1.3193236490005802,0.0,0.0,0.004835164835164835
1.3201260099995125,0.0,0.0024175824175824176,0.0
1.3222156579977309,0.0,0.0024175824175824176,0.0
1.3229689439976937,0.0,0.0024175824175824176,0.0
1.3251338249974651,0.0,0.0024175824175824176,0.0
1.3253465069974482,0.0,0.0,0.007252747252747252
1.3301752869992924,0.0,0.0,0.007252747252747252
1.3344862989979447,0.0,0.0,0.007252747252747252
1.335928549997334,0.0,0.0,0.007252747252747252
1.340877514998283,0.0,0.0,0.007252747252747252
1.345074051998381,0.0,0.0,0.02095238095238095
1.346579141998518,0.0,0.0,0.02095238095238095
1.3507753800004139,0.0,0.0,0.02095238095238095
1.352878192999924,0.0,0.0,0.03142857142857143
1.3536712729983265,0.0,0.0,0.03142857142857143
1.355850941999961,0.0,0.0,0.03142857142857143
1.3566507739997178,0.0,0.01531135531135531,0.0
1.3581800409992866,0.0,0.01531135531135531,0.0
1.36230258499927,0.0,0.01531135531135531,0.0
1.3651352209999459,0.0,0.01531135531135531,0.0
1.3686016309984552,0.0,0.01531135531135531,0.0
1.3688410709983145,0.0,0.01531135531135531,0.0
1.373755947999598,0.0,0.01531135531135531,0.0
1.3784760439993988,0.0,0.008864468864468863,0.00967032967032967
1.3786935539974365,0.0,0.008864468864468863,0.00967032967032967
1.3836704549976275,0.0,0.008864468864468863,0.00967032967032967
1.3886112949985545,0.0,0.008864468864468863,0.00967032967032967
1.3935256469994783,0.0,0.008864468864468863,0.00967032967032967
1.3977310080008465,0.0,0.008864468864468863,0.00967032967032967
1.399953372998425,0.0,0.008864468864468863,0.00967032967032967
1.4002134229995136,0.0,0.008864468864468863,0.00967032967032967
1.405189827997674,0.0,0.008864468864468863,0.00967032967032967
1.4086218099982943,0.0,0.0024175824175824176,0.0
1.4088358599983621,0.0,0.0024175824175824176,0.0
1.4138290570008394,0.0,0.0024175824175824176,0.0
1.4188824070006376,0.0,0.0024175824175824176,0.0
1.4220469939973555,0.0,0.0024175824175824176,0.0
1.422922734000167,0.0,0.004029304029304029,0.0016117216117216117
1.4244939550007985,0.0,0.004029304029304029,0.0016117216117216117
1.4287081839975144,0.0,0.004029304029304029,0.0016117216117216117
1.4296769139982644,0.0,0.004029304029304029,0.0016117216117216117
1.4313004930008901,0.0,0.004029304029304029,0.0016117216117216117
1.435719117998815,0.0,0.012087912087912087,0.012893772893772894
1.4365762779998477,0.0,0.012087912087912087,0.012893772893772894
1.4381258100002015,0.0,0.012087912087912087,0.012893772893772894
1.4420452769991243,0.0,0.012087912087912087,0.012893772893772894
1.446576816997549,0.0,0.0,0.0
1.4468411739981093,0.0,0.0,0.0
1.4528808510003728,0.0,0.0,0.0
1.4565628099990136,0.0,0.0,0.0
1.461565760000667,0.0,0.0,0.0
1.4652414499978477,0.0,0.0032234432234432234,0.008864468864468863
1.4698953579973022,0.0,0.0032234432234432234,0.008864468864468863
1.4699564389993611,0.0,0.0,0.0
1.4750542750007298,0.0,0.0,0.0
1.4795924549980555,0.0,0.0,0.0
1.4798661679997167,0.0,0.0,0.0
1.4857343309995485,0.0,0.0,0.0
1.4908484000006865,0.0,0.0,0.0
1.4944302109979617,0.0,0.0,0.0
1.5017282869994233,0.0,0.0,0.0
1.5067259290008224,0.0,0.0,0.0
1.509848265999608,0.0,0.0,0.0
1.5101286539975263,0.0,0.0,0.0
1.5205391339986818,0.0,0.0,0.0
1.5273457879993657,0.0,0.0032234432234432234,0.014505494505494505
1.5327896749986394,0.0,0.004029304029304029,0.0
1.5331139679983607,0.0,0.004029304029304029,0.0
1.541847140997561,0.0,0.004029304029304029,0.0
1.5468648139976722,0.0,0.012893772893772894,0.007252747252747252
1.5536609959999623,0.0,0.007252747252747252,0.0
1.5586762729981274,0.0,0.007252747252747252,0.0
1.5620890999998664,0.0,0.007252747252747252,0.0
1.5680474100008723,0.0,0.007252747252747252,0.0
1.571739262999472,0.0,0.007252747252747252,0.0
1.5766510459980054,0.0,0.007252747252747252,0.0
1.5767054579991964,0.0,0.007252747252747252,0.0
1.5820168030004425,0.0,0.007252747252747252,0.0
1.5855366619980487,0.0,0.0008058608058608059,0.024175824175824173
1.5856904709980881,0.0,0.0008058608058608059,0.024175824175824173
1.5915653629999724,0.0,0.0008058608058608059,0.024175824175824173
1.5918453079975734,0.0,0.0008058608058608059,0.024175824175824173
1.6005169589989237,0.0,0.0008058608058608059,0.024175824175824173
1.6078149179993488,0.0,0.004835164835164835,0.0
1.6152924009984417,0.0,0.004835164835164835,0.0
1.6195252079996862,0.0,0.004835164835164835,0.0
1.6203621439999552,0.0,0.004835164835164835,0.0
1.622754428000917,0.0,0.004835164835164835,0.0
1.6228395990001445,0.0,0.004835164835164835,0.0
1.6297882010003377,0.0,0.004835164835164835,0.0
1.6350351289984246,0.0,0.004835164835164835,0.0
1.6358799929985253,0.0,0.004835164835164835,0.0
1.6381487590006145,0.0,0.004835164835164835,0.0
1.6382692309998674,0.0,0.008058608058608058,0.0
1.6435895419999724,0.0,0.0,0.016923076923076923
1.6459028919998673,0.0,0.0,0.012087912087912087
1.646011794997321,0.0,0.0,0.012087912087912087
1.6529327729986107,0.0,0.0,0.012087912087912087
1.6566690969993942,0.0,0.0,0.012087912087912087
1.6629291479985113,0.0,0.0,0.012087912087912087
1.6688348530005896,0.0,0.0,0.012087912087912087
1.674637382999208,0.0,0.005641025641025641,0.005641025641025641
1.68173902199851,0.0,0.005641025641025641,0.005641025641025641
1.6889378189989657,0.0,0.005641025641025641,0.005641025641025641
1.6931462669999746,0.0,0.005641025641025641,0.005641025641025641
1.6949423229998501,0.0,0.0016117216117216117,0.00967032967032967
1.697258731997863,0.0,0.0016117216117216117,0.00967032967032967
1.6975041139994573,0.0,0.0016117216117216117,0.00967032967032967
1.7073093830003927,0.0,0.0016117216117216117,0.00967032967032967
1.714464398999553,0.0,0.0016117216117216117,0.00967032967032967
1.7209126659981848,0.0,0.0016117216117216117,0.00967032967032967
1.7249646589989425,0.0,0.007252747252747252,0.0
1.728162142997462,0.0,0.007252747252747252,0.0
1.728414358000009,0.0,0.007252747252747252,0.0
1.737942062998627,0.0,0.007252747252747252,0.0
1.7461444429973199,0.0,0.007252747252747252,0.0
1.7529454769974109,0.0,0.007252747252747252,0.0
1.758999744997709,0.0,0.007252747252747252,0.0
1.7657730930004618,0.0,0.007252747252747252,0.0
1.7709961489999841,0.0,0.007252747252747252,0.0
1.7724513959983597,0.0,0.007252747252747252,0.0
1.7794806469973992,0.0,0.007252747252747252,0.0
1.7848051670007408,0.0,0.008058608058608058,0.0
1.7850265889974253,0.0,0.0,0.0
1.7953926800000772,0.0,0.0,0.0
1.8029566289987997,0.0,0.0,0.0
1.8109202949999599,0.0,0.0,0.0
1.8186069729999872,0.0,0.0,0.0
1.8245829660008894,0.0,0.0,0.0
1.8291843439983495,0.0,0.004835164835164835,0.0
1.834806614999252,0.0,0.004835164835164835,0.0
1.834911629997805,0.0,0.008058608058608058,0.0
1.8402167839994945,0.0,0.008058608058608058,0.0
1.842717185998481,0.0,0.008058608058608058,0.0
1.8484291009990557,0.0,0.008058608058608058,0.0
1.8485012550008832,0.0,0.008058608058608058,0.0
1.8564484079979593,0.0,0.008058608058608058,0.0
1.8613932589978504,0.0,0.006446886446886447,0.0
1.8667250420003256,0.0,0.006446886446886447,0.0
1.8683038919989485,0.0,0.004029304029304029,0.0008058608058608059
1.872042186998442,0.0,0.004029304029304029,0.0008058608058608059
1.8766079119995993,0.0,0.004029304029304029,0.0008058608058608059
1.8768463529995643,0.0,0.004029304029304029,0.0008058608058608059
1.883076654998149,0.0,0.004029304029304029,0.0008058608058608059
1.8866128089975973,0.0,0.004029304029304029,0.0008058608058608059
1.892023082000378,0.0,0.004029304029304029,0.0008058608058608059
1.893547634997958,0.0,0.004029304029304029,0.0008058608058608059
1.8973267990004388,0.0,0.004029304029304029,0.0008058608058608059
1.9025666710003861,0.0,0.006446886446886447,0.0
1.905003300998942,0.0,0.006446886446886447,0.0
1.9106170230006683,0.0,0.006446886446886447,0.0
1.9108466689976922,0.0,0.0,0.017728937728937726
1.9173779970005853,0.0,0.0,0.017728937728937726
1.9220416940006544,0.0,0.0,0.017728937728937726
1.9268767680005112,0.0,0.0,0.017728937728937726
1.93263016399942,0.0,0.0016117216117216117,0.0
1.9327887239996926,0.0,0.0016117216117216117,0.0
1.9383559439993405,0.0,0.0016117216117216117,0.0
1.9391462029998365,0.0,0.0016117216117216117,0.0
1.940806024998892,0.0,0.0016117216117216117,0.0
1.9438487400002487,0.0,0.0016117216117216117,0.0
1.94696570099768,0.0,0.0016117216117216117,0.0
1.9499960009998176,0.0,0.0016117216117216117,0.0
1.950835122999706,0.0,0.0016117216117216117,0.0
1.9530537940008799,0.0,0.0016117216117216117,0.0
1.9532029809997766,0.0,0.00967032967032967,0.045128205128205125
1.9586997000005795,0.0,0.00967032967032967,0.045128205128205125
1.9603250969994406,0.0,0.00967032967032967,0.045128205128205125
1.9640496879983402,0.0,0.00967032967032967,0.045128205128205125
1.969678830999328,0.0,0.00967032967032967,0.045128205128205125
1.9750898749989574,0.0,0.00967032967032967,0.045128205128205125
1.9768071479993523,0.0,0.018534798534798533,0.0016117216117216117
1.9798220039992884,0.0,0.018534798534798533,0.0016117216117216117
1.9818946470004448,0.0,0.018534798534798533,0.0016117216117216117
1.9828884359994845,0.0,0.018534798534798533,0.0016117216117216117
1.983815469997353,0.0,0.018534798534798533,0.0016117216117216117
1.985507384997618,0.0,0.018534798534798533,0.0016117216117216117
1.9878733369987458,0.0,0.018534798534798533,0.0016117216117216117
1.9880319730000338,0.0,0.010476190476190476,0.0
1.993423478998011,0.0,0.010476190476190476,0.0
1.9944784779982,0.0,0.010476190476190476,0.0
1.9955441179990885,0.0,0.010476190476190476,0.0
1.9958502890003729,0.0,0.010476190476190476,0.0
2.0021072880008433,0.0,0.0008058608058608059,0.04673992673992674
2.006106868997449,0.0,0.0008058608058608059,0.022564102564102562
2.009178576998238,0.0,0.0008058608058608059,0.022564102564102562
2.011612795999099,0.0,0.0008058608058608059,0.022564102564102562
2.0171696779980266,0.0,0.0008058608058608059,0.022564102564102562
2.017294134999247,0.0,0.0008058608058608059,0.0
2.022331806998409,0.0,0.0008058608058608059,0.0
2.025635883997893,0.0,0.0008058608058608059,0.0
2.025979368998378,0.0,0.008058608058608058,0.0
2.031683528999565,0.0,0.008058608058608058,0.0
2.031848333997914,0.0,0.0032234432234432234,0.004835164835164835
2.0371905339998193,0.0,0.0032234432234432234,0.004835164835164835
2.0395190050003293,0.0,0.0032234432234432234,0.004835164835164835
2.039790736998839,0.0,0.028205128205128206,0.0032234432234432234
2.044876595999085,0.0,0.028205128205128206,0.0032234432234432234
2.048107695998624,0.0,0.0,0.01531135531135531
2.0492037599979085,0.0,0.0,0.01531135531135531
2.0493867289987975,0.0,0.0,0.01531135531135531
2.0549015260003216,0.0,0.0,0.01531135531135531
2.0558353069973236,0.0,0.0,0.01531135531135531
2.0573566399980336,0.0,0.0,0.01531135531135531
2.0621746469987556,0.0,0.0,0.01531135531135531
2.068415649999224,0.0,0.0,0.007252747252747252
2.0725269859976834,0.0,0.0,0.007252747252747252
2.074923611999111,0.0,0.0,0.007252747252747252
2.075000201999501,0.0,0.0,0.007252747252747252
2.0804818329997943,0.0,0.0,0.007252747252747252
2.081541160998313,0.0,0.0,0.051575091575091575
2.0818620909994934,0.0,0.0,0.051575091575091575
2.087282803000562,0.0,0.0,0.051575091575091575
2.0880947449986706,0.0,0.0,0.051575091575091575
2.089717947997997,0.0,0.0,0.051575091575091575
2.09346238299986,0.0,0.0,0.051575091575091575
2.097843114999705,0.0,0.0,0.051575091575091575
2.098816257999715,0.0,0.0,0.051575091575091575
2.099788879000698,0.0,0.0,0.051575091575091575
2.1006395919976057,0.0,0.006446886446886447,0.0
2.10219428399796,0.0,0.006446886446886447,0.0
2.105987055998412,0.0,0.006446886446886447,0.0
2.110430983000697,0.0,0.006446886446886447,0.0
2.1114060129984864,0.0,0.006446886446886447,0.0
2.112284828999691,0.0,0.006446886446886447,0.0
2.1139013369975146,0.0,0.006446886446886447,0.0
2.1183832379974774,0.0,0.0,0.0
2.118513534998783,0.0,0.0,0.0
2.1239012499972887,0.0,0.0,0.0
2.126446823000151,0.0,0.0,0.0
2.1304775739990873,0.0,0.0,0.0
2.1333247129987285,0.0,0.0,0.0
2.1356763949988817,0.0,0.0,0.0
2.135900117998972,0.0,0.0,0.0
2.141237406998698,0.0,0.0,0.0
2.1437061369979347,0.0,0.0,0.0
2.1437882430000172,0.0,0.007252747252747252,0.0
2.1497715639998205,0.0,0.007252747252747252,0.0
2.1530253370001446,0.0,0.004835164835164835,0.03545787545787545
2.1546823139979097,0.0,0.0016117216117216117,0.012893772893772894
2.157733553998696,0.0,0.0016117216117216117,0.012893772893772894
2.1602839970000787,0.0,0.0016117216117216117,0.012893772893772894
2.1663037020007323,0.0,0.0016117216117216117,0.012893772893772894
2.169388395999704,0.0,0.008864468864468863,0.0
2.171741932997975,0.0,0.0024175824175824176,0.0
2.1718996849995165,0.0,0.0024175824175824176,0.0
2.1772504769978696,0.0,0.0024175824175824176,0.0
2.179840182998305,0.0,0.0024175824175824176,0.0
2.1849718800003757,0.0,0.0024175824175824176,0.0
2.187538443999074,0.0,0.0024175824175824176,0.0
2.1920770809992973,0.0,0.0024175824175824176,0.0
2.192245379999804,0.0,0.0024175824175824176,0.0
2.197228502998769,0.0,0.0024175824175824176,0.0
2.2009526939982607,0.0,0.0024175824175824176,0.0
2.2054920259979554,0.0,0.0024175824175824176,0.0
2.206284585998219,0.0,0.0024175824175824176,0.0
2.207914720998815,0.0,0.0024175824175824176,0.0
2.212159447997692,0.0,0.007252747252747252,0.0
2.212984341000265,0.0,0.012893772893772894,0.026593406593406595
2.214747874997556,0.0,0.012893772893772894,0.026593406593406595
2.2171398709979258,0.0,0.012893772893772894,0.026593406593406595
2.217227863999142,0.0,0.012893772893772894,0.026593406593406595
2.2227810410004167,0.0,0.012893772893772894,0.026593406593406595
2.223010190999048,0.0,0.012893772893772894,0.026593406593406595
2.2288775149972935,0.0,0.012893772893772894,0.026593406593406595
2.2344710670004133,0.0,0.011282051282051281,0.012893772893772894
2.2346808839974983,0.0,0.011282051282051281,0.012893772893772894
2.2398420789977536,0.0,0.011282051282051281,0.012893772893772894
2.2441183980008645,0.0,0.011282051282051281,0.012893772893772894
2.245762474998628,0.0,0.011282051282051281,0.012893772893772894
2.2503657909983303,0.0,0.011282051282051281,0.012893772893772894
2.25067280499934,0.0,0.011282051282051281,0.012893772893772894
2.255914984998526,0.0,0.011282051282051281,0.012893772893772894
2.2587453380001534,0.0,0.011282051282051281,0.012893772893772894
2.26348281600076,0.0,0.011282051282051281,0.012893772893772894
2.2636647510007606,0.0,0.011282051282051281,0.012893772893772894
2.2696405479982786,0.0,0.011282051282051281,0.012893772893772894
2.273729189997539,0.0,0.011282051282051281,0.012893772893772894
2.277488032999827,0.0,0.011282051282051281,0.012893772893772894
2.2829325339989737,0.0,0.004029304029304029,0.0016117216117216117
2.283165328000905,0.0,0.004029304029304029,0.0016117216117216117
2.288634283999272,0.0,0.004029304029304029,0.0016117216117216117
2.288998674997856,0.0,0.0,0.016117216117216115
2.2943597189987486,0.0,0.0,0.016117216117216115
2.296630033000838,0.0,0.0,0.016117216117216115
2.296919454998715,0.0,0.0,0.016117216117216115
2.3030612000002293,0.0,0.0,0.016117216117216115
2.3066450689984777,0.0,0.0,0.016117216117216115
2.306790729999193,0.0,0.004835164835164835,0.01934065934065934
2.3119068579981104,0.0,0.004835164835164835,0.01934065934065934
2.315846410998347,0.0,0.0,0.0
2.31896969599984,0.0,0.0,0.0
2.3203848880002624,0.0,0.0,0.0
2.3245475240000815,0.0,0.0,0.0
2.326002891000826,0.0,0.0,0.0032234432234432234
2.3338934409985086,0.0,0.0,0.0032234432234432234
2.3386387770005967,0.0,0.0,0.0032234432234432234
2.33884270499766,0.0,0.0,0.0032234432234432234
2.3445687419989554,0.0,0.0,0.0032234432234432234
2.34470513999986,0.0,0.0,0.0032234432234432234
2.3506553279985383,0.0,0.0,0.0032234432234432234
2.3578783070006466,0.0,0.051575091575091575,0.004835164835164835
2.3626594149973243,0.0,0.051575091575091575,0.004835164835164835
2.368070563999936,0.0,0.051575091575091575,0.004835164835164835
2.3683171560005576,0.0,0.0024175824175824176,0.024175824175824173
2.3739907429990126,0.0,0.0024175824175824176,0.024175824175824173
2.374096098999871,0.0,0.0024175824175824176,0.024175824175824173
2.379454463000002,0.0,0.0024175824175824176,0.024175824175824173
2.3820537610008614,0.0,0.0024175824175824176,0.024175824175824173
2.3858283499976096,0.0,0.0024175824175824176,0.024175824175824173
2.390730030998384,0.0,0.0024175824175824176,0.024175824175824173
2.3964301949999935,0.0,0.0024175824175824176,0.024175824175824173
2.3965239579993067,0.0,0.0024175824175824176,0.024175824175824173
2.4021367029999965,0.0,0.0024175824175824176,0.024175824175824173
2.402346591999958,0.0,0.0024175824175824176,0.024175824175824173
2.407962925000902,0.0,0.0,0.0
2.4080380060004245,0.0,0.004029304029304029,0.0
2.4134293799979787,0.0,0.004029304029304029,0.0
2.4151879159981036,0.0,0.004835164835164835,0.008058608058608058
2.418325520997314,0.0,0.004835164835164835,0.008058608058608058
2.4191840829989815,0.0,0.004835164835164835,0.008058608058608058
2.4207593809987884,0.0,0.004835164835164835,0.008058608058608058
2.4262450139976863,0.0,0.004835164835164835,0.008058608058608058
2.426451384999382,0.0,0.0032234432234432234,0.0
2.435516949000885,0.0,0.0032234432234432234,0.0
2.4425424420005584,0.0,0.0016117216117216117,0.016923076923076923
2.448593425000581,0.0,0.012893772893772894,0.0
2.45300873800079,0.0,0.012893772893772894,0.0
2.4530841189989587,0.0,0.012893772893772894,0.0
2.45824061500025,0.0,0.012893772893772894,0.0
2.461452718998771,0.0,0.0,0.0
2.4622875210006896,0.0,0.0,0.0
2.4646327219998057,0.0,0.0,0.0
2.4647942150004383,0.0,0.0,0.0
2.4704987250006525,0.0,0.0,0.0
2.4714478079986293,0.0,0.0,0.0
2.472282319999067,0.0,0.0,0.0
2.4738476679995074,0.0,0.0,0.0
2.4779920379987743,0.0,0.0032234432234432234,0.0008058608058608059
2.4811522339987278,0.0,0.0032234432234432234,0.0008058608058608059
2.4829260029982834,0.0,0.0032234432234432234,0.0008058608058608059
2.485311188000196,0.0,0.0032234432234432234,0.0008058608058608059
2.485455162997823,0.0,0.0032234432234432234,0.0008058608058608059
2.490944393997779,0.0,0.0032234432234432234,0.0008058608058608059
2.491778768999211,0.0,0.0016117216117216117,0.011282051282051281
2.4933292259993323,0.0,0.0016117216117216117,0.011282051282051281
2.4972477890005393,0.0,0.0016117216117216117,0.011282051282051281
2.5031910079997033,0.0,0.0024175824175824176,0.0
2.5075702619978983,0.0,0.0024175824175824176,0.0
2.5086035540007288,0.0,0.0024175824175824176,0.0
2.5094265619991347,0.0,0.0016117216117216117,0.0008058608058608059
2.5110831809979572,0.0,0.0016117216117216117,0.0008058608058608059
2.5151617909978086,0.0,0.0016117216117216117,0.0008058608058608059
2.5183280059973185,0.0,0.0016117216117216117,0.0008058608058608059
2.5191824049979914,0.0,0.0016117216117216117,0.0008058608058608059
2.520753505999892,0.0,0.0016117216117216117,0.0008058608058608059
2.524566557000071,0.0,0.0016117216117216117,0.0008058608058608059
2.528468074997363,0.0,0.0016117216117216117,0.0008058608058608059
2.531707706999441,0.0,0.0016117216117216117,0.0008058608058608059
2.53260463100014,0.0,0.0016117216117216117,0.0008058608058608059
2.5341626410008757,0.0,0.0016117216117216117,0.0008058608058608059
2.5384943450007995,0.0,0.0,0.012087912087912087
2.5400903209992975,0.0,0.0,0.012087912087912087
2.543765133999841,0.0,0.0,0.012087912087912087
2.543847475997609,0.0,0.0,0.012087912087912087
2.549165725999046,0.0,0.0,0.012087912087912087
2.5512839580005675,0.0,0.0,0.012087912087912087
2.552154076998704,0.0,0.008058608058608058,0.010476190476190476
2.5530350119988725,0.0,0.008058608058608058,0.010476190476190476
2.554656119998981,0.0,0.008058608058608058,0.010476190476190476
2.5586159129998123,0.0,0.008058608058608058,0.010476190476190476
2.5635853389976546,0.0,0.008058608058608058,0.010476190476190476
2.567522908000683,0.0,0.0024175824175824176,0.025787545787545788
2.5710590579983545,0.0,0.0024175824175824176,0.025787545787545788
2.57114154699957,0.0,0.0024175824175824176,0.025787545787545788
2.57650441000078,0.0,0.0024175824175824176,0.025787545787545788
2.578206780999608,0.0,0.0,0.004835164835164835
2.581727120999858,0.0,0.0,0.004835164835164835
2.581933648998529,0.0,0.0,0.0
2.587573913999222,0.0,0.007252747252747252,0.0
2.587787701999332,0.0,0.007252747252747252,0.0
2.59268201300074,0.0,0.007252747252747252,0.0
2.5979035790005582,0.0,0.0032234432234432234,0.004029304029304029
2.6017151970008854,0.0,0.0032234432234432234,0.004029304029304029
2.6060197400001925,0.0,0.0032234432234432234,0.004029304029304029
2.6074607759983337,0.0,0.0,0.007252747252747252
2.611657795998326,0.0,0.0,0.007252747252747252
2.6132102929987013,0.0,0.0,0.007252747252747252
2.6179804429993965,0.0,0.0008058608058608059,0.004835164835164835
2.622917075997975,0.0,0.0008058608058608059,0.004835164835164835
2.6276781329979713,0.0,0.0008058608058608059,0.004835164835164835
2.6334204129998398,0.0,0.0008058608058608059,0.004835164835164835
2.6384296219985117,0.0,0.0008058608058608059,0.004835164835164835
2.641426019999926,0.0,0.0008058608058608059,0.004835164835164835
2.6437882229984098,0.0,0.006446886446886447,0.0
2.6439558120000584,0.0,0.006446886446886447,0.0
2.649871980000171,0.0,0.006446886446886447,0.0
2.654119241000444,0.0,0.0016117216117216117,0.0016117216117216117
2.6556295349982975,0.0,0.0016117216117216117,0.0016117216117216117
2.660009856997931,0.0,0.0016117216117216117,0.0016117216117216117
2.660834543999954,0.0,0.0016117216117216117,0.0016117216117216117
2.6630784419976408,0.0,0.0016117216117216117,0.0016117216117216117
2.663838549000502,0.0,0.0016117216117216117,0.0016117216117216117
2.6655256300000474,0.0,0.0008058608058608059,0.017728937728937726
2.669405189997633,0.0,0.0008058608058608059,0.017728937728937726
2.6730552179978986,0.0,0.0008058608058608059,0.017728937728937726
2.673163340998144,0.0,0.0008058608058608059,0.017728937728937726
2.6781386699985887,0.0,0.0008058608058608059,0.017728937728937726
2.6836150769995584,0.0,0.008864468864468863,0.018534798534798533
2.684518655998545,0.0,0.012893772893772894,0.0032234432234432234
2.6865591130008397,0.0,0.012893772893772894,0.0032234432234432234
2.687480303000484,0.0,0.012893772893772894,0.0032234432234432234
2.6889421509986278,0.0,0.012893772893772894,0.0032234432234432234
2.693325186999573,0.0,0.012893772893772894,0.0032234432234432234
2.695072294998681,0.0,0.012893772893772894,0.0032234432234432234
2.697417613999278,0.0,0.011282051282051281,0.0008058608058608059
2.697509785000875,0.0,0.011282051282051281,0.0008058608058608059
2.7033321409981,0.0,0.011282051282051281,0.0008058608058608059
2.7035533449998184,0.0,0.011282051282051281,0.0008058608058608059
2.708939593998366,0.0,0.011282051282051281,0.0008058608058608059
2.7113327410006605,0.0,0.011282051282051281,0.0008058608058608059
2.7114140599987877,0.0,0.011282051282051281,0.0008058608058608059
2.717361969000194,0.0,0.011282051282051281,0.0008058608058608059
2.7211041189984826,0.0,0.0,0.004835164835164835
2.726549053000781,0.0,0.0,0.004835164835164835
2.727445525000803,0.0,0.0,0.004835164835164835
2.7290204249984527,0.0,0.0,0.004835164835164835
2.7331025829989812,0.0,0.0,0.004835164835164835
2.736334994999197,0.0,0.0,0.004835164835164835
2.7374148719973164,0.0,0.0,0.004835164835164835
2.7376822929982154,0.0,0.0,0.004835164835164835
2.74629436000032,0.0,0.0,0.004835164835164835
2.7532318599987775,0.0,0.0,0.004835164835164835
2.7584959819978394,0.0,0.0709157509157509,0.03706959706959707
2.7596883090009214,0.0,0.0,0.020146520146520144
2.759852608000074,0.0,0.0,0.020146520146520144
2.769660515998112,0.0,0.0,0.020146520146520144
2.774379880000197,0.0,0.0024175824175824176,0.0
2.7797492429999693,0.0,0.0024175824175824176,0.0
2.7817257749993587,0.0,0.0024175824175824176,0.0
2.783710396997776,0.0,0.0024175824175824176,0.0
2.7853368849973776,0.0,0.0024175824175824176,0.0
2.7885091969983478,0.0,0.0024175824175824176,0.0
2.789413890997821,0.0,0.0024175824175824176,0.0
2.7911751449973963,0.0,0.0024175824175824176,0.0
2.799763006998546,0.0,0.0024175824175824176,0.0
2.805350307997287,0.0,0.0,0.0
2.8138722039984714,0.0,0.0,0.0
2.8183274539987906,0.0,0.00967032967032967,0.0032234432234432234
2.81920550599898,0.0,0.004029304029304029,0.0
2.8214624840002216,0.0,0.004029304029304029,0.0
2.821596238998609,0.0,0.004029304029304029,0.0
2.827060397998139,0.0,0.004029304029304029,0.0
2.82819918399764,0.0,0.004029304029304029,0.0
2.8283864990007714,0.0,0.004029304029304029,0.0
2.836949583997921,0.0,0.004029304029304029,0.0
2.8421913549973397,0.0,0.004029304029304029,0.0
2.8454022469995834,0.0,0.004029304029304029,0.0
2.846314607999375,0.0,0.004029304029304029,0.0
2.8484273139983998,0.0,0.004029304029304029,0.0
2.849696174998826,0.0,0.004029304029304029,0.0
2.8564758030006487,0.0,0.004029304029304029,0.0
2.8602167819990427,0.0,0.0,0.0024175824175824176
2.8677794319992245,0.0,0.0,0.0024175824175824176
2.8720682809980644,0.0,0.0,0.0024175824175824176
2.8731040009988646,0.0,0.0,0.0024175824175824176
2.8739632139986497,0.0,0.004029304029304029,0.00967032967032967
2.876507878998382,0.0,0.004029304029304029,0.00967032967032967
2.8836330489975808,0.0,0.004029304029304029,0.00967032967032967
2.8907917109972914,0.0,0.004029304029304029,0.00967032967032967
2.8965175730008923,0.0,0.004029304029304029,0.00967032967032967
2.9020142589979514,0.0,0.0,0.0
2.9085007600006065,0.0,0.0,0.0
2.914270557997952,0.0,0.0,0.0
2.920915727998363,0.0,0.0,0.016117216117216115
2.924771707999753,0.0,0.012893772893772894,0.005641025641025641
2.931666797998332,0.0,0.004835164835164835,0.0016117216117216117
2.9359795179989305,0.0,0.0,0.0008058608058608059
2.9368123299973377,0.0,0.0,0.0008058608058608059
2.938554091997503,0.0,0.0,0.0008058608058608059
2.9408958889980568,0.0,0.0,0.0008058608058608059
2.9410034459979215,0.0,0.0,0.0008058608058608059
2.9489797559981525,0.0,0.0,0.0008058608058608059
2.953017247000389,0.0,0.00967032967032967,0.03706959706959707
2.955994389998523,0.0,0.0,0.014505494505494505
2.9594309389976843,0.0,0.0,0.014505494505494505
2.959653278998303,0.0,0.0,0.014505494505494505
2.9674528899995494,0.0,0.0,0.014505494505494505
2.9720594179998443,0.0,0.0,0.014505494505494505
2.97232843600068,0.0,0.0,0.014505494505494505
2.977547689999483,0.0,0.0,0.014505494505494505
2.9793467950003105,0.0,0.0,0.014505494505494505
2.9825687909979024,0.0,0.0,0.014505494505494505
2.9828823579991877,0.0,0.0024175824175824176,0.03626373626373627
2.992842011997709,0.0,0.0024175824175824176,0.03626373626373627
3.0029348930002016,0.0,0.0024175824175824176,0.03626373626373627
3.008779453997704,0.0,0.0008058608058608059,0.0136996336996337
3.0172243359993445,0.0,0.0008058608058608059,0.0136996336996337
3.0223162769980263,0.0,0.0008058608058608059,0.0136996336996337
3.030111861000478,0.0,0.0008058608058608059,0.0136996336996337
3.0347134939984244,0.0,0.0008058608058608059,0.0
3.0448348539975996,0.0,0.0008058608058608059,0.0
3.052097951000178,0.0,0.0008058608058608059,0.0
3.0566376259994286,0.0,0.0008058608058608059,0.0
3.056907575999503,0.0,0.004029304029304029,0.004029304029304029
3.0625831090001157,0.0,0.004029304029304029,0.004029304029304029
3.0628449649993854,0.0,0.004029304029304029,0.004029304029304029
3.068441470997641,0.0,0.004029304029304029,0.004029304029304029
3.068694540997967,0.0,0.004029304029304029,0.004029304029304029
3.0783000890005496,0.0,0.004029304029304029,0.004029304029304029
3.08447397800046,0.0,0.004029304029304029,0.004029304029304029
3.0875251420002314,0.0,0.004029304029304029,0.004029304029304029
3.0898868429976574,0.0,0.004029304029304029,0.004029304029304029
3.0906605719974323,0.0,0.004029304029304029,0.0024175824175824176
3.0922860430000583,0.0,0.004029304029304029,0.0024175824175824176
3.0963054780004313,0.0,0.004029304029304029,0.0024175824175824176
3.099930656997458,0.0,0.004029304029304029,0.0024175824175824176
3.1043584869985352,0.0,0.004029304029304029,0.0024175824175824176
3.1066090229978727,0.0,0.004029304029304029,0.0024175824175824176
3.115463023998018,0.0,0.004029304029304029,0.0024175824175824176
3.120809468000516,0.0,0.00967032967032967,0.016923076923076923
3.121043739000015,0.0,0.0016117216117216117,0.0
3.126346065000689,0.0,0.0016117216117216117,0.0
3.129934525997669,0.0,0.0016117216117216117,0.0
3.136999618000118,0.0,0.0016117216117216117,0.0
3.1419800580006267,0.0,0.0016117216117216117,0.0
3.149277959997562,0.0,0.0016117216117216117,0.0
3.1532625959989673,0.0,0.0016117216117216117,0.0
3.1564978690003045,0.0,0.0016117216117216117,0.0
3.1580677599995397,0.0,0.0016117216117216117,0.0
3.162930055998004,0.0,0.0016117216117216117,0.0
3.169334080997942,0.0,0.0024175824175824176,0.0
3.1730973009980517,0.0,0.0,0.016923076923076923
3.177955737999582,0.0,0.0,0.016923076923076923
3.187214354999014,0.0,0.0,0.016923076923076923
3.191793415997381,0.0,0.0,0.016923076923076923
3.1927049589976377,0.0,0.0,0.016923076923076923
3.1944105769980524,0.0,0.0,0.016923076923076923
3.1987767579994397,0.0,0.0,0.016923076923076923
3.1989986909975414,0.0,0.0,0.016923076923076923
3.2053922890008835,0.0,0.0,0.016923076923076923
3.2095974099975138,0.0,0.0,0.016923076923076923
3.213264943999093,0.0,0.008864468864468863,0.004029304029304029
3.218376360997354,0.0,0.008864468864468863,0.004029304029304029
3.2205875309991825,0.0,0.0016117216117216117,0.010476190476190476
3.220852529997501,0.0,0.0016117216117216117,0.010476190476190476
3.226160902999254,0.0,0.0016117216117216117,0.010476190476190476
3.229652546997386,0.0,0.0016117216117216117,0.010476190476190476
3.236514296000678,0.0,0.0016117216117216117,0.010476190476190476
3.2402950119976595,0.0,0.0016117216117216117,0.010476190476190476
3.246692188000452,0.0,0.0016117216117216117,0.010476190476190476
3.2513122639975336,0.0,0.0,0.0
3.2566206529991177,0.0,0.0,0.0
3.2599236809983267,0.0,0.0,0.0
3.2627573639983893,0.0,0.0,0.0
3.2689003529994807,0.0,0.0,0.0
3.2729874840006232,0.0,0.010476190476190476,0.0
3.276000578000094,0.0,0.010476190476190476,0.0
3.2775690449998365,0.0,0.010476190476190476,0.0
3.284624972999154,0.0,0.010476190476190476,0.0
3.2890082739977515,0.0,0.010476190476190476,0.0
3.2892505999989226,0.0,0.010476190476190476,0.0
3.3005907039987505,0.0,0.010476190476190476,0.0
3.3101688149981783,0.0,0.010476190476190476,0.0
3.3209540499992727,0.0,0.010476190476190476,0.0
3.326422010999522,0.0,0.020146520146520144,0.0016117216117216117
3.327364958000544,0.0,0.020146520146520144,0.0016117216117216117
3.3296426979977696,0.0,0.020146520146520144,0.0016117216117216117
3.34009814700039,0.0,0.020146520146520144,0.0016117216117216117
3.3466459720002604,0.0,0.020146520146520144,0.0016117216117216117
3.3500686939987645,0.0,0.0016117216117216117,0.0
3.3508882589994755,0.0,0.00967032967032967,0.012893772893772894
3.3531049730008817,0.0,0.00967032967032967,0.012893772893772894
3.3533572619999177,0.0,0.00967032967032967,0.012893772893772894
3.3586652349986252,0.0,0.00967032967032967,0.012893772893772894
3.361010726999666,0.0,0.00967032967032967,0.012893772893772894
3.361289148000651,0.0,0.00967032967032967,0.012893772893772894
3.3682590059979702,0.0,0.00967032967032967,0.012893772893772894
3.3727412029984407,0.0,0.0024175824175824176,0.0
3.3729315960008535,0.0,0.0024175824175824176,0.0
3.3793060469979537,0.0,0.0024175824175824176,0.0
3.3835360379998747,0.0,0.0,0.0
3.384398133999639,0.0,0.004029304029304029,0.0136996336996337
3.3867030490000616,0.0,0.007252747252747252,0.020146520146520144
3.386847702997329,0.0,0.012893772893772894,0.004029304029304029
3.3923246409976855,0.0,0.012893772893772894,0.004029304029304029
3.3931369940000877,0.0,0.004029304029304029,0.01531135531135531
3.395531119000225,0.0,0.004029304029304029,0.01531135531135531
3.402602129997831,0.0,0.0016117216117216117,0.0016117216117216117
3.4071962729976804,0.0,0.0016117216117216117,0.0016117216117216117
3.4086919609981123,0.0,0.0,0.0
3.4138372449997405,0.0,0.0,0.0
3.418664508000802,0.0,0.0,0.0
3.4209594309977547,0.0,0.0,0.0
3.421089870000287,0.0,0.0,0.0
3.4266762579973147,0.0,0.0,0.0
3.426908818000811,0.0,0.0,0.0
3.435234557997319,0.0,0.0,0.0
3.440585446998739,0.0,0.004029304029304029,0.004835164835164835
3.4423105030000443,0.0,0.004029304029304029,0.004835164835164835
3.446670675999485,0.0,0.004029304029304029,0.004835164835164835
3.4469764989989926,0.0,0.004029304029304029,0.004835164835164835
3.451982004000456,0.0,0.004029304029304029,0.004835164835164835
3.4564782039997226,0.0,0.004029304029304029,0.004835164835164835
3.456615779999993,0.0,0.008058608058608058,0.004029304029304029
3.4629416249990754,0.0,0.008058608058608058,0.004029304029304029
3.467782677998912,0.0,0.008058608058608058,0.004029304029304029
3.4731930089983507,0.0,0.008058608058608058,0.004029304029304029
3.4848394809996535,0.0,0.014505494505494505,0.0
3.4940808939973067,0.0,0.0024175824175824176,0.0
3.5039874779977254,0.0,0.0024175824175824176,0.0
3.5091988509993826,0.0,0.0024175824175824176,0.0
3.5151550929986115,0.0,0.0024175824175824176,0.0
3.518383943999652,0.0,0.0,0.010476190476190476
3.519903205000446,0.0,0.0,0.010476190476190476
3.5248330279973743,0.0,0.0,0.010476190476190476
3.5290357810008572,0.0,0.0,0.010476190476190476
3.5303351119982835,0.0,0.0,0.010476190476190476
3.5356710800006113,0.0,0.0,0.010476190476190476
3.5359518400000525,0.0,0.006446886446886447,0.0
3.5413137629984703,0.0,0.006446886446886447,0.0
3.543997861997923,0.0,0.006446886446886447,0.0
3.5509831460003625,0.0,0.006446886446886447,0.0
3.5563401149993297,0.0,0.006446886446886447,0.0
3.556529582998337,0.0,0.006446886446886447,0.00967032967032967
3.5664809070003685,0.0,0.006446886446886447,0.00967032967032967
3.572589186998812,0.0,0.006446886446886447,0.00967032967032967
3.5776737369997136,0.0,0.006446886446886447,0.00967032967032967
3.5837532459991053,0.0,0.006446886446886447,0.00967032967032967
3.5869160919974092,0.0,0.0,0.0
3.5891760109989264,0.0,0.0,0.020146520146520144
3.5893098409978847,0.0,0.0,0.020146520146520144
3.5958381989985355,0.0,0.0,0.020146520146520144
3.600366402999498,0.0,0.0,0.020146520146520144
3.600508728999557,0.0,0.0,0.020146520146520144
3.6057544329996745,0.0,0.0,0.020146520146520144
3.607333900999947,0.0,0.0,0.020146520146520144
3.6119960119976895,0.0,0.0,0.020146520146520144
3.6120789560009143,0.0,0.0,0.0
3.619096663998789,0.0,0.0,0.0
3.6229224239978066,0.0,0.004029304029304029,0.004029304029304029
3.6275689159992908,0.0,0.004029304029304029,0.004029304029304029
3.62782744499782,0.0,0.011282051282051281,0.010476190476190476
3.6349404339998728,0.0,0.011282051282051281,0.010476190476190476
3.6388698869996006,0.0,0.006446886446886447,0.007252747252747252
3.643314372999157,0.0,0.006446886446886447,0.007252747252747252
3.644229727000493,0.0,0.006446886446886447,0.007252747252747252
3.6459276549976494,0.0,0.006446886446886447,0.007252747252747252
3.6500372539994714,0.0,0.006446886446886447,0.007252747252747252
3.651729597000667,0.0,0.006446886446886447,0.007252747252747252
3.6554330899998604,0.0,0.006446886446886447,0.007252747252747252
3.6601161119979224,0.0,0.004835164835164835,0.0
3.6683184239991533,0.0,0.004835164835164835,0.0
3.6736581299992395,0.0,0.004835164835164835,0.0
3.674840896997921,0.0,0.012087912087912087,0.04915750915750916
3.67497373399965,0.0,0.012087912087912087,0.04915750915750916
3.685823582000012,0.0,0.012087912087912087,0.04915750915750916
3.6935682209987135,0.0,0.012087912087912087,0.04915750915750916
3.705239876999258,0.0,0.012087912087912087,0.04915750915750916
3.7153535059987917,0.0,0.012087912087912087,0.04915750915750916
3.7212509710007,0.0,0.012087912087912087,0.04915750915750916
3.721326126000349,0.0,0.012087912087912087,0.04915750915750916
3.726930454999092,0.0,0.012087912087912087,0.04915750915750916
3.7286488379977527,0.0,0.0024175824175824176,0.0
3.7332712819988956,0.0,0.0024175824175824176,0.0
3.7371362839985522,0.0,0.0024175824175824176,0.0
3.7417143629972998,0.0,0.0024175824175824176,0.0
3.7418741319997935,0.0,0.0024175824175824176,0.0
3.7502888329981943,0.0,0.0024175824175824176,0.0
3.754267237000022,0.0,0.0024175824175824176,0.0
3.7591094189992873,0.0,0.0,0.0
3.7667808689984668,0.0,0.0,0.0
3.770529164998152,0.0,0.0,0.0
3.776233605000016,0.0,0.004835164835164835,0.0
3.7763456579996273,0.0,0.004835164835164835,0.0
3.7842825400002766,0.0,0.004835164835164835,0.0
3.7894581929976994,0.0,0.004835164835164835,0.0
3.79257798099934,0.0,0.004835164835164835,0.0
3.7959682319997228,0.0,0.0016117216117216117,0.0032234432234432234
3.796160145997419,0.0,0.0016117216117216117,0.0032234432234432234
3.803645862997655,0.0,0.0016117216117216117,0.0032234432234432234
3.808381675000419,0.0,0.0016117216117216117,0.0032234432234432234
3.8169976479985053,0.0,0.0,0.0
3.821784422998462,0.0,0.037875457875457874,0.004029304029304029
3.8278647599981923,0.0,0.037875457875457874,0.004029304029304029
3.836769670000649,0.0,0.09347985347985348,0.005641025641025641
3.8420915059978142,0.0,0.09347985347985348,0.005641025641025641
3.8460660710006778,0.0,0.09347985347985348,0.005641025641025641
3.851099963998422,0.0,0.09347985347985348,0.005641025641025641
3.8535991450007714,0.0,0.09347985347985348,0.005641025641025641
3.8586981529988407,0.0,0.0,0.0
3.862959079000575,0.0,0.0,0.0
3.8630980079979054,0.0,0.0,0.0
3.870529326999531,0.0,0.0,0.0
3.8756070819981687,0.0,0.0,0.0
3.8800348349977867,0.0,0.0024175824175824176,0.0
3.8802275079979154,0.0,0.0024175824175824176,0.0
3.886729658999684,0.0,0.0024175824175824176,0.0
3.8910303150005348,0.0,0.004029304029304029,0.006446886446886447
3.891846070997417,0.0,0.004029304029304029,0.006446886446886447
3.893411977998767,0.0,0.004029304029304029,0.006446886446886447
3.9007607870007632,0.0,0.004029304029304029,0.006446886446886447
3.9069186849992548,0.0,0.004029304029304029,0.006446886446886447
3.9127088629975333,0.0,0.004029304029304029,0.006446886446886447
3.917801822997717,0.0,0.004029304029304029,0.006446886446886447
3.921827801998006,0.0,0.004029304029304029,0.006446886446886447
3.9233587609996903,0.0,0.0,0.0
3.9308743529982166,0.0,0.0,0.0
3.9378536959993653,0.0,0.0,0.0
3.941091841999878,0.0,0.0,0.0
3.9427302199983387,0.0,0.0008058608058608059,0.008864468864468863
3.9476597889988625,0.0,0.0024175824175824176,0.0016117216117216117
3.950598130999424,0.0,0.0024175824175824176,0.0016117216117216117
3.9522507279980346,0.0,0.0024175824175824176,0.0016117216117216117
3.9555150589985715,0.0,0.0024175824175824176,0.0016117216117216117
3.9563668579976365,0.0,0.0024175824175824176,0.0016117216117216117
3.9579954500004533,0.0,0.0024175824175824176,0.0016117216117216117
3.9620384400004696,0.0,0.0024175824175824176,0.0016117216117216117
3.968127652999101,0.0,0.012893772893772894,0.0
3.97146020999935,0.0,0.012893772893772894,0.0
3.971798561000469,0.0,0.012893772893772894,0.0
3.9772214479999093,0.0,0.012893772893772894,0.0
3.978999364997435,0.0,0.012893772893772894,0.0
3.9834857499990903,0.0,0.0008058608058608059,0.0709157509157509
3.988691528000345,0.0,0.0024175824175824176,0.008058608058608058
3.9917980799982615,0.0,0.005641025641025641,0.0
3.992714152998815,0.0,0.0016117216117216117,0.0008058608058608059
3.9935815280005045,0.0,0.0016117216117216117,0.0008058608058608059
3.9957366479975462,0.0,0.0016117216117216117,0.0008058608058608059
3.9959720309998374,0.0,0.0016117216117216117,0.0008058608058608059
4.002810902999045,0.0,0.0016117216117216117,0.0008058608058608059
4.006669594000414,0.0,0.0016117216117216117,0.0008058608058608059
4.011400069997762,0.0,0.0016117216117216117,0.0008058608058608059
4.017983398000069,0.0,0.0016117216117216117,0.0008058608058608059
4.022265861000051,0.0,0.0,0.0
4.023843602000852,0.0,0.0,0.0
4.027800676998595,0.0,0.0,0.0
4.031551116997434,0.0,0.0,0.0
4.035628305999126,0.0,0.0,0.0
4.037966212999891,0.0,0.0,0.0
4.038077078999777,0.0,0.0,0.0
4.043495985999471,0.0,0.0,0.0
4.046305886997288,0.0,0.0,0.0
4.049840779000078,0.0,0.0,0.0
4.055348598998535,0.0,0.0,0.005641025641025641
4.056311955999263,0.0,0.0,0.005641025641025641
4.057214911998017,0.0,0.0,0.005641025641025641
4.058788392998395,0.0,0.0,0.005641025641025641
4.065572692998103,0.0,0.0,0.005641025641025641
4.070945347997622,0.0,0.0,0.005641025641025641
4.071044083997549,0.0,0.0,0.005641025641025641
4.076343533997715,0.0,0.0,0.005641025641025641
4.078920691998064,0.0,0.0,0.005641025641025641
4.084590835998824,0.0,0.0,0.005641025641025641
4.084699132999958,0.0,0.0,0.005641025641025641
4.0924249599993345,0.0,0.0,0.005641025641025641
4.09834285100078,0.0,0.006446886446886447,0.004835164835164835
4.102270355000655,0.0,0.006446886446886447,0.004835164835164835
4.105600711998704,0.0,0.006446886446886447,0.004835164835164835
4.107103105998249,0.0,0.0,0.0
4.110912534000818,0.0,0.0,0.0
4.117628440999397,0.0,0.0,0.0
4.122464760999719,0.0,0.0,0.0
4.129774238997925,0.0,0.0,0.0
4.135973632997775,0.0,0.0,0.0
4.139058112999919,0.0,0.0,0.0
4.143319957998756,0.0,0.0,0.0
4.144674465998833,0.0,0.0,0.0
4.153909836000821,0.0,0.0,0.0
4.159524421000242,0.0,0.0,0.0
4.159650481000426,0.0,0.0,0.0
4.16865632599729,0.0,0.0,0.0
4.173391102998721,0.0,0.0,0.0
4.173535188998358,0.0,0.0,0.0
4.180369226000039,0.0,0.0,0.0
4.185314399997878,0.0,0.0,0.0
4.187686055000086,0.0,0.0,0.0
4.187939833998826,0.0,0.0,0.0
4.193241114997363,0.0,0.0,0.0
4.196048410998628,0.0,0.004029304029304029,0.0008058608058608059
4.201295709997794,0.0,0.004029304029304029,0.0008058608058608059
4.201401970000006,0.0,0.004029304029304029,0.0008058608058608059
4.206903718000831,0.0,0.004029304029304029,0.0008058608058608059
4.20771848199729,0.0,0.004029304029304029,0.0008058608058608059
4.210022825998749,0.0,0.004029304029304029,0.0008058608058608059
4.2160660959998495,0.0,0.004029304029304029,0.0008058608058608059
4.220873062000464,0.0,0.012087912087912087,0.0024175824175824176
4.226198209998984,0.0,0.012087912087912087,0.0024175824175824176
4.228069420998509,0.0,0.012087912087912087,0.0024175824175824176
4.233604916000331,0.0,0.0,0.0136996336996337
4.240262005998375,0.0,0.0,0.0136996336996337
4.244304676998581,0.0,0.0,0.0136996336996337
4.249793540999235,0.0,0.0,0.0136996336996337
4.249924395000562,0.0,0.0,0.0136996336996337
4.258609856999101,0.0,0.0,0.0136996336996337
4.265183771000011,0.0,0.0,0.004029304029304029
4.26838094499908,0.0,0.0,0.004029304029304029
4.270004813999549,0.0,0.0,0.004029304029304029
4.273846312000387,0.0,0.0,0.004029304029304029
4.277585937998083,0.0,0.004835164835164835,0.0
4.283466442997451,0.0,0.004835164835164835,0.0
4.288147783998284,0.0,0.006446886446886447,0.004835164835164835
4.293447223997646,0.0,0.006446886446886447,0.004835164835164835
4.295515005000198,0.0,0.006446886446886447,0.004835164835164835
4.297186871997837,0.0,0.006446886446886447,0.004835164835164835
4.302147342998069,0.0,0.006446886446886447,0.004835164835164835
4.3045161129994085,0.0,0.006446886446886447,0.004835164835164835
4.304634174997773,0.0,0.006446886446886447,0.004835164835164835
4.3101527049984725,0.0,0.006446886446886447,0.004835164835164835
4.310306975999993,0.0,0.004835164835164835,0.008864468864468863
4.318207268999686,0.0,0.004835164835164835,0.008864468864468863
4.322180832998129,0.0,0.004835164835164835,0.008864468864468863
4.32601791200068,0.0,0.004835164835164835,0.008864468864468863
4.331547896999837,0.0,0.005641025641025641,0.004029304029304029
4.331739976998506,0.0,0.0,0.0
4.337771184000303,0.0,0.0,0.0
4.341801275000762,0.0,0.0,0.0
4.345175750997441,0.0,0.004029304029304029,0.02901098901098901
4.345278888999019,0.0,0.004029304029304029,0.02901098901098901
4.35305440799857,0.0,0.004029304029304029,0.02901098901098901
4.359471444997325,0.0,0.004029304029304029,0.02901098901098901
4.36429007499828,0.0,0.004029304029304029,0.02901098901098901
4.369014388998039,0.0,0.0008058608058608059,0.004835164835164835
4.3775155389994325,0.0,0.0008058608058608059,0.004835164835164835
4.385028909997345,0.0,0.0008058608058608059,0.004835164835164835
4.389231748999009,0.0,0.0136996336996337,0.007252747252747252
4.391125513997395,0.0,0.0136996336996337,0.007252747252747252
4.392841069999122,0.0,0.0136996336996337,0.007252747252747252
4.397895558999153,0.0,0.0136996336996337,0.007252747252747252
4.398970366997673,0.0,0.0136996336996337,0.007252747252747252
4.399164466998627,0.0,0.0136996336996337,0.007252747252747252
4.405361401997652,0.0,0.0136996336996337,0.007252747252747252
4.40870422199805,0.0,0.0136996336996337,0.007252747252747252
4.409617097997398,0.0,0.0136996336996337,0.007252747252747252
4.410569068000768,0.0,0.0136996336996337,0.007252747252747252
4.412002506000135,0.0,0.0136996336996337,0.007252747252747252
4.420705328000622,0.0,0.0136996336996337,0.007252747252747252
4.4251866710001195,0.0,0.0136996336996337,0.007252747252747252
4.425374811999063,0.0,0.0136996336996337,0.007252747252747252
4.433428593998542,0.0,0.0136996336996337,0.007252747252747252
4.438593871000194,0.0,0.0136996336996337,0.007252747252747252
4.441945720998774,0.0,0.0136996336996337,0.007252747252747252
4.442204402999778,0.0,0.0136996336996337,0.007252747252747252
4.449086822998652,0.0,0.0136996336996337,0.007252747252747252
4.453382676998444,0.0,0.0136996336996337,0.007252747252747252
4.4554206499997235,0.0,0.0136996336996337,0.007252747252747252
4.455666822999774,0.0,0.0136996336996337,0.007252747252747252
4.461403730998427,0.0,0.0136996336996337,0.007252747252747252
4.468590624997887,0.0,0.004835164835164835,0.008058608058608058
4.47344187699855,0.0,0.004835164835164835,0.008058608058608058
4.479530852997414,0.0,0.0008058608058608059,0.0
4.485024109999358,0.0,0.0008058608058608059,0.0
4.485152784000093,0.0,0.0016117216117216117,0.0
4.490628393999941,0.0,0.0016117216117216117,0.0
4.49216012299803,0.0,0.0016117216117216117,0.0
4.498159155999019,0.0,0.0016117216117216117,0.0
4.5022078980000515,0.0,0.0016117216117216117,0.0
4.505027917999541,0.0,0.0016117216117216117,0.0
4.508107999998174,0.0,0.0016117216117216117,0.0
4.509796554000786,0.0,0.004835164835164835,0.006446886446886447
4.514704925997648,0.0,0.0008058608058608059,0.0
4.51873252400037,0.0,0.0008058608058608059,0.0
4.521058080998046,0.0,0.0008058608058608059,0.0
4.521168734998355,0.0,0.0008058608058608059,0.0
4.52647737100051,0.0,0.0008058608058608059,0.0
4.5281662739980675,0.0,0.004835164835164835,0.01531135531135531
4.5334374039994145,0.0,0.004835164835164835,0.01531135531135531
4.53443898399928,0.0,0.004835164835164835,0.01531135531135531
4.535321544997714,0.0,0.004835164835164835,0.01531135531135531
4.53711622499759,0.0,0.004835164835164835,0.01531135531135531
4.5395845559978625,0.0,0.004835164835164835,0.01531135531135531
4.545292115999473,0.0,0.004835164835164835,0.01531135531135531
4.545384680997813,0.0,0.004835164835164835,0.01531135531135531
4.5510618799999065,0.0,0.004835164835164835,0.01531135531135531
4.551168474998121,0.0,0.004835164835164835,0.01531135531135531
4.556574456000817,0.0,0.004835164835164835,0.01531135531135531
4.558150615997874,0.0,0.0,0.010476190476190476
4.562187079998694,0.0,0.0,0.010476190476190476
4.567275471999892,0.0,0.0,0.010476190476190476
4.5682304660003865,0.0,0.0,0.010476190476190476
4.569120703999943,0.0,0.0,0.010476190476190476
4.571010727999237,0.0,0.0,0.008864468864468863
4.57339361999766,0.0,0.0,0.008864468864468863
4.580718410998088,0.0,0.0,0.008864468864468863
4.584875907999958,0.0,0.006446886446886447,0.0
4.587257533999946,0.0,0.006446886446886447,0.0
4.5964751169995,0.0,0.006446886446886447,0.0
4.604763576997357,0.0,0.0032234432234432234,0.0
4.611605730999145,0.0,0.007252747252747252,0.0
4.618488864998653,0.0,0.007252747252747252,0.0
4.622895520999009,0.0,0.0,0.012087912087912087
4.623000737999973,0.0,0.0,0.012087912087912087
4.632643900000403,0.0,0.0,0.012087912087912087
4.639113717999862,0.0,0.0,0.012087912087912087
4.642999464998866,0.0,0.0,0.012087912087912087
4.650529604998155,0.0,0.0,0.012087912087912087
4.654247743997985,0.0,0.0,0.012087912087912087
4.662257063999277,0.0,0.0024175824175824176,0.0032234432234432234
4.670362846998614,0.0,0.008864468864468863,0.0016117216117216117
4.677491523998469,0.0,0.008058608058608058,0.01531135531135531
4.684754743000667,0.0,0.008058608058608058,0.01531135531135531
4.688922420999006,0.0,0.008058608058608058,0.01531135531135531
4.691453874998842,0.0,0.008058608058608058,0.01531135531135531
4.696276307000517,0.0,0.008058608058608058,0.01531135531135531
4.696421010998165,0.0,0.008058608058608058,0.01531135531135531
4.704134252999211,0.0,0.008058608058608058,0.01531135531135531
4.708791506000125,0.0,0.00967032967032967,0.02175824175824176
4.70915959299964,0.0,0.00967032967032967,0.02175824175824176
4.719789672999468,0.0,0.00967032967032967,0.02175824175824176
4.725751088000834,0.0,0.0032234432234432234,0.0
4.73400597699947,0.0,0.0032234432234432234,0.0
4.73882275899814,0.0,0.0032234432234432234,0.0
4.738914320998447,0.0,0.0032234432234432234,0.0
4.74529334899853,0.0,0.0032234432234432234,0.0
4.75034451999818,0.0,0.0032234432234432234,0.0
4.752901788997406,0.0,0.0032234432234432234,0.0
4.752971523997985,0.0,0.0,0.014505494505494505
4.758491257998685,0.0,0.0,0.014505494505494505
4.759405008997419,0.0,0.0,0.014505494505494505
4.760502666998946,0.0,0.0,0.014505494505494505
4.762199972999952,0.0,0.0,0.014505494505494505
4.768017510999925,0.0,0.0,0.014505494505494505
4.772926763998839,0.0,0.0,0.014505494505494505
4.780802627999947,0.0,0.0,0.014505494505494505
4.786553295998601,0.0,0.0,0.0
4.792343807999714,0.0,0.0,0.0
4.801686309998331,0.0,0.0,0.0
4.806529359997512,0.0,0.0,0.0
4.813771271998121,0.0,0.0,0.0
4.819004639997729,0.0,0.006446886446886447,0.018534798534798533
4.820625754000503,0.0,0.006446886446886447,0.018534798534798533
4.8237618429993745,0.0,0.006446886446886447,0.018534798534798533
4.826143957998283,0.0,0.006446886446886447,0.018534798534798533
4.835911743997713,0.0,0.0032234432234432234,0.004835164835164835
4.841351279999799,0.0,0.0032234432234432234,0.004835164835164835
4.843706605999614,0.0,0.012087912087912087,0.0
4.853496813000675,0.0,0.012087912087912087,0.0
4.862751618999027,0.0,0.0032234432234432234,0.03304029304029304
4.867752644997381,0.0,0.0032234432234432234,0.03304029304029304
4.871428079997713,0.0,0.0,0.0
4.87609530500049,0.0,0.0,0.0
4.883648795999761,0.0,0.0,0.0
4.888371532997553,0.0,0.0,0.0
4.88849701199797,0.0,0.0,0.0
4.894128432999423,0.0,0.0,0.0
4.894271758999821,0.0,0.0032234432234432234,0.016923076923076923
4.901613527999871,0.0,0.0032234432234432234,0.016923076923076923
4.9066652139990765,0.0,0.004835164835164835,0.014505494505494505
4.909807192998414,0.0,0.004835164835164835,0.014505494505494505
4.910692183999345,0.0,0.004835164835164835,0.014505494505494505
4.913362331997632,0.0,0.004835164835164835,0.014505494505494505
4.916777375998208,0.0,0.0,0.006446886446886447
4.917003073998785,0.0,0.0,0.006446886446886447
4.922793960999115,0.0,0.0,0.006446886446886447
4.922959509000066,0.0,0.0,0.006446886446886447
4.929492811999808,0.0,0.0,0.006446886446886447
4.9342333679996955,0.0,0.0032234432234432234,0.0
4.939624531998561,0.0,0.0032234432234432234,0.0008058608058608059
4.941318940000201,0.0,0.0032234432234432234,0.0008058608058608059
4.946031298000889,0.0,0.0032234432234432234,0.0008058608058608059
4.955185177997919,0.0,0.0032234432234432234,0.0008058608058608059
4.963501055997767,0.0,0.005641025641025641,0.008058608058608058
4.968071080998925,0.0,0.005641025641025641,0.0016117216117216117
4.9682811989987385,0.0,0.005641025641025641,0.0016117216117216117
4.973737709999114,0.0,0.005641025641025641,0.0016117216117216117
4.973969586000749,0.0,0.005641025641025641,0.0016117216117216117
4.980409492000035,0.0,0.005641025641025641,0.0016117216117216117
4.985687419997703,0.0,0.005641025641025641,0.017728937728937726
4.987203058000887,0.0,0.005641025641025641,0.017728937728937726
4.99060561999795,0.0,0.005641025641025641,0.017728937728937726
4.990849244000856,0.0,0.005641025641025641,0.017728937728937726
4.998133519999101,0.0,0.005641025641025641,0.017728937728937726
5.002207263998571,0.0,0.005641025641025641,0.017728937728937726
5.005334967998351,0.0,0.005641025641025641,0.017728937728937726
5.006943765998585,0.0,0.005641025641025641,0.017728937728937726
5.010845024000446,0.0,0.005641025641025641,0.017728937728937726
5.016315024000505,0.0,0.005641025641025641,0.017728937728937726
5.01737673399839,0.0,0.008058608058608058,0.01531135531135531
5.017574795998371,0.0,0.008058608058608058,0.01531135531135531
5.02317182799743,0.0,0.008058608058608058,0.01531135531135531
5.0234137369989185,0.0,0.008058608058608058,0.01531135531135531
5.029965497000376,0.0,0.008058608058608058,0.01531135531135531
5.0352912779999315,0.0,0.008058608058608058,0.01531135531135531
5.03551496,0.0,0.008058608058608058,0.01531135531135531
5.040932200998213,0.0,0.008058608058608058,0.01531135531135531
5.04314228200019,0.0,0.008058608058608058,0.01531135531135531
5.044697434997943,0.0,0.008058608058608058,0.01531135531135531
5.050191120000818,0.0,0.008058608058608058,0.01531135531135531
5.050314240997977,0.0,0.008058608058608058,0.01531135531135531
5.055940177000593,0.0,0.008058608058608058,0.01531135531135531
5.0562068129984254,0.0,0.008058608058608058,0.01531135531135531
5.063778985997487,0.0,0.008058608058608058,0.01531135531135531
5.067051137000817,0.0,0.008058608058608058,0.01531135531135531
5.067900915000791,0.0,0.0016117216117216117,0.0
5.070170069000596,0.0,0.0016117216117216117,0.0
5.070347250999475,0.0,0.0024175824175824176,0.012893772893772894
5.075691963000281,0.0,0.0024175824175824176,0.012893772893772894
5.0784349589994235,0.0,0.0024175824175824176,0.012893772893772894
5.082338201998937,0.0,0.0032234432234432234,0.02095238095238095
5.085389952997502,0.0,0.0032234432234432234,0.02095238095238095
5.087675501999911,0.0,0.0032234432234432234,0.0
5.08792715600066,0.0,0.0032234432234432234,0.0
5.093324661000224,0.0,0.0032234432234432234,0.0
5.095105071999569,0.0,0.0032234432234432234,0.0
5.099558903999423,0.0,0.0032234432234432234,0.0
5.099651918000745,0.0,0.0032234432234432234,0.0
5.10491823099801,0.0,0.0032234432234432234,0.0
5.107183702999464,0.0,0.0032234432234432234,0.0
5.107340442998975,0.0,0.0032234432234432234,0.0
5.116040984998108,0.0,0.0032234432234432234,0.0
5.122210806999647,0.0,0.0032234432234432234,0.0
5.127554615999543,0.0,0.0032234432234432234,0.0
5.1278582560007635,0.0,0.0,0.0016117216117216117
5.137566485998832,0.0,0.0,0.0016117216117216117
5.143196581997472,0.0,0.0,0.0016117216117216117
5.143353932999162,0.0,0.0032234432234432234,0.0
5.152695666998625,0.0,0.0,0.0
5.1580530569990515,0.0,0.0,0.0
5.161912526000378,0.0,0.0,0.0
5.16549971600034,0.0,0.005641025641025641,0.00967032967032967
5.170843736999814,0.0,0.005641025641025641,0.00967032967032967
5.172372731998621,0.0,0.005641025641025641,0.00967032967032967
5.176899038997362,0.0,0.005641025641025641,0.00967032967032967
5.177209752997442,0.0,0.005641025641025641,0.00967032967032967
5.186147517000791,0.0,0.005641025641025641,0.00967032967032967
5.195276806000038,0.0,0.005641025641025641,0.00967032967032967
5.2028821269996115,0.0,0.0032234432234432234,0.0
5.208604855000885,0.0,0.0032234432234432234,0.0
5.219572679998237,0.0,0.004029304029304029,0.026593406593406595
5.22787919899929,0.0,0.004029304029304029,0.026593406593406595
5.233246760999464,0.0,0.0032234432234432234,0.0
5.234087140997872,0.0,0.0032234432234432234,0.0
5.235666462998779,0.0,0.0032234432234432234,0.0
5.239566229000047,0.0,0.0032234432234432234,0.0
5.243439678000868,0.0,0.0032234432234432234,0.0
5.247704402998352,0.0,0.0032234432234432234,0.0
5.24795579000056,0.0,0.0032234432234432234,0.0
5.253574861999368,0.0,0.0032234432234432234,0.0
5.254420213997946,0.0,0.0008058608058608059,0.020146520146520144
5.2559927990005235,0.0,0.0008058608058608059,0.020146520146520144
5.259930849999364,0.0,0.0008058608058608059,0.020146520146520144
5.267385659997672,0.0,0.0008058608058608059,0.020146520146520144
5.273434169997927,0.0,0.0,0.008058608058608058
5.278523639000923,0.0,0.0,0.008058608058608058
5.282807536998007,0.0,0.0,0.008058608058608058
5.283005722998496,0.0,0.0,0.008058608058608058
5.291782986998442,0.0,0.0,0.008058608058608058
5.299585918997764,0.0,0.0,0.008058608058608058
5.305622054998821,0.0,0.0,0.008058608058608058
5.3089232460006315,0.0,0.0032234432234432234,0.025787545787545788
5.3105122950000805,0.0,0.0032234432234432234,0.025787545787545788
5.314842851999856,0.0,0.006446886446886447,0.0
5.315044320999732,0.0,0.012893772893772894,0.0
5.324181124000461,0.0,0.012893772893772894,0.0
5.329646303998743,0.0,0.012893772893772894,0.0
5.329936671998439,0.0,0.012893772893772894,0.0
5.334962761000497,0.0,0.012893772893772894,0.0
5.33831488999931,0.0,0.012893772893772894,0.0
5.3384585849998984,0.0,0.012893772893772894,0.0
5.344053064000036,0.0,0.012893772893772894,0.0
5.344850659999793,0.0,0.012893772893772894,0.0
5.346696450000309,0.0,0.0008058608058608059,0.0
5.3494374949987105,0.0,0.0008058608058608059,0.0
5.352507469997363,0.0,0.0008058608058608059,0.0
5.3533770789981645,0.0,0.0008058608058608059,0.0
5.355622924998897,0.0,0.0008058608058608059,0.0
5.3558420419976756,0.0,0.0008058608058608059,0.0
5.3614399889993365,0.0,0.0008058608058608059,0.0
5.3622234760005085,0.0,0.0008058608058608059,0.0
5.3641596529996605,0.0,0.0008058608058608059,0.0
5.365998023000429,0.0,0.0008058608058608059,0.0
5.368309453999245,0.0,0.0008058608058608059,0.0
5.368406990997755,0.0,0.0008058608058608059,0.0
5.373978626997996,0.0,0.0008058608058608059,0.0
5.374979249998432,0.0,0.0,0.0016117216117216117
5.375847735998832,0.0,0.0,0.0016117216117216117
5.377611763000459,0.0,0.0,0.0016117216117216117
5.3802323099989735,0.0,0.0,0.0016117216117216117
5.385722093000368,0.0,0.0,0.0016117216117216117
5.385845090997464,0.0,0.004029304029304029,0.0
5.392199837999215,0.0,0.004835164835164835,0.016923076923076923
5.3990269109999645,0.0,0.004835164835164835,0.016923076923076923
5.404799908999848,0.0,0.004835164835164835,0.016923076923076923
5.411834047998127,0.0,0.006446886446886447,0.0
5.418596198000159,0.0,0.0,0.0016117216117216117
5.42438731799848,0.0,0.0008058608058608059,0.020146520146520144
5.4333658649993595,0.0,0.0008058608058608059,0.020146520146520144
5.43984862599973,0.0,0.0008058608058608059,0.020146520146520144
5.447987292998732,0.0,0.008058608058608058,0.0
5.453446346000419,0.0,0.008058608058608058,0.0
5.459146957000485,0.0,0.008058608058608058,0.0
5.459213613998145,0.0,0.008058608058608058,0.0
5.4699725520003994,0.0,0.008058608058608058,0.0
5.4790573789978225,0.0,0.008058608058608058,0.0
5.486127361000399,0.0,0.004029304029304029,0.0
5.491286987999047,0.0,0.004029304029304029,0.0
5.494983869997668,0.0,0.004029304029304029,0.0
5.501451640997402,0.0,0.004029304029304029,0.0
5.506785456000216,0.0,0.004029304029304029,0.0
5.507033098998363,0.0,0.004029304029304029,0.0
5.515256624999893,0.0,0.004029304029304029,0.0
5.520763268999872,0.0,0.006446886446886447,0.0016117216117216117
5.520971317000658,0.0,0.006446886446886447,0.0016117216117216117
5.527339688000211,0.0,0.006446886446886447,0.0016117216117216117
5.531648683998355,0.0,0.006446886446886447,0.0016117216117216117
5.531994805998693,0.0,0.006446886446886447,0.0016117216117216117
5.537832540998352,0.0,0.006446886446886447,0.0016117216117216117
5.543498826998984,0.0,0.006446886446886447,0.0016117216117216117
5.543684185999155,0.0,0.006446886446886447,0.0016117216117216117
5.550664220998442,0.0,0.006446886446886447,0.0016117216117216117
5.557486988000164,0.0,0.004835164835164835,0.00967032967032967
5.560637698999926,0.0,0.004835164835164835,0.00967032967032967
5.564114745000552,0.0,0.004835164835164835,0.00967032967032967
5.5688825939978415,0.0,0.0008058608058608059,0.0
5.574246429998311,0.0,0.0008058608058608059,0.0
5.576563726997847,0.0,0.0008058608058608059,0.0
5.576708107997547,0.0,0.0008058608058608059,0.0
5.58315043499897,0.0,0.0008058608058608059,0.0
5.587460075999843,0.0,0.0008058608058608059,0.0
5.588318063997576,0.0,0.0032234432234432234,0.0
5.5905992230000265,0.0,0.0032234432234432234,0.0
5.590792345999944,0.0,0.0032234432234432234,0.0
5.597914526999375,0.0,0.0032234432234432234,0.0
5.6018717709994235,0.0,0.0032234432234432234,0.0
5.609159867999551,0.0,0.0032234432234432234,0.0
5.61470528800055,0.0,0.0032234432234432234,0.0
5.614846419997775,0.0,0.0032234432234432234,0.0
5.620610260997637,0.0,0.0032234432234432234,0.0
5.626918162997754,0.0,0.0032234432234432234,0.0
5.632552459999715,0.0,0.0032234432234432234,0.0
5.642081133999454,0.0,0.0,0.008864468864468863
5.651111294999282,0.0,0.0,0.008864468864468863
5.65567374499733,0.0,0.0,0.008864468864468863
5.656656937000662,0.0,0.0,0.008864468864468863
5.656990322000638,0.0,0.0,0.008864468864468863
5.664587004997884,0.0,0.0,0.008864468864468863
5.668673927000782,0.0,0.0,0.008864468864468863
5.672337359999801,0.0,0.0032234432234432234,0.006446886446886447
5.676623475999804,0.0,0.004029304029304029,0.0
5.676853017997928,0.0,0.0,0.004835164835164835
5.6843304529975285,0.0,0.0,0.004835164835164835
5.689001286998973,0.0,0.0,0.004835164835164835
5.689127973000723,0.0,0.0,0.004835164835164835
5.694374954997329,0.0,0.0,0.004835164835164835
5.697272094999789,0.0,0.0,0.004835164835164835
5.699708094998641,0.0,0.0,0.004835164835164835
5.699926194,0.0,0.0,0.004835164835164835
5.705594668997946,0.0,0.0,0.004835164835164835
5.7158214439987205,0.0,0.0,0.004835164835164835
5.72524151199832,0.0,0.0,0.020146520146520144
5.732472042000154,0.0,0.0,0.020146520146520144
5.73893107999902,0.0,0.0,0.03062271062271062
5.744318516997737,0.0,0.0,0.03062271062271062
5.74599473499984,0.0,0.0032234432234432234,0.0
5.752059204998659,0.0,0.0032234432234432234,0.0
5.7571368610006175,0.0,0.0032234432234432234,0.0
5.758681022998644,0.0,0.0032234432234432234,0.0
5.76328064900008,0.0,0.0032234432234432234,0.0
5.769682565998664,0.0,0.0032234432234432234,0.0
5.773651329000131,0.0,0.005641025641025641,0.007252747252747252
5.7787649700003385,0.0,0.005641025641025641,0.007252747252747252
5.782889415000682,0.0,0.005641025641025641,0.007252747252747252
5.7838091800003895,0.0,0.005641025641025641,0.007252747252747252
5.785403124998993,0.0,0.005641025641025641,0.007252747252747252
5.788520965998032,0.0,0.005641025641025641,0.007252747252747252
5.789359751997836,0.0,0.005641025641025641,0.007252747252747252
5.791608265000832,0.0,0.005641025641025641,0.007252747252747252
5.791843299000902,0.0,0.005641025641025641,0.007252747252747252
5.800022731000354,0.0,0.005641025641025641,0.007252747252747252
5.807439535998128,0.0,0.005641025641025641,0.007252747252747252
5.814795841000887,0.0,0.005641025641025641,0.007252747252747252
5.81988230099887,0.0,0.005641025641025641,0.007252747252747252
5.822969439999724,0.0,0.005641025641025641,0.007252747252747252
5.82450550899739,0.0,0.005641025641025641,0.007252747252747252
5.8307134290007525,0.0,0.005641025641025641,0.007252747252747252
5.835876131997793,0.0,0.0016117216117216117,0.0
5.83732846500061,0.0,0.0016117216117216117,0.0
5.841156073998718,0.0,0.0016117216117216117,0.0
5.845142838999891,0.0,0.0016117216117216117,0.0
5.8493095569974685,0.0,0.0016117216117216117,0.0
5.850992534000397,0.0,0.0016117216117216117,0.0
5.8548171229995205,0.0,0.0016117216117216117,0.0
5.858731842999987,0.0,0.0,0.0024175824175824176
5.862118831999396,0.0,0.0,0.0024175824175824176
5.862231391998648,0.0,0.0,0.0024175824175824176
5.868845548000536,0.0,0.0,0.0024175824175824176
5.8730313109990675,0.0,0.0032234432234432234,0.0
5.874619770998834,0.0,0.0032234432234432234,0.0
5.879462123000849,0.0,0.0032234432234432234,0.0
5.884067465998669,0.0,0.0032234432234432234,0.0
5.888769832999969,0.0,0.0032234432234432234,0.0
5.888846007997927,0.0,0.0032234432234432234,0.0
5.894168658000126,0.0,0.0032234432234432234,0.0
5.898182303997601,0.0,0.0032234432234432234,0.0
5.900600089000363,0.0,0.0032234432234432234,0.0
5.906337114000053,0.0,0.0032234432234432234,0.0
5.906399961997522,0.0,0.0032234432234432234,0.0
5.911973336998926,0.0,0.0032234432234432234,0.0
5.912982434998412,0.0,0.0032234432234432234,0.0
5.914512274997833,0.0,0.0032234432234432234,0.0
5.919679640999675,0.0,0.0032234432234432234,0.0
5.922544122000545,0.0,0.007252747252747252,0.0
5.925331659000221,0.0,0.007252747252747252,0.0
5.9280744129973755,0.0,0.007252747252747252,0.0
5.9329588699984015,0.0,0.007252747252747252,0.0
5.936945969999215,0.0,0.007252747252747252,0.0
5.940055387000029,0.0,0.007252747252747252,0.0
5.940942809000262,0.0,0.007252747252747252,0.0
5.9432130079985654,0.0,0.007252747252747252,0.0
5.94334595699911,0.0,0.007252747252747252,0.0
5.952927913000167,0.0,0.007252747252747252,0.0
5.961424678000185,0.0,0.007252747252747252,0.0
5.967676976000803,0.0,0.007252747252747252,0.0
5.971575700998073,0.0,0.007252747252747252,0.0
5.977096328999323,0.0,0.007252747252747252,0.0
5.977301484999771,0.0,0.005641025641025641,0.0008058608058608059
5.984451682998042,0.0,0.005641025641025641,0.0008058608058608059
5.989090464998299,0.0,0.005641025641025641,0.0008058608058608059
5.989246635999734,0.0,0.005641025641025641,0.0008058608058608059
5.994748230998084,0.0,0.005641025641025641,0.0008058608058608059
5.994948526000371,0.0,0.006446886446886447,0.0
6.003076191998844,0.0,0.006446886446886447,0.0
6.0084053829996265,0.0,0.006446886446886447,0.0
6.0100376549999055,0.0,0.006446886446886447,0.0
6.014860421000776,0.0,0.006446886446886447,0.0
6.018958516000566,0.0,0.0,0.0
6.021694349998143,0.0,0.0,0.0
6.026288258999557,0.0,0.0,0.0
6.032505462997506,0.0,0.0,0.0
6.035838020998199,0.0,0.0,0.0
6.0366613890000735,0.0,0.0,0.0
6.037629082999047,0.0,0.0,0.0
6.03930524200041,0.0,0.0,0.0
6.0423940229993605,0.0,0.0,0.0
6.044155764000607,0.0,0.0,0.0
6.04929110699959,0.0,0.0,0.0
6.0523723529986455,0.0,0.0,0.0
6.053229819997796,0.0,0.0,0.0
6.054992640998535,0.0,0.0,0.0
6.0587975599992205,0.0,0.0,0.0
6.062200437998399,0.0,0.0,0.0
6.062449321998429,0.0,0.0,0.0
6.069411016000231,0.0,0.0,0.0
6.07326346300033,0.0,0.004835164835164835,0.012893772893772894
6.0777773129993875,0.0,0.007252747252747252,0.0
6.077979300000152,0.0,0.007252747252747252,0.0
6.0845412259986915,0.0,0.007252747252747252,0.0
6.088353987997834,0.0,0.005641025641025641,0.0
6.093625677000091,0.0,0.005641025641025641,0.0
6.0965267610008596,0.0,0.005641025641025641,0.0
6.1002146969985915,0.0,0.005641025641025641,0.0
6.104120165000495,0.0,0.005641025641025641,0.0
6.107966072999261,0.0,0.005641025641025641,0.0
6.1128994209975644,0.0,0.005641025641025641,0.0
6.117549046997738,0.0,0.005641025641025641,0.0
6.122121126998536,0.0,0.005641025641025641,0.0
6.122324173000379,0.0,0.005641025641025641,0.0
6.127743279997958,0.0,0.005641025641025641,0.0
6.131858217999252,0.0,0.005641025641025641,0.0
6.132726135998382,0.0,0.005641025641025641,0.0
6.13438862899784,0.0,0.005641025641025641,0.0
6.1368163799998,0.0,0.005641025641025641,0.0
6.136953019999055,0.0,0.005641025641025641,0.0
6.142249217999051,0.0,0.005641025641025641,0.0
6.14550947799944,0.0,0.005641025641025641,0.0
6.145723513000121,0.0,0.005641025641025641,0.0
6.152293601000565,0.0,0.005641025641025641,0.0
6.156201842000883,0.0,0.0,0.0008058608058608059
6.1595563249975385,0.0,0.0,0.0008058608058608059
6.160400447999564,0.0,0.0,0.0008058608058608059
6.16225290699731,0.0,0.0,0.0008058608058608059
6.166409694000322,0.0,0.0,0.0008058608058608059
6.1677816359988356,0.0,0.0,0.0008058608058608059
6.17623821899906,0.0,0.0,0.0008058608058608059
6.184912785000051,0.0,0.0,0.0008058608058608059
6.192286605997651,0.0,0.0,0.0008058608058608059
6.199211499999365,0.0,0.005641025641025641,0.0
6.2042100689977815,0.0,0.010476190476190476,0.022564102564102562
6.209977714999695,0.0,0.010476190476190476,0.022564102564102562
6.217319859999407,0.0,0.010476190476190476,0.022564102564102562
6.2217825449988595,0.0,0.010476190476190476,0.022564102564102562
6.221906194998155,0.0,0.010476190476190476,0.022564102564102562
6.230036110999208,0.0,0.010476190476190476,0.022564102564102562
6.23593794199769,0.0,0.010476190476190476,0.022564102564102562
6.239718064000044,0.0,0.010476190476190476,0.022564102564102562
6.244367314000556,0.0,0.010476190476190476,0.022564102564102562
6.2534862959983,0.0,0.0016117216117216117,0.0
6.2586008090002,0.0,0.0016117216117216117,0.0
6.263758671000687,0.0,0.008864468864468863,0.0032234432234432234
6.270022398999572,0.0,0.008864468864468863,0.0032234432234432234
6.271137971998542,0.0,0.008864468864468863,0.0032234432234432234
6.283717570997396,0.0,0.008864468864468863,0.0032234432234432234
6.291441476998443,0.0,0.005641025641025641,0.006446886446886447
6.299364053000318,0.0,0.005641025641025641,0.006446886446886447
6.30783903399788,0.0,0.0008058608058608059,0.0016117216117216117
6.318409502000577,0.0,0.0008058608058608059,0.0016117216117216117
6.324672321999969,0.0,0.0008058608058608059,0.0016117216117216117
6.333911547000753,0.0,0.0008058608058608059,0.0016117216117216117
6.342447787999845,0.0,0.0008058608058608059,0.0016117216117216117
6.347488632000022,0.0,0.0008058608058608059,0.0016117216117216117
6.350169261000701,0.0,0.0008058608058608059,0.0016117216117216117
6.354656437997619,0.0,0.0008058608058608059,0.0016117216117216117
6.355008242997428,0.0,0.0008058608058608059,0.0016117216117216117
6.361119769997458,0.0,0.0008058608058608059,0.0016117216117216117
6.365255292999791,0.0,0.0008058608058608059,0.0016117216117216117
6.367665062000015,0.0,0.0008058608058608059,0.0016117216117216117
6.3677946949974285,0.0,0.0008058608058608059,0.0016117216117216117
6.373261043998355,0.0,0.0008058608058608059,0.0016117216117216117
6.374761926999781,0.0,0.0008058608058608059,0.0016117216117216117
6.379479323000851,0.0,0.0008058608058608059,0.0016117216117216117
6.384775247999642,0.0,0.006446886446886447,0.011282051282051281
6.386265862998698,0.0,0.006446886446886447,0.011282051282051281
6.389806664999924,0.0,0.006446886446886447,0.011282051282051281
6.390042571998492,0.0,0.006446886446886447,0.011282051282051281
6.394925892000174,0.0,0.006446886446886447,0.011282051282051281
6.399100176000502,0.0,0.006446886446886447,0.011282051282051281
6.401255606000632,0.0,0.006446886446886447,0.011282051282051281
6.402009022000129,0.0,0.006446886446886447,0.011282051282051281
6.404157074997784,0.0,0.006446886446886447,0.011282051282051281
6.4049855999983265,0.0,0.006446886446886447,0.011282051282051281
6.407067215997813,0.0,0.006446886446886447,0.011282051282051281
6.408625165000558,0.0,0.006446886446886447,0.011282051282051281
6.412432900000567,0.0,0.006446886446886447,0.011282051282051281
6.417412569000589,0.0,0.012087912087912087,0.0008058608058608059
6.4206983629992465,0.0,0.012087912087912087,0.0008058608058608059
6.421554656000808,0.0,0.012087912087912087,0.0008058608058608059
6.4232783269981155,0.0,0.012087912087912087,0.0008058608058608059
6.426361858997552,0.0,0.012087912087912087,0.0008058608058608059
6.427981271997851,0.0,0.0,0.0
6.4324692739974125,0.0,0.0,0.0
6.433352382999146,0.0,0.0,0.0
6.43507863099876,0.0,0.0,0.0
6.439141872997425,0.0,0.0024175824175824176,0.0
6.44231364100051,0.0,0.0024175824175824176,0.0
6.4431315299989365,0.0,0.0024175824175824176,0.0
6.444781868998689,0.0,0.0024175824175824176,0.0
6.450039790997835,0.0,0.0024175824175824176,0.018534798534798533
6.451642277999781,0.0,0.0024175824175824176,0.018534798534798533
6.455478936000873,0.0,0.0024175824175824176,0.018534798534798533
6.459648018997541,0.0,0.0024175824175824176,0.018534798534798533
6.462495338997542,0.0,0.0024175824175824176,0.018534798534798533
6.4653282609979215,0.0,0.004029304029304029,0.0024175824175824176
6.46883776300092,0.0,0.004029304029304029,0.0024175824175824176
6.469110900998203,0.0,0.004029304029304029,0.0024175824175824176
6.473974266998994,0.0,0.004029304029304029,0.0024175824175824176
6.474189328997454,0.0,0.004029304029304029,0.0024175824175824176
6.479056119998859,0.0,0.004029304029304029,0.0024175824175824176
6.484010575997672,0.0,0.012893772893772894,0.05882783882783882
6.488265223997587,0.0,0.0032234432234432234,0.005641025641025641
6.490342701999907,0.0,0.0032234432234432234,0.005641025641025641
6.491773114998068,0.0,0.0032234432234432234,0.005641025641025641
6.497765052998147,0.0,0.0032234432234432234,0.005641025641025641
6.503130845998385,0.0,0.0032234432234432234,0.0
6.504080647999217,0.0,0.0032234432234432234,0.0
6.505745062000642,0.0,0.0032234432234432234,0.0
6.509748980999575,0.0,0.0032234432234432234,0.0
6.514905609998095,0.0,0.0032234432234432234,0.0
6.516431722000561,0.0,0.0032234432234432234,0.0
6.520078346999071,0.0,0.0032234432234432234,0.0
6.5245905259980645,0.0,0.0032234432234432234,0.0
6.52542691599956,0.0,0.0032234432234432234,0.0
6.526295601997845,0.0,0.0032234432234432234,0.0
6.528596727999684,0.0,0.0032234432234432234,0.0
6.528847285997472,0.0,0.0032234432234432234,0.0
6.534043019997625,0.0,0.0032234432234432234,0.0
6.536859018000541,0.0,0.0032234432234432234,0.0
6.540984527997352,0.0,0.004835164835164835,0.022564102564102562
6.543799813000078,0.0,0.004835164835164835,0.022564102564102562
6.546612006997748,0.0,0.004835164835164835,0.022564102564102562
6.549426739999035,0.0,0.004835164835164835,0.022564102564102562
6.55229030999908,0.0,0.004835164835164835,0.022564102564102562
6.5557558219989005,0.0,0.004835164835164835,0.022564102564102562
6.556017046998022,0.0,0.004835164835164835,0.022564102564102562
6.560874405000504,0.0,0.004835164835164835,0.022564102564102562
6.560976814998867,0.0,0.004835164835164835,0.022564102564102562
6.56583619599769,0.0,0.004835164835164835,0.022564102564102562
6.570668874999683,0.0,0.004835164835164835,0.022564102564102562
6.570792331000121,0.0,0.004835164835164835,0.022564102564102562
6.575670261998312,0.0,0.004835164835164835,0.022564102564102562
6.580535573997622,0.0,0.0032234432234432234,0.0
6.584634541999549,0.0,0.0032234432234432234,0.0
6.586804858998221,0.0,0.0032234432234432234,0.0
6.587551910997718,0.0,0.0032234432234432234,0.0
6.589023574000748,0.0,0.0032234432234432234,0.0
6.593822511000326,0.0,0.0032234432234432234,0.0
6.5940609440003755,0.0,0.0032234432234432234,0.0
6.599020260997349,0.0,0.0032234432234432234,0.0
6.603225031998591,0.0,0.0032234432234432234,0.0
6.605385791997833,0.0,0.0032234432234432234,0.0
6.606792875998508,0.0,0.0,0.0
6.611864108999725,0.0,0.0,0.0
6.615066015998309,0.0,0.0,0.0
6.615932894997968,0.0,0.0008058608058608059,0.0
6.617499940999551,0.0,0.0008058608058608059,0.0
6.621288223999727,0.0,0.0008058608058608059,0.0
6.624978510000801,0.0,0.0008058608058608059,0.0
6.630131441997946,0.0,0.0008058608058608059,0.0
6.633346380000148,0.0,0.004029304029304029,0.0
6.634923973997502,0.0,0.007252747252747252,0.0
6.638810435997584,0.0,0.007252747252747252,0.0
6.642519802997413,0.0,0.007252747252747252,0.0
6.647114835999673,0.0,0.007252747252747252,0.0
6.652553750998777,0.0,0.007252747252747252,0.0
6.6534060220001265,0.0,0.0024175824175824176,0.0
6.655637997999293,0.0,0.0024175824175824176,0.0
6.655843108997942,0.0,0.007252747252747252,0.0
6.661072423998121,0.0,0.007252747252747252,0.0
6.664165447000414,0.0,0.007252747252747252,0.0
6.665809690999595,0.0,0.007252747252747252,0.0
6.668964139000309,0.0,0.007252747252747252,0.0
6.671198133000871,0.0,0.007252747252747252,0.0
6.671514372999809,0.0,0.007252747252747252,0.0
6.676911840997491,0.0,0.007252747252747252,0.0
6.679216577998886,0.0,0.0032234432234432234,0.0
6.679347826000594,0.0,0.0032234432234432234,0.0
6.684807899000589,0.0,0.0032234432234432234,0.0
6.685611765999056,0.0,0.0,0.0
6.68716284599941,0.0,0.0,0.0
6.690878752000572,0.0,0.0,0.0
6.696541449997312,0.0,0.0,0.0
6.696800998997787,0.0,0.0,0.0
6.702088433998142,0.0,0.0,0.0
6.703799770999467,0.0,0.0,0.0
6.7068988169994554,0.0,0.0008058608058608059,0.004835164835164835
6.708629120999831,0.0,0.0008058608058608059,0.004835164835164835
6.712086199000623,0.0,0.0008058608058608059,0.004835164835164835
6.712216514999454,0.0,0.0008058608058608059,0.004835164835164835
6.716996262999601,0.0,0.0008058608058608059,0.004835164835164835
6.722632427998178,0.0,0.004029304029304029,0.0
6.722935331999906,0.0,0.0032234432234432234,0.0
6.728043479000917,0.0,0.0032234432234432234,0.0
6.73165120900012,0.0,0.0032234432234432234,0.0
6.73195259899876,0.0,0.0032234432234432234,0.0
6.736728629999561,0.0,0.0032234432234432234,0.0
6.741268620997289,0.0,0.005641025641025641,0.028205128205128206
6.741560062997451,0.0,0.005641025641025641,0.028205128205128206
6.7486503229993104,0.0,0.005641025641025641,0.028205128205128206
6.752805801999784,0.0,0.005641025641025641,0.028205128205128206
6.754484298999159,0.045128205128205125,0.0024175824175824176,0.0008058608058608059
6.758464820999507,0.045128205128205125,0.0024175824175824176,0.0008058608058608059
6.763534735000576,0.045128205128205125,0.0024175824175824176,0.0008058608058608059
6.765185401000053,0.045128205128205125,0.0024175824175824176,0.0008058608058608059
6.768971452998812,0.045128205128205125,0.0024175824175824176,0.0008058608058608059
6.773362033000012,0.0,0.0032234432234432234,0.02095238095238095
6.7742328669992276,0.0,0.0032234432234432234,0.02095238095238095
6.776579782999761,0.0,0.0032234432234432234,0.02095238095238095
6.776849576999666,0.0,0.0032234432234432234,0.02095238095238095
6.782455035998282,0.0,0.0032234432234432234,0.02095238095238095
6.7826770469982876,0.0,0.0008058608058608059,0.008058608058608058
6.789393150000251,0.0,0.0008058608058608059,0.02095238095238095
6.79307453599904,0.0,0.0032234432234432234,0.0
6.799493784998049,0.0,0.0024175824175824176,0.0
6.804447266000352,0.0,0.0024175824175824176,0.0
6.808355858000141,0.0,0.0008058608058608059,0.0
6.815202082998439,0.0,0.0008058608058608059,0.0
6.8189594139985275,0.0,0.0008058608058608059,0.0
6.824408061998838,0.0,0.0008058608058608059,0.0
6.825940855000226,0.0,0.0008058608058608059,0.0
6.830924818998028,0.0,0.0008058608058608059,0.0
6.834791855999356,0.0,0.008058608058608058,0.02336996336996337
6.838669449000008,0.0,0.006446886446886447,0.0
6.841719536998426,0.0,0.006446886446886447,0.0
6.844032582997897,0.0,0.006446886446886447,0.0
6.844155585000408,0.0,0.006446886446886447,0.0
6.8500412559988035,0.0,0.006446886446886447,0.0
6.85523288299737,0.0,0.006446886446886447,0.0
6.857617331999791,0.0,0.006446886446886447,0.0
6.8577083489981305,0.0,0.006446886446886447,0.0
6.863023260000773,0.0,0.006446886446886447,0.0
6.866112692998286,0.0,0.006446886446886447,0.0
6.866968179998366,0.0,0.006446886446886447,0.0
6.869365560000006,0.0,0.006446886446886447,0.0
6.874777114997414,0.0,0.004029304029304029,0.022564102564102562
6.8771475729990925,0.0,0.004029304029304029,0.022564102564102562
6.882364354998572,0.0,0.005641025641025641,0.028205128205128206
6.885176425999816,0.0,0.0,0.008058608058608058
6.888607851000415,0.0,0.0,0.008058608058608058
6.888844389999576,0.0,0.0,0.008058608058608058
6.893757088997518,0.0,0.0,0.004029304029304029
6.897953583000344,0.0,0.0,0.004029304029304029
6.90003767899907,0.0,0.0,0.004029304029304029
6.900846035998256,0.0,0.0,0.004029304029304029
6.902347590999852,0.0,0.0,0.004029304029304029
6.906533049997961,0.0,0.006446886446886447,2.5723076923076924
6.9093224329990335,0.0,0.004835164835164835,2.577948717948718
6.912839560998691,0.0,0.004835164835164835,2.577948717948718
6.913103778999357,0.0,0.004835164835164835,2.577948717948718
6.918086891997518,0.0,0.004835164835164835,2.577948717948718
6.922210437998729,0.0,0.004835164835164835,2.577948717948718
6.924417248999816,0.0,0.004835164835164835,2.577948717948718
6.924690320000082,0.0,0.004835164835164835,2.577948717948718
6.9296786109989625,0.0,0.004835164835164835,2.577948717948718
6.935229030998016,0.0,0.004835164835164835,2.577948717948718
6.9368939159976435,0.0,0.004835164835164835,2.577948717948718
6.940755098999944,0.0,0.004835164835164835,2.577948717948718
6.9454147729993565,0.0,0.0016117216117216117,0.0821978021978022
6.945533611000428,0.0,0.0016117216117216117,0.0821978021978022
6.952669734000665,0.0,0.0016117216117216117,0.0821978021978022
6.956568588000664,0.0,0.0016117216117216117,0.0821978021978022
6.963195855998492,0.0,0.0016117216117216117,0.0821978021978022
6.966230330999679,0.0,0.0016117216117216117,0.0821978021978022
6.969327520000661,0.0,0.0016117216117216117,0.0821978021978022
6.97105857799761,0.0,0.0016117216117216117,0.0821978021978022
6.974445543000911,0.0,0.0016117216117216117,0.0821978021978022
6.974620820998098,0.0,0.0016117216117216117,0.0821978021978022
6.980537129998993,0.0,0.0016117216117216117,0.0821978021978022
6.9863743869973405,0.0,0.0016117216117216117,0.0821978021978022
6.986513790998288,0.0,0.0016117216117216117,0.0821978021978022
6.991823085998476,0.0,0.004029304029304029,0.0
6.993388792998303,0.0,0.004029304029304029,0.0
6.997175721997337,0.0,0.004029304029304029,0.0
7.00220918299965,0.0,0.004029304029304029,0.0
7.0052548780004145,0.0,0.0,0.0
7.008256783999968,0.0,0.0,0.0
7.010508503000892,0.0,0.0,0.0
7.010846943998331,0.0,0.0,0.0
7.016104804999486,0.0,0.0,0.0
7.019078335997619,0.0,0.0,0.0
7.021429902997625,0.0,0.0,0.0
7.021498671998415,0.0,0.0,0.0
7.026837509998586,0.0,0.0,0.0
7.028430924998247,0.0,0.0,0.0
7.032252218999929,0.0,0.0,0.0
7.035320112998306,0.0,0.0,0.0
7.037668696000765,0.0,0.0,0.0
7.037848018997465,0.0,0.0,0.0
7.043167003997951,0.0,0.0,0.0
7.04554151100092,0.0,0.0,0.0
7.045796436999808,0.0,0.0,0.0
7.052259230000345,0.0,0.0,0.0
7.057197688998713,0.0,0.0,0.0
7.064448818000528,0.0,0.0,0.0016117216117216117
7.069390492000821,0.0,0.0,0.0016117216117216117
7.0733998069990776,0.0,0.0,0.0016117216117216117
7.075906808000582,0.0,0.0,0.0016117216117216117
7.083052955000312,0.0,0.0,0.0016117216117216117
7.0879296109997085,0.0,0.0,0.033846153846153845
7.09322241299742,0.0,0.0,0.033846153846153845
7.09414943199954,0.0,0.0,0.033846153846153845
7.095700444999238,0.0,0.0032234432234432234,0.0
7.099928878000355,0.0,0.0032234432234432234,0.0
7.1014789279979595,0.0,0.0032234432234432234,0.0
7.1051857019992894,0.0,0.0032234432234432234,0.0
7.10951735100025,0.0,0.004029304029304029,0.0
7.110460334999516,0.0,0.004029304029304029,0.0
7.1119990259976475,0.0,0.004029304029304029,0.0
7.115970751998248,0.0,0.004029304029304029,0.0
7.120980437997787,0.0,0.004029304029304029,0.0
7.124740882998594,0.0,0.0,0.0032234432234432234
7.133963135998783,0.0,0.0,0.0032234432234432234
7.141137949998665,0.0,0.0,0.0032234432234432234
7.145922371000779,0.0,0.0,0.0032234432234432234
7.151797247999639,0.0,0.0,0.0032234432234432234
7.151861761998589,0.0,0.0,0.0032234432234432234
7.157289741997374,0.0,0.0,0.0032234432234432234
7.158144917997561,0.0,0.0,0.0032234432234432234
7.159703714998614,0.0,0.0,0.0032234432234432234
7.163495503999002,0.0,0.0,0.0032234432234432234
7.168269232999592,0.0,0.0,0.0032234432234432234
7.176162764000765,0.0,0.006446886446886447,0.007252747252747252
7.1820406269980595,0.0,0.011282051282051281,0.0
7.1859143799993035,0.0,0.011282051282051281,0.0
7.190007261000574,0.0,0.011282051282051281,0.0
7.1916196679994755,0.0,0.011282051282051281,0.0
7.195601166000415,0.0,0.011282051282051281,0.0
7.197932121998747,0.0,0.008864468864468863,0.004835164835164835
7.198195974997361,0.0,0.006446886446886447,0.011282051282051281
7.203523268999561,0.0,0.006446886446886447,0.011282051282051281
7.204392209998332,0.0,0.006446886446886447,0.011282051282051281
7.206713883999328,0.0,0.006446886446886447,0.011282051282051281
7.206849231999513,0.0,0.006446886446886447,0.011282051282051281
7.212202410999453,0.0,0.006446886446886447,0.011282051282051281
7.213756461998855,0.0,0.006446886446886447,0.011282051282051281
7.2175629129997105,0.0,0.006446886446886447,0.011282051282051281
7.221443422000448,0.0,0.006446886446886447,0.011282051282051281
7.224603623999428,0.0,0.006446886446886447,0.011282051282051281
7.225516217000404,0.0,0.004029304029304029,0.0008058608058608059
7.226398938000784,0.0,0.004029304029304029,0.0008058608058608059
7.2288003399989975,0.0,0.004029304029304029,0.0008058608058608059
7.2343704819977575,0.0,0.004029304029304029,0.0008058608058608059
7.235201789000712,0.0,0.0008058608058608059,0.0
7.236691001999134,0.0,0.0008058608058608059,0.0
7.241659633000381,0.0,0.0008058608058608059,0.0
7.245514729998831,0.0,0.0008058608058608059,0.0
7.249442698997882,0.0,0.0008058608058608059,0.0
7.252586349997728,0.0,0.0008058608058608059,0.0
7.253856736999296,0.0,0.004029304029304029,0.0
7.254010394997749,0.0,0.004029304029304029,0.0
7.263471417998517,0.0,0.004029304029304029,0.0
7.269174764998752,0.0,0.004029304029304029,0.0
7.273761910000758,0.0,0.004029304029304029,0.0
7.274713344999327,0.0,0.008058608058608058,0.004029304029304029
7.27564626199819,0.0,0.008058608058608058,0.004029304029304029
7.276516222998907,0.0,0.008058608058608058,0.004029304029304029
7.278263244999835,0.0,0.008058608058608058,0.004029304029304029
7.281251511998562,0.0,0.008058608058608058,0.004029304029304029
7.283492877999379,0.0,0.016117216117216115,0.0
7.284299155999179,0.0,0.016117216117216115,0.0
7.286536805997457,0.0,0.016117216117216115,0.0
7.286800675999984,0.0,0.016117216117216115,0.0
7.292017326999485,0.0,0.016117216117216115,0.0
7.294402908999473,0.0,0.006446886446886447,0.044322344322344324
7.300949527998455,0.0,0.006446886446886447,0.044322344322344324
7.304801410999062,0.0,0.006446886446886447,0.044322344322344324
7.309717190997617,0.0,0.006446886446886447,0.044322344322344324
7.3145414579994394,0.0,0.006446886446886447,0.044322344322344324
7.3186213730004965,0.0,0.0,0.012087912087912087
7.320975487000396,0.0,0.004835164835164835,0.006446886446886447
7.32127828299781,0.0,0.004835164835164835,0.006446886446886447
7.327070752999134,0.0,0.004835164835164835,0.006446886446886447
7.331476108000061,0.0,0.004835164835164835,0.006446886446886447
7.332353796999087,0.0,0.004835164835164835,0.006446886446886447
7.333857166999223,0.0,0.004835164835164835,0.006446886446886447
7.339205072999903,0.0,0.012893772893772894,0.012893772893772894
7.34147226999994,0.0,0.008864468864468863,0.0
7.341614487999323,0.0,0.008864468864468863,0.0
7.347104696000315,0.0,0.008864468864468863,0.0
7.347303013997589,0.0,0.0,0.004835164835164835
7.355217887998151,0.0,0.0,0.004835164835164835
7.36164210700008,0.0,0.0,0.004835164835164835
7.364764442998421,0.0,0.0,0.004835164835164835
7.367034938997676,0.0,0.016117216117216115,0.0
7.367235517998779,0.0,0.016117216117216115,0.0
7.372579454997322,0.0,0.016117216117216115,0.0
7.37412883199795,0.0,0.004029304029304029,0.00967032967032967
7.377988199998072,0.0,0.004029304029304029,0.00967032967032967
7.382532563999121,0.0,0.004029304029304029,0.00967032967032967
7.38269362400024,0.0,0.004029304029304029,0.00967032967032967
7.3882531429990195,0.0,0.004029304029304029,0.00967032967032967
7.388350879999052,0.0,0.004029304029304029,0.00967032967032967
7.393737949998467,0.0,0.004029304029304029,0.00967032967032967
7.394674557999679,0.0,0.004835164835164835,0.02336996336996337
7.395731831999001,0.0,0.004835164835164835,0.02336996336996337
7.396569301999989,0.0,0.004835164835164835,0.02336996336996337
7.398288201999094,0.0,0.004835164835164835,0.02336996336996337
7.401416437998705,0.0,0.004835164835164835,0.02336996336996337
7.402981011997326,0.0,0.0,0.0
7.407367671999964,0.0,0.0,0.0
7.408910227997694,0.0,0.0,0.0
7.4128112549988145,0.0,0.0,0.0
7.416627856997366,0.0,0.0,0.0
7.420137134999095,0.0,0.0,0.0
7.420238753999001,0.0,0.0,0.0
7.425207139000122,0.0,0.0,0.0
7.42878883999947,0.0,0.0,0.0
7.428913531999569,0.0,0.0,0.0
7.434001149998949,0.0,0.0,0.0
7.43890048799949,0.0,0.0,0.0
7.4429450089992315,0.0,0.0,0.0
7.445322868999938,0.0,0.0,0.0
7.44540419599798,0.0,0.0,0.0
7.450674117997551,0.0,0.0,0.0
7.452992349000851,0.0,0.0,0.0
7.453195679998316,0.0,0.0,0.0
7.458384731999104,0.0,0.0,0.0
7.460635177998483,0.0,0.0,0.0
7.460921268997481,0.0,0.0,0.0
7.466256355997757,0.0,0.0,0.0
7.468526821998239,0.0,0.0,0.0
7.4687018869990425,0.0,0.0,0.0
7.474077233000571,0.0,0.0,0.0
7.47560908000014,0.0,0.0,0.0
7.479367756997817,0.0,0.0,0.0
7.479495281997515,0.0,0.0,0.0
7.4848798849998275,0.0,0.0,0.0
7.486806298998999,0.0,0.0,0.0
7.488591213998006,0.0,0.0,0.0
7.490872864000266,0.0,0.0,0.0
7.491054055997665,0.0,0.0,0.0
7.498279215000366,0.0,0.004835164835164835,0.051575091575091575
7.5019366099986655,0.0,0.004835164835164835,0.051575091575091575
7.502050404000329,0.0,0.004835164835164835,0.051575091575091575
7.507629883999471,0.0,0.004835164835164835,0.051575091575091575
7.507891990000644,0.0,0.004835164835164835,0.051575091575091575
7.514875062999636,0.0,0.004835164835164835,0.051575091575091575
7.5201287969975965,0.0,0.012893772893772894,0.03142857142857143
7.521093589999509,0.0,0.012893772893772894,0.03142857142857143
7.52292363000015,0.0,0.012893772893772894,0.03142857142857143
7.525258139998186,0.0,0.012893772893772894,0.03142857142857143
7.525471109998762,0.0,0.012893772893772894,0.03142857142857143
7.532869958999072,0.0,0.012893772893772894,0.03142857142857143
7.537414644000819,0.0,0.005641025641025641,0.0
7.53830492400084,0.0,0.005641025641025641,0.0
7.53991021299953,0.0,0.005641025641025641,0.0
7.544599830998777,0.0,0.005641025641025641,0.0
7.544678026999463,0.0,0.005641025641025641,0.0
7.550322028000664,0.0,0.005641025641025641,0.0
7.551184930998716,0.0,0.005641025641025641,0.0
7.553517977998126,0.0,0.005641025641025641,0.0
7.55916785899899,0.0,0.005641025641025641,0.0
7.559349901999667,0.0,0.005641025641025641,0.0
7.564604580999003,0.0,0.005641025641025641,0.0
7.566815349997341,0.0,0.0,0.0
7.56825542200022,0.0,0.0,0.0
7.573067312998319,0.0,0.0,0.0
7.577973644998565,0.0,0.0,0.0
7.5821982599991316,0.0,0.008058608058608058,0.0032234432234432234
7.58439088799787,0.0,0.008058608058608058,0.0032234432234432234
7.585134347998974,0.0,0.008058608058608058,0.0032234432234432234
7.58727123099743,0.0,0.008058608058608058,0.0032234432234432234
7.588882667998405,0.0,0.008058608058608058,0.0032234432234432234
7.592705614999431,0.0,0.008058608058608058,0.0032234432234432234
7.598423430998082,0.0,0.008058608058608058,0.0032234432234432234
7.598506262998853,0.0,0.008058608058608058,0.0032234432234432234
7.603830346000905,0.0,0.004029304029304029,0.006446886446886447
7.605428042999847,0.0,0.0,0.0
7.609193604999746,0.0,0.0,0.0
7.613230393999402,0.0,0.004029304029304029,0.00967032967032967
7.6155033340000955,0.0,0.004029304029304029,0.00967032967032967
7.616286074000527,0.0,0.004029304029304029,0.00967032967032967
7.6185187739974936,0.0,0.004029304029304029,0.00967032967032967
7.618662459000916,0.0,0.004029304029304029,0.00967032967032967
7.623685986000055,0.0,0.004029304029304029,0.00967032967032967
7.627879739997297,0.0,0.004029304029304029,0.00967032967032967
7.630722048997995,0.0,0.0,0.0008058608058608059
7.634399250997376,0.0,0.0032234432234432234,0.010476190476190476
7.634509528998024,0.0,0.0032234432234432234,0.010476190476190476
7.639439939997828,0.0,0.0,0.00967032967032967
7.6430404059974535,0.0,0.0,0.02336996336996337
7.647971498998231,0.0,0.0,0.02336996336996337
7.652155169998878,0.0,0.0,0.02336996336996337
7.654399424998701,0.0,0.0,0.02336996336996337
7.654608041000756,0.0,0.0,0.02336996336996337
7.659526851999544,0.0,0.0,0.02336996336996337
7.663458267998067,0.0,0.0,0.02336996336996337
7.667342351000116,0.0,0.0,0.02336996336996337
7.671303782997711,0.0,0.0,0.02336996336996337
7.675012612999126,0.0,0.0,0.02336996336996337
7.6795731839993095,0.0,0.0,0.02336996336996337
7.6798496509982215,0.0,0.0,0.02336996336996337
7.685203409000678,0.0,0.0,0.02336996336996337
7.685996208998404,0.0,0.0,0.02336996336996337
7.687595704999694,0.0,0.0,0.02336996336996337
7.69355166799869,0.0,0.0,0.02336996336996337
7.70334459500009,0.0,0.006446886446886447,0.012893772893772894
7.711918863999017,0.0,0.0016117216117216117,0.0
7.716935337997711,0.0,0.0016117216117216117,0.0
7.723485752998386,0.0,0.0016117216117216117,0.0
7.727918562999548,0.0,0.0016117216117216117,0.0
7.728727296998841,0.0,0.0,0.0
7.732509171000856,0.0,0.0,0.0
7.735587825998664,0.0,0.0,0.0
7.738250205999066,0.0,0.0,0.0
7.743618050000805,0.0,0.0,0.0
7.745853084998089,0.0,0.0,0.0
7.745992113999819,0.0,0.0,0.0
7.751345905999187,0.0,0.0,0.0
7.752932957999292,0.0,0.0,0.0
7.757390730999759,0.0,0.0,0.0
7.758408494999458,0.0,0.0,0.0
7.758665690998896,0.0,0.0,0.0
7.764046116997633,0.0,0.0,0.0
7.765659535998566,0.0,0.0,0.0
7.769486183999106,0.0,0.0,0.0
7.77327921899996,0.0,0.007252747252747252,0.0
7.777034419999836,0.0,0.007252747252747252,0.0
7.781590370999766,0.0,0.007252747252747252,0.0
7.781846380999923,0.0,0.007252747252747252,0.0
7.7888219529995695,0.0,0.007252747252747252,0.0
7.792670147999161,0.0,0.007252747252747252,0.0
7.799585524997383,0.0,0.0032234432234432234,0.0
7.803531129000476,0.0,0.0032234432234432234,0.0
7.808077357000002,0.0,0.0032234432234432234,0.0
7.808197669997753,0.0,0.0032234432234432234,0.0
7.8162250770001265,0.0,0.0032234432234432234,0.0
7.8236503829975845,0.0,0.0032234432234432234,0.0
7.82955132799907,0.0,0.0032234432234432234,0.0
7.836265342997649,0.0,0.0024175824175824176,0.004029304029304029
7.840846718998364,0.0,0.004835164835164835,0.0008058608058608059
7.841075828997418,0.0,0.004835164835164835,0.0008058608058608059
7.846296428997448,0.0,0.004835164835164835,0.0008058608058608059
7.849505230999057,0.0,0.004835164835164835,0.0008058608058608059
7.851101837000897,0.0,0.004835164835164835,0.0008058608058608059
7.854464460997406,0.0,0.004835164835164835,0.0008058608058608059
7.855506592997699,0.0,0.004835164835164835,0.0008058608058608059
7.8565140509999765,0.0,0.004835164835164835,0.0008058608058608059
7.856708519997483,0.0,0.004835164835164835,0.0008058608058608059
7.863249267000356,0.0,0.004835164835164835,0.0008058608058608059
7.86740011800066,0.0,0.0032234432234432234,0.0
7.871164502997999,0.0,0.004835164835164835,0.0
7.875015749999875,0.0,0.004835164835164835,0.0
7.878799542999332,0.0,0.004835164835164835,0.0
7.878881962999003,0.0,0.004835164835164835,0.0
7.883815020999464,0.0,0.004835164835164835,0.0
7.887526661997981,0.0,0.004835164835164835,0.0
7.893312934000278,0.0,0.004835164835164835,0.0
7.898847865999414,0.0,0.004835164835164835,0.0
7.899050535997958,0.0,0.004835164835164835,0.0
7.904624594000779,0.0,0.004835164835164835,0.0
7.9048972009986755,0.0,0.004835164835164835,0.0
7.911907824000082,0.0,0.004835164835164835,0.0
7.91499407000083,0.0,0.004835164835164835,0.0
7.917265642998245,0.0,0.004835164835164835,0.0
7.917452527999558,0.0,0.03304029304029304,0.0032234432234432234
7.923505929000385,0.0,0.03304029304029304,0.0032234432234432234
7.927895688997523,0.0,0.03304029304029304,0.0032234432234432234
7.928763625997817,0.0,0.0032234432234432234,0.05721611721611722
7.930437860999518,0.0,0.0032234432234432234,0.0016117216117216117
7.933895128997392,0.0,0.0032234432234432234,0.0016117216117216117
7.939698590998887,0.0,0.0032234432234432234,0.0016117216117216117
7.939850545997615,0.0,0.004029304029304029,0.018534798534798533
7.945116135997523,0.0,0.004029304029304029,0.018534798534798533
7.946697286999552,0.0,0.004029304029304029,0.018534798534798533
7.950443101999554,0.0,0.004029304029304029,0.018534798534798533
7.954203026998584,0.0,0.0,0.0
7.958619198998349,0.0,0.0,0.0
7.959400764000748,0.0,0.0,0.0
7.961648779000825,0.0,0.0,0.0
7.961845000998437,0.0,0.0,0.0
7.9670617089977895,0.0,0.0,0.0
7.97016849099964,0.0,0.006446886446886447,0.006446886446886447
7.971819108999625,0.0,0.006446886446886447,0.006446886446886447
7.975615278999612,0.0,0.006446886446886447,0.006446886446886447
7.980302592997759,0.0,0.006446886446886447,0.006446886446886447
7.985843046000809,0.0,0.006446886446886447,0.006446886446886447
7.986042648997682,0.0,0.006446886446886447,0.006446886446886447
7.991821740000887,0.0,0.006446886446886447,0.006446886446886447
7.999419580999529,0.0,0.006446886446886447,0.006446886446886447
8.004188186998363,0.0,0.006446886446886447,0.006446886446886447
8.004345659999672,0.0,0.006446886446886447,0.0
8.009017542997753,0.0,0.006446886446886447,0.0
8.009230408999429,0.0,0.006446886446886447,0.0
8.014578419999452,0.0,0.006446886446886447,0.0
8.01543058599782,0.0,0.006446886446886447,0.0
8.017024983997544,0.0,0.006446886446886447,0.0
8.021835043000465,0.0,0.006446886446886447,0.0
8.026748632997624,0.0,0.006446886446886447,0.0
8.030836107998766,0.0,0.006446886446886447,0.0
8.034164894997957,0.0,0.004029304029304029,0.0016117216117216117
8.0342951370003,0.0,0.004835164835164835,0.0
8.04051869199975,0.0,0.004835164835164835,0.0
8.044799010000133,0.0,0.004835164835164835,0.0
8.046491077999235,0.0,0.004835164835164835,0.0
8.049708164999174,0.0,0.004835164835164835,0.0
8.049934153998038,0.0,0.004835164835164835,0.0
8.055440749998525,0.0,0.004835164835164835,0.0
8.056356974000664,0.0,0.004835164835164835,0.0
8.058025528000144,0.0,0.004835164835164835,0.0
8.06180229399979,0.0,0.004835164835164835,0.0
8.066836285997852,0.0,0.004835164835164835,0.0
8.07091617200058,0.0,0.008864468864468863,0.0136996336996337
8.073722786997678,0.0,0.008864468864468863,0.0136996336996337
8.077935122997587,0.0,0.008864468864468863,0.0136996336996337
8.080038749998494,0.0,0.0032234432234432234,0.0
8.081534487999306,0.0,0.0032234432234432234,0.0
8.086401171000034,0.0,0.0032234432234432234,0.0
8.091634595999494,0.0,0.0032234432234432234,0.0
8.092855214999872,0.0,0.0032234432234432234,0.0
8.093055786997866,0.0,0.0032234432234432234,0.0
8.098655550998956,0.0,0.0032234432234432234,0.0
8.098845358999824,0.0,0.0032234432234432234,0.0
8.104250558997592,0.0,0.0032234432234432234,0.0
8.106013771997823,0.0,0.0032234432234432234,0.0
8.109409718999814,0.0,0.0032234432234432234,0.0
8.109497443998407,0.0,0.0032234432234432234,0.0
8.115048979998392,0.0,0.0032234432234432234,0.0
8.115249152000615,0.0,0.0032234432234432234,0.0
8.120491834997665,0.0,0.0032234432234432234,0.0
8.1220735709976,0.0,0.0032234432234432234,0.0
8.126531841000542,0.0,0.0032234432234432234,0.0
8.12685304399929,0.0,0.0,0.02336996336996337
8.132108860998414,0.0,0.0,0.02336996336996337
8.134417687000678,0.0,0.0,0.02336996336996337
8.139670836000732,0.0,0.005641025641025641,0.00967032967032967
8.141402052999183,0.0,0.00967032967032967,0.0
8.144617555997684,0.0,0.00967032967032967,0.0
8.146204151998973,0.0,0.00967032967032967,0.0
8.149916104997828,0.0,0.0024175824175824176,0.017728937728937726
8.154472000998794,0.0,0.0024175824175824176,0.017728937728937726
8.154710587998125,0.0,0.0024175824175824176,0.017728937728937726
8.15967240199825,0.0,0.0024175824175824176,0.017728937728937726
8.164586972998222,0.0,0.0,0.005641025641025641
8.168513953998627,0.0,0.0,0.005641025641025641
8.171716098997422,0.0,0.0,0.005641025641025641
8.173977551999997,0.0,0.0,0.005641025641025641
8.1741576050008,0.0,0.0008058608058608059,0.0
8.179440412997792,0.0,0.0008058608058608059,0.0
8.182204844000807,0.0,0.0008058608058608059,0.0
8.186473829999159,0.0,0.0008058608058608059,0.0
8.187931353997556,0.0,0.0,0.0
8.192784325998218,0.0,0.0,0.0
8.19283936300053,0.0,0.0,0.0
8.197714690999419,0.0,0.0,0.0
8.202554301999044,0.0,0.0,0.0
8.207301590999123,0.0,0.0,0.0
8.212112180997792,0.0,0.004835164835164835,0.0
8.216271872999641,0.0,0.004835164835164835,0.0
8.219115142997907,0.0,0.004835164835164835,0.0
8.221903108998958,0.0,0.004835164835164835,0.0
8.226012352999533,0.0,0.004835164835164835,0.0
8.228811298999062,0.0,0.004835164835164835,0.0
8.231664282997372,0.0,0.004835164835164835,0.0
8.234681817997625,0.0,0.004835164835164835,0.0
8.236885909998819,0.0,0.0,0.0
8.237659128000814,0.0,0.0,0.0
8.239133702998515,0.0,0.0,0.0
8.243890368998109,0.0,0.0032234432234432234,0.0
8.244039042998338,0.0,0.004835164835164835,0.0
8.24891481099985,0.0,0.004835164835164835,0.0
8.253740593998373,0.0,0.004835164835164835,0.0
8.253840735000267,0.0,0.004835164835164835,0.0
8.260026052998,0.0,0.004835164835164835,0.0
8.263787182997476,0.0,0.004835164835164835,0.0
8.268196163997345,0.0,0.004835164835164835,0.0
8.269700800999999,0.0,0.004835164835164835,0.0
8.274132792997989,0.0,0.004835164835164835,0.0
8.274998925000546,0.0,0.0,0.0
8.276590298999508,0.0,0.0,0.0
8.28102933899936,0.0,0.0,0.0
8.28124296399983,0.0,0.0,0.0
8.286485590000666,0.0,0.0,0.0
8.288047482998081,0.0,0.0,0.0
8.292518288999418,0.0,0.0,0.0
8.292850035999436,0.0,0.0,0.0
8.298118771999725,0.0,0.0,0.0
8.300560700998176,0.0,0.0,0.0
8.300800978999177,0.0,0.0,0.0
8.307021988999622,0.0,0.0,0.0
8.31098133499836,0.0,0.0,0.0
8.314838040998438,0.0,0.0,0.0
8.319648295997467,0.0,0.0,0.0
8.323442884000542,0.0,0.004835164835164835,0.008058608058608058
8.327046983999026,0.0,0.004835164835164835,0.008058608058608058
8.332419907997973,0.0,0.004835164835164835,0.008058608058608058
8.334833603999869,0.0,0.004835164835164835,0.008058608058608058
8.340085017000092,0.0,0.004835164835164835,0.008058608058608058
8.34262880499955,0.0,0.004835164835164835,0.008058608058608058
8.347044885998912,0.0,0.004835164835164835,0.008058608058608058
8.347256782999466,0.0,0.004835164835164835,0.008058608058608058
8.353189760000532,0.0,0.004835164835164835,0.008058608058608058
8.359735602,0.0,0.004835164835164835,0.008058608058608058
8.363921759999357,0.0,0.0,0.006446886446886447
8.365376243000355,0.0,0.0,0.020146520146520144
8.37290886700066,0.0,0.0,0.020146520146520144
8.379920707000565,0.0,0.0,0.020146520146520144
8.384163986000203,0.0,0.0016117216117216117,0.004029304029304029
8.385702138999477,0.0,0.0016117216117216117,0.004029304029304029
8.389616804997786,0.0,0.0016117216117216117,0.004029304029304029
8.392711664997478,0.0,0.0016117216117216117,0.004029304029304029
8.394978356998763,0.0,0.004835164835164835,0.0032234432234432234
8.395112346999667,0.0,0.0024175824175824176,0.0032234432234432234
8.400405546999536,0.0,0.0024175824175824176,0.0032234432234432234
8.403354453999782,0.0,0.0024175824175824176,0.0032234432234432234
8.405747876997339,0.0,0.0024175824175824176,0.0032234432234432234
8.405849446000502,0.0,0.0024175824175824176,0.0032234432234432234
8.412515006999456,0.0,0.0024175824175824176,0.0032234432234432234
8.416924123997887,0.0,0.0024175824175824176,0.0032234432234432234
8.417162400997768,0.0,0.0024175824175824176,0.0032234432234432234
8.42308190499898,0.0,0.0024175824175824176,0.0032234432234432234
8.434244100997603,0.0,0.0024175824175824176,0.0032234432234432234
8.443008436999662,0.0,0.0,0.0
8.450277486997948,0.0,0.0,0.0
8.455132906998188,0.0,0.0,0.0
8.460568178998074,0.0,0.0,0.0
8.460925497998687,0.0,0.0,0.0
8.466776106997713,0.0,0.0,0.0
8.472176019000472,0.0,0.0032234432234432234,0.004835164835164835
8.472983801999362,0.0,0.0032234432234432234,0.004835164835164835
8.475229597999714,0.0,0.0032234432234432234,0.004835164835164835
8.47534885499772,0.0,0.0032234432234432234,0.004835164835164835
8.48365754599945,0.0,0.0032234432234432234,0.004835164835164835
8.490975138000067,0.0,0.0032234432234432234,0.004835164835164835
8.495878544999869,0.0,0.0032234432234432234,0.004835164835164835
8.501672413000051,0.0,0.0032234432234432234,0.004835164835164835
8.506444004000514,0.0,0.0032234432234432234,0.004835164835164835
8.506522908999614,0.0,0.0024175824175824176,0.004029304029304029
8.513314589999936,0.0,0.0024175824175824176,0.004029304029304029
8.516976107999653,0.0,0.0024175824175824176,0.01934065934065934
