time,emg1,emg2,emg3
0.03336606599987135,2.9760439560439558,1.1894505494505494,0.4005128205128205
0.04934594800033665,1.5214652014652015,0.4698168498168498,0.190989010989011
0.05679176599915081,1.5214652014652015,0.4698168498168498,0.190989010989011
0.061424257000908256,1.5214652014652015,0.4698168498168498,0.190989010989011
0.061566971000502235,1.5214652014652015,0.4698168498168498,0.190989010989011
0.06694335400061391,1.5214652014652015,0.4698168498168498,0.190989010989011
0.06954972499988799,1.5214652014652015,0.4698168498168498,0.190989010989011
0.07467965899923001,1.5214652014652015,0.4698168498168498,0.190989010989011
0.07916204700086382,1.5214652014652015,0.4698168498168498,0.190989010989011
0.07946881399948325,1.5214652014652015,0.4698168498168498,0.190989010989011
0.08451762600088841,1.5214652014652015,0.4698168498168498,0.190989010989011
0.08860283899957722,1.5214652014652015,0.4698168498168498,0.190989010989011
0.09118136799952481,1.5214652014652015,0.4698168498168498,0.190989010989011
0.09682337900085258,2.9607326007326007,0.7663736263736264,0.6511355311355311
0.09708893899914983,2.9607326007326007,0.7663736263736264,0.6511355311355311
0.10199384999941685,2.9607326007326007,0.7663736263736264,0.6511355311355311
0.10782845100038685,2.71010989010989,2.56989010989011,1.6665201465201465
0.10795357099959801,2.71010989010989,2.56989010989011,1.6665201465201465
0.1126197730009153,2.71010989010989,2.56989010989011,1.6665201465201465
0.11285289400075271,2.71010989010989,2.56989010989011,1.6665201465201465
0.11742530700030329,2.71010989010989,2.56989010989011,1.6665201465201465
0.11829582800055505,2.71010989010989,2.56989010989011,1.6665201465201465
0.1198509349997039,2.71010989010989,2.56989010989011,1.6665201465201465
0.12359787999957916,1.4908424908424909,0.47465201465201456,0.18937728937728937
0.12371528299991041,2.655311355311355,2.5352380952380953,1.6302564102564103
0.12822297499951674,2.655311355311355,2.5352380952380953,1.6302564102564103
0.12908688800052914,2.655311355311355,2.5352380952380953,1.6302564102564103
0.13062266599990835,2.655311355311355,2.5352380952380953,1.6302564102564103
0.13505907599937927,2.655311355311355,2.5352380952380953,1.6302564102564103
0.13594237299912493,2.655311355311355,2.5352380952380953,1.6302564102564103
0.13748056199983694,2.655311355311355,2.5352380952380953,1.6302564102564103
0.14221867699961876,2.655311355311355,2.5352380952380953,1.6302564102564103
0.14236202699976275,2.655311355311355,2.5352380952380953,1.6302564102564103
0.15089863399953174,2.655311355311355,2.5352380952380953,1.6302564102564103
0.15544933000091987,2.655311355311355,2.5352380952380953,1.6302564102564103
0.15632818899939593,2.655311355311355,2.5352380952380953,1.6302564102564103
0.15790181199918152,2.655311355311355,2.5352380952380953,1.6302564102564103
0.1616484810001566,2.655311355311355,2.5352380952380953,1.6302564102564103
0.16681610299929162,1.2313553113553113,0.25787545787545785,0.17487179487179486
0.1692005959994276,1.2313553113553113,0.25787545787545785,0.17487179487179486
0.16945469299935212,1.2313553113553113,0.25787545787545785,0.17487179487179486
0.1745704349996231,1.2313553113553113,0.25787545787545785,0.17487179487179486
0.17827088400008506,1.2313553113553113,0.25787545787545785,0.17487179487179486
0.183459629999561,1.2313553113553113,0.25787545787545785,0.17487179487179486
0.18711793500006024,1.2313553113553113,0.25787545787545785,0.17487179487179486
0.19256292799946095,1.2313553113553113,0.25787545787545785,0.17487179487179486
0.19433702000060293,1.2313553113553113,0.25787545787545785,0.17487179487179486
0.1975288020003063,1.2313553113553113,0.25787545787545785,0.17487179487179486
0.19916147199910483,1.2313553113553113,0.25787545787545785,0.17487179487179486
0.20293930399930105,1.2313553113553113,0.25787545787545785,0.17487179487179486
0.2093930310002179,1.2313553113553113,0.25787545787545785,0.17487179487179486
0.21330503500030318,2.305567765567765,2.9115750915750915,1.5287179487179487
0.22370456899989222,2.305567765567765,2.9115750915750915,1.5287179487179487
0.2343300510001427,2.305567765567765,2.9115750915750915,1.5287179487179487
0.2434531649996643,3.175897435897436,1.6399267399267399,1.261978021978022
0.2526891510005953,3.175897435897436,1.6399267399267399,1.261978021978022
0.2589012949993048,3.175897435897436,1.6399267399267399,1.261978021978022
0.2619683419998182,3.175897435897436,1.6399267399267399,1.261978021978022
0.2643185540000559,3.175897435897436,1.6399267399267399,1.261978021978022
0.26461138000013307,3.175897435897436,1.6399267399267399,1.261978021978022
0.2714349800007767,3.175897435897436,1.6399267399267399,1.261978021978022
0.2752310350006155,3.175897435897436,1.6399267399267399,1.261978021978022
0.27970073399956163,3.175897435897436,1.6399267399267399,1.261978021978022
0.280622468000729,1.3957509157509156,0.30945054945054945,0.1418315018315018
0.283530212000187,1.3957509157509156,0.30945054945054945,0.1418315018315018
0.28620751000016753,2.655311355311355,2.245934065934066,1.5770695970695972
0.28994667699953425,2.655311355311355,2.245934065934066,1.5770695970695972
0.29452142099944467,2.655311355311355,2.245934065934066,1.5770695970695972
0.29539896700043755,1.7978754578754577,0.30542124542124544,0.3892307692307692
0.2969143020000047,1.7978754578754577,0.30542124542124544,0.3892307692307692
0.30399847899934684,1.7978754578754577,0.30542124542124544,0.3892307692307692
0.3079715240000951,1.7978754578754577,0.30542124542124544,0.3892307692307692
0.3117218490006053,1.7978754578754577,0.30542124542124544,0.3892307692307692
0.31905686699974467,1.7978754578754577,0.30542124542124544,0.3892307692307692
0.3250536169998668,1.7978754578754577,0.30542124542124544,0.3892307692307692
0.3306670740003028,1.7978754578754577,0.30542124542124544,0.3892307692307692
0.33877390700035903,3.3,3.3,1.4384615384615385
0.3442646080002305,1.8905494505494502,0.3658608058608058,0.37150183150183147
0.34595251099926827,2.6698168498168497,2.767326007326007,1.8091575091575092
0.3513094009995257,3.3,3.3,1.4457142857142857
0.35238790299990796,2.7745787545787546,3.3,1.8446153846153845
0.3525938019993191,2.7745787545787546,3.3,1.8446153846153845
0.35729936700045073,2.7745787545787546,3.3,1.8446153846153845
0.3575491840001632,3.05985347985348,0.4214652014652014,0.6011721611721611
0.3628463900004135,3.05985347985348,0.4214652014652014,0.6011721611721611
0.3661388239997905,3.05985347985348,0.4214652014652014,0.6011721611721611
0.3665140049997717,3.05985347985348,0.4214652014652014,0.6011721611721611
0.3719423750007991,3.05985347985348,0.4214652014652014,0.6011721611721611
0.3737571189994924,3.05985347985348,0.4214652014652014,0.6011721611721611
0.37614390999988245,3.05985347985348,0.4214652014652014,0.6011721611721611
0.376342088000456,3.05985347985348,0.4214652014652014,0.6011721611721611
0.382029333999526,3.05985347985348,0.4214652014652014,0.6011721611721611
0.38234288899911917,3.05985347985348,0.4214652014652014,0.6011721611721611
0.3882177760006016,3.05985347985348,0.4214652014652014,0.6011721611721611
0.393593996999698,3.05985347985348,0.4214652014652014,0.6011721611721611
0.3959244279994891,3.05985347985348,0.4214652014652014,0.6011721611721611
0.3961543959994742,3.05985347985348,0.4214652014652014,0.6011721611721611
0.4044495830003143,3.05985347985348,0.4214652014652014,0.6011721611721611
0.40988443400055985,3.05985347985348,0.4214652014652014,0.6011721611721611
0.4107450190003874,3.05985347985348,0.4214652014652014,0.6011721611721611
0.4127054889995634,2.9744322344322343,1.3393406593406594,1.394139194139194
0.41614367100009986,2.9744322344322343,1.3393406593406594,1.394139194139194
0.41648177199931524,2.215311355311355,2.6875457875457873,1.1217582417582417
0.4217317999991792,2.215311355311355,2.6875457875457873,1.1217582417582417
0.4233813530008774,2.215311355311355,2.6875457875457873,1.1217582417582417
0.42727146399920457,2.215311355311355,2.6875457875457873,1.1217582417582417
0.43225858400001016,2.215311355311355,2.6875457875457873,1.1217582417582417
0.43700204900051176,3.3,1.004102564102564,0.9227106227106227
0.44207261799965636,3.3,1.004102564102564,0.9227106227106227
0.4458264610002516,3.3,1.004102564102564,0.9227106227106227
0.4530150600003253,3.3,1.004102564102564,0.9227106227106227
0.45692864599914174,0.2498168498168498,0.30864468864468864,0.26915750915750913
0.4615540230006445,3.3,3.3,1.32
0.4624568960007309,3.3,3.3,1.32
0.46331830300005095,3.3,3.3,1.32
0.4655234349993407,3.3,3.3,1.32
0.4657669980006176,3.3,3.3,1.32
0.4715339220001624,3.3,3.3,1.32
0.47675163699932455,3.067912087912088,1.1781684981684981,1.2273260073260073
0.4797265460001654,3.067912087912088,1.1781684981684981,1.2273260073260073
0.48236546400039515,3.067912087912088,1.1781684981684981,1.2273260073260073
0.49056632700012415,3.067912087912088,1.1781684981684981,1.2273260073260073
0.49473175599996466,3.067912087912088,1.1781684981684981,1.2273260073260073
0.49719217399979243,3.067912087912088,1.1781684981684981,1.2273260073260073
0.497472299999572,2.6230769230769226,3.2178021978021976,1.2079853479853477
0.5051928489992861,2.6230769230769226,3.2178021978021976,1.2079853479853477
0.5129701410005509,2.6230769230769226,3.2178021978021976,1.2079853479853477
0.5206461029993079,2.6230769230769226,3.2178021978021976,1.2079853479853477
0.5264745690001291,2.6230769230769226,3.2178021978021976,1.2079853479853477
0.5311125240004912,2.6230769230769226,3.2178021978021976,1.2079853479853477
0.5379317749993788,2.6230769230769226,3.2178021978021976,1.2079853479853477
0.5419482519992016,2.6230769230769226,3.2178021978021976,1.2079853479853477
0.5458520219999627,2.6230769230769226,3.2178021978021976,1.2079853479853477
0.5530917289997888,2.6230769230769226,3.2178021978021976,1.2079853479853477
0.5572157450005761,2.6230769230769226,3.2178021978021976,1.2079853479853477
0.5596388459998707,2.6230769230769226,3.2178021978021976,1.2079853479853477
0.5598479809996206,2.6230769230769226,3.2178021978021976,1.2079853479853477
0.5648724969996692,2.6230769230769226,3.2178021978021976,1.2079853479853477
0.5727459539994015,2.6230769230769226,3.2178021978021976,1.2079853479853477
0.578271500999108,2.6230769230769226,3.2178021978021976,1.2079853479853477
0.5800354090006294,2.307179487179487,0.5866666666666667,0.21677655677655677
0.5833679560000746,2.307179487179487,0.5866666666666667,0.21677655677655677
0.5852159980004217,2.652087912087912,1.9864468864468863,1.506153846153846
0.5864618100004009,2.652087912087912,1.3393406593406594,0.8445421245421244
0.586588378999295,2.652087912087912,1.3393406593406594,0.8445421245421244
0.5914482270000008,2.652087912087912,1.3393406593406594,0.8445421245421244
0.591618746999302,2.652087912087912,1.3393406593406594,0.8445421245421244
0.5962899580008525,2.652087912087912,1.3393406593406594,0.8445421245421244
0.5964888510006858,1.0580952380952382,0.28124542124542123,0.2949450549450549
0.6053154769997491,1.0580952380952382,0.28124542124542123,0.2949450549450549
0.6101632779991633,1.0580952380952382,0.28124542124542123,0.2949450549450549
0.6103033039998991,1.0580952380952382,0.28124542124542123,0.2949450549450549
0.6186906439997983,1.0580952380952382,0.28124542124542123,0.2949450549450549
0.6228930750003201,1.0580952380952382,0.28124542124542123,0.2949450549450549
0.624570539999695,0.7937728937728937,0.3416849816849817,0.16117216117216115
0.6283893439995154,1.0484249084249082,0.7083516483516483,0.30542124542124544
0.6353061760000855,1.0484249084249082,0.7083516483516483,0.30542124542124544
0.6396279849996063,0.11443223443223444,0.2361172161172161,0.1386080586080586
0.64049911300026,0.11443223443223444,0.2361172161172161,0.1386080586080586
0.6422977359998185,0.11443223443223444,0.2361172161172161,0.1386080586080586
0.6454641380005341,0.11443223443223444,0.2361172161172161,0.1386080586080586
0.6480158670001401,0.11443223443223444,0.2361172161172161,0.1386080586080586
0.6550868289996288,3.3,3.3,1.4835897435897436
0.6596569850007654,3.3,3.3,1.4835897435897436
0.660559629999625,3.3,3.3,1.4835897435897436
0.6621063950005919,3.3,3.3,1.4835897435897436
0.6667144780003582,3.3,3.3,1.4835897435897436
0.6670315470000787,3.3,3.2806593406593407,1.5126007326007325
0.672465519999605,3.3,3.2806593406593407,1.5126007326007325
0.6740374529999826,3.3,3.2806593406593407,1.5126007326007325
0.677966634000768,3.3,3.2806593406593407,1.5126007326007325
0.6827608709991182,3.3,3.2806593406593407,1.5126007326007325
0.6889030750007805,2.6569230769230767,2.3845421245421243,1.7011721611721609
0.6927307909991214,2.6569230769230767,2.3845421245421243,1.7011721611721609
0.6974592419992405,3.3,1.0959706959706959,0.9750915750915751
0.7081156959993677,3.3,1.0959706959706959,0.9750915750915751
0.716786814000443,2.655311355311355,2.536849816849817,1.5770695970695972
0.7239854460003698,2.655311355311355,2.536849816849817,1.5770695970695972
0.7285293889999593,2.655311355311355,2.536849816849817,1.5770695970695972
0.7294136590007838,2.2717216117216115,2.402271062271062,1.4819780219780219
0.7303677540003264,2.2717216117216115,2.402271062271062,1.4819780219780219
0.7328036800008704,2.2717216117216115,2.402271062271062,1.4819780219780219
0.7396129520002432,2.2717216117216115,2.402271062271062,1.4819780219780219
0.7434877979994781,1.1467399267399265,1.2515018315018314,0.5431501831501832
0.7480398839998088,1.1467399267399265,1.2515018315018314,0.5431501831501832
0.7482811999998376,2.693992673992674,2.0694505494505493,1.4376556776556777
0.7547288519999711,2.693992673992674,2.0694505494505493,1.4376556776556777
0.7585355329993035,3.1694505494505494,1.0742124542124543,0.7236630036630036
0.7630993759994453,0.9057875457875458,1.1596336996336996,0.5858608058608058
0.763416641000731,0.9057875457875458,1.1596336996336996,0.5858608058608058
0.7706319240005541,0.9057875457875458,1.1596336996336996,0.5858608058608058
0.7744971129995974,0.9057875457875458,1.1596336996336996,0.5858608058608058
0.7797199790002196,0.9057875457875458,1.1596336996336996,0.5858608058608058
0.7824456620001001,0.9057875457875458,1.1596336996336996,0.5858608058608058
0.7874187489996984,0.9057875457875458,1.1596336996336996,0.5858608058608058
0.7904855079996196,0.9057875457875458,1.1596336996336996,0.5858608058608058
0.7931206020002719,0.9057875457875458,1.1596336996336996,0.5858608058608058
0.7982273039997381,0.9057875457875458,1.1596336996336996,0.5858608058608058
0.8032815549995576,3.055018315018315,0.7534798534798535,0.2191941391941392
0.8057319969993841,3.055018315018315,0.7534798534798535,0.2191941391941392
0.8059232909999992,3.055018315018315,0.7534798534798535,0.2191941391941392
0.8113358070004324,3.055018315018315,0.7534798534798535,0.2191941391941392
0.8129467939997994,1.4884249084249084,0.40615384615384614,0.31750915750915754
0.8188658649996796,1.4884249084249084,0.40615384615384614,0.31750915750915754
0.8232561250006256,1.4884249084249084,0.40615384615384614,0.31750915750915754
0.8235274269991351,1.4884249084249084,0.40615384615384614,0.31750915750915754
0.8291564980008843,1.4884249084249084,0.40615384615384614,0.31750915750915754
0.829459044000032,1.4884249084249084,0.40615384615384614,0.31750915750915754
0.8381348399998387,1.4884249084249084,0.40615384615384614,0.31750915750915754
0.8420549229995231,2.5392673992673993,0.33926739926739924,0.5084981684981685
0.8466205090007861,1.801098901098901,0.4778754578754579,0.14908424908424908
0.847766736000267,1.801098901098901,0.4778754578754579,0.14908424908424908
0.8479092399993533,1.801098901098901,0.4778754578754579,0.14908424908424908
0.855778179000481,1.801098901098901,0.4778754578754579,0.14908424908424908
0.8620097069997428,1.801098901098901,0.4778754578754579,0.14908424908424908
0.8684780990006402,1.8623443223443221,0.4166300366300366,0.17567765567765567
0.8744219950003753,1.8623443223443221,0.4166300366300366,0.17567765567765567
0.8800547419996292,1.8623443223443221,0.4166300366300366,0.17567765567765567
0.8888892249997298,2.129084249084249,0.4964102564102564,0.16117216117216115
0.8943443309999566,2.129084249084249,0.4964102564102564,0.16117216117216115
0.896732035000241,2.129084249084249,0.4964102564102564,0.16117216117216115
0.8970404089996009,2.129084249084249,0.4964102564102564,0.16117216117216115
0.9060439109998697,3.3,3.3,1.332087912087912
0.9114847900000314,3.3,3.3,1.332087912087912
0.9124141289994441,2.992161172161172,1.9276190476190476,1.3747985347985348
0.9142270369993639,2.992161172161172,1.9276190476190476,1.3747985347985348
0.9187307779993716,2.992161172161172,1.9276190476190476,1.3747985347985348
0.9283705369998643,3.3,3.3,1.402197802197802
0.9368845019998844,3.029230769230769,1.9268131868131868,1.3989743589743588
0.9411412259996723,3.029230769230769,1.9268131868131868,1.3989743589743588
0.9430642490005994,3.029230769230769,1.9268131868131868,1.3989743589743588
0.9448075279997283,3.029230769230769,1.9268131868131868,1.3989743589743588
0.9492049769996811,3.029230769230769,1.9268131868131868,1.3989743589743588
0.9494265749999613,3.029230769230769,1.9268131868131868,1.3989743589743588
0.955747218000397,3.029230769230769,1.9268131868131868,1.3989743589743588
0.9596653900007368,3.029230769230769,1.9268131868131868,1.3989743589743588
0.9634608840005967,1.8816849816849814,0.29655677655677654,0.13699633699633698
0.9738885160004429,1.8816849816849814,0.29655677655677654,0.13699633699633698
0.9798364489997766,1.0935531135531134,0.8195604395604396,0.3167032967032967
0.9871394719993987,3.3,3.3,1.3014652014652013
0.9918224770008237,1.2998534798534798,0.8211721611721612,0.3441025641025641
0.9921083059998637,1.2998534798534798,0.8211721611721612,0.3441025641025641
0.9965190170005371,1.2998534798534798,0.8211721611721612,0.3441025641025641
0.9989783450000687,1.2998534798534798,0.8211721611721612,0.3441025641025641
1.0064700439997978,3.074358974358974,0.6946520146520146,0.17809523809523808
1.0112574930008122,3.074358974358974,0.6946520146520146,0.17809523809523808
1.0114052280005126,3.074358974358974,0.6946520146520146,0.17809523809523808
1.0187734890005231,3.074358974358974,0.6946520146520146,0.17809523809523808
1.0227348120006354,3.074358974358974,0.6946520146520146,0.17809523809523808
1.0264442129991949,3.074358974358974,0.6946520146520146,0.17809523809523808
1.0321174420005264,3.074358974358974,0.6946520146520146,0.17809523809523808
1.0323626120007248,3.074358974358974,0.6946520146520146,0.17809523809523808
1.0386881020003784,3.074358974358974,0.6946520146520146,0.17809523809523808
1.0425091039996914,0.36344322344322344,0.3545787545787546,0.18857142857142856
1.0484620299994276,0.36344322344322344,0.3545787545787546,0.18857142857142856
1.0543433870006993,0.36344322344322344,0.3545787545787546,0.18857142857142856
1.059613089000777,0.36344322344322344,0.3545787545787546,0.18857142857142856
1.0628095119991485,1.324029304029304,0.32798534798534795,0.17648351648351646
1.064895957999397,1.324029304029304,0.32798534798534795,0.17648351648351646
1.0662099839992152,1.324029304029304,0.32798534798534795,0.17648351648351646
1.075623724000252,1.324029304029304,0.32798534798534795,0.17648351648351646
1.0824373989999003,1.324029304029304,0.32798534798534795,0.17648351648351646
1.0857582579992595,2.3007326007326006,0.4827106227106227,0.24901098901098898
1.0859621700001298,2.3007326007326006,0.4827106227106227,0.24901098901098898
1.0904086009995808,2.3007326007326006,0.4827106227106227,0.24901098901098898
1.092022734999773,2.3007326007326006,0.4827106227106227,0.24901098901098898
1.0961605240008794,2.3007326007326006,0.4827106227106227,0.24901098901098898
1.1000802920007118,2.3007326007326006,0.4827106227106227,0.24901098901098898
1.1037999609998224,3.1605860805860804,0.7454212454212454,0.2175824175824176
1.1093513279993203,3.3,1.1564102564102563,0.4198534798534798
1.1132240120005008,3.3,1.1564102564102563,0.4198534798534798
1.1156754019993969,3.3,1.1564102564102563,0.4198534798534798
1.126131221999458,0.5802197802197803,0.2635164835164835,0.2248351648351648
1.134583434999513,0.5802197802197803,0.2635164835164835,0.2248351648351648
1.1398887649993412,0.5802197802197803,0.2635164835164835,0.2248351648351648
1.143243397000333,2.8068131868131867,3.1581684981684983,1.212820512820513
1.1503463429999101,2.8068131868131867,3.1581684981684983,1.212820512820513
1.155249162000473,2.8068131868131867,3.1581684981684983,1.212820512820513
1.158664773000055,2.8068131868131867,3.1581684981684983,1.212820512820513
1.1589326770008483,2.8068131868131867,3.1581684981684983,1.212820512820513
1.1639435580000281,2.8068131868131867,3.1581684981684983,1.212820512820513
1.168699182000637,2.8068131868131867,3.1581684981684983,1.212820512820513
1.1730681209992326,2.8068131868131867,3.1581684981684983,1.212820512820513
1.174554815999727,3.0646886446886445,0.8372893772893772,0.8018315018315018
1.1793762529996457,3.0646886446886445,0.8372893772893772,0.8018315018315018
1.187127271999998,3.0646886446886445,0.8372893772893772,0.8018315018315018
1.1921523140008503,3.0646886446886445,0.8372893772893772,0.8018315018315018
1.196503261999169,3.0646886446886445,0.8372893772893772,0.8018315018315018
1.2003777379995881,3.0646886446886445,0.8372893772893772,0.8018315018315018
1.2037598410006467,3.0646886446886445,0.8372893772893772,0.8018315018315018
1.204064813999139,3.0646886446886445,0.8372893772893772,0.8018315018315018
1.2091041450003104,3.0646886446886445,0.8372893772893772,0.8018315018315018
1.2135022830007074,3.0646886446886445,0.8372893772893772,0.8018315018315018
1.214374332999796,3.0646886446886445,0.8372893772893772,0.8018315018315018
1.2160364369992749,3.0646886446886445,0.8372893772893772,0.8018315018315018
1.2190715760007151,3.0646886446886445,0.8372893772893772,0.8018315018315018
1.2220180519998394,2.2282051282051283,0.523003663003663,0.18534798534798536
1.2250223489991185,2.2282051282051283,0.523003663003663,0.18534798534798536
1.2274488090006344,2.2282051282051283,0.523003663003663,0.18534798534798536
1.227654051999707,2.2282051282051283,0.523003663003663,0.18534798534798536
1.233333546000722,2.2282051282051283,0.523003663003663,0.18534798534798536
1.2335976640006265,2.2282051282051283,0.523003663003663,0.18534798534798536
1.2391211470003327,2.2282051282051283,0.523003663003663,0.18534798534798536
1.2401857620006922,2.2282051282051283,0.523003663003663,0.18534798534798536
1.2405700880008226,2.2282051282051283,0.523003663003663,0.18534798534798536
1.246064139999362,2.2282051282051283,0.523003663003663,0.18534798534798536
1.2469372889991064,3.3,1.1676923076923076,0.4126007326007326
1.2486475120003888,3.3,1.1676923076923076,0.4126007326007326
1.2523820850001357,3.3,1.1676923076923076,0.4126007326007326
1.256723480000801,3.3,1.1676923076923076,0.4126007326007326
1.2576611019994743,3.3,1.1676923076923076,0.4126007326007326
1.2593087479999667,3.3,1.1676923076923076,0.4126007326007326
1.2636454759995104,1.8558974358974358,0.4045421245421245,0.15633699633699633
1.2651500150004722,1.7156776556776556,0.30058608058608055,0.17326007326007326
1.2695728559992858,0.5302564102564102,0.7687912087912088,0.3578021978021978
1.270431920000192,3.3,1.7785347985347983,1.295018315018315
1.272020626000085,3.3,1.7785347985347983,1.295018315018315
1.2785123819994624,3.3,1.7785347985347983,1.295018315018315
1.2842406910003774,3.3,3.3,1.2926007326007325
1.2908755049993488,3.3,3.3,1.2926007326007325
1.2962487370004965,3.3,3.3,1.2926007326007325
1.2964811929996358,3.3,0.6019780219780219,0.7728205128205128
1.303267515000698,3.3,0.6019780219780219,0.7728205128205128
1.3072412660003465,3.3,0.6019780219780219,0.7728205128205128
1.310960074999457,1.5867399267399267,0.9227106227106227,0.38278388278388276
1.3155965839996497,1.5867399267399267,0.9227106227106227,0.38278388278388276
1.3158080220000556,1.5867399267399267,0.9227106227106227,0.38278388278388276
1.3202098490000935,1.5947985347985347,1.6979487179487176,0.7284981684981684
1.3219554589995823,3.3,1.0613186813186812,0.17406593406593407
1.3251309070001298,3.3,2.0984615384615384,1.432014652014652
1.3267312579991994,1.826886446886447,0.9484981684981684,0.361025641025641
1.3304533699993044,2.5843956043956045,2.0428571428571427,1.108058608058608
1.3359613909997279,2.5843956043956045,2.0428571428571427,1.108058608058608
1.3376196970002638,2.5843956043956045,2.0428571428571427,1.108058608058608
1.3407776870008092,2.5843956043956045,2.0428571428571427,1.108058608058608
1.3423274720007612,2.5843956043956045,2.0428571428571427,1.108058608058608
1.3476502199991955,2.5843956043956045,2.0428571428571427,1.108058608058608
1.3500196770000912,2.9824908424908423,2.3587545787545787,1.3127472527472526
1.3501508560002549,2.9824908424908423,2.3587545787545787,1.3127472527472526
1.3548214889997325,2.9824908424908423,2.3587545787545787,1.3127472527472526
1.3551046369993855,2.9824908424908423,2.3587545787545787,1.3127472527472526
1.3596025869992445,1.527106227106227,1.6536263736263734,0.7615384615384615
1.360420585000611,1.527106227106227,1.6536263736263734,0.7615384615384615
1.3621061579997331,1.527106227106227,1.6536263736263734,0.7615384615384615
1.3651099620001332,1.527106227106227,1.6536263736263734,0.7615384615384615
1.3673881699996855,1.527106227106227,1.6536263736263734,0.7615384615384615
1.3682174370005669,1.527106227106227,1.6536263736263734,0.7615384615384615
1.36981219900008,1.527106227106227,1.6536263736263734,0.7615384615384615
1.3741181490004237,1.527106227106227,1.6536263736263734,0.7615384615384615
1.375673423999615,1.527106227106227,1.6536263736263734,0.7615384615384615
1.3799762639991968,1.527106227106227,1.6536263736263734,0.7615384615384615
1.381662050000159,1.527106227106227,1.6536263736263734,0.7615384615384615
1.3854477509994467,1.527106227106227,1.6536263736263734,0.7615384615384615
1.3899571429992648,1.527106227106227,1.6536263736263734,0.7615384615384615
1.39083051399939,1.527106227106227,1.6536263736263734,0.7615384615384615
1.3924357310006599,1.527106227106227,1.6536263736263734,0.7615384615384615
1.3970390729991777,1.527106227106227,1.6536263736263734,0.7615384615384615
1.397209582000869,1.527106227106227,1.6536263736263734,0.7615384615384615
1.402756491999753,1.527106227106227,1.6536263736263734,0.7615384615384615
1.4037070300000778,1.1854212454212454,0.2683516483516483,0.19340659340659339
1.404717523000727,1.1854212454212454,0.2683516483516483,0.19340659340659339
1.405608483000833,1.1854212454212454,0.2683516483516483,0.19340659340659339
1.4064804980007466,1.0282783882783881,1.4102564102564101,0.7768498168498168
1.4081123689993547,1.0282783882783881,1.4102564102564101,0.7768498168498168
1.4119428800004243,1.0282783882783881,1.4102564102564101,0.7768498168498168
1.4165408890003164,1.0282783882783881,1.4102564102564101,0.7768498168498168
1.4168631129996356,1.0282783882783881,1.4102564102564101,0.7768498168498168
1.4213338480003586,3.3,3.3,1.295018315018315
1.4222842840008525,3.3,3.3,1.295018315018315
1.4231635739997728,3.3,3.3,1.295018315018315
1.424684552999679,3.3,3.3,1.295018315018315
1.429151450000063,3.3,3.3,1.295018315018315
1.4294686800003547,3.3,3.3,1.295018315018315
1.434048991999589,3.3,3.3,1.295018315018315
1.434299676999217,3.3,3.3,1.295018315018315
1.439781020000737,3.3,3.3,1.295018315018315
1.4406384859994432,3.3,3.3,1.295018315018315
1.4422814219997235,3.3,3.3,1.295018315018315
1.4466665439995268,3.3,3.3,1.295018315018315
1.4475311139995028,1.4352380952380952,1.5617582417582416,0.85018315018315
1.4490813060001528,1.4352380952380952,1.5617582417582416,0.85018315018315
1.452807435000068,1.4352380952380952,1.5617582417582416,0.85018315018315
1.4579565189997084,1.4352380952380952,1.5617582417582416,0.85018315018315
1.4609471589992609,1.9106959706959707,2.301538461538461,0.9879853479853479
1.4639844949997496,1.9106959706959707,2.301538461538461,0.9879853479853479
1.4669275840005866,1.9106959706959707,2.301538461538461,0.9879853479853479
1.4700498670008528,3.3,3.3,1.5166300366300365
1.4715777940000407,3.3,3.3,1.5166300366300365
1.475978906999444,3.3,3.3,1.5166300366300365
1.4768424640005833,3.3,3.3,1.5166300366300365
1.478448637000838,3.3,3.3,1.5166300366300365
1.4836360169992986,3.3,3.3,1.5166300366300365
1.4868098349998036,2.6504761904761907,2.137948717948718,1.456190476190476
1.4876867160000984,2.6504761904761907,2.137948717948718,1.456190476190476
1.4894263969999884,2.6504761904761907,2.137948717948718,1.456190476190476
1.4924981980002485,2.6504761904761907,2.137948717948718,1.456190476190476
1.4948458929993649,2.6504761904761907,2.137948717948718,1.456190476190476
1.494997493999108,2.6504761904761907,2.137948717948718,1.456190476190476
1.499466219000169,2.6504761904761907,2.137948717948718,1.456190476190476
1.5004533489991445,1.7608058608058608,1.7890109890109889,0.8824175824175824
1.50218459899952,1.7608058608058608,1.7890109890109889,0.8824175824175824
1.5045444009992934,1.7608058608058608,1.7890109890109889,0.8824175824175824
1.5048063119993458,1.7608058608058608,1.7890109890109889,0.8824175824175824
1.509528140000839,1.7608058608058608,1.7890109890109889,0.8824175824175824
1.5097720840003603,2.9518681318681317,2.7536263736263735,1.299047619047619
1.5151793610002642,2.9518681318681317,2.7536263736263735,1.299047619047619
1.5182925799999794,2.9518681318681317,2.7536263736263735,1.299047619047619
1.5198156730002665,2.9518681318681317,2.7536263736263735,1.299047619047619
1.5252915670007496,2.9518681318681317,2.7536263736263735,1.299047619047619
1.5255016489991249,2.6488644688644687,2.5038095238095237,1.7454945054945055
1.5320647389999067,2.540879120879121,2.8148717948717947,1.3836630036630035
1.535788904000583,2.540879120879121,2.8148717948717947,1.3836630036630035
1.536015032999785,2.540879120879121,2.8148717948717947,1.3836630036630035
1.540432903000692,2.540879120879121,2.8148717948717947,1.3836630036630035
1.5413974999992206,2.540879120879121,2.8148717948717947,1.3836630036630035
1.54306262099999,2.540879120879121,2.8148717948717947,1.3836630036630035
1.546185395000066,2.540879120879121,2.8148717948717947,1.3836630036630035
1.5477213199992548,2.540879120879121,2.8148717948717947,1.3836630036630035
1.5523127939995902,1.8164102564102564,2.2265934065934068,1.4271794871794872
1.5525865079998766,1.8164102564102564,2.2265934065934068,1.4271794871794872
1.5570539559994359,1.8164102564102564,2.2265934065934068,1.4271794871794872
1.557903147999241,1.8164102564102564,2.2265934065934068,1.4271794871794872
1.559512881000046,1.8164102564102564,2.2265934065934068,1.4271794871794872
1.563893429000018,1.8164102564102564,2.2265934065934068,1.4271794871794872
1.5648830999998609,1.8164102564102564,2.2265934065934068,1.4271794871794872
1.5658074439998018,1.8164102564102564,2.2265934065934068,1.4271794871794872
1.567416977000903,1.8164102564102564,2.2265934065934068,1.4271794871794872
1.5717395739993663,3.274212454212454,3.3,1.7696703296703296
1.5726259580005717,3.3,1.0742124542124543,1.0016849816849815
1.5743492900001002,3.3,1.0742124542124543,1.0016849816849815
1.5776846890003071,3.3,1.0742124542124543,1.0016849816849815
1.5779867309993278,3.3,1.2144322344322345,0.3191208791208791
1.5832823559994722,3.3,1.2144322344322345,0.3191208791208791
1.585802005000005,1.8413919413919413,0.4722344322344322,0.1797069597069597
1.5911264789992856,1.8413919413919413,0.4722344322344322,0.1797069597069597
1.5935366220001015,3.1436630036630033,1.5786813186813187,1.3393406593406594
1.5937395119999564,3.1436630036630033,1.5786813186813187,1.3393406593406594
1.598320507999233,3.1436630036630033,1.5786813186813187,1.3393406593406594
1.59918521399959,3.1436630036630033,1.5786813186813187,1.3393406593406594
1.6001054160005879,3.1436630036630033,1.5786813186813187,1.3393406593406594
1.60163526299948,3.1436630036630033,1.5786813186813187,1.3393406593406594
1.6060621870001341,3.1436630036630033,1.5786813186813187,1.3393406593406594
1.6068858119997458,3.1436630036630033,1.5786813186813187,1.3393406593406594
1.6085992749995057,3.1436630036630033,1.5786813186813187,1.3393406593406594
1.6115740669993102,3.1436630036630033,1.5786813186813187,1.3393406593406594
1.6145765410001331,3.1436630036630033,1.5786813186813187,1.3393406593406594
1.6170253590007633,3.1436630036630033,1.5786813186813187,1.3393406593406594
1.6171444979991065,3.1436630036630033,1.5786813186813187,1.3393406593406594
1.6219502820003981,3.1436630036630033,1.5786813186813187,1.3393406593406594
1.6220741830002225,3.1436630036630033,1.5786813186813187,1.3393406593406594
1.626636619999772,3.1436630036630033,1.5786813186813187,1.3393406593406594
1.6269454749999568,3.1436630036630033,1.5786813186813187,1.3393406593406594
1.6314367649993073,3.1436630036630033,1.5786813186813187,1.3393406593406594
1.6324243849994673,3.3,1.0411721611721612,1.0468131868131867
1.63327502500033,3.3,1.0411721611721612,1.0468131868131867
1.6349685509994742,3.3,1.0411721611721612,1.0468131868131867
1.6382645089997823,3.3,1.0411721611721612,1.0468131868131867
1.6391593179996562,3.3,1.1386813186813185,0.195018315018315
1.6401162210004259,2.2523809523809524,0.5528205128205127,0.1813186813186813
1.6418545769993216,2.2523809523809524,0.5528205128205127,0.1813186813186813
1.6448112220004987,2.2523809523809524,0.5528205128205127,0.1813186813186813
1.647797375000664,2.6545054945054947,2.6649816849816848,1.7076190476190476
1.6508472290006466,2.6545054945054947,2.6649816849816848,1.7076190476190476
1.6531888419995084,2.6545054945054947,2.6649816849816848,1.7076190476190476
1.6534142130003602,2.6545054945054947,2.6649816849816848,1.7076190476190476
1.657819706000737,2.6545054945054947,2.6649816849816848,1.7076190476190476
1.6600377230006416,3.3,3.3,1.2756776556776557
1.6602719130005426,3.3,3.3,1.2756776556776557
1.665362924000874,3.3,3.3,1.2756776556776557
1.6691802599998482,3.3,3.3,1.2756776556776557
1.6737401139998838,3.3,3.3,1.2756776556776557
1.6739725440002076,3.3,3.3,1.2756776556776557
1.6785708770003112,3.3,3.3,1.2756776556776557
1.67882017500051,3.3,3.3,1.2756776556776557
1.6833965990008437,3.3,3.3,1.2756776556776557
1.6842671869999322,3.3,3.3,1.2756776556776557
1.6860033070006466,3.3,3.3,1.2756776556776557
1.6890954619993863,3.3,3.3,1.2756776556776557
1.690650218999508,3.3,3.3,1.2756776556776557
1.6950224489992252,3.3,3.3,1.2756776556776557
1.6959327490003488,3.3,3.3,1.2756776556776557
1.6974761780002154,3.3,3.3,1.2756776556776557
1.7019494119995215,3.3,3.3,1.2756776556776557
1.7027223599998251,3.3,3.3,1.2756776556776557
1.704847480999888,3.3,3.3,1.2756776556776557
1.7056749000003038,3.3,3.3,1.2756776556776557
1.707181607000166,3.3,3.3,1.2756776556776557
1.7113989350000338,3.3,3.3,1.2756776556776557
1.7140908080000372,3.3,3.3,1.2756776556776557
1.7181743199998891,3.3,3.3,1.2756776556776557
1.721063827000762,3.3,1.5553113553113551,0.502051282051282
1.7244506210008694,1.6665201465201465,0.3642490842490842,0.1772893772893773
1.7258438940007181,1.6665201465201465,0.3642490842490842,0.1772893772893773
1.7305198640005983,1.6665201465201465,0.3642490842490842,0.1772893772893773
1.7308894239995425,1.6665201465201465,0.3642490842490842,0.1772893772893773
1.7349405349996232,1.6665201465201465,0.3642490842490842,0.1772893772893773
1.7383179680000467,1.6665201465201465,0.3642490842490842,0.1772893772893773
1.7390907509998215,1.6665201465201465,0.3642490842490842,0.1772893772893773
1.7413677589993313,1.6665201465201465,0.3642490842490842,0.1772893772893773
1.7416583110007196,1.6665201465201465,0.3642490842490842,0.1772893772893773
1.7468864540005598,1.6665201465201465,0.3642490842490842,0.1772893772893773
1.749849671999982,1.6665201465201465,0.3642490842490842,0.1772893772893773
1.752837742000338,1.6665201465201465,0.3642490842490842,0.1772893772893773
1.755855553999936,1.6979487179487176,0.33282051282051284,0.381978021978022
1.7587315670007229,1.6979487179487176,0.33282051282051284,0.381978021978022
1.761680375000651,1.6979487179487176,0.33282051282051284,0.381978021978022
1.7647974110004725,1.6979487179487176,0.33282051282051284,0.381978021978022
1.7670618970005307,1.6979487179487176,0.33282051282051284,0.381978021978022
1.7673263159995258,1.6979487179487176,0.33282051282051284,0.381978021978022
1.772564988999875,1.6979487179487176,0.33282051282051284,0.381978021978022
1.775773207000384,0.6551648351648351,0.26190476190476186,0.18534798534798536
1.7766589269995166,0.6551648351648351,0.26190476190476186,0.18534798534798536
1.7790245939995657,0.6551648351648351,0.26190476190476186,0.18534798534798536
1.784185766000519,0.6551648351648351,0.26190476190476186,0.18534798534798536
1.7880753360004746,1.141098901098901,0.3021978021978022,0.17567765567765567
1.7918955929999356,1.141098901098901,0.3021978021978022,0.17567765567765567
1.7965567920000467,2.602124542124542,0.423076923076923,0.6583882783882784
1.7974104229997465,2.602124542124542,0.423076923076923,0.6583882783882784
1.7990705779993732,3.3,1.7583882783882783,0.61003663003663
1.802010032999533,3.3,1.7583882783882783,0.61003663003663
1.8058293060003052,1.6753846153846153,0.29816849816849816,0.2747985347985348
1.8102683979996073,1.6753846153846153,0.29816849816849816,0.2747985347985348
1.811912752000353,1.6753846153846153,0.29816849816849816,0.2747985347985348
1.815511332000824,1.6753846153846153,0.29816849816849816,0.2747985347985348
1.8156759350003995,1.6753846153846153,0.29816849816849816,0.2747985347985348
1.8210883629999444,1.6753846153846153,0.29816849816849816,0.2747985347985348
1.8233290549997037,1.6753846153846153,0.29816849816849816,0.2747985347985348
1.8242054549991735,1.6753846153846153,0.29816849816849816,0.2747985347985348
1.8258064559995546,1.6753846153846153,0.29816849816849816,0.2747985347985348
1.83039737999934,1.6753846153846153,0.29816849816849816,0.2747985347985348
1.830637986999136,2.721391941391941,1.759194139194139,1.1854212454212454
1.8352157499994064,2.721391941391941,1.759194139194139,1.1854212454212454
1.8355746230008663,2.721391941391941,1.759194139194139,1.1854212454212454
1.8402431859994977,2.721391941391941,1.759194139194139,1.1854212454212454
1.8404147969995392,2.721391941391941,1.759194139194139,1.1854212454212454
1.8448294350000651,2.721391941391941,1.759194139194139,1.1854212454212454
1.846455025999603,2.6923809523809523,2.698827838827839,1.7535531135531135
1.8508394689997658,2.6923809523809523,2.698827838827839,1.7535531135531135
1.8516828829997394,2.6923809523809523,2.698827838827839,1.7535531135531135
1.8532846060006705,2.6923809523809523,2.698827838827839,1.7535531135531135
1.857741432999319,2.6923809523809523,2.698827838827839,1.7535531135531135
1.8586219089993392,2.6923809523809523,2.698827838827839,1.7535531135531135
1.8595711270008906,2.6923809523809523,2.698827838827839,1.7535531135531135
1.8612958030007576,2.6923809523809523,2.698827838827839,1.7535531135531135
1.865235297000254,2.6923809523809523,2.698827838827839,1.7535531135531135
1.869084665999253,2.6923809523809523,2.698827838827839,1.7535531135531135
1.8733385010000347,2.6923809523809523,2.698827838827839,1.7535531135531135
1.8754960749993188,1.3627106227106225,0.3553846153846154,0.3642490842490842
1.87630794100005,0.9775091575091575,0.30945054945054945,0.23934065934065935
1.8784400610002194,0.9775091575091575,0.30945054945054945,0.23934065934065935
1.879861470000833,0.9775091575091575,0.30945054945054945,0.23934065934065935
1.8846293660008087,0.9775091575091575,0.30945054945054945,0.23934065934065935
1.884853325000222,0.9775091575091575,0.30945054945054945,0.23934065934065935
1.8896082480005134,0.9775091575091575,0.30945054945054945,0.23934065934065935
1.889906026999597,3.067912087912088,1.6495970695970694,1.2386080586080586
1.8947313179996854,3.3,1.0983882783882783,1.0484249084249082
1.8995422370007873,2.5553846153846154,0.4166300366300366,0.5713553113553113
1.9046803580004052,1.6012454212454212,1.573846153846154,0.7091575091575092
1.9083761599995341,1.6012454212454212,1.573846153846154,0.7091575091575092
1.9135649660001945,1.6012454212454212,1.573846153846154,0.7091575091575092
1.916547412,3.3,1.3691575091575092,1.0556776556776555
1.9195031130002462,3.3,1.3691575091575092,1.0556776556776555
1.9217899039995245,3.3,1.3691575091575092,1.0556776556776555
1.9220436180003162,3.3,1.3691575091575092,1.0556776556776555
1.9264562539992767,3.3,1.3691575091575092,1.0556776556776555
1.928720092999356,3.3,1.3691575091575092,1.0556776556776555
1.9289723740002955,3.3,1.3691575091575092,1.0556776556776555
1.9333951030002936,3.3,1.3691575091575092,1.0556776556776555
1.9349212889992486,3.3,1.3691575091575092,1.0556776556776555
1.9389446189998125,3.3,1.3691575091575092,1.0556776556776555
1.9420363680001174,3.3,1.3691575091575092,1.0556776556776555
1.9442244519996166,1.0218315018315018,0.3287912087912088,0.20468864468864467
1.944526321000012,1.0218315018315018,0.3287912087912088,0.20468864468864467
1.9495577620000404,1.0218315018315018,0.3287912087912088,0.20468864468864467
1.9533815150007285,1.0218315018315018,0.3287912087912088,0.20468864468864467
1.9587584439996135,1.0218315018315018,0.3287912087912088,0.20468864468864467
1.960302949999459,1.0218315018315018,0.3287912087912088,0.20468864468864467
1.9646213689993601,1.0218315018315018,0.3287912087912088,0.20468864468864467
1.9668987929999275,2.4216117216117214,1.2740659340659342,0.896117216117216
1.9671179149991076,1.8091575091575092,0.8171428571428572,0.3457142857142857
1.9721528829995805,1.8091575091575092,0.8171428571428572,0.3457142857142857
1.975803093999275,1.8091575091575092,0.8171428571428572,0.3457142857142857
1.9759483109992289,1.8091575091575092,0.8171428571428572,0.3457142857142857
1.980296162999366,1.8091575091575092,0.8171428571428572,0.3457142857142857
1.9824996049992478,1.8091575091575092,0.8171428571428572,0.3457142857142857
1.9833629170007043,2.4796336996336996,1.5609523809523809,0.8832234432234431
1.9849570089991175,2.6649816849816848,2.776190476190476,1.8019047619047617
1.9893679630004044,2.6649816849816848,2.776190476190476,1.8019047619047617
1.9902178320007806,2.6649816849816848,2.776190476190476,1.8019047619047617
1.9919235529996513,2.6649816849816848,2.776190476190476,1.8019047619047617
1.9949317280006653,2.6649816849816848,2.776190476190476,1.8019047619047617
1.9972213550008746,2.6649816849816848,2.776190476190476,1.8019047619047617
1.9975308699995367,2.6649816849816848,2.776190476190476,1.8019047619047617
2.0019452050000837,2.6649816849816848,2.776190476190476,1.8019047619047617
2.00283145100002,2.747179487179487,0.7373626373626374,0.1805128205128205
2.0044237799993425,2.747179487179487,0.7373626373626374,0.1805128205128205
2.0088300129991694,2.747179487179487,0.7373626373626374,0.1805128205128205
2.0103582960000494,2.747179487179487,0.7373626373626374,0.1805128205128205
2.015450241999133,2.747179487179487,0.7373626373626374,0.1805128205128205
2.0191101679993153,1.9526007326007324,0.3553846153846154,0.39406593406593404
2.02424952399997,1.9526007326007324,0.3553846153846154,0.39406593406593404
2.028167720000056,2.6504761904761907,2.1508424908424906,1.4578021978021978
2.031342909000159,2.6504761904761907,2.1508424908424906,1.4578021978021978
2.033672311999908,3.3,1.506153846153846,1.1032234432234431
2.0339263109999592,3.3,1.506153846153846,1.1032234432234431
2.0384903680005664,3.3,1.506153846153846,1.1032234432234431
2.0387882529994386,3.3,1.506153846153846,1.1032234432234431
2.043397446999734,3.3,1.506153846153846,1.1032234432234431
2.04365954000059,2.98974358974359,2.9067399267399265,1.6955311355311353
2.0480964569997013,3.3,1.1821978021978021,0.713992673992674
2.0489645439993183,3.3,1.1821978021978021,0.713992673992674
2.051205432999268,3.3,1.1821978021978021,0.713992673992674
2.051510593000785,3.3,1.1821978021978021,0.713992673992674
2.056769147000523,2.7987545787545787,0.8211721611721612,0.5286446886446886
2.059152895000807,2.7987545787545787,0.8211721611721612,0.5286446886446886
2.05940886999997,2.7987545787545787,0.8211721611721612,0.5286446886446886
2.064522021999437,2.7987545787545787,0.8211721611721612,0.5286446886446886
2.0683724859991344,2.7987545787545787,0.8211721611721612,0.5286446886446886
2.072853359999499,2.7987545787545787,0.8211721611721612,0.5286446886446886
2.0731654110004456,2.7987545787545787,0.8211721611721612,0.5286446886446886
2.078481606000423,2.7987545787545787,0.8211721611721612,0.5286446886446886
2.0807529150006303,2.7987545787545787,0.8211721611721612,0.5286446886446886
2.081073441000626,2.7987545787545787,0.8211721611721612,0.5286446886446886
2.0854505810002593,2.7987545787545787,0.8211721611721612,0.5286446886446886
2.088346246000583,2.7987545787545787,0.8211721611721612,0.5286446886446886
2.091308814999138,2.7987545787545787,0.8211721611721612,0.5286446886446886
2.0949118480002653,2.7987545787545787,0.8211721611721612,0.5286446886446886
2.100013552000746,0.9871794871794871,0.3102564102564102,0.24336996336996336
2.1049895100004505,0.9871794871794871,0.3102564102564102,0.24336996336996336
2.109721028000422,0.9871794871794871,0.3102564102564102,0.24336996336996336
2.1151712230002886,3.3,1.7374358974358974,1.095164835164835
2.117576442000427,3.3,1.7374358974358974,1.095164835164835
2.1177188780002325,3.3,1.7374358974358974,1.095164835164835
2.1225344949998544,3.3,1.7374358974358974,1.095164835164835
2.127691268999115,3.3,1.7374358974358974,1.095164835164835
2.1309295800001564,3.3,1.7374358974358974,1.095164835164835
2.132008582000708,3.3,1.7374358974358974,1.095164835164835
2.1323005689991987,3.3,1.7374358974358974,1.095164835164835
2.1374713639997935,3.3,1.7374358974358974,1.095164835164835
2.1412431089993333,3.3,1.7374358974358974,1.095164835164835
2.1447624280008313,3.3,1.7374358974358974,1.095164835164835
2.1450855929997488,3.3,1.7374358974358974,1.095164835164835
2.1497955760005425,3.3,1.7374358974358974,1.095164835164835
2.150067898999623,3.3,1.7374358974358974,1.095164835164835
2.154755596000541,3.3,1.7374358974358974,1.095164835164835
2.1549377350002032,3.3,1.7374358974358974,1.095164835164835
2.1596719350000058,3.3,1.7374358974358974,1.095164835164835
2.1598006959993654,2.234652014652015,0.5882783882783883,0.1249084249084249
2.1644126850005705,2.234652014652015,0.5882783882783883,0.1249084249084249
2.1651997400003893,2.234652014652015,0.5882783882783883,0.1249084249084249
2.167253585999788,2.234652014652015,0.5882783882783883,0.1249084249084249
2.1687397280002187,2.234652014652015,0.5882783882783883,0.1249084249084249
2.1728339229994162,2.234652014652015,0.5882783882783883,0.1249084249084249
2.176248081999802,2.234652014652015,0.5882783882783883,0.1249084249084249
2.1776747570002044,2.234652014652015,0.5882783882783883,0.1249084249084249
2.1823878710001736,2.234652014652015,0.5882783882783883,0.1249084249084249
2.18316775600033,2.5005860805860802,0.5721611721611721,0.166007326007326
2.1846094550001,2.5005860805860802,0.5721611721611721,0.166007326007326
2.1893690190008783,2.5005860805860802,0.5721611721611721,0.166007326007326
2.189575980999507,2.5005860805860802,0.5721611721611721,0.166007326007326
2.193701403999512,2.5005860805860802,0.5721611721611721,0.166007326007326
2.197134530000767,2.5005860805860802,0.5721611721611721,0.166007326007326
2.1973959040005866,2.5005860805860802,0.5721611721611721,0.166007326007326
2.2024029700005485,2.5005860805860802,0.5721611721611721,0.166007326007326
2.206973427999401,1.3038827838827838,0.386007326007326,0.1402197802197802
2.20726775500043,1.3038827838827838,0.386007326007326,0.1402197802197802
2.2125990969998384,1.3038827838827838,0.386007326007326,0.1402197802197802
2.214156293999622,1.3038827838827838,0.386007326007326,0.1402197802197802
2.218506535000415,1.3038827838827838,0.386007326007326,0.1402197802197802
2.220754682999541,1.3038827838827838,0.386007326007326,0.1402197802197802
2.221067738999409,1.3038827838827838,0.386007326007326,0.1402197802197802
2.2261490620003315,1.3038827838827838,0.386007326007326,0.1402197802197802
2.23047889100053,1.7068131868131868,0.8268131868131867,0.32717948717948714
2.23273051400065,1.7068131868131868,0.8268131868131867,0.32717948717948714
2.2330147770007898,1.7068131868131868,0.8268131868131867,0.32717948717948714
2.238120116999198,1.7068131868131868,0.8268131868131867,0.32717948717948714
2.241778007999528,1.7068131868131868,0.8268131868131867,0.32717948717948714
2.2420016340001894,1.7068131868131868,0.8268131868131867,0.32717948717948714
2.246398302000671,1.7068131868131868,0.8268131868131867,0.32717948717948714
2.2479181500002596,1.7068131868131868,0.8268131868131867,0.32717948717948714
2.2516204820003622,1.7068131868131868,0.8268131868131867,0.32717948717948714
2.25687200900029,1.7068131868131868,0.8268131868131867,0.32717948717948714
2.2599731430000247,1.7068131868131868,0.8268131868131867,0.32717948717948714
2.2615008129996568,1.7068131868131868,0.8268131868131867,0.32717948717948714
2.2660278660005133,1.7068131868131868,0.8268131868131867,0.32717948717948714
2.2668351259999326,1.7068131868131868,0.8268131868131867,0.32717948717948714
2.2686039630007144,1.7068131868131868,0.8268131868131867,0.32717948717948714
2.272209197000848,1.7068131868131868,0.8268131868131867,0.32717948717948714
2.2777045799994085,1.7068131868131868,0.8268131868131867,0.32717948717948714
2.280667593999169,3.3,3.3,1.261978021978022
2.282923471000686,3.3,3.3,1.261978021978022
2.283189559000675,3.3,3.3,1.261978021978022
2.2878542210000887,3.3,3.3,1.261978021978022
2.288155439999173,3.3,3.3,1.261978021978022
2.2928479370002606,3.3,3.3,1.261978021978022
2.2930459800008975,3.3,3.3,1.261978021978022
2.2977459480007383,0.11282051282051282,0.26593406593406593,0.10315018315018315
2.298000344999309,0.11282051282051282,0.26593406593406593,0.10315018315018315
2.303205643000183,0.11282051282051282,0.26593406593406593,0.10315018315018315
2.3068027289991733,0.11282051282051282,0.26593406593406593,0.10315018315018315
2.306908905000455,0.11282051282051282,0.26593406593406593,0.10315018315018315
2.3122101789995213,0.11282051282051282,0.26593406593406593,0.10315018315018315
2.3137304240008234,1.8623443223443221,0.4794871794871795,0.5471794871794872
2.3178777499997523,1.8623443223443221,0.4794871794871795,0.5471794871794872
2.321258575999309,1.4505494505494505,0.3223443223443223,0.3545787545787546
2.322053297999446,1.4505494505494505,0.3223443223443223,0.3545787545787546
2.3235407619995385,1.4505494505494505,0.3223443223443223,0.3545787545787546
2.328426785999909,1.4505494505494505,0.3223443223443223,0.3545787545787546
2.3285398139996687,1.4505494505494505,0.3223443223443223,0.3545787545787546
2.3332757099997252,1.4505494505494505,0.3223443223443223,0.3545787545787546
2.333563619000415,1.4505494505494505,0.3223443223443223,0.3545787545787546
2.3382384090000414,1.4505494505494505,0.3223443223443223,0.3545787545787546
2.33853321999959,1.4505494505494505,0.3223443223443223,0.3545787545787546
2.344145643999582,1.4505494505494505,0.3223443223443223,0.3545787545787546
2.3443190380003216,1.4505494505494505,0.3223443223443223,0.3545787545787546
2.3497826000002533,1.4505494505494505,0.3223443223443223,0.3545787545787546
2.3506316309994872,1.4505494505494505,0.3223443223443223,0.3545787545787546
2.352226453000185,1.4505494505494505,0.3223443223443223,0.3545787545787546
2.3559807509991515,1.4505494505494505,0.3223443223443223,0.3545787545787546
2.3612372650004545,1.4505494505494505,0.3223443223443223,0.3545787545787546
2.3635933290006506,1.4747252747252748,0.5713553113553113,0.21516483516483517
2.3638088520001475,1.4747252747252748,0.5713553113553113,0.21516483516483517
2.368875652000497,1.4747252747252748,0.5713553113553113,0.21516483516483517
2.3732194019994495,1.4747252747252748,0.5713553113553113,0.21516483516483517
2.374176728000748,3.3,1.4005860805860806,1.1813919413919414
2.3757674520002183,3.3,1.4005860805860806,1.1813919413919414
2.3801725020002777,3.3,1.4005860805860806,1.1813919413919414
2.3811370839994197,3.3,3.3,1.4215384615384616
2.382029151000097,3.3,3.3,1.4215384615384616
2.383628563000457,3.3,3.3,1.4215384615384616
2.3879565429997456,3.3,3.3,1.4215384615384616
2.389492029000394,3.3,3.3,1.4215384615384616
2.3934002540008805,3.3,3.3,1.4215384615384616
2.3972634599995217,3.3,3.3,1.4215384615384616
2.4010224569992715,3.3,3.3,1.4215384615384616
2.405917173000489,3.3,3.3,1.4215384615384616
2.406049017999976,1.8325274725274725,0.921098901098901,0.3449084249084249
2.41074147099971,1.8325274725274725,0.921098901098901,0.3449084249084249
2.410917817000154,1.8325274725274725,0.921098901098901,0.3449084249084249
2.4163109900000563,1.8325274725274725,0.921098901098901,0.3449084249084249
2.4179468889997224,1.8325274725274725,0.921098901098901,0.3449084249084249
2.421724654999707,3.3,3.3,1.0967765567765566
2.426344044999496,3.3,3.3,1.0967765567765566
2.4272168169991346,2.651282051282051,2.6246886446886446,1.6197802197802196
2.4287565359991277,2.651282051282051,2.6246886446886446,1.6197802197802196
2.4332604200008063,2.651282051282051,2.6246886446886446,1.6197802197802196
2.4341696850005974,2.651282051282051,2.6246886446886446,1.6197802197802196
2.435892759000126,2.651282051282051,2.6246886446886446,1.6197802197802196
2.439783327999976,2.651282051282051,2.6246886446886446,1.6197802197802196
2.4443227920000936,1.593992673992674,0.7816849816849816,0.2111355311355311
2.4446040780003386,1.593992673992674,0.7816849816849816,0.2111355311355311
2.449026116000823,1.593992673992674,0.7816849816849816,0.2111355311355311
2.449873079000099,1.593992673992674,0.7816849816849816,0.2111355311355311
2.4521860240001843,1.593992673992674,0.7816849816849816,0.2111355311355311
2.452461355000196,1.593992673992674,0.7816849816849816,0.2111355311355311
2.4575434800008225,1.593992673992674,0.7816849816849816,0.2111355311355311
2.461367445999713,1.593992673992674,0.7816849816849816,0.2111355311355311
2.4663570060001803,1.593992673992674,0.7816849816849816,0.2111355311355311
2.470733112000744,3.3,1.353040293040293,0.726080586080586
2.4716331390009145,3.3,1.353040293040293,0.726080586080586
2.4732076069994946,3.3,1.353040293040293,0.726080586080586
2.4775563109997165,3.3,1.353040293040293,0.726080586080586
2.47977248800089,3.3,1.353040293040293,0.726080586080586
2.480578561000584,3.3,1.353040293040293,0.726080586080586
2.4828408030007267,3.3,1.353040293040293,0.726080586080586
2.483170921999772,3.3,1.353040293040293,0.726080586080586
2.488472711000213,3.3,1.353040293040293,0.726080586080586
2.4908801740002673,3.3,3.3,1.706007326007326
2.491019901999607,3.3,3.3,1.706007326007326
2.4959403829998337,3.3,3.3,1.706007326007326
2.501349009999103,2.6246886446886446,0.39809523809523806,0.43999999999999995
2.503628092999861,2.6246886446886446,0.39809523809523806,0.43999999999999995
2.503958870000133,2.6246886446886446,0.39809523809523806,0.43999999999999995
2.50933474500016,2.6246886446886446,0.39809523809523806,0.43999999999999995
2.51156314400032,2.6246886446886446,0.39809523809523806,0.43999999999999995
2.5123590549992514,2.6246886446886446,0.39809523809523806,0.43999999999999995
2.513905509000324,2.6246886446886446,0.39809523809523806,0.43999999999999995
2.5182740109994484,3.3,0.49882783882783877,0.7349450549450549
2.5198446630001854,3.3,0.49882783882783877,0.7349450549450549
2.5241735029994743,3.3,0.49882783882783877,0.7349450549450549
2.526342028999352,3.3,0.49882783882783877,0.7349450549450549
2.52780579300088,3.3,0.49882783882783877,0.7349450549450549
2.5329430910005613,2.9454212454212456,3.3,1.6858608058608056
2.536376770000061,3.3,1.4843956043956044,1.1459340659340658
2.53661382700011,3.3,1.4843956043956044,1.1459340659340658
2.5410303310000018,3.3,1.4843956043956044,1.1459340659340658
2.5419053309997253,3.3,1.4843956043956044,1.1459340659340658
2.5434682659997634,3.3,1.4843956043956044,1.1459340659340658
2.5480511139994633,3.3,1.4843956043956044,1.1459340659340658
2.5482877619997453,3.3,1.4843956043956044,1.1459340659340658
2.553501972999584,3.3,1.4843956043956044,1.1459340659340658
2.556631675999597,0.6068131868131869,0.2957509157509157,0.2111355311355311
2.558335858000646,0.6068131868131869,0.2957509157509157,0.2111355311355311
2.5622007900001336,0.6068131868131869,0.2957509157509157,0.2111355311355311
2.5667641020008887,0.6068131868131869,0.2957509157509157,0.2111355311355311
2.568385479000426,1.3135531135531133,0.8671062271062271,0.332014652014652
2.5727763260001666,3.3,2.6625641025641027,1.5117948717948717
2.573617464000563,3.3,2.6625641025641027,1.5117948717948717
2.5758037680006964,3.3,2.6625641025641027,1.5117948717948717
2.5760678999995434,3.3,2.6625641025641027,1.5117948717948717
2.58065206900028,3.3,2.6625641025641027,1.5117948717948717
2.580940923999151,3.3,2.6625641025641027,1.5117948717948717
2.585732513000039,3.3,2.6625641025641027,1.5117948717948717
2.585946843999409,3.3,2.6625641025641027,1.5117948717948717
2.5905463679991954,3.3,0.5874725274725274,0.46417582417582415
2.5922199910000927,2.7004395604395603,3.0534065934065935,1.8518681318681318
2.5951888370000233,2.7004395604395603,3.0534065934065935,1.8518681318681318
2.598276235999947,2.7004395604395603,3.0534065934065935,1.8518681318681318
2.5998930650002876,2.7004395604395603,3.0534065934065935,1.8518681318681318
2.603626971000267,2.7004395604395603,3.0534065934065935,1.8518681318681318
2.608744746999946,2.7004395604395603,3.0534065934065935,1.8518681318681318
2.611903159000576,2.7004395604395603,3.0534065934065935,1.8518681318681318
2.613471082000615,2.7004395604395603,2.7786080586080586,1.7841758241758239
2.617894041000909,2.7004395604395603,2.7786080586080586,1.7841758241758239
2.618851912999162,2.7004395604395603,2.7786080586080586,1.7841758241758239
2.6196709760006343,2.7004395604395603,2.7786080586080586,1.7841758241758239
2.621303676000025,2.7004395604395603,2.7786080586080586,1.7841758241758239
2.625928823999857,2.7004395604395603,2.7786080586080586,1.7841758241758239
2.6261508770003275,2.727032967032967,3.3,2.739120879120879
2.630655361999743,2.727032967032967,3.3,2.739120879120879
2.6321933010003704,2.727032967032967,3.3,2.739120879120879
2.6359269000004133,2.727032967032967,3.3,2.739120879120879
2.640981874999852,2.727032967032967,3.3,2.739120879120879
2.6446829630003776,2.727032967032967,3.3,2.739120879120879
2.6497583069995017,2.727032967032967,3.3,2.739120879120879
2.65378481299922,2.727032967032967,3.3,2.739120879120879
2.657752610000898,2.727032967032967,3.3,2.739120879120879
2.6611423369995464,2.6665934065934067,1.6512087912087912,0.614065934065934
2.661914591000823,2.6665934065934067,1.6512087912087912,0.614065934065934
2.663963892000538,2.6665934065934067,1.6512087912087912,0.614065934065934
2.6653620659999433,2.6665934065934067,1.6512087912087912,0.614065934065934
2.6700499540002056,2.6665934065934067,1.6512087912087912,0.614065934065934
2.6702960959992197,2.6665934065934067,1.6512087912087912,0.614065934065934
2.6750277200007986,2.6665934065934067,1.6512087912087912,0.614065934065934
2.675479859000916,2.6665934065934067,1.6512087912087912,0.614065934065934
2.6788853199996083,2.6665934065934067,1.6512087912087912,0.614065934065934
2.6790479560004314,3.3,3.3,1.216849816849817
2.6834733369996684,3.3,3.3,1.216849816849817
2.685027720999642,2.702857142857143,3.3,2.6625641025641027
2.6886898039992957,2.702857142857143,3.3,2.6625641025641027
2.6938058439991437,2.702857142857143,3.3,2.6625641025641027
2.6981357940003363,2.705274725274725,1.3401465201465201,0.6736996336996337
2.6997221469991928,1.730989010989011,0.6205128205128204,0.303003663003663
2.704253071999119,1.730989010989011,0.6205128205128204,0.303003663003663
2.7058559609995427,1.730989010989011,0.6205128205128204,0.303003663003663
2.71029395900041,1.730989010989011,0.6205128205128204,0.303003663003663
2.7111751369993726,1.730989010989011,0.6205128205128204,0.303003663003663
2.7127513619998354,1.730989010989011,0.6205128205128204,0.303003663003663
2.717130057000759,1.730989010989011,0.6205128205128204,0.303003663003663
2.7186376560002827,1.730989010989011,0.6205128205128204,0.303003663003663
2.723155276000398,2.690769230769231,0.4859340659340659,0.365054945054945
2.7234746989997802,2.7004395604395603,3.3,2.285421245421245
2.7285332570008904,2.7004395604395603,3.3,2.285421245421245
2.7329973630003224,2.7004395604395603,3.3,2.285421245421245
2.733847158999197,2.7004395604395603,3.3,2.285421245421245
2.7354162970004836,2.7004395604395603,3.3,2.285421245421245
2.7392007290000038,2.107326007326007,0.6172893772893773,0.381978021978022
2.7435741839999537,2.651282051282051,0.41340659340659336,0.1652014652014652
2.7458698059999733,2.7036630036630034,3.3,1.80029304029304
2.7461538089992246,2.7036630036630034,3.3,1.80029304029304
2.750626987999567,2.7036630036630034,3.3,1.80029304029304
2.7514971820000937,2.7278388278388275,3.216190476190476,1.9316483516483516
2.7530974490000517,2.7278388278388275,3.216190476190476,1.9316483516483516
2.7568257179991633,2.7278388278388275,3.216190476190476,1.9316483516483516
2.761978440999883,2.73025641025641,1.506959706959707,0.7188278388278388
2.7649702719991183,2.73025641025641,1.506959706959707,0.7188278388278388
2.7679153829994902,2.73025641025641,1.506959706959707,0.7188278388278388
2.7709757199991145,2.245128205128205,2.041245421245421,1.2668131868131869
2.7732922449995385,2.245128205128205,2.041245421245421,1.2668131868131869
2.773494548000599,2.655311355311355,1.0113553113553113,0.29413919413919415
2.7831734139999753,2.655311355311355,1.0113553113553113,0.29413919413919415
2.7901160929995967,2.655311355311355,1.0113553113553113,0.29413919413919415
2.795293151999431,2.7036630036630034,3.1646153846153844,1.9332600732600733
2.797610136000003,2.7036630036630034,3.1646153846153844,1.9332600732600733
2.7978019370002585,2.7036630036630034,3.1646153846153844,1.9332600732600733
2.8024801749998005,2.7036630036630034,3.1646153846153844,1.9332600732600733
2.8026689700000134,2.7036630036630034,3.1646153846153844,1.9332600732600733
2.807127833000777,2.7036630036630034,3.1646153846153844,1.9332600732600733
2.807977698999821,2.7036630036630034,3.1646153846153844,1.9332600732600733
2.8096211640004185,2.7036630036630034,3.1646153846153844,1.9332600732600733
2.8133943649991124,2.7036630036630034,3.1646153846153844,1.9332600732600733
2.8187739990007685,2.7036630036630034,3.1646153846153844,1.9332600732600733
2.8204079999995884,2.7036630036630034,3.1646153846153844,1.9332600732600733
2.824816149999606,2.7036630036630034,3.1646153846153844,1.9332600732600733
2.825767399999677,3.3,0.448058608058608,0.2627106227106227
2.8277152530008607,2.7044688644688644,1.0798534798534798,0.3473260073260073
2.8292981869999494,2.7044688644688644,1.0798534798534798,0.3473260073260073
2.8338400070006173,2.7044688644688644,1.0798534798534798,0.3473260073260073
2.834085889000562,2.7044688644688644,1.0798534798534798,0.3473260073260073
2.8385947149999993,2.7044688644688644,1.0798534798534798,0.3473260073260073
2.8402486630002386,3.3,3.3,1.1652747252747253
2.8470515360004356,3.3,3.3,1.1652747252747253
2.854944157999853,3.3,3.3,1.1652747252747253
2.8597702179995395,3.3,3.3,1.1652747252747253
2.8692013929994573,3.3,3.3,1.1652747252747253
2.876799277999453,3.3,3.3,1.1652747252747253
2.884575727999618,3.3,3.3,1.1652747252747253
2.8901446939999005,3.3,3.3,1.1652747252747253
2.8902587089996814,3.3,3.3,1.1652747252747253
2.895145975999185,3.3,3.3,1.1652747252747253
2.9024900749991502,3.3,3.3,1.1652747252747253
2.9085453290008445,3.3,3.3,1.1652747252747253
2.9118417059999047,3.3,3.3,1.1652747252747253
2.9128012279998075,3.3,3.3,1.1652747252747253
2.915793071000735,3.3,3.3,1.1652747252747253
2.917888956999377,3.3,3.3,1.1652747252747253
2.9181308560000616,3.3,3.3,1.1652747252747253
2.9234784170002968,3.3,3.3,1.1652747252747253
2.9257496779991925,3.3,3.3,1.1652747252747253
2.9260057610008516,2.7036630036630034,1.523882783882784,0.8638827838827838
2.9315724600000976,2.9808791208791208,3.244395604395604,1.684249084249084
2.9318501859997923,2.698827838827839,2.017875457875458,1.344981684981685
2.9385342330006097,2.698827838827839,2.017875457875458,1.344981684981685
2.9425663980000536,2.698827838827839,2.017875457875458,1.344981684981685
2.9466106180007046,2.698827838827839,2.017875457875458,1.344981684981685
2.9534095939998224,2.698827838827839,2.017875457875458,1.344981684981685
2.957589645999178,2.698827838827839,2.017875457875458,1.344981684981685
2.9603576450008404,2.698827838827839,2.017875457875458,1.344981684981685
2.9642674419992545,3.3,0.3191208791208791,0.23128205128205126
2.973238042999583,3.3,0.3191208791208791,0.23128205128205126
2.9792132239999773,3.3,0.3191208791208791,0.23128205128205126
2.986386421000134,3.3,0.3191208791208791,0.23128205128205126
2.9912859739997657,3.026007326007326,0.3384615384615384,0.3916483516483516
2.997796498999378,3.3,2.8825641025641024,1.8438095238095238
3.0032133179993252,3.3,2.8825641025641024,1.8438095238095238
3.00350494399936,3.3,2.8825641025641024,1.8438095238095238
3.008286838999993,3.3,2.8825641025641024,1.8438095238095238
3.0127268500000355,3.3,0.5512087912087912,0.4819047619047619
3.016133974000695,3.3,0.5512087912087912,0.4819047619047619
3.01623925199965,3.3,0.5512087912087912,0.4819047619047619
3.023868890999438,3.3,0.5512087912087912,0.4819047619047619
3.0290486390003935,3.3,0.5512087912087912,0.4819047619047619
3.0328841989994544,2.6682051282051282,3.2065201465201465,2.1556776556776556
3.0366811160001816,2.6682051282051282,3.2065201465201465,2.1556776556776556
3.041073297999901,2.6682051282051282,3.2065201465201465,2.1556776556776556
3.042016801999125,2.6682051282051282,3.2065201465201465,2.1556776556776556
3.0429342949992133,2.6682051282051282,3.2065201465201465,2.1556776556776556
3.044853735000288,2.6682051282051282,3.2065201465201465,2.1556776556776556
3.046867941000528,2.6682051282051282,3.2065201465201465,2.1556776556776556
3.049074317999839,2.6682051282051282,3.2065201465201465,2.1556776556776556
3.049403908000386,2.6682051282051282,3.2065201465201465,2.1556776556776556
3.054267830999379,2.6682051282051282,3.2065201465201465,2.1556776556776556
3.059245103999274,2.6682051282051282,3.2065201465201465,2.1556776556776556
3.06365503500092,2.6682051282051282,3.2065201465201465,2.1556776556776556
3.064785913000378,2.6682051282051282,3.2065201465201465,2.1556776556776556
3.064998120000382,2.6682051282051282,3.2065201465201465,2.1556776556776556
3.0713783749997674,2.6682051282051282,3.2065201465201465,2.1556776556776556
3.0751160029994935,2.6682051282051282,3.2065201465201465,2.1556776556776556
3.080829417000132,2.6682051282051282,3.2065201465201465,2.1556776556776556
3.0811768460007443,2.6682051282051282,3.2065201465201465,2.1556776556776556
3.0875913239997317,3.3,0.4424175824175824,0.3626373626373626
3.0915855839994038,2.681098901098901,2.0847619047619044,1.4344322344322344
3.0950535379997746,2.681098901098901,2.0847619047619044,1.4344322344322344
3.095213624999815,2.681098901098901,2.0847619047619044,1.4344322344322344
3.1044290059999184,2.681098901098901,2.0847619047619044,1.4344322344322344
3.108171375999518,2.681098901098901,2.0847619047619044,1.4344322344322344
3.108320757999536,2.681098901098901,2.0847619047619044,1.4344322344322344
3.1127747539994743,2.681098901098901,2.0847619047619044,1.4344322344322344
3.1150276139997004,2.702051282051282,1.7575824175824175,0.9388278388278387
3.1151664959998016,2.702051282051282,1.7575824175824175,0.9388278388278387
3.1234273329991993,2.702051282051282,1.7575824175824175,0.9388278388278387
3.128075632999753,2.702051282051282,1.7575824175824175,0.9388278388278387
3.128333491000376,2.702051282051282,1.7575824175824175,0.9388278388278387
3.136506183000165,2.702051282051282,1.7575824175824175,0.9388278388278387
3.1409509389995947,2.748791208791209,3.021172161172161,1.9719413919413917
3.1418862530008482,2.748791208791209,3.021172161172161,1.9719413919413917
3.1434262820002914,2.748791208791209,3.021172161172161,1.9719413919413917
3.1492485189992294,2.748791208791209,3.021172161172161,1.9719413919413917
3.1495681699998386,2.748791208791209,3.021172161172161,1.9719413919413917
3.1536952900005417,2.748791208791209,3.021172161172161,1.9719413919413917
3.1559804450007505,2.748791208791209,3.021172161172161,1.9719413919413917
3.156174366000414,2.748791208791209,3.021172161172161,1.9719413919413917
3.1607389069995406,2.748791208791209,3.021172161172161,1.9719413919413917
3.1616008069995587,2.748791208791209,3.021172161172161,1.9719413919413917
3.1632190220007033,2.748791208791209,3.021172161172161,1.9719413919413917
3.168019770000683,2.748791208791209,3.021172161172161,1.9719413919413917
3.1681638169993676,2.748791208791209,3.021172161172161,1.9719413919413917
3.1729309849997662,2.748791208791209,3.021172161172161,1.9719413919413917
3.1731487279994326,2.7036630036630034,2.913186813186813,1.896190476190476
3.17757931900087,2.7036630036630034,2.913186813186813,1.896190476190476
3.178439344999788,2.7036630036630034,2.913186813186813,1.896190476190476
3.180650821999734,2.7036630036630034,2.913186813186813,1.896190476190476
3.1821373219991074,2.7036630036630034,2.913186813186813,1.896190476190476
3.187672821000888,2.7036630036630034,2.913186813186813,1.896190476190476
3.18786968600034,2.7036630036630034,2.913186813186813,1.896190476190476
3.1925941779991263,2.7036630036630034,2.913186813186813,1.896190476190476
3.192725049000728,2.681098901098901,1.211208791208791,0.502051282051282
3.1982279420008126,2.681098901098901,1.211208791208791,0.502051282051282
3.1986466830003337,2.681098901098901,1.211208791208791,0.502051282051282
3.206107329000588,2.6617582417582417,0.4037362637362637,0.3545787545787546
3.211978256000293,2.6617582417582417,0.4037362637362637,0.3545787545787546
3.219389517000309,2.7246153846153844,2.8430769230769233,2.024322344322344
3.2239443250000477,2.6585347985347987,0.8904761904761904,0.4126007326007326
3.2241926549995696,2.6585347985347987,0.8904761904761904,0.4126007326007326
3.2293147060008778,2.6585347985347987,0.8904761904761904,0.4126007326007326
3.235979518000022,2.6585347985347987,0.8904761904761904,0.4126007326007326
3.239794756000265,2.6585347985347987,0.8904761904761904,0.4126007326007326
3.245127614000012,3.3,0.3352380952380952,0.30945054945054945
3.248572504000549,3.3,0.3352380952380952,0.30945054945054945
3.2586097509993124,3.3,0.3352380952380952,0.30945054945054945
3.2670751780005958,2.66014652014652,0.9154578754578755,0.4593406593406593
3.2725848720001522,2.702051282051282,3.3,2.6271062271062267
3.273498694999944,2.702051282051282,3.3,2.6271062271062267
3.274499998000465,2.702051282051282,3.3,2.6271062271062267
3.2754489189992455,2.702051282051282,3.3,2.6271062271062267
3.2770446380000067,2.702051282051282,3.3,2.6271062271062267
3.283286007999777,2.702051282051282,3.3,2.6271062271062267
3.2893833630005247,2.702051282051282,3.3,2.6271062271062267
3.2931603209999594,2.702051282051282,3.3,2.6271062271062267
3.2971652670003095,2.702051282051282,3.3,2.6271062271062267
3.301968006999232,2.241098901098901,1.079047619047619,0.5826373626373627
3.3057876650000253,2.241098901098901,1.079047619047619,0.5826373626373627
3.31042026599971,2.7036630036630034,1.49003663003663,0.8195604395604396
3.310695071000737,2.7036630036630034,1.49003663003663,0.8195604395604396
3.3157563130007475,2.7036630036630034,1.49003663003663,0.8195604395604396
3.3193301980008982,2.7036630036630034,1.49003663003663,0.8195604395604396
3.319470562000788,2.7036630036630034,1.49003663003663,0.8195604395604396
3.3246798460004356,2.7036630036630034,1.49003663003663,0.8195604395604396
3.3270298469997215,2.7036630036630034,1.49003663003663,0.8195604395604396
3.3272089879992564,2.7036630036630034,1.49003663003663,0.8195604395604396
3.3321298219998425,2.9905494505494503,3.3,1.8994139194139192
3.3371178609995695,2.9905494505494503,3.3,1.8994139194139192
3.3409599770002387,2.9905494505494503,3.3,1.8994139194139192
3.3454035979993932,2.9905494505494503,3.3,1.8994139194139192
3.3466701220004325,2.7004395604395603,2.1226373626373625,1.3216117216117216
3.3468602880002436,3.3,0.6084249084249085,0.46739926739926735
3.3533402400007617,3.3,0.6084249084249085,0.46739926739926735
3.3570786519994726,2.681098901098901,3.2226373626373626,2.125054945054945
3.3625320680002915,3.3,0.47062271062271055,0.17648351648351646
3.3665184790006606,3.3,0.47062271062271055,0.17648351648351646
3.370947224999327,3.3,0.47062271062271055,0.17648351648351646
3.37664824499916,3.3,0.47062271062271055,0.17648351648351646
3.3769661349997477,2.6037362637362635,0.7381684981684982,0.365054945054945
3.384532613999909,2.6037362637362635,0.7381684981684982,0.365054945054945
3.3891239019994828,2.7036630036630034,1.6786080586080585,0.9702564102564102
3.3892573510001966,2.7036630036630034,1.6786080586080585,0.9702564102564102
3.394518839000739,2.7036630036630034,1.6786080586080585,0.9702564102564102
3.3981463439995423,2.726227106227106,2.250769230769231,1.4956776556776556
3.404111517000274,2.726227106227106,2.250769230769231,1.4956776556776556
3.408721873000104,2.7004395604395603,3.3,2.6335531135531136
3.4089587710004707,2.7004395604395603,3.3,2.6335531135531136
3.4142858600007457,2.7004395604395603,3.3,2.6335531135531136
3.4170395340006507,2.7004395604395603,3.3,2.6335531135531136
3.4195725270001276,2.9260805860805856,0.48432234432234433,0.1789010989010989
3.419685049000691,2.9260805860805856,0.48432234432234433,0.1789010989010989
3.4245192550006323,2.9260805860805856,0.48432234432234433,0.1789010989010989
3.4247464000000036,2.9260805860805856,0.48432234432234433,0.1789010989010989
3.4292201669995848,2.9260805860805856,0.48432234432234433,0.1789010989010989
3.430227681999895,2.9260805860805856,0.48432234432234433,0.1789010989010989
3.431773438000164,2.9260805860805856,0.48432234432234433,0.1789010989010989
3.4375266629995167,2.9260805860805856,0.48432234432234433,0.1789010989010989
3.443073472000833,3.3,0.7389743589743589,0.2747985347985348
3.443884068999978,3.3,0.7389743589743589,0.2747985347985348
3.446219014000235,3.3,0.7389743589743589,0.2747985347985348
3.4465078390003328,3.3,0.7389743589743589,0.2747985347985348
3.4528982039992115,3.3,0.7389743589743589,0.2747985347985348
3.456677849000698,3.3,0.7389743589743589,0.2747985347985348
3.4620022250001057,3.3,0.7389743589743589,0.2747985347985348
3.4664413739992597,3.3,0.7389743589743589,0.2747985347985348
3.4667170329994406,3.3,0.7389743589743589,0.2747985347985348
3.471440821000215,3.3,0.7389743589743589,0.2747985347985348
3.4717057489997387,3.3,0.7389743589743589,0.2747985347985348
3.4770853749996604,3.3,0.7389743589743589,0.2747985347985348
3.479471705999458,3.3,0.7389743589743589,0.2747985347985348
3.4795957610003825,3.3,0.7389743589743589,0.2747985347985348
3.4889484100003756,3.3,0.7389743589743589,0.2747985347985348
3.4935274700001173,3.3,0.7389743589743589,0.2747985347985348
3.4937398769998254,3.3,0.7389743589743589,0.2747985347985348
3.5025022419995366,3.3,0.7389743589743589,0.2747985347985348
3.506288988999586,3.3,0.7389743589743589,0.2747985347985348
3.5106991329994344,3.3,0.7389743589743589,0.2747985347985348
3.511544373999641,3.3,0.7389743589743589,0.2747985347985348
3.5131773709999834,3.3,0.7389743589743589,0.2747985347985348
3.519306427999254,2.6536996336996337,0.8977289377289376,0.3618315018315018
3.5225841859992215,2.6536996336996337,0.8977289377289376,0.3618315018315018
3.523478299999624,2.6536996336996337,0.8977289377289376,0.3618315018315018
3.526250658000208,2.6536996336996337,0.8977289377289376,0.3618315018315018
3.5305768660000467,2.6536996336996337,0.8977289377289376,0.3618315018315018
3.530866872999468,2.7036630036630034,2.8583882783882784,1.9775824175824175
3.5390258070001437,2.7036630036630034,2.8583882783882784,1.9775824175824175
3.5436889859993244,2.6665934065934067,0.29333333333333333,0.3223443223443223
3.54396971999995,2.6665934065934067,0.29333333333333333,0.3223443223443223
3.5516974490001303,2.6665934065934067,0.29333333333333333,0.3223443223443223
3.5567382120007096,2.6665934065934067,0.29333333333333333,0.3223443223443223
3.5590399890006665,2.6649816849816848,0.7035164835164834,0.30945054945054945
3.5592903769993427,2.6617582417582417,0.47142857142857136,0.4142124542124542
3.5650150990004477,2.6617582417582417,0.47142857142857136,0.4142124542124542
3.5652414279993536,2.6617582417582417,0.47142857142857136,0.4142124542124542
3.5725573340005212,2.673040293040293,0.4287179487179487,0.2651282051282051
3.5762838610007748,2.673040293040293,0.4287179487179487,0.2651282051282051
3.5764097390001552,2.673040293040293,0.4287179487179487,0.2651282051282051
3.582699980999678,2.673040293040293,0.4287179487179487,0.2651282051282051
3.588152894000814,2.673040293040293,0.4287179487179487,0.2651282051282051
3.5935509800001455,2.673040293040293,0.4287179487179487,0.2651282051282051
3.596921148000547,2.7455677655677655,1.0838827838827838,0.6229304029304029
3.5972290549998434,2.7455677655677655,1.0838827838827838,0.6229304029304029
3.604185766000228,2.7455677655677655,1.0838827838827838,0.6229304029304029
3.608017729999119,2.6746520146520147,0.4464468864468864,0.27882783882783885
3.613425150999319,2.6746520146520147,0.4464468864468864,0.27882783882783885
3.61639181999999,2.652087912087912,0.8945054945054944,0.37875457875457874
3.619170934000067,2.652087912087912,0.8945054945054944,0.37875457875457874
3.6225950000007288,2.652087912087912,0.8945054945054944,0.37875457875457874
3.6228399669998907,2.652087912087912,0.8945054945054944,0.37875457875457874
3.632517955000367,2.652087912087912,0.8945054945054944,0.37875457875457874
3.6403144159994554,2.652087912087912,0.8945054945054944,0.37875457875457874
3.6452089169997635,2.840659340659341,0.5536263736263736,0.20307692307692307
3.6537720519991126,2.840659340659341,0.5536263736263736,0.20307692307692307
3.6610542590005934,2.7036630036630034,2.6698168498168497,1.9050549450549448
3.6670939439991344,2.6754578754578753,0.9758974358974358,0.31750915750915754
3.6706223229994066,2.664175824175824,0.4182417582417582,0.28527472527472525
3.670799886000168,2.664175824175824,0.4182417582417582,0.28527472527472525
3.675818416999391,2.729450549450549,2.415164835164835,1.6012454212454212
3.6798784019993036,2.729450549450549,2.415164835164835,1.6012454212454212
3.6838354669998807,2.729450549450549,2.415164835164835,1.6012454212454212
3.68741210600092,2.729450549450549,2.415164835164835,1.6012454212454212
3.694541154000035,2.7246153846153844,1.5214652014652015,0.7945787545787546
3.701959182999417,2.7246153846153844,1.5214652014652015,0.7945787545787546
3.7081481559998792,2.706080586080586,2.5070329670329667,1.569010989010989
3.712940625999181,2.706080586080586,2.5070329670329667,1.569010989010989
3.7188715709999087,2.706080586080586,2.5070329670329667,1.569010989010989
3.7230327739998756,2.706080586080586,2.5070329670329667,1.569010989010989
3.7248371690002386,2.706080586080586,2.5070329670329667,1.569010989010989
3.72739052200086,2.706080586080586,2.5070329670329667,1.569010989010989
3.735273357000551,3.3,2.932527472527472,1.5762637362637362
3.7394038940001337,2.6996336996336994,1.4634432234432233,0.7937728937728937
3.742572339000617,2.6996336996336994,1.4634432234432233,0.7937728937728937
3.744163725999897,2.6996336996336994,1.4634432234432233,0.7937728937728937
3.750304798999423,2.6996336996336994,1.4634432234432233,0.7937728937728937
3.75417548599944,2.6996336996336994,1.4634432234432233,0.7937728937728937
3.758784743000433,2.7004395604395603,2.0694505494505493,1.257142857142857
3.7589427540006,2.7004395604395603,2.0694505494505493,1.257142857142857
3.7684951259998343,2.7004395604395603,2.0694505494505493,1.257142857142857
3.7733654500007106,2.7004395604395603,2.0694505494505493,1.257142857142857
3.778774152000551,2.7004395604395603,2.0694505494505493,1.257142857142857
3.781497768999543,2.7004395604395603,2.0694505494505493,1.257142857142857
3.7865207480008394,2.7004395604395603,2.0694505494505493,1.257142857142857
3.789075942000636,2.7004395604395603,2.0694505494505493,1.257142857142857
3.794380250999893,2.7004395604395603,2.0694505494505493,1.257142857142857
3.79913291199955,2.7004395604395603,2.0694505494505493,1.257142857142857
3.8039462489996367,2.6964102564102563,0.7438095238095238,0.27641025641025635
3.809083565000037,2.6964102564102563,0.7438095238095238,0.27641025641025635
3.8127748610004346,3.3,0.8276190476190476,0.5745787545787545
3.8207400890005374,2.7004395604395603,2.8140659340659337,1.8373626373626373
3.8256792379997933,2.7004395604395603,2.8140659340659337,1.8373626373626373
3.8313179680008034,2.7004395604395603,2.8140659340659337,1.8373626373626373
3.8316322850005236,2.705274725274725,2.9196336996336996,1.9429304029304029
3.8362992809998104,2.705274725274725,2.9196336996336996,1.9429304029304029
3.8416596579991165,2.705274725274725,2.9196336996336996,1.9429304029304029
3.843972271999519,2.705274725274725,2.9196336996336996,1.9429304029304029
3.8441554100008943,2.705274725274725,2.9196336996336996,1.9429304029304029
3.849554296999486,2.705274725274725,2.9196336996336996,1.9429304029304029
3.8532041489997937,2.705274725274725,2.9196336996336996,1.9429304029304029
3.8578637749997142,2.705274725274725,2.9196336996336996,1.9429304029304029
3.858057714000097,2.705274725274725,2.9196336996336996,1.9429304029304029
3.8624548080006207,2.705274725274725,2.9196336996336996,1.9429304029304029
3.8651528779992077,2.685128205128205,1.3014652014652013,0.9227106227106227
3.86918682599935,2.685128205128205,1.3014652014652013,0.9227106227106227
3.8732973909991415,2.6875457875457873,3.071135531135531,2.025128205128205
3.8757883430007496,2.6875457875457873,3.071135531135531,2.025128205128205
3.884874322999167,2.6875457875457873,3.071135531135531,2.025128205128205
3.8917328389998147,2.6665934065934067,1.2579487179487179,0.8783882783882784
3.8954911189994164,2.6665934065934067,1.2579487179487179,0.8783882783882784
3.903641642000366,2.6665934065934067,1.2579487179487179,0.8783882783882784
3.91005164300077,2.6665934065934067,1.2579487179487179,0.8783882783882784
3.9147900059997482,2.6665934065934067,1.2579487179487179,0.8783882783882784
3.9218596490009077,2.729450549450549,1.7172893772893774,1.1588278388278386
3.9269665840001835,2.729450549450549,1.7172893772893774,1.1588278388278386
3.936109910999221,2.705274725274725,1.7092307692307693,0.9823443223443222
3.941367633999107,2.7036630036630034,1.9864468864468863,1.2345787545787545
3.9430470850002166,2.7036630036630034,1.9864468864468863,1.2345787545787545
3.946430648000387,2.7036630036630034,3.3,2.6682051282051282
3.9469703340000706,2.7036630036630034,3.3,2.6682051282051282
3.9515114040004846,2.7036630036630034,3.3,2.6682051282051282
3.9569371060006233,2.7036630036630034,3.3,2.6682051282051282
3.958527093000157,2.7036630036630034,3.3,2.6682051282051282
3.962227566000365,2.7036630036630034,3.3,2.6682051282051282
3.9624190899994574,2.7036630036630034,3.3,2.6682051282051282
3.9719550240006356,2.7036630036630034,3.3,2.6682051282051282
3.9786830060002103,2.7036630036630034,2.9760439560439558,2.091208791208791
3.986109645000397,2.7036630036630034,2.9760439560439558,2.091208791208791
3.99120665800001,2.7036630036630034,2.9760439560439558,2.091208791208791
3.996475930000088,2.7036630036630034,2.9760439560439558,2.091208791208791
3.9967380500002037,2.7036630036630034,2.9760439560439558,2.091208791208791
4.0045612459998665,2.897069597069597,3.079194139194139,1.1282051282051282
4.008613578000222,2.897069597069597,3.079194139194139,1.1282051282051282
4.011757749000026,3.3,3.3,1.8413919413919413
4.015133322000111,3.3,3.3,1.8413919413919413
4.015360760000476,3.3,3.3,1.8413919413919413
4.021559904000242,3.3,3.3,1.8413919413919413
4.02572085599968,2.789084249084249,2.9405860805860806,1.1902564102564102
4.02890791199934,2.789084249084249,2.9405860805860806,1.1902564102564102
4.031067907000761,2.789084249084249,2.9405860805860806,1.1902564102564102
4.031400179999764,2.789084249084249,2.9405860805860806,1.1902564102564102
4.03655171399987,2.789084249084249,2.9405860805860806,1.1902564102564102
4.039820673000577,2.7375091575091575,2.121831501831502,0.9235164835164835
4.040768831000605,2.7375091575091575,2.121831501831502,0.9235164835164835
4.0423451509996084,2.7375091575091575,2.121831501831502,0.9235164835164835
4.04620908600009,2.7375091575091575,2.121831501831502,0.9235164835164835
4.053616814000634,2.702051282051282,3.3,2.5344322344322343
4.058330732999821,2.702051282051282,3.3,2.5344322344322343
4.058560307999869,2.702051282051282,3.3,2.5344322344322343
4.063392006000868,2.702051282051282,3.3,2.5344322344322343
4.070735597000748,2.702051282051282,3.3,2.5344322344322343
4.0755137510004715,2.702051282051282,3.3,2.5344322344322343
4.08168184600072,2.702051282051282,3.3,2.5344322344322343
4.085695035000754,2.702051282051282,3.3,2.5344322344322343
4.088925989999552,2.702051282051282,3.3,2.5344322344322343
4.089774013000351,2.702051282051282,3.3,2.5344322344322343
4.091359026000646,2.702051282051282,3.3,2.5344322344322343
4.095103911999104,2.7246153846153844,2.028351648351648,1.2039560439560437
4.101936478000425,2.7246153846153844,2.028351648351648,1.2039560439560437
4.105136673999368,3.3,0.5463736263736263,0.2562637362637363
4.106698984000104,3.3,0.5463736263736263,0.2562637362637363
4.111596624999947,3.3,0.5463736263736263,0.2562637362637363
4.1209094259993435,2.7004395604395603,2.901098901098901,1.9501831501831501
4.124730895999164,2.7004395604395603,2.901098901098901,1.9501831501831501
4.130681802000254,3.3,0.4488644688644688,0.34087912087912087
4.130994410999847,3.3,0.4488644688644688,0.34087912087912087
4.135474482000063,3.3,0.4488644688644688,0.34087912087912087
4.136333065000144,3.3,0.4488644688644688,0.34087912087912087
4.137935627999468,3.3,0.4488644688644688,0.34087912087912087
4.14163839899993,3.3,0.4488644688644688,0.34087912087912087
4.147111742999186,2.659340659340659,0.4593406593406593,0.2909157509157509
4.149293307000335,2.659340659340659,0.4593406593406593,0.2909157509157509
4.149533641999369,2.659340659340659,0.4593406593406593,0.2909157509157509
4.154783881000185,2.659340659340659,0.4593406593406593,0.2909157509157509
4.157196420999753,2.659340659340659,0.4593406593406593,0.2909157509157509
4.157324042000255,2.659340659340659,0.4593406593406593,0.2909157509157509
4.162578782999844,2.659340659340659,0.4593406593406593,0.2909157509157509
4.1667670299993915,2.659340659340659,0.4593406593406593,0.2909157509157509
4.168629473999317,2.659340659340659,0.4593406593406593,0.2909157509157509
4.170851938000851,2.659340659340659,0.4593406593406593,0.2909157509157509
4.171745264999117,2.705274725274725,2.9816849816849818,2.037216117216117
4.173399833000076,2.705274725274725,2.9816849816849818,2.037216117216117
4.177183286999934,2.705274725274725,2.9816849816849818,2.037216117216117
4.186545422000563,2.705274725274725,2.9816849816849818,2.037216117216117
4.193091032000666,2.705274725274725,2.9816849816849818,2.037216117216117
4.1990073270008,2.705274725274725,2.9816849816849818,2.037216117216117
4.2080992739993235,2.705274725274725,2.9816849816849818,2.037216117216117
4.215310606999992,2.705274725274725,2.9816849816849818,2.037216117216117
4.219483292999939,3.034065934065934,0.8703296703296703,0.419047619047619
4.2211202590006,3.034065934065934,0.8703296703296703,0.419047619047619
4.22491252799955,2.6545054945054947,0.26673992673992675,0.33684981684981685
4.232498106999628,2.7036630036630034,3.3,2.6448351648351647
4.236264160999781,2.7036630036630034,3.3,2.6448351648351647
4.240665727000305,2.7036630036630034,3.3,2.6448351648351647
4.242294072000732,2.7036630036630034,3.3,2.6448351648351647
4.2461025419997895,2.7036630036630034,3.3,2.6448351648351647
4.251985565000723,2.7036630036630034,3.3,2.6448351648351647
4.2565180549991055,2.7004395604395603,1.7978754578754577,1.041978021978022
4.256772902999728,2.7004395604395603,1.7978754578754577,1.041978021978022
4.261204495000129,2.7004395604395603,1.7978754578754577,1.041978021978022
4.264563321999958,2.7004395604395603,1.7978754578754577,1.041978021978022
4.270176791000267,2.7004395604395603,1.7978754578754577,1.041978021978022
4.270366582000861,2.7004395604395603,1.7978754578754577,1.041978021978022
4.275801846999457,2.7004395604395603,1.7978754578754577,1.041978021978022
4.276810773000761,2.7004395604395603,1.6955311355311353,1.1821978021978021
4.277664473000186,2.7004395604395603,1.6955311355311353,1.1821978021978021
4.279334012999243,2.7004395604395603,1.6955311355311353,1.1821978021978021
4.285063499999524,2.7004395604395603,1.6955311355311353,1.1821978021978021
4.288811948999864,2.7036630036630034,2.545714285714286,2.6408058608058607
4.293993851000778,2.7036630036630034,2.545714285714286,2.6408058608058607
4.297680043000582,2.7044688644688644,2.868058608058608,1.9961172161172158
4.304402564999691,2.7044688644688644,2.868058608058608,1.9961172161172158
4.308360667999295,3.3,0.33282051282051284,0.30622710622710625
4.312087820999295,3.3,3.3,1.9880586080586078
4.32084856199981,3.3,3.3,1.9880586080586078
4.328145612000299,3.3,3.3,1.9880586080586078
4.33598841300045,3.3,0.909010989010989,0.6736996336996337
4.3403203720008605,2.9389743589743587,1.5287179487179487,0.7172161172161172
4.341932844999974,2.66014652014652,0.21516483516483517,0.3771428571428571
4.345670565999171,2.66014652014652,0.21516483516483517,0.3771428571428571
4.345854110000801,2.66014652014652,0.21516483516483517,0.3771428571428571
4.3514831159991445,2.66014652014652,0.21516483516483517,0.3771428571428571
4.352339564000431,2.66014652014652,0.21516483516483517,0.3771428571428571
4.353941392999332,2.66014652014652,0.21516483516483517,0.3771428571428571
4.357687923000412,2.66014652014652,0.21516483516483517,0.3771428571428571
4.357796218000658,3.3,0.49238095238095236,0.21355311355311357
4.364787791999333,3.3,0.49238095238095236,0.21355311355311357
4.370141416999104,3.3,0.49238095238095236,0.21355311355311357
4.370487887999843,3.3,0.49238095238095236,0.21355311355311357
4.379012244999103,3.3,0.49238095238095236,0.21355311355311357
4.386416843999541,3.3,0.49238095238095236,0.21355311355311357
4.391392012999859,3.3,0.4254945054945055,0.34007326007326005
4.395412735999344,3.3,0.4254945054945055,0.34007326007326005
4.401956174000588,3.3,0.4254945054945055,0.34007326007326005
4.405018923000171,2.655311355311355,2.017069597069597,0.6567765567765567
4.4080432600003405,2.655311355311355,2.017069597069597,0.6567765567765567
4.411025527000675,2.655311355311355,2.017069597069597,0.6567765567765567
4.41526043200065,2.655311355311355,2.017069597069597,0.6567765567765567
4.415626399000757,2.655311355311355,2.017069597069597,0.6567765567765567
4.423082160999911,2.655311355311355,2.017069597069597,0.6567765567765567
4.429992356999719,2.655311355311355,2.017069597069597,0.6567765567765567
4.435786893000113,2.6714285714285713,3.2129670329670326,2.1363369963369965
4.444706346999737,2.6714285714285713,3.2129670329670326,2.1363369963369965
4.4510880849993555,2.673040293040293,0.7478388278388278,0.27238095238095233
4.455317551000917,2.673040293040293,0.7478388278388278,0.27238095238095233
4.45804327299993,2.673040293040293,0.7478388278388278,0.27238095238095233
4.4611017770002945,2.673040293040293,0.7478388278388278,0.27238095238095233
4.465823255999567,2.673040293040293,0.7478388278388278,0.27238095238095233
4.47133421000035,2.673040293040293,0.7478388278388278,0.27238095238095233
4.473578491000808,3.3,3.3,1.9034432234432233
4.473793847000707,3.3,3.3,1.9034432234432233
4.478826938999191,3.3,3.3,1.9034432234432233
4.4856933880000724,2.589230769230769,3.03003663003663,1.244249084249084
4.491190549000748,2.7004395604395603,0.909010989010989,0.30542124542124544
4.491322588999537,3.3,3.3,1.9348717948717948
4.495792297999287,3.3,3.3,1.9348717948717948
4.496697098000368,3.3,0.6487179487179486,0.25223443223443226
4.4986468110000715,3.3,0.6487179487179486,0.25223443223443226
4.500749177999751,3.3,0.6487179487179486,0.25223443223443226
4.501985409999179,3.3,0.6487179487179486,0.25223443223443226
4.502262605999931,3.3,0.6487179487179486,0.25223443223443226
4.506962116000068,3.3,0.6487179487179486,0.25223443223443226
4.507062409000355,3.3,0.6487179487179486,0.25223443223443226
4.51237590799974,3.3,0.6487179487179486,0.25223443223443226
4.519521444999555,3.3,3.3,1.9920879120879118
4.5252910679992056,3.3,3.3,1.9920879120879118
4.533191002999956,3.3,3.3,1.9920879120879118
4.538495254999361,3.3,3.3,1.9920879120879118
4.539339379000012,2.702051282051282,1.66007326007326,1.1265934065934065
4.540899966999859,2.702051282051282,1.66007326007326,1.1265934065934065
4.545336151999436,2.702051282051282,1.66007326007326,1.1265934065934065
4.545686518000366,2.702051282051282,1.66007326007326,1.1265934065934065
4.552527636000377,2.702051282051282,1.66007326007326,1.1265934065934065
4.556586832999528,2.702051282051282,2.1097435897435894,1.3482051282051282
4.559730696999395,2.702051282051282,2.1097435897435894,1.3482051282051282
4.561283835000722,2.702051282051282,2.1097435897435894,1.3482051282051282
4.5697656930005905,2.702051282051282,2.1097435897435894,1.3482051282051282
4.576036469999963,2.702051282051282,2.1097435897435894,1.3482051282051282
4.580849415000557,3.063882783882784,0.5632967032967032,0.27076923076923076
4.591682791999119,3.063882783882784,0.5632967032967032,0.27076923076923076
4.600928503999967,2.7036630036630034,1.6431501831501831,0.9493040293040291
4.60514602100011,2.7036630036630034,1.6431501831501831,0.9493040293040291
4.607436456999494,2.7036630036630034,1.6431501831501831,0.9493040293040291
4.6083348840002145,2.7036630036630034,1.6431501831501831,0.9493040293040291
4.6109415640003135,2.7036630036630034,1.6431501831501831,0.9493040293040291
4.615843843999755,2.7036630036630034,1.6431501831501831,0.9493040293040291
4.620989286000622,2.7036630036630034,1.6431501831501831,0.9493040293040291
4.623375877999933,2.7036630036630034,1.6431501831501831,0.9493040293040291
4.623585089999324,2.7036630036630034,1.6431501831501831,0.9493040293040291
4.628261458999987,2.7036630036630034,3.3,2.5521611721611723
4.62847802000033,2.7036630036630034,3.3,2.5521611721611723
4.636195171999134,2.7036630036630034,3.3,2.5521611721611723
4.64011173200015,2.7036630036630034,3.3,2.5521611721611723
4.643864808000217,2.7036630036630034,3.3,2.5521611721611723
4.652493579000293,2.7036630036630034,3.3,2.5521611721611723
4.657119023000632,2.3635897435897433,2.1589010989010986,1.2265201465201465
4.657390291000411,2.3635897435897433,2.1589010989010986,1.2265201465201465
4.662242005000735,2.9776556776556777,3.3,1.1878388278388277
4.669906769999216,2.9776556776556777,3.3,1.1878388278388277
4.674470824000309,2.9776556776556777,3.3,1.1878388278388277
4.675420306000888,2.7004395604395603,2.398241758241758,1.585934065934066
4.676278712999192,2.7004395604395603,2.398241758241758,1.585934065934066
4.677895294000336,2.7004395604395603,2.398241758241758,1.585934065934066
4.685070158999224,2.7004395604395603,2.398241758241758,1.585934065934066
4.688982208999732,2.7004395604395603,2.398241758241758,1.585934065934066
4.693431318000876,2.7004395604395603,2.398241758241758,1.585934065934066
4.694283164000808,2.7004395604395603,2.398241758241758,1.585934065934066
4.696038881000277,2.7004395604395603,2.398241758241758,1.585934065934066
4.701837340999191,2.7004395604395603,2.398241758241758,1.585934065934066
4.705009716999484,2.7004395604395603,2.398241758241758,1.585934065934066
4.705950356999892,2.7036630036630034,3.3,2.452234432234432
4.707515494999825,2.7036630036630034,3.3,2.452234432234432
4.711933966000288,2.7036630036630034,3.3,2.452234432234432
4.713633539999137,2.7036630036630034,3.3,2.452234432234432
4.721198881999953,2.7036630036630034,3.3,2.452234432234432
4.727063958000144,2.6706227106227107,0.5568498168498168,0.25465201465201465
4.736215392000304,2.6706227106227107,0.5568498168498168,0.25465201465201465
4.74338521000027,2.9309157509157506,0.4802930402930403,0.18615384615384614
4.750597189000473,2.9309157509157506,0.4802930402930403,0.18615384615384614
4.755208999000388,2.677069597069597,0.5028571428571429,0.27399267399267396
4.763745727999776,2.677069597069597,0.5028571428571429,0.27399267399267396
4.771399092000138,2.677069597069597,0.5028571428571429,0.27399267399267396
4.777577114000451,2.677069597069597,0.5028571428571429,0.27399267399267396
4.7846035469992785,2.677069597069597,0.5028571428571429,0.27399267399267396
4.787720657999671,3.1356043956043953,0.28124542124542123,0.18454212454212454
4.7900297489995864,3.1356043956043953,0.28124542124542123,0.18454212454212454
4.790283460000865,2.705274725274725,2.8616117216117214,2.01062271062271
4.795469479999156,2.705274725274725,2.8616117216117214,2.01062271062271
4.802984612999353,3.3,0.6463003663003662,0.22644688644688646
4.806390100000499,2.652087912087912,0.3223443223443223,0.2683516483516483
4.80671146900022,2.652087912087912,0.3223443223443223,0.2683516483516483
4.8118125410001085,2.652087912087912,0.3223443223443223,0.2683516483516483
4.815612758000498,3.3,3.3,1.88007326007326
4.822715914999208,3.3,3.3,1.88007326007326
4.82647716899919,3.3,3.3,1.88007326007326
4.831650456999341,3.3,3.3,1.88007326007326
4.834549331000744,3.3,3.3,1.88007326007326
4.839003025999773,3.3,3.3,1.88007326007326
4.83925103600086,3.3,3.3,1.88007326007326
4.844433287000356,3.3,3.3,1.88007326007326
4.84989022300033,3.3,3.3,1.88007326007326
4.850388491000558,2.702051282051282,2.958315018315018,2.01062271062271
4.855654499000593,2.702051282051282,2.958315018315018,2.01062271062271
4.856066850999923,2.702051282051282,2.958315018315018,2.01062271062271
4.8647430569999415,2.7036630036630034,0.6873992673992674,0.2772161172161172
4.870899801999258,2.6617582417582417,0.4142124542124542,0.2756043956043956
4.876798048999262,2.6617582417582417,0.4142124542124542,0.2756043956043956
4.883829121999952,2.6617582417582417,0.4142124542124542,0.2756043956043956
4.889662785999462,2.6649816849816848,0.3336263736263736,0.3376556776556776
4.897749465999368,2.7004395604395603,3.3,2.6915750915750913
4.903644312000324,2.7286446886446885,2.2475457875457874,1.4626373626373625
4.907325316000424,2.7286446886446885,2.2475457875457874,1.4626373626373625
4.911817635000261,2.7286446886446885,2.2475457875457874,1.4626373626373625
4.912914249000096,2.7286446886446885,2.2475457875457874,1.4626373626373625
4.913382065000405,2.7286446886446885,2.2475457875457874,1.4626373626373625
4.918899853000767,2.7286446886446885,2.2475457875457874,1.4626373626373625
4.919081493000704,3.3,3.3,1.1499633699633698
4.924300889000733,3.3,3.3,1.1499633699633698
4.92734651399951,3.3,3.3,1.1499633699633698
4.930551217999891,2.781025641025641,0.9484981684981684,0.7430036630036629
4.931851331999496,2.781025641025641,0.9484981684981684,0.7430036630036629
4.9386303259998385,2.702051282051282,2.573113553113553,1.7769230769230768
4.942753711999103,2.702051282051282,2.573113553113553,1.7769230769230768
4.945241261999399,2.702051282051282,2.573113553113553,1.7769230769230768
4.953005376999499,2.702051282051282,2.573113553113553,1.7769230769230768
4.958260942999914,2.702857142857143,2.361172161172161,1.5545054945054944
4.960719479000545,2.6778754578754578,0.9372161172161171,0.3997069597069597
4.960936261000825,2.6778754578754578,0.9372161172161171,0.3997069597069597
4.969388325000182,2.6778754578754578,0.9372161172161171,0.3997069597069597
4.973899193000761,2.6778754578754578,0.9372161172161171,0.3997069597069597
4.975537242000428,2.6778754578754578,0.9372161172161171,0.3997069597069597
4.979415372999938,2.6778754578754578,0.9372161172161171,0.3997069597069597
4.9868316289994254,2.655311355311355,0.30622710622710625,0.3183150183150183
4.99143204900065,3.3,0.26915750915750913,0.1958241758241758
4.991715262000071,2.705274725274725,2.4554578754578755,1.6197802197802196
4.997121055999742,2.705274725274725,2.4554578754578755,1.6197802197802196
5.000419309999415,2.705274725274725,2.4554578754578755,1.6197802197802196
5.0007021429992164,2.705274725274725,2.4554578754578755,1.6197802197802196
5.006410226000298,2.705274725274725,2.4554578754578755,1.6197802197802196
5.011599715000557,2.705274725274725,2.4554578754578755,1.6197802197802196
5.017618384999878,2.7278388278388275,2.42967032967033,1.684249084249084
5.021542939999563,2.7278388278388275,2.42967032967033,1.684249084249084
5.024690645999726,2.6633699633699632,0.4464468864468864,0.32717948717948714
5.027244630999121,2.7278388278388275,3.1356043956043953,2.003369963369963
5.034213205999549,2.7278388278388275,3.1356043956043953,2.003369963369963
5.038796156999524,2.705274725274725,2.7455677655677655,1.9687179487179485
5.0389025320000655,2.705274725274725,2.7455677655677655,1.9687179487179485
5.043175463999432,2.705274725274725,2.7455677655677655,1.9687179487179485
5.045441915999618,2.705274725274725,2.7455677655677655,1.9687179487179485
5.046631089000584,2.705274725274725,2.7455677655677655,1.9687179487179485
5.047052973999598,2.705274725274725,2.7455677655677655,1.9687179487179485
5.051866591000362,2.705274725274725,2.7455677655677655,1.9687179487179485
5.056311189999178,2.705274725274725,2.7455677655677655,1.9687179487179485
5.057110903999273,3.3,0.48432234432234433,0.22564102564102564
5.0589314160006325,3.3,0.48432234432234433,0.22564102564102564
5.0618798159994185,3.3,0.48432234432234433,0.22564102564102564
5.065180542000235,3.3,0.48432234432234433,0.22564102564102564
5.06603572899985,2.7036630036630034,3.3,2.6037362637362635
5.067610128999149,2.7036630036630034,3.3,2.6037362637362635
5.07202974699976,2.7036630036630034,3.3,2.6037362637362635
5.072916590999739,2.7036630036630034,3.3,2.6037362637362635
5.0744996720004565,2.7036630036630034,3.3,2.6037362637362635
5.079074887000388,2.7036630036630034,3.3,2.6037362637362635
5.079256719000114,2.7036630036630034,3.3,2.6037362637362635
5.084756415000811,2.7036630036630034,3.3,2.6037362637362635
5.0856660999997985,2.723003663003663,3.3,2.0936263736263734
5.087275481000688,2.723003663003663,3.3,2.0936263736263734
5.0916410720001295,2.3756776556776553,1.775311355311355,1.0863003663003663
5.092484429000251,2.3756776556776553,1.775311355311355,1.0863003663003663
5.094409022000036,2.3756776556776553,1.775311355311355,1.0863003663003663
5.097463158999744,2.7004395604395603,1.7245421245421246,1.1475457875457875
5.098856234999403,2.706080586080586,1.5448351648351648,0.9694505494505494
5.104514249000204,2.706080586080586,1.5448351648351648,0.9694505494505494
5.104724617000102,2.706080586080586,1.5448351648351648,0.9694505494505494
5.109254406999753,2.706080586080586,1.5448351648351648,0.9694505494505494
5.109561322000445,3.3,2.9454212454212456,1.806739926739927
5.115598811000382,3.3,2.9454212454212456,1.806739926739927
5.120129249000456,3.3,2.9454212454212456,1.806739926739927
5.120538089000547,3.3,2.9454212454212456,1.806739926739927
5.125509714000145,3.3,2.9454212454212456,1.806739926739927
5.129711290999694,3.3,2.9454212454212456,1.806739926739927
5.13223190700046,3.3,2.9454212454212456,1.806739926739927
5.137799789999917,3.3,2.9454212454212456,1.806739926739927
5.138684272000319,3.3,2.9454212454212456,1.806739926739927
5.140229038999678,3.3,2.9454212454212456,1.806739926739927
5.144119455999316,3.3,2.9454212454212456,1.806739926739927
5.148497390000557,3.3,2.9454212454212456,1.806739926739927
5.150597885000025,3.3,2.9454212454212456,1.806739926739927
5.151468763999219,3.3,2.9454212454212456,1.806739926739927
5.152973263999229,3.3,2.9454212454212456,1.806739926739927
5.15714707799998,3.3,2.9454212454212456,1.806739926739927
5.159928455999761,2.942197802197802,1.9719413919413917,0.850989010989011
5.164039809000315,2.942197802197802,1.9719413919413917,0.850989010989011
5.1674724130007235,2.942197802197802,1.9719413919413917,0.850989010989011
5.1677582049997,2.942197802197802,1.9719413919413917,0.850989010989011
5.171972535999885,2.942197802197802,1.9719413919413917,0.850989010989011
5.174752732000343,2.942197802197802,1.9719413919413917,0.850989010989011
5.178737603999252,2.942197802197802,1.9719413919413917,0.850989010989011
5.181750319999992,2.942197802197802,1.9719413919413917,0.850989010989011
5.184840384999916,3.3,0.26109890109890105,0.3706959706959707
5.186594512999363,3.3,0.26109890109890105,0.3706959706959707
5.1899226000005,3.3,0.26109890109890105,0.3706959706959707
5.190117668000312,3.3,0.26109890109890105,0.3706959706959707
5.195892425999773,3.3,0.26109890109890105,0.3706959706959707
5.196036456000002,3.2597069597069597,0.6011721611721611,0.22967032967032966
5.201328946999638,3.2597069597069597,0.6011721611721611,0.22967032967032966
5.204434418999881,2.8873992673992674,2.602124542124542,1.0742124542124543
5.20602037000026,2.8873992673992674,2.602124542124542,1.0742124542124543
5.2103629850007565,2.8873992673992674,2.602124542124542,1.0742124542124543
5.2118897039999865,2.8873992673992674,2.602124542124542,1.0742124542124543
5.21560914300062,2.8873992673992674,2.602124542124542,1.0742124542124543
5.22078993300056,2.8873992673992674,2.602124542124542,1.0742124542124543
5.2237460689993895,2.8873992673992674,2.602124542124542,1.0742124542124543
5.226705426999615,2.8873992673992674,2.602124542124542,1.0742124542124543
5.22962978599935,2.8873992673992674,2.602124542124542,1.0742124542124543
5.2319962849996955,2.8873992673992674,2.602124542124542,1.0742124542124543
5.2321995189995505,2.8873992673992674,2.602124542124542,1.0742124542124543
5.236775684999884,2.8873992673992674,2.602124542124542,1.0742124542124543
5.238425595000081,2.8873992673992674,2.602124542124542,1.0742124542124543
5.242798438999671,2.8873992673992674,2.602124542124542,1.0742124542124543
5.243125446000704,2.8873992673992674,2.602124542124542,1.0742124542124543
5.247669124000822,2.8873992673992674,2.602124542124542,1.0742124542124543
5.248624161000407,2.8873992673992674,2.602124542124542,1.0742124542124543
5.248927000000549,2.8873992673992674,2.602124542124542,1.0742124542124543
5.253485351999188,2.8873992673992674,2.602124542124542,1.0742124542124543
5.255153946000064,2.8873992673992674,2.602124542124542,1.0742124542124543
5.258839312000418,2.8873992673992674,2.602124542124542,1.0742124542124543
5.264248130999476,2.8873992673992674,2.602124542124542,1.0742124542124543
5.265952559999278,2.8873992673992674,2.602124542124542,1.0742124542124543
5.269037427000512,2.8873992673992674,2.602124542124542,1.0742124542124543
5.270656021999457,2.8873992673992674,2.602124542124542,1.0742124542124543
5.275192846000209,2.7036630036630034,2.8632234432234434,1.9743589743589742
5.275334276999274,2.7036630036630034,2.8632234432234434,1.9743589743589742
5.280579055999624,2.7036630036630034,2.8632234432234434,1.9743589743589742
5.283564381999895,2.6714285714285713,0.6648351648351648,0.26673992673992675
5.286576521000825,2.6714285714285713,0.6648351648351648,0.26673992673992675
5.289703381000436,2.6714285714285713,0.6648351648351648,0.26673992673992675
5.292081694000444,2.6714285714285713,0.6648351648351648,0.26673992673992675
5.2922458720004215,2.6714285714285713,0.6648351648351648,0.26673992673992675
5.299068065000029,2.6714285714285713,0.6648351648351648,0.26673992673992675
5.302056865999475,2.6714285714285713,0.6648351648351648,0.26673992673992675
5.305840981000074,2.6714285714285713,0.6648351648351648,0.26673992673992675
5.3104939149998245,2.6714285714285713,0.6648351648351648,0.26673992673992675
5.310693833000187,2.37003663003663,2.0686446886446883,1.2531135531135529
5.3152542839998205,2.37003663003663,2.0686446886446883,1.2531135531135529
5.315562068000872,2.7036630036630034,2.294285714285714,1.4787545787545788
5.320124322999618,2.7036630036630034,2.294285714285714,1.4787545787545788
5.321039952999854,2.7036630036630034,2.294285714285714,1.4787545787545788
5.322683338999923,2.7036630036630034,2.294285714285714,1.4787545787545788
5.326371568000468,2.7036630036630034,2.294285714285714,1.4787545787545788
5.331670117999238,2.7987545787545787,2.868864468864469,1.46021978021978
5.334759654999289,2.7987545787545787,2.868864468864469,1.46021978021978
5.336373363999883,2.7987545787545787,2.868864468864469,1.46021978021978
5.340195537999534,3.3,0.6301831501831501,0.23208791208791207
5.344214533999548,3.3,0.6301831501831501,0.23208791208791207
5.348945368999921,3.3,0.6301831501831501,0.23208791208791207
5.35419370999989,3.3,0.6301831501831501,0.23208791208791207
5.357335287999376,3.3,0.6301831501831501,0.23208791208791207
5.358985766000842,3.3,0.6301831501831501,0.23208791208791207
5.36325930699968,3.3,0.6301831501831501,0.23208791208791207
5.3654359390002355,3.3,0.6301831501831501,0.23208791208791207
5.365756817000147,3.3,0.6301831501831501,0.23208791208791207
5.373019201000716,2.705274725274725,0.9468864468864467,0.35619047619047617
5.378812098999333,3.3,3.3,1.9775824175824175
5.385883983000895,2.963150183150183,3.074358974358974,1.1298168498168497
5.390693471999839,2.6802930402930403,0.47062271062271055,0.2949450549450549
5.397575651000807,2.6802930402930403,0.47062271062271055,0.2949450549450549
5.403871820000859,2.705274725274725,2.445787545787546,1.635091575091575
5.408847661999971,2.705274725274725,2.445787545787546,1.635091575091575
5.411943720000636,2.705274725274725,2.445787545787546,1.635091575091575
5.416810747999989,2.705274725274725,2.868058608058608,1.9743589743589742
5.420208378000098,3.042124542124542,0.5004395604395604,0.17567765567765567
5.420408044999931,3.042124542124542,0.5004395604395604,0.17567765567765567
5.425721128000077,3.042124542124542,0.5004395604395604,0.17567765567765567
5.42726163000043,3.042124542124542,0.5004395604395604,0.17567765567765567
5.434534243999224,3.042124542124542,0.5004395604395604,0.17567765567765567
5.439161607999267,3.042124542124542,0.5004395604395604,0.17567765567765567
5.444178781999653,3.042124542124542,0.5004395604395604,0.17567765567765567
5.451965909000137,2.6504761904761907,0.26593406593406593,0.3449084249084249
5.455757333000292,2.6504761904761907,0.26593406593406593,0.3449084249084249
5.455861245000051,2.6504761904761907,0.26593406593406593,0.3449084249084249
5.461006510000516,2.6504761904761907,0.26593406593406593,0.3449084249084249
5.467695176999769,2.6504761904761907,0.26593406593406593,0.3449084249084249
5.473736775000361,2.7004395604395603,3.3,2.5674725274725274
5.478128901999298,2.7036630036630034,1.464249084249084,0.7849084249084248
5.478462348000903,3.2258608058608056,3.3,1.2732600732600732
5.485631592999198,3.2258608058608056,3.3,1.2732600732600732
5.489417397999205,2.7036630036630034,3.3,2.418388278388278
5.493842046000282,2.7036630036630034,3.3,2.418388278388278
5.494853789999979,2.7036630036630034,3.3,2.418388278388278
5.495870327000375,2.7036630036630034,3.3,2.418388278388278
5.497061860000031,2.7036630036630034,3.3,2.418388278388278
5.49732243499966,2.7036630036630034,3.3,2.418388278388278
5.507056700000248,2.7036630036630034,3.3,2.418388278388278
5.516737224999815,2.9518681318681317,3.3,1.0887179487179486
5.52101596600005,2.705274725274725,2.8873992673992674,2.013040293040293
5.522559884999282,2.705274725274725,2.8873992673992674,2.013040293040293
5.527053686000727,2.705274725274725,2.8873992673992674,2.013040293040293
5.527257772999292,2.705274725274725,2.8873992673992674,2.013040293040293
5.535882479000065,2.705274725274725,2.8873992673992674,2.013040293040293
5.540255701000206,2.705274725274725,2.8873992673992674,2.013040293040293
5.541844280000078,3.3,3.3,1.2515018315018314
5.54571425299946,3.3,3.3,1.2515018315018314
5.55308484499983,2.697216117216117,1.0637362637362637,0.8437362637362636
5.556856338000216,2.697216117216117,1.0637362637362637,0.8437362637362636
5.562559714000599,2.705274725274725,1.5673992673992672,1.0572893772893772
5.563072901000851,2.705274725274725,1.5673992673992672,1.0572893772893772
5.568453764000878,2.705274725274725,1.5673992673992672,1.0572893772893772
5.568637063999631,3.3,3.3,2.0267399267399266
5.573073559000477,3.3,3.3,2.0267399267399266
5.5746280109997315,3.3,3.3,2.0267399267399266
5.5801436670008115,2.797142857142857,0.7841025641025641,0.2111355311355311
5.580437176999112,2.797142857142857,0.7841025641025641,0.2111355311355311
5.588971809000213,2.797142857142857,0.7841025641025641,0.2111355311355311
5.5938685389992315,2.797142857142857,0.7841025641025641,0.2111355311355311
5.603559162000238,2.731062271062271,1.5448351648351648,1.0484249084249082
5.610115326000596,2.685128205128205,3.3,1.1668864468864468
5.615681810000751,2.6126007326007326,2.8100366300366297,1.4449084249084247
5.616017270000157,2.6126007326007326,2.8100366300366297,1.4449084249084247
5.622462630999507,2.6126007326007326,2.8100366300366297,1.4449084249084247
5.62676088400076,2.6126007326007326,2.8100366300366297,1.4449084249084247
5.627583739000329,2.6126007326007326,2.8100366300366297,1.4449084249084247
5.630906259999392,2.6126007326007326,2.8100366300366297,1.4449084249084247
5.631431144000089,2.6126007326007326,2.8100366300366297,1.4449084249084247
5.637851667999712,2.6126007326007326,2.8100366300366297,1.4449084249084247
5.640893212999799,2.6126007326007326,2.8100366300366297,1.4449084249084247
5.644535856999937,2.6126007326007326,2.8100366300366297,1.4449084249084247
5.654897693999374,2.6126007326007326,2.8100366300366297,1.4449084249084247
5.662685552000767,2.6126007326007326,2.8100366300366297,1.4449084249084247
5.669580709000002,2.655311355311355,0.3199267399267399,0.3078388278388278
5.674201304000235,2.8793406593406594,3.0235897435897434,1.5158241758241757
5.6844781349991536,2.8793406593406594,3.0235897435897434,1.5158241758241757
5.690058399000918,2.6682051282051282,0.3505494505494505,0.3158974358974359
5.695592060999843,2.449010989010989,1.5569230769230769,1.1008058608058606
5.698440992000542,2.449010989010989,1.5569230769230769,1.1008058608058606
5.7016113469999254,2.449010989010989,1.5569230769230769,1.1008058608058606
5.702481116999479,2.449010989010989,1.5569230769230769,1.1008058608058606
5.703409613999611,2.7423443223443225,0.8872527472527472,0.693040293040293
5.705090354000276,2.7423443223443225,0.8872527472527472,0.693040293040293
5.708050719000312,2.7036630036630034,3.3,2.1726007326007326
5.711015872999269,2.7036630036630034,3.3,2.1726007326007326
5.714696033999644,2.7036630036630034,3.3,2.1726007326007326
5.722412986000563,2.7036630036630034,3.3,2.1726007326007326
5.728412746999311,2.7036630036630034,3.3,2.1726007326007326
5.735060564000378,2.7036630036630034,3.3,2.1726007326007326
5.740745810999215,2.7036630036630034,3.3,2.1726007326007326
5.750110650000352,2.7036630036630034,3.3,2.1726007326007326
5.7577231070008565,2.702051282051282,2.3619780219780218,1.4134798534798534
5.765685267999288,2.702051282051282,2.3619780219780218,1.4134798534798534
5.769768972999373,2.702051282051282,2.3619780219780218,1.4134798534798534
5.7719644059998245,2.702051282051282,2.3619780219780218,1.4134798534798534
5.772229559999687,2.702051282051282,2.3619780219780218,1.4134798534798534
5.777372309999919,2.702051282051282,2.3619780219780218,1.4134798534798534
5.78383015899999,2.702051282051282,2.3619780219780218,1.4134798534798534
5.787078508999912,2.702051282051282,2.3619780219780218,1.4134798534798534
5.788828753000416,2.66014652014652,0.39567765567765567,0.32476190476190475
5.791125023999484,2.66014652014652,0.39567765567765567,0.32476190476190475
5.792098562000319,2.66014652014652,0.39567765567765567,0.32476190476190475
5.792383758000142,2.66014652014652,0.39567765567765567,0.32476190476190475
5.800234743999681,2.66014652014652,0.39567765567765567,0.32476190476190475
5.804185008000786,2.7004395604395603,1.7197069597069596,1.1668864468864468
5.808494835000602,2.7004395604395603,1.7197069597069596,1.1668864468864468
5.810518915999637,2.7004395604395603,1.7197069597069596,1.1668864468864468
5.812260628999866,2.7004395604395603,1.7197069597069596,1.1668864468864468
5.818941019999329,2.7004395604395603,1.7197069597069596,1.1668864468864468
5.822178049000286,2.7004395604395603,1.7197069597069596,1.1668864468864468
5.823169273000531,2.7004395604395603,1.7197069597069596,1.1668864468864468
5.824715146000017,2.7004395604395603,1.7197069597069596,1.1668864468864468
5.8298915489995125,2.7004395604395603,1.7197069597069596,1.1668864468864468
5.835074169999643,2.7004395604395603,1.7197069597069596,1.1668864468864468
5.835394727000676,2.705274725274725,2.7455677655677655,1.9203663003663003
5.846271517999412,2.705274725274725,2.7455677655677655,1.9203663003663003
5.853307698000208,2.705274725274725,2.7455677655677655,1.9203663003663003
5.857702582999991,2.705274725274725,2.7455677655677655,1.9203663003663003
5.859581991000596,2.705274725274725,2.7455677655677655,1.9203663003663003
5.862167196999508,2.705274725274725,2.7455677655677655,1.9203663003663003
5.868785591999767,3.3,0.28608058608058606,0.2715750915750916
5.871966885999427,3.3,0.28608058608058606,0.2715750915750916
5.873507927000901,3.3,0.28608058608058606,0.2715750915750916
5.8780574049997085,3.3,0.28608058608058606,0.2715750915750916
5.8793326480008545,2.6682051282051282,0.796996336996337,0.27399267399267396
5.879552098000204,2.6682051282051282,0.796996336996337,0.27399267399267396
5.885863646999496,2.6682051282051282,0.796996336996337,0.27399267399267396
5.890223440999762,2.6682051282051282,0.796996336996337,0.27399267399267396
5.8922562549996655,2.7246153846153844,3.04051282051282,2.032380952380952
5.893322940000871,2.723003663003663,2.133919413919414,1.2635897435897436
5.893690233999223,2.723003663003663,2.133919413919414,1.2635897435897436
5.901405811999211,2.723003663003663,2.133919413919414,1.2635897435897436
5.90528929500033,2.723003663003663,2.133919413919414,1.2635897435897436
5.909706225000264,2.723003663003663,2.133919413919414,1.2635897435897436
5.910594855000454,2.723003663003663,2.133919413919414,1.2635897435897436
5.912373174000095,2.723003663003663,2.133919413919414,1.2635897435897436
5.918094557000586,2.723003663003663,2.133919413919414,1.2635897435897436
5.922766466999747,2.706080586080586,1.5045421245421244,0.9557509157509158
5.922897763999572,2.706080586080586,1.5045421245421244,0.9557509157509158
5.928376249999928,2.706080586080586,1.5045421245421244,0.9557509157509158
5.929901800000152,2.702857142857143,3.3,2.4941391941391937
5.935825746999399,2.706886446886447,2.9067399267399265,1.9961172161172158
5.94005762300003,2.7004395604395603,2.063003663003663,1.224908424908425
5.941789514999982,2.7004395604395603,2.063003663003663,1.224908424908425
5.946657140999378,2.7004395604395603,2.063003663003663,1.224908424908425
5.9528849920006905,2.7004395604395603,2.063003663003663,1.224908424908425
5.956583043000137,2.7004395604395603,2.063003663003663,1.224908424908425
5.95668456400017,3.3,0.5632967032967032,0.15633699633699633
5.9612054219996935,3.3,0.5632967032967032,0.15633699633699633
5.962190311000086,3.3,0.5632967032967032,0.15633699633699633
5.962571901000047,3.3,0.5632967032967032,0.15633699633699633
5.970315734999531,3.3,0.5632967032967032,0.15633699633699633
5.974804735000362,3.3,0.5632967032967032,0.15633699633699633
5.97573120800007,3.3,0.5632967032967032,0.15633699633699633
5.977289443999325,3.3,0.5632967032967032,0.15633699633699633
5.986221802000728,3.3,0.5632967032967032,0.15633699633699633
5.990675093000391,3.3,0.5632967032967032,0.15633699633699633
5.99225262300024,3.3,0.5632967032967032,0.15633699633699633
5.997470095000608,3.3,0.5632967032967032,0.15633699633699633
6.001843928999733,3.3,0.5632967032967032,0.15633699633699633
6.0020525790005195,3.3,0.5632967032967032,0.15633699633699633
6.009665964000305,3.3,0.5632967032967032,0.15633699633699633
6.016250579999905,2.7036630036630034,1.1402930402930402,0.4561172161172161
6.020865136000793,2.7044688644688644,1.5915750915750915,1.075018315018315
6.03054813900053,2.6746520146520147,0.4158241758241758,0.361025641025641
6.040199884999311,2.705274725274725,3.3,2.4006593406593404
6.049140838000312,2.705274725274725,3.3,2.4006593406593404
6.053582005000862,2.705274725274725,3.3,2.4006593406593404
6.0539221210001415,2.705274725274725,3.3,2.4006593406593404
6.063799871999436,2.705274725274725,3.3,2.4006593406593404
6.071825625000201,2.705274725274725,3.3,2.4006593406593404
6.0771964529994875,2.705274725274725,3.3,2.4006593406593404
6.078796384999805,2.705274725274725,3.3,2.4006593406593404
6.0853911049998715,2.705274725274725,3.3,2.4006593406593404
6.090112166999461,2.705274725274725,3.3,2.4006593406593404
6.097327375000532,2.705274725274725,3.3,2.4006593406593404
6.102001139999629,2.705274725274725,3.3,2.4006593406593404
6.107329160000518,2.705274725274725,3.3,2.4006593406593404
6.109587585000554,2.705274725274725,3.3,2.4006593406593404
6.109847775000162,2.705274725274725,3.3,2.4006593406593404
6.116945870999189,2.705274725274725,3.3,2.4006593406593404
