time,emg1,emg2,emg3
0.032023845000367146,3.3,2.8833699633699634,1.3264468864468864
0.03236010300315684,2.6585347985347987,1.755164835164835,1.1684981684981686
0.044165413000882836,2.6585347985347987,1.755164835164835,1.1684981684981686
0.0555126380022557,2.6746520146520147,0.5375091575091575,0.24175824175824176
0.06653413200183422,2.6746520146520147,0.5375091575091575,0.24175824175824176
0.07710158800182398,2.6746520146520147,0.5375091575091575,0.24175824175824176
0.08656644300208427,2.6746520146520147,0.5375091575091575,0.24175824175824176
0.09603078100190032,2.6746520146520147,0.5375091575091575,0.24175824175824176
0.10541224700136809,2.6746520146520147,0.5375091575091575,0.24175824175824176
0.11312166300194804,2.6665934065934067,1.2772893772893772,1.0331135531135531
0.11981030600145459,2.165347985347985,0.3731135531135531,0.1241025641025641
0.12569210299989209,2.165347985347985,0.3731135531135531,0.1241025641025641
0.12978647999989334,2.6617582417582417,1.2136263736263737,1.008131868131868
0.133789097002591,2.6617582417582417,1.2136263736263737,1.008131868131868
0.13820514300095965,2.6617582417582417,1.2136263736263737,1.008131868131868
0.1491138100027456,2.6617582417582417,1.2136263736263737,1.008131868131868
0.16014209600325557,3.3,2.7117216117216114,0.8920879120879119
0.16869918400334427,3.3,2.7117216117216114,0.8920879120879119
0.1764453770010732,3.3,2.7117216117216114,0.8920879120879119
0.18391015700035496,3.3,2.7117216117216114,0.8920879120879119
0.19112805100303376,3.3,2.7117216117216114,0.8920879120879119
0.19765942000231007,2.6488644688644687,1.5609523809523809,0.8574358974358974
0.20389701500243973,3.05985347985348,0.1926007326007326,0.28930402930402926
0.2104513810008939,2.690769230769231,0.7542857142857142,0.311062271062271
0.216433733003214,2.690769230769231,0.7542857142857142,0.311062271062271
0.22481098500065855,2.690769230769231,0.7542857142857142,0.311062271062271
0.2346579120021488,2.690769230769231,0.7542857142857142,0.311062271062271
0.24417956600154866,3.3,0.18615384615384614,0.11926739926739927
0.2531228120024025,3.3,0.18615384615384614,0.11926739926739927
0.2613680490030674,3.3,0.18615384615384614,0.11926739926739927
0.2687300920006237,2.7197802197802194,0.29736263736263735,0.24095238095238095
0.2775074199998926,2.4272527472527474,0.47142857142857136,0.18534798534798536
0.28520876400216366,2.4272527472527474,0.47142857142857136,0.18534798534798536
0.2938880399997288,2.4272527472527474,0.47142857142857136,0.18534798534798536
0.3013697320020583,2.4272527472527474,0.47142857142857136,0.18534798534798536
0.3081080620031571,2.4272527472527474,0.47142857142857136,0.18534798534798536
0.31470282500231406,2.4272527472527474,0.47142857142857136,0.18534798534798536
0.3208849430011469,3.3,0.3432967032967033,0.1821245421245421
0.3266416170008597,2.655311355311355,1.0701831501831502,0.7373626373626374
0.3320880480023334,2.655311355311355,1.0701831501831502,0.7373626373626374
0.33370713400290697,2.655311355311355,1.0701831501831502,0.7373626373626374
0.3376070640006219,2.655311355311355,1.0701831501831502,0.7373626373626374
0.3460815899998124,2.655311355311355,1.0701831501831502,0.7373626373626374
0.352812167002412,2.655311355311355,1.0701831501831502,0.7373626373626374
0.3590376530009962,2.655311355311355,1.0701831501831502,0.7373626373626374
0.3654251700027089,2.655311355311355,1.0701831501831502,0.7373626373626374
0.3713243380007043,2.6673992673992672,0.9775091575091575,0.6825641025641025
0.380082437000965,2.6673992673992672,0.9775091575091575,0.6825641025641025
0.38677808200009167,2.6673992673992672,0.9775091575091575,0.6825641025641025
0.39165224600219517,2.6536996336996337,0.7002930402930403,0.49238095238095236
0.39736215000084485,2.6536996336996337,0.7002930402930403,0.49238095238095236
0.40479114499976276,2.6536996336996337,0.7002930402930403,0.49238095238095236
0.41079544100284693,2.6536996336996337,0.7002930402930403,0.49238095238095236
0.41477208500145935,3.3,0.3545787545787546,0.13457875457875457
0.4175901380003779,3.3,0.3545787545787546,0.13457875457875457
0.4232738230020914,3.3,0.3545787545787546,0.13457875457875457
0.434399908001069,2.6875457875457873,0.5657142857142857,0.20146520146520144
0.4464197030029027,3.3,0.9726739926739927,0.3843956043956044
0.4568484840019664,3.3,0.9726739926739927,0.3843956043956044
0.4680540710032801,3.3,0.9726739926739927,0.3843956043956044
0.4785225610030466,3.3,0.9726739926739927,0.3843956043956044
0.4870762750033464,3.3,0.9726739926739927,0.3843956043956044
0.49553520400149864,3.3,0.9726739926739927,0.3843956043956044
0.5029994329997862,3.3,0.9726739926739927,0.3843956043956044
0.508721191999939,3.3,0.9726739926739927,0.3843956043956044
0.5178208910001558,3.3,0.9726739926739927,0.3843956043956044
0.524093616000755,3.3,0.9339926739926739,0.6954578754578754
0.5301232470010291,3.3,0.7446153846153846,0.31509157509157504
0.5356092360016191,2.6657875457875457,0.713992673992674,0.1515018315018315
0.5359133620004286,2.6657875457875457,0.713992673992674,0.1515018315018315
0.5450600559997838,2.6657875457875457,0.713992673992674,0.1515018315018315
0.550346048999927,2.6665934065934067,1.1983150183150182,0.921098901098901
0.5539288310028496,2.6665934065934067,1.1983150183150182,0.921098901098901
0.5611053050015471,2.6665934065934067,1.1983150183150182,0.921098901098901
0.5652402520026953,2.6665934065934067,1.1983150183150182,0.921098901098901
0.5677889170001436,2.6665934065934067,1.1983150183150182,0.921098901098901
0.5761084180012404,2.6665934065934067,1.1983150183150182,0.921098901098901
0.5828993920003995,2.6665934065934067,1.1983150183150182,0.921098901098901
0.5888466380019963,2.6665934065934067,1.1983150183150182,0.921098901098901
0.5949579360021744,2.6665934065934067,1.1983150183150182,0.921098901098901
0.5983962500031339,2.698827838827839,0.6503296703296703,0.3263736263736263
0.5986541110032704,2.698827838827839,0.6503296703296703,0.3263736263736263
0.6041752230012207,2.698827838827839,0.6503296703296703,0.3263736263736263
0.6044893710022734,2.698827838827839,0.6503296703296703,0.3263736263736263
0.6123931910005922,2.698827838827839,0.6503296703296703,0.3263736263736263
0.6169503270029963,2.698827838827839,0.6503296703296703,0.3263736263736263
0.617090180003288,2.698827838827839,0.6503296703296703,0.3263736263736263
0.6221647530001064,2.698827838827839,0.6503296703296703,0.3263736263736263
0.6318482720016618,2.698827838827839,0.6503296703296703,0.3263736263736263
0.6375542510031664,2.698827838827839,0.6503296703296703,0.3263736263736263
0.6377654429998074,2.6794871794871793,0.6527472527472526,0.24175824175824176
0.6475938069997937,2.6794871794871793,0.6527472527472526,0.24175824175824176
0.6557631390023744,2.6682051282051282,1.2450549450549449,0.9686446886446887
0.6636668890023429,2.6682051282051282,1.2450549450549449,0.9686446886446887
0.6714577230013674,2.6682051282051282,1.2450549450549449,0.9686446886446887
0.67955202200028,2.6682051282051282,1.2450549450549449,0.9686446886446887
0.6857791020011064,2.6682051282051282,1.2450549450549449,0.9686446886446887
0.6903200820015627,2.6682051282051282,1.2450549450549449,0.9686446886446887
0.6905034840019653,3.3,2.9220512820512816,0.8832234432234431
0.6986245490006695,3.3,2.9220512820512816,0.8832234432234431
0.7037731900018116,3.3,2.9220512820512816,0.8832234432234431
0.7076514990003488,3.3,2.9220512820512816,0.8832234432234431
0.7114101960032713,3.3,2.9220512820512816,0.8832234432234431
0.7155538080005499,3.3,0.332014652014652,0.13216117216117215
0.7191633900001762,2.6649816849816848,0.5697435897435897,0.24095238095238095
0.7264083710033447,2.6649816849816848,0.5697435897435897,0.24095238095238095
0.7316016380027577,3.3,0.5778021978021978,0.2796336996336996
0.7340728340022906,3.3,0.5778021978021978,0.2796336996336996
0.7414203610023833,3.3,0.5778021978021978,0.2796336996336996
0.7482591650004906,3.3,0.5778021978021978,0.2796336996336996
0.75223317900236,3.3,0.5778021978021978,0.2796336996336996
0.7576686900029017,1.9074725274725273,0.13296703296703297,0.04673992673992674
0.759481668999797,1.9074725274725273,0.13296703296703297,0.04673992673992674
0.7626844900005381,1.9074725274725273,0.13296703296703297,0.04673992673992674
0.7635748560023785,1.9074725274725273,0.13296703296703297,0.04673992673992674
0.7655433260006248,1.9074725274725273,0.13296703296703297,0.04673992673992674
0.7672646430000896,1.9074725274725273,0.13296703296703297,0.04673992673992674
0.7713339399997494,1.9074725274725273,0.13296703296703297,0.04673992673992674
0.7748821100030909,2.9945787545787543,0.17084249084249084,0.12007326007326008
0.7813702410021506,2.7238095238095235,1.9816117216117215,1.236996336996337
0.7854129229999671,2.7238095238095235,1.9816117216117215,1.236996336996337
0.7888580890030426,3.001831501831502,0.4496703296703296,0.14505494505494507
0.7890279140010534,3.001831501831502,0.4496703296703296,0.14505494505494507
0.7973062570017646,3.001831501831502,0.4496703296703296,0.14505494505494507
0.8048194390030403,2.02029304029304,0.1095970695970696,0.11765567765567764
0.8117879340024956,3.029230769230769,1.448131868131868,1.1975091575091574
0.8176246350012661,2.6504761904761907,0.14344322344322344,0.08703296703296703
0.827481168002123,2.6504761904761907,0.14344322344322344,0.08703296703296703
0.8354033450013958,2.6504761904761907,0.14344322344322344,0.08703296703296703
0.840979022999818,2.6504761904761907,0.14344322344322344,0.08703296703296703
0.8411342950021208,2.6649816849816848,1.3844688644688645,1.1104761904761904
0.8480652430007467,2.6649816849816848,1.3844688644688645,1.1104761904761904
0.8517688960018859,2.6649816849816848,1.3844688644688645,1.1104761904761904
0.8581227040012891,2.781025641025641,0.14908424908424908,0.20388278388278389
0.8621077280004101,2.7004395604395603,1.838168498168498,1.1709157509157508
0.8654579930007458,2.7004395604395603,1.838168498168498,1.1709157509157508
0.8657246900002065,2.7004395604395603,1.838168498168498,1.1709157509157508
0.8706960600029561,2.7004395604395603,1.838168498168498,1.1709157509157508
0.8762870270002168,2.7004395604395603,1.838168498168498,1.1709157509157508
0.8765434810011357,2.7004395604395603,1.838168498168498,1.1709157509157508
0.8821119710009953,2.7004395604395603,1.838168498168498,1.1709157509157508
0.8824510459999146,2.7004395604395603,1.838168498168498,1.1709157509157508
0.8873636349999288,2.7004395604395603,1.838168498168498,1.1709157509157508
0.8976318540007924,3.029230769230769,0.5697435897435897,0.3295970695970696
0.9032932330010226,3.029230769230769,0.5697435897435897,0.3295970695970696
0.9042260450005415,3.029230769230769,0.5697435897435897,0.3295970695970696
0.9053236150029988,3.029230769230769,0.5697435897435897,0.3295970695970696
0.9056430850032484,3.029230769230769,0.5697435897435897,0.3295970695970696
0.9139856780020637,3.029230769230769,0.5697435897435897,0.3295970695970696
0.9188524440032779,3.029230769230769,0.5697435897435897,0.3295970695970696
0.9277055359998485,2.702051282051282,0.7164102564102564,0.3731135531135531
0.9331579110003076,2.7004395604395603,1.290989010989011,1.0387545787545787
0.9334339570013981,3.1807326007326004,0.1386080586080586,0.09186813186813186
0.9397586390005017,3.1807326007326004,0.1386080586080586,0.09186813186813186
0.9451401180012908,3.1807326007326004,0.1386080586080586,0.09186813186813186
0.9453505460005545,3.1807326007326004,0.1386080586080586,0.09186813186813186
0.9515410460007843,3.1807326007326004,0.1386080586080586,0.09186813186813186
0.9563889150012983,3.1807326007326004,0.1386080586080586,0.09186813186813186
0.9640378460026113,3.1807326007326004,0.1386080586080586,0.09186813186813186
0.9690632210003969,3.1807326007326004,0.1386080586080586,0.09186813186813186
0.9753685370014864,3.3,2.242710622710623,0.9315750915750916
0.9801327470013348,3.3,2.242710622710623,0.9315750915750916
0.9852023600033135,3.1775091575091574,1.872014652014652,1.1862271062271061
0.9884705090007628,3.1775091575091574,1.872014652014652,1.1862271062271061
0.9904922400019132,2.6488644688644687,0.701098901098901,0.15956043956043955
0.9922138100009761,2.6488644688644687,0.701098901098901,0.15956043956043955
0.9954510280003888,2.6488644688644687,0.701098901098901,0.15956043956043955
0.9956949100014754,2.6488644688644687,0.701098901098901,0.15956043956043955
1.0018115730017598,2.6488644688644687,0.701098901098901,0.15956043956043955
1.0100999730020703,2.6665934065934067,1.2345787545787545,0.6720879120879121
1.0147790390001319,2.6665934065934067,1.2345787545787545,0.6720879120879121
1.0209182160033379,2.6665934065934067,1.2345787545787545,0.6720879120879121
1.028810487001465,2.6665934065934067,1.2345787545787545,0.6720879120879121
1.034603126001457,2.6665934065934067,1.2345787545787545,0.6720879120879121
1.0410999289997562,2.698827838827839,1.1314285714285715,0.7164102564102564
1.0452707960030239,2.6673992673992672,1.3095238095238093,1.0903296703296703
1.0479833470017184,2.6673992673992672,1.3095238095238093,1.0903296703296703
1.0520491850002145,2.6673992673992672,1.3095238095238093,1.0903296703296703
1.054588392002188,2.6673992673992672,1.3095238095238093,1.0903296703296703
1.0547239070001524,2.6673992673992672,1.3095238095238093,1.0903296703296703
1.0636121970019303,2.6673992673992672,1.3095238095238093,1.0903296703296703
1.0698319140028616,2.6673992673992672,1.3095238095238093,1.0903296703296703
1.0763888920009776,2.6673992673992672,1.3095238095238093,1.0903296703296703
1.0814704750009696,2.415164835164835,0.12007326007326008,0.10637362637362638
1.0855511300032958,2.6585347985347987,1.0194139194139193,0.684981684981685
1.088697293002042,2.6665934065934067,1.0186080586080586,0.755091575091575
1.0896024700014095,2.6665934065934067,1.0186080586080586,0.755091575091575
1.0905794340033026,2.6665934065934067,1.0186080586080586,0.755091575091575
1.0926891529998102,2.6665934065934067,1.0186080586080586,0.755091575091575
1.0930490710015874,2.6665934065934067,1.0186080586080586,0.755091575091575
1.0986624880024465,2.6665934065934067,1.0186080586080586,0.755091575091575
1.0988948290032567,2.655311355311355,0.3183150183150183,0.2635164835164835
1.1063011480000569,2.655311355311355,0.3183150183150183,0.2635164835164835
1.1143122560024494,2.655311355311355,0.3183150183150183,0.2635164835164835
1.1193320550009958,2.655311355311355,0.3183150183150183,0.2635164835164835
1.1237910540003213,2.6738461538461538,1.3369230769230769,1.1201465201465202
1.124126922000869,2.6738461538461538,1.3369230769230769,1.1201465201465202
1.1314034150018415,2.6738461538461538,1.3369230769230769,1.1201465201465202
1.1378452190001553,2.6738461538461538,1.3369230769230769,1.1201465201465202
1.1420732010010397,1.8123809523809524,1.5158241758241757,1.0613186813186812
1.1426732940017246,1.8123809523809524,1.5158241758241757,1.0613186813186812
1.1482146810012637,2.8777289377289375,0.5987545787545787,0.2909157509157509
1.156928827000229,2.8777289377289375,0.5987545787545787,0.2909157509157509
1.1650526310004352,2.8777289377289375,0.5987545787545787,0.2909157509157509
1.1695436080008221,2.6633699633699632,1.3546520146520145,1.1346520146520145
1.169798343002185,2.6633699633699632,1.3546520146520145,1.1346520146520145
1.1785452870026347,2.6633699633699632,1.3546520146520145,1.1346520146520145
1.182532988001185,1.7197069597069596,0.0838095238095238,0.06608058608058608
1.1888662710007338,1.7197069597069596,0.0838095238095238,0.06608058608058608
1.1946742340005585,2.652087912087912,0.7188278388278388,0.4835164835164835
1.197913536001579,2.652087912087912,0.7188278388278388,0.4835164835164835
1.198798864003038,2.652087912087912,0.7188278388278388,0.4835164835164835
1.2007243760017445,2.652087912087912,0.7188278388278388,0.4835164835164835
1.2048610060010105,2.652087912087912,0.7188278388278388,0.4835164835164835
1.2056955660009407,2.652087912087912,0.7188278388278388,0.4835164835164835
1.2083419450027577,2.652087912087912,0.7188278388278388,0.4835164835164835
1.2153401610012224,2.652087912087912,0.7188278388278388,0.4835164835164835
1.2218987870001001,2.652087912087912,0.7188278388278388,0.4835164835164835
1.2261184030030563,2.652087912087912,0.7188278388278388,0.4835164835164835
1.2292761800017615,3.3,0.6156776556776556,0.2071062271062271
1.229690981002932,3.3,2.6230769230769226,0.9114285714285715
1.2352522330002103,3.3,2.6230769230769226,0.9114285714285715
1.23557756000082,3.3,2.6230769230769226,0.9114285714285715
1.2444111690019781,3.3,2.6230769230769226,0.9114285714285715
1.2514583910015062,3.3,2.6230769230769226,0.9114285714285715
1.2571144950015878,3.3,2.6230769230769226,0.9114285714285715
1.2649919410032453,3.3,2.6230769230769226,0.9114285714285715
1.2714040570026555,2.7004395604395603,1.2643956043956044,1.0339194139194139
1.2778882700004033,3.3,2.577948717948718,0.8252014652014652
1.283444122000219,3.3,0.24014652014652016,0.24014652014652016
1.2835990370003856,3.3,0.24014652014652016,0.24014652014652016
1.2934944000007818,3.3,0.24014652014652016,0.24014652014652016
1.3021484930031875,3.3,0.24014652014652016,0.24014652014652016
1.3094040470023174,3.3,0.24014652014652016,0.24014652014652016
1.3152769190019171,3.3,2.690769230769231,0.8735531135531135
1.3195036510005593,3.3,2.690769230769231,0.8735531135531135
1.320939413002634,3.3,2.690769230769231,0.8735531135531135
1.327904028003104,3.3,2.690769230769231,0.8735531135531135
1.3333294380026928,3.3,2.690769230769231,0.8735531135531135
1.3335782190006285,3.3,2.690769230769231,0.8735531135531135
1.3403536220030219,3.3,2.690769230769231,0.8735531135531135
1.346392569001182,3.3,2.690769230769231,0.8735531135531135
1.3524456580016704,3.3,2.690769230769231,0.8735531135531135
1.3586687990027713,3.3,2.690769230769231,0.8735531135531135
1.3643975590021,3.3,2.690769230769231,0.8735531135531135
1.3693608560024586,2.6762637362637363,1.0919413919413918,0.7784615384615384
1.372882143001334,2.6762637362637363,1.0919413919413918,0.7784615384615384
1.373023493000801,2.6762637362637363,1.0919413919413918,0.7784615384615384
1.3808425580027688,2.6762637362637363,1.0919413919413918,0.7784615384615384
1.3847434939998493,2.6762637362637363,1.0919413919413918,0.7784615384615384
1.3888866800007236,2.6762637362637363,1.0919413919413918,0.7784615384615384
1.3919425740023144,2.6762637362637363,1.0919413919413918,0.7784615384615384
1.395160082000075,2.6762637362637363,1.0919413919413918,0.7784615384615384
1.395579350002663,2.698827838827839,1.9558241758241757,1.257142857142857
1.4017754230007995,2.698827838827839,1.9558241758241757,1.257142857142857
1.406278911003028,2.698827838827839,1.9558241758241757,1.257142857142857
1.4065274050008156,2.698827838827839,1.9558241758241757,1.257142857142857
1.41576778200033,2.698827838827839,1.9558241758241757,1.257142857142857
1.4238832930022909,2.698827838827839,1.9558241758241757,1.257142857142857
1.4316377499999362,2.698827838827839,1.9558241758241757,1.257142857142857
1.4374826260027476,3.3,2.1315018315018315,0.776043956043956
1.4442868900005124,3.3,2.1315018315018315,0.776043956043956
1.4498769560013898,3.3,2.1315018315018315,0.776043956043956
1.450132656002097,3.3,2.1315018315018315,0.776043956043956
1.4586373220008682,3.3,2.1315018315018315,0.776043956043956
1.4656115060024604,3.3,2.1315018315018315,0.776043956043956
1.4697064570027578,3.3,2.1315018315018315,0.776043956043956
1.472464240003319,3.3,2.1315018315018315,0.776043956043956
1.4783698470018862,3.3,2.1315018315018315,0.776043956043956
1.4848023850026948,3.3,2.9196336996336996,1.2732600732600732
1.4886498560008476,2.6665934065934067,1.0927472527472526,0.7994139194139194
1.4946068019999075,2.6665934065934067,1.0927472527472526,0.7994139194139194
1.500415733000409,2.6665934065934067,1.0927472527472526,0.7994139194139194
1.5053092920024937,2.6665934065934067,1.0927472527472526,0.7994139194139194
1.5111863279998943,2.6665934065934067,1.0927472527472526,0.7994139194139194
1.5172222500004864,2.6665934065934067,1.0927472527472526,0.7994139194139194
1.521590948002995,2.6665934065934067,1.0927472527472526,0.7994139194139194
1.5233722690027207,2.6665934065934067,1.0927472527472526,0.7994139194139194
1.5289430970005924,2.6665934065934067,1.0927472527472526,0.7994139194139194
1.5349449130007997,3.3,0.2651282051282051,0.1095970695970696
1.5401242910011206,3.3,0.2651282051282051,0.1095970695970696
1.5448474830009218,3.3,1.4134798534798534,1.1693040293040293
1.5499631960010447,3.3,1.4134798534798534,1.1693040293040293
1.551657685002283,3.3,3.026007326007326,0.8534065934065934
1.5559727360014222,3.3,3.026007326007326,0.8534065934065934
1.556974736002303,2.7246153846153844,2.0428571428571427,1.2104029304029302
1.5587709770006768,2.7246153846153844,2.0428571428571427,1.2104029304029302
1.5632303190031962,2.7246153846153844,2.0428571428571427,1.2104029304029302
1.5691361950011924,2.7246153846153844,2.0428571428571427,1.2104029304029302
1.5744712070008973,2.7246153846153844,2.0428571428571427,1.2104029304029302
1.5775360520019603,2.7246153846153844,2.0428571428571427,1.2104029304029302
1.5803281440021237,2.7246153846153844,2.0428571428571427,1.2104029304029302
1.5834502890029398,2.7246153846153844,2.0428571428571427,1.2104029304029302
1.5845424159997492,2.7246153846153844,2.0428571428571427,1.2104029304029302
1.584853356001986,2.7246153846153844,2.0428571428571427,1.2104029304029302
1.589879513001506,2.7246153846153844,2.0428571428571427,1.2104029304029302
1.5947080940022715,2.7246153846153844,2.0428571428571427,1.2104029304029302
1.5981789780016697,2.7246153846153844,2.0428571428571427,1.2104029304029302
1.5983309820003342,2.7246153846153844,2.0428571428571427,1.2104029304029302
1.6039582810008142,2.7246153846153844,2.0428571428571427,1.2104029304029302
1.6051693340014026,2.7246153846153844,2.0428571428571427,1.2104029304029302
1.6154566430013801,2.7246153846153844,2.0428571428571427,1.2104029304029302
1.6224178170014056,3.3,0.21838827838827837,0.2482051282051282
1.6284169950013165,3.3,0.21838827838827837,0.2482051282051282
1.6350444080017041,2.713333333333333,0.70996336996337,0.25142857142857145
1.6386760370005504,2.2556043956043954,0.12087912087912088,0.05882783882783882
1.638831778000167,2.2556043956043954,0.12087912087912088,0.05882783882783882
1.6471034170026542,2.2556043956043954,0.12087912087912088,0.05882783882783882
1.6549674480011163,2.2556043956043954,0.12087912087912088,0.05882783882783882
1.6610379129997455,2.6649816849816848,0.4085714285714286,0.18454212454212454
1.6666703940027219,2.6649816849816848,0.4085714285714286,0.18454212454212454
1.6668822720021126,2.6649816849816848,0.4085714285714286,0.18454212454212454
1.6742090080006164,2.6649816849816848,0.4085714285714286,0.18454212454212454
1.6810216310004762,2.6649816849816848,0.4085714285714286,0.18454212454212454
1.686630796000827,2.6649816849816848,0.4085714285714286,0.18454212454212454
1.6868705480010249,2.6649816849816848,0.4085714285714286,0.18454212454212454
1.6943088690022705,2.6649816849816848,0.4085714285714286,0.18454212454212454
1.6999920990019746,2.6649816849816848,0.4085714285714286,0.18454212454212454
1.7070771640028397,2.6649816849816848,0.4085714285714286,0.18454212454212454
1.7143553599998995,1.767252747252747,0.2868864468864469,0.09670329670329669
1.721936691999872,3.3,0.13619047619047617,0.09670329670329669
1.7292384700012917,2.6673992673992672,1.2635897435897436,0.9879853479853479
1.7363728110030934,2.6673992673992672,1.2635897435897436,0.9879853479853479
1.7397649110025668,2.1137728937728935,0.1095970695970696,0.10798534798534798
1.7400966360000893,2.1137728937728935,0.1095970695970696,0.10798534798534798
1.7462281550033367,2.1137728937728935,0.1095970695970696,0.10798534798534798
1.7520994070000597,2.1137728937728935,0.1095970695970696,0.10798534798534798
1.7602757060012664,2.6682051282051282,1.3893040293040293,0.9565567765567766
1.766988035000395,2.6682051282051282,1.3893040293040293,0.9565567765567766
1.7720188310013327,2.66014652014652,0.7413919413919414,0.49882783882783877
1.7761520210005983,3.3,0.31347985347985347,0.12168498168498168
1.7778065530001186,3.3,0.31347985347985347,0.12168498168498168
1.7834566160017857,3.3,0.31347985347985347,0.12168498168498168
1.7918375400004152,3.3,0.31347985347985347,0.12168498168498168
1.7969243430015922,3.3,0.31347985347985347,0.12168498168498168
1.8035162330015737,3.3,0.31347985347985347,0.12168498168498168
1.8078074420009216,3.3,0.31347985347985347,0.12168498168498168
1.809722463000071,3.3,0.31347985347985347,0.12168498168498168
1.8113535980010056,3.3,0.31347985347985347,0.12168498168498168
1.818462888000795,3.3,0.31347985347985347,0.12168498168498168
1.8237008590003825,3.3,2.7939194139194137,1.2192673992673992
1.8268590870029584,3.3,2.7939194139194137,1.2192673992673992
1.8271633069998643,3.3,2.7939194139194137,1.2192673992673992
1.835780600002181,3.3,2.7939194139194137,1.2192673992673992
1.8425117590013542,3.3,2.7939194139194137,1.2192673992673992
1.845779791001405,3.3,2.7939194139194137,1.2192673992673992
1.8466395980030939,3.3,2.7939194139194137,1.2192673992673992
1.8485545180010376,3.3,2.7939194139194137,1.2192673992673992
1.852815983002074,3.3,2.7939194139194137,1.2192673992673992
1.853236877002928,3.3,2.7939194139194137,1.2192673992673992
1.8600018950019148,3.3,2.7939194139194137,1.2192673992673992
1.865075928002625,3.3,2.7939194139194137,1.2192673992673992
1.869210087999818,3.3,2.7939194139194137,1.2192673992673992
1.8706660250027198,3.3,2.7939194139194137,1.2192673992673992
1.876313372002187,3.3,2.7939194139194137,1.2192673992673992
1.886180752000655,2.673040293040293,0.6350183150183151,0.2796336996336996
1.8935849780027638,2.673040293040293,0.6350183150183151,0.2796336996336996
1.8991335340033402,2.6069597069597066,0.10637362637362638,0.09912087912087912
1.899311643002875,2.6069597069597066,0.10637362637362638,0.09912087912087912
1.9064359900003183,2.6069597069597066,0.10637362637362638,0.09912087912087912
1.9153129790029197,2.6069597069597066,0.10637362637362638,0.09912087912087912
1.9231268490002549,2.6545054945054947,0.6857875457875457,0.10395604395604395
1.9316560440020112,2.6488644688644687,1.398168498168498,1.1322344322344322
1.9390858930019021,2.6488644688644687,1.398168498168498,1.1322344322344322
1.9457399920029275,2.6488644688644687,1.398168498168498,1.1322344322344322
1.9504302710010961,2.6488644688644687,1.398168498168498,1.1322344322344322
1.958761994002998,2.6488644688644687,1.398168498168498,1.1322344322344322
1.9646840630011866,2.6488644688644687,1.398168498168498,1.1322344322344322
1.9713448040020012,2.6682051282051282,1.3328937728937729,0.8767765567765567
1.9771583010005997,3.0195604395604394,0.17084249084249084,0.1378021978021978
1.9844038390001515,3.1356043956043953,1.9743589743589742,1.1757509157509156
1.9896905929999775,3.1356043956043953,1.9743589743589742,1.1757509157509156
1.9921944460002123,3.1356043956043953,1.9743589743589742,1.1757509157509156
1.9988046680009575,3.1356043956043953,1.9743589743589742,1.1757509157509156
2.004788730002474,3.1356043956043953,1.9743589743589742,1.1757509157509156
2.012539151000965,2.1750183150183147,0.4867399267399267,0.10556776556776555
2.0184789080012706,2.1750183150183147,0.4867399267399267,0.10556776556776555
2.0266547110004467,2.1750183150183147,0.4867399267399267,0.10556776556776555
2.032818337000208,2.1750183150183147,0.4867399267399267,0.10556776556776555
2.0384814780009037,2.1750183150183147,0.4867399267399267,0.10556776556776555
2.045367302001978,2.1750183150183147,0.4867399267399267,0.10556776556776555
2.0495865720004076,2.1750183150183147,0.4867399267399267,0.10556776556776555
2.0524304680002388,2.1750183150183147,0.4867399267399267,0.10556776556776555
2.055600759002118,2.1750183150183147,0.4867399267399267,0.10556776556776555
2.055910061000759,3.3,0.2232234432234432,0.195018315018315
2.0638159360023565,3.3,0.2232234432234432,0.195018315018315
2.0698314830005984,3.3,0.2232234432234432,0.195018315018315
2.0761669690000417,2.565054945054945,1.3675457875457875,0.7961904761904761
2.081783425001049,2.565054945054945,1.3675457875457875,0.7961904761904761
2.089119071002642,2.6714285714285713,1.3127472527472526,1.0548717948717947
2.0954366870028025,2.6714285714285713,1.3127472527472526,1.0548717948717947
2.1010541950017796,2.763296703296703,0.1805128205128205,0.2804395604395604
2.107608865000657,2.984102564102564,1.3909157509157508,1.1161172161172161
2.115066990001651,2.984102564102564,1.3909157509157508,1.1161172161172161
2.121476727999834,2.984102564102564,1.3909157509157508,1.1161172161172161
2.1255700980000256,2.984102564102564,1.3909157509157508,1.1161172161172161
2.1298789320026117,2.984102564102564,1.3909157509157508,1.1161172161172161
2.130083983000077,2.6150183150183146,0.26754578754578756,0.09428571428571428
2.13563648499985,2.897069597069597,0.13296703296703297,0.1095970695970696
2.1376846140010457,2.897069597069597,0.13296703296703297,0.1095970695970696
2.1385434920011903,2.897069597069597,0.13296703296703297,0.1095970695970696
2.1408148629998323,2.897069597069597,0.13296703296703297,0.1095970695970696
2.141133447003085,2.897069597069597,0.13296703296703297,0.1095970695970696
2.1500851820019307,2.897069597069597,0.13296703296703297,0.1095970695970696
2.159158483002102,1.6673260073260072,0.8066666666666666,0.49157509157509155
2.163931548002438,1.6673260073260072,0.8066666666666666,0.49157509157509155
2.1641401720007707,1.5198534798534797,0.40937728937728934,0.09025641025641025
2.169092325002566,1.5198534798534797,0.40937728937728934,0.09025641025641025
2.1751351929997327,1.5198534798534797,0.40937728937728934,0.09025641025641025
2.1823779250007647,1.5198534798534797,0.40937728937728934,0.09025641025641025
2.1872436350022326,1.5198534798534797,0.40937728937728934,0.09025641025641025
2.1942518160030886,1.5198534798534797,0.40937728937728934,0.09025641025641025
2.1974650760021177,1.5198534798534797,0.40937728937728934,0.09025641025641025
2.199134865000815,1.3635164835164835,0.5439560439560439,0.5181684981684981
2.2039438630017685,1.3635164835164835,0.5439560439560439,0.5181684981684981
2.2108832630001416,2.6536996336996337,0.7824908424908424,0.4464468864468864
2.2140604110027198,3.013113553113553,0.45692307692307693,0.15794871794871795
2.2156784020007763,2.698827838827839,1.9735531135531135,1.261978021978022
2.219860395001888,3.1130402930402927,0.2087179487179487,0.307032967032967
2.2215317730006063,3.1130402930402927,0.2087179487179487,0.307032967032967
2.226291156002844,3.1130402930402927,0.2087179487179487,0.307032967032967
2.2323564409998653,2.6585347985347987,0.6994871794871794,0.5721611721611721
2.2379381910031952,2.6585347985347987,0.6994871794871794,0.5721611721611721
2.2381906830014486,2.6585347985347987,0.6994871794871794,0.5721611721611721
2.2444421040017914,2.6585347985347987,0.6994871794871794,0.5721611721611721
2.247660587003338,2.655311355311355,0.6688644688644688,0.4416117216117216
2.2493440409998584,2.0638095238095238,0.3537728937728937,0.1095970695970696
2.25352396100061,2.0638095238095238,0.3537728937728937,0.1095970695970696
2.2560176940023666,2.0638095238095238,0.3537728937728937,0.1095970695970696
2.262784403999831,2.0638095238095238,0.3537728937728937,0.1095970695970696
2.2667468820000067,1.523882783882784,0.40776556776556777,0.06205128205128205
2.2708326160027354,3.3,0.5197802197802197,0.22886446886446887
2.2741007120021095,2.46029304029304,0.1789010989010989,0.10556776556776555
2.275228007001715,2.46029304029304,0.1789010989010989,0.10556776556776555
2.2754929790025926,2.46029304029304,0.1789010989010989,0.10556776556776555
2.2805167120022816,2.46029304029304,0.1789010989010989,0.10556776556776555
2.2852948890031257,2.46029304029304,0.1789010989010989,0.10556776556776555
2.291193049000867,2.46029304029304,0.1789010989010989,0.10556776556776555
2.2975349389998883,2.46029304029304,0.1789010989010989,0.10556776556776555
2.301668777003215,3.3,3.03003663003663,1.3151648351648353
2.30482193500211,3.3,3.03003663003663,1.3151648351648353
2.306464010001946,3.3,3.03003663003663,1.3151648351648353
2.3121531370015873,3.3,3.03003663003663,1.3151648351648353
2.319612709001376,3.3,3.03003663003663,1.3151648351648353
2.3236070900020422,2.6682051282051282,1.224102564102564,0.9605860805860806
2.329108196001471,3.3,0.6728937728937728,0.2562637362637363
2.3293498680031917,3.3,0.6728937728937728,0.2562637362637363
2.335191994003253,3.3,0.6728937728937728,0.2562637362637363
2.3423246040001686,3.3,0.6728937728937728,0.2562637362637363
2.3467070030019386,3.3,0.6728937728937728,0.2562637362637363
2.347602376001305,3.3,0.6728937728937728,0.2562637362637363
2.348541629002284,3.3,0.6728937728937728,0.2562637362637363
2.350204644000769,3.3,0.6728937728937728,0.2562637362637363
2.353699653001968,3.3,0.6728937728937728,0.2562637362637363
2.3539195230005134,3.3,0.6728937728937728,0.2562637362637363
2.3590560290031135,3.3,0.6728937728937728,0.2562637362637363
2.3635711660026573,3.3,0.6728937728937728,0.2562637362637363
2.3638574320029875,3.3,0.6728937728937728,0.2562637362637363
2.3699805390024267,3.3,0.6728937728937728,0.2562637362637363
2.373641330003011,2.763296703296703,0.23047619047619047,0.14102564102564102
2.380188631999772,2.7004395604395603,1.9622710622710622,1.199120879120879
2.3842264080012683,3.3,0.2635164835164835,0.2345054945054945
2.387808033003239,3.3,0.2635164835164835,0.2345054945054945
2.3880237820012553,3.3,1.0782417582417583,0.45772893772893775
2.393358055000135,3.3,1.0782417582417583,0.45772893772893775
2.3963800620003894,3.3,1.0782417582417583,0.45772893772893775
2.398219605001941,2.702051282051282,1.5722344322344322,1.0516483516483515
2.400124189000053,2.702051282051282,1.5722344322344322,1.0516483516483515
2.4027622290013824,2.702051282051282,1.5722344322344322,1.0516483516483515
2.4076544680028746,2.702051282051282,1.5722344322344322,1.0516483516483515
2.4143844160025765,2.702051282051282,1.5722344322344322,1.0516483516483515
2.4175933140031702,2.6956043956043954,1.7205128205128206,1.1475457875457875
2.419311813002423,2.6956043956043954,1.7205128205128206,1.1475457875457875
2.422785593000299,2.6956043956043954,1.7205128205128206,1.1475457875457875
2.4229715840010613,2.6956043956043954,1.7205128205128206,1.1475457875457875
2.430111620000389,2.6956043956043954,1.7205128205128206,1.1475457875457875
2.4342694639999536,2.6956043956043954,1.7205128205128206,1.1475457875457875
2.437051048000285,2.6956043956043954,1.7205128205128206,1.1475457875457875
2.4406688350027252,2.6956043956043954,1.7205128205128206,1.1475457875457875
2.4408205530016858,2.6956043956043954,1.7205128205128206,1.1475457875457875
2.4473427120028646,2.6956043956043954,1.7205128205128206,1.1475457875457875
2.450484005999897,2.6956043956043954,1.7205128205128206,1.1475457875457875
2.4528822470019804,2.6956043956043954,1.7205128205128206,1.1475457875457875
2.4608731830012402,2.6956043956043954,1.7205128205128206,1.1475457875457875
2.4658169350004755,2.6956043956043954,1.7205128205128206,1.1475457875457875
2.4724872700026026,2.6956043956043954,1.7205128205128206,1.1475457875457875
2.4770517710021522,2.6956043956043954,1.7205128205128206,1.1475457875457875
2.47742061900135,2.6956043956043954,1.7205128205128206,1.1475457875457875
2.482288815001084,2.6956043956043954,1.7205128205128206,1.1475457875457875
2.486836932002916,2.6956043956043954,1.7205128205128206,1.1475457875457875
2.4871080980010447,2.6956043956043954,1.7205128205128206,1.1475457875457875
2.4929515559997526,2.6956043956043954,1.7205128205128206,1.1475457875457875
2.4993357100029243,2.6956043956043954,1.7205128205128206,1.1475457875457875
2.504089392001333,2.6956043956043954,1.7205128205128206,1.1475457875457875
2.5101761020014237,3.0936996336996336,0.502051282051282,0.21274725274725276
2.516627768000035,3.3,0.2917216117216117,0.15794871794871795
2.5218357390003803,3.3,0.2917216117216117,0.15794871794871795
2.5227569620001304,3.3,0.2917216117216117,0.15794871794871795
2.5247074340004474,3.3,0.2917216117216117,0.15794871794871795
2.5264582310010155,3.3,0.2917216117216117,0.15794871794871795
2.5319539540032565,3.3,0.2917216117216117,0.15794871794871795
2.532217211002717,3.3,0.2917216117216117,0.15794871794871795
2.5387928650015965,3.3,0.2917216117216117,0.15794871794871795
2.543594419003057,3.3,1.423956043956044,1.2176556776556777
2.5483508720026293,3.3,1.423956043956044,1.2176556776556777
2.54849813400142,3.3,1.423956043956044,1.2176556776556777
2.5533620200003497,3.3,1.423956043956044,1.2176556776556777
2.5590934280007787,3.3,1.423956043956044,1.2176556776556777
2.559366442001192,3.3,1.423956043956044,1.2176556776556777
2.564994584001397,3.3,1.423956043956044,1.2176556776556777
2.5651763010027935,2.6504761904761907,0.8719413919413919,0.51010989010989
2.5700166480019107,2.6504761904761907,0.8719413919413919,0.51010989010989
2.5701487719998113,2.6504761904761907,0.8719413919413919,0.51010989010989
2.5750528290009242,2.6504761904761907,0.8719413919413919,0.51010989010989
2.5806892390028224,2.6504761904761907,0.8719413919413919,0.51010989010989
2.5815805650017865,2.713333333333333,1.1265934065934065,0.8558241758241758
2.583230698000989,2.713333333333333,1.1265934065934065,0.8558241758241758
2.586607102002745,2.652087912087912,0.5093040293040293,0.15311355311355312
2.586917300002824,2.652087912087912,0.5093040293040293,0.15311355311355312
2.592706610001187,2.652087912087912,0.5093040293040293,0.15311355311355312
2.5983538110012887,3.3,0.37875457875457874,0.12007326007326008
2.5992471870013105,3.3,0.37875457875457874,0.12007326007326008
2.6009029310007463,3.3,0.37875457875457874,0.12007326007326008
2.6049819540021417,3.3,0.37875457875457874,0.12007326007326008
2.6098977140027273,3.3,0.37875457875457874,0.12007326007326008
2.616948612001579,2.3378021978021977,0.13135531135531134,0.04915750915750916
2.6225047140032984,1.7374358974358974,0.0975091575091575,0.08622710622710622
2.6227456930027984,1.7374358974358974,0.0975091575091575,0.08622710622710622
2.6319283320008253,1.7374358974358974,0.0975091575091575,0.08622710622710622
2.6393267860003107,1.7374358974358974,0.0975091575091575,0.08622710622710622
2.643860123000195,1.7374358974358974,0.0975091575091575,0.08622710622710622
2.64419929900032,1.7374358974358974,0.0975091575091575,0.08622710622710622
2.649133837003319,1.7374358974358974,0.0975091575091575,0.08622710622710622
2.6551196800028265,2.9647619047619047,2.3087912087912086,0.8517948717948718
2.6553342910010542,2.9647619047619047,2.3087912087912086,0.8517948717948718
2.6622299430018757,2.9647619047619047,2.3087912087912086,0.8517948717948718
2.667298877000576,2.9647619047619047,2.3087912087912086,0.8517948717948718
2.6723272210001596,3.2024908424908425,0.46175824175824176,0.15633699633699633
2.6784976690032636,3.3,1.0113553113553113,0.6761172161172161
2.684942484000203,2.6488644688644687,0.3626373626373626,0.24659340659340656
2.6899170850010705,2.6488644688644687,0.3626373626373626,0.24659340659340656
2.694814762002352,3.3,0.32476190476190475,0.13377289377289378
2.6998302200008766,3.3,0.32476190476190475,0.13377289377289378
2.7047702280033263,2.66014652014652,1.332087912087912,1.116923076923077
2.7107328020028945,2.6746520146520147,0.9033699633699634,0.5520146520146519
2.714811649002513,2.6746520146520147,0.9033699633699634,0.5520146520146519
2.7171860310008924,2.6746520146520147,0.9033699633699634,0.5520146520146519
2.7173582230025204,2.6746520146520147,0.9033699633699634,0.5520146520146519
2.7234158540013595,2.6746520146520147,0.9033699633699634,0.5520146520146519
2.728205251001782,1.1064468864468864,0.35135531135531134,0.08783882783882783
2.7340683230031573,2.5295970695970698,0.5568498168498168,0.13619047619047617
2.7408178610021423,2.5295970695970698,0.5568498168498168,0.13619047619047617
2.7449563879999914,2.5295970695970698,0.5568498168498168,0.13619047619047617
2.746636510000826,2.5295970695970698,0.5568498168498168,0.13619047619047617
2.7507407490011246,2.5295970695970698,0.5568498168498168,0.13619047619047617
2.7530999530026747,2.5295970695970698,0.5568498168498168,0.13619047619047617
2.753354100001161,2.5295970695970698,0.5568498168498168,0.13619047619047617
2.761131249000755,2.5295970695970698,0.5568498168498168,0.13619047619047617
2.7674733890016796,2.5295970695970698,0.5568498168498168,0.13619047619047617
2.772070718001487,2.5295970695970698,0.5568498168498168,0.13619047619047617
2.772187376001966,2.5295970695970698,0.5568498168498168,0.13619047619047617
2.7786913750023814,2.5295970695970698,0.5568498168498168,0.13619047619047617
2.783085322000261,3.3,2.0009523809523806,1.224102564102564
2.785590379000496,3.3,2.0009523809523806,1.224102564102564
2.7931308440020075,3.3,2.0009523809523806,1.224102564102564
2.7984808630026237,3.3,2.0009523809523806,1.224102564102564
2.8009437050022825,2.6682051282051282,1.3127472527472526,1.0975824175824174
2.8086351640013163,2.6682051282051282,0.9678388278388278,0.6398534798534798
2.8128838350021397,2.6682051282051282,0.9678388278388278,0.6398534798534798
2.815071713001089,2.6682051282051282,0.9678388278388278,0.6398534798534798
2.8155200159999367,2.6682051282051282,0.9678388278388278,0.6398534798534798
2.8213184970009024,2.6682051282051282,0.9678388278388278,0.6398534798534798
2.828630088002683,2.6682051282051282,0.9678388278388278,0.6398534798534798
2.8340385720002814,2.6682051282051282,0.9678388278388278,0.6398534798534798
2.8357523000013316,1.8784615384615382,0.11604395604395604,0.07736263736263736
2.840246432002459,1.8784615384615382,0.11604395604395604,0.07736263736263736
2.840713288002007,1.8784615384615382,0.11604395604395604,0.07736263736263736
2.8472959420032566,1.8784615384615382,0.11604395604395604,0.07736263736263736
2.8512106289999792,1.8784615384615382,0.11604395604395604,0.07736263736263736
2.8559382040002674,2.465128205128205,0.17245421245421244,0.1571428571428571
2.856239988002926,2.702051282051282,0.8783882783882784,0.4931868131868131
2.864371571002266,2.702051282051282,0.8783882783882784,0.4931868131868131
2.871725998000329,2.6665934065934067,1.0057142857142858,0.5947252747252747
2.879348677000962,1.7156776556776556,0.11765567765567764,0.08703296703296703
2.885246867001115,2.6794871794871793,0.6906227106227106,0.2909157509157509
2.8935830110021925,2.6794871794871793,0.6906227106227106,0.2909157509157509
2.897890295000252,2.6794871794871793,0.6906227106227106,0.2909157509157509
2.898810090002371,2.7004395604395603,0.7607326007326007,0.3811721611721612
2.89975822300039,2.7004395604395603,0.7607326007326007,0.3811721611721612
2.9018093360027706,2.7004395604395603,0.7607326007326007,0.3811721611721612
2.9034633970004506,2.664175824175824,0.9388278388278387,0.6189010989010989
2.9104636360025324,2.664175824175824,0.9388278388278387,0.6189010989010989
2.913852790999954,2.664175824175824,0.9388278388278387,0.6189010989010989
2.9141714760007744,2.664175824175824,0.9388278388278387,0.6189010989010989
2.9191375780028466,2.664175824175824,0.9388278388278387,0.6189010989010989
2.927877925001667,2.664175824175824,0.9388278388278387,0.6189010989010989
2.933060385999852,2.6794871794871793,1.2474725274725273,0.9904029304029303
2.9382481090033252,2.6794871794871793,1.2474725274725273,0.9904029304029303
2.9406176840020635,2.6794871794871793,1.2474725274725273,0.9904029304029303
2.947413903002598,2.6794871794871793,1.2474725274725273,0.9904029304029303
2.9514487880005618,2.6794871794871793,1.2474725274725273,0.9904029304029303
2.958771694000461,2.6794871794871793,1.2474725274725273,0.9904029304029303
2.9623466360026214,2.6794871794871793,1.2474725274725273,0.9904029304029303
2.968345971999952,2.6794871794871793,1.2474725274725273,0.9904029304029303
2.9752184090029914,2.6794871794871793,1.2474725274725273,0.9904029304029303
2.978865779001353,2.6794871794871793,1.2474725274725273,0.9904029304029303
2.979057382002793,3.3,2.8124542124542122,1.2506959706959706
2.9838800890029233,3.3,2.8124542124542122,1.2506959706959706
2.994122269003128,3.3,2.8124542124542122,1.2506959706959706
2.998996709000494,3.3,2.8124542124542122,1.2506959706959706
3.005684714000381,3.3,2.8124542124542122,1.2506959706959706
3.0117846880020807,3.3,2.8124542124542122,1.2506959706959706
3.015679910000472,2.9695970695970697,0.1095970695970696,0.0838095238095238
3.019376091000595,2.9695970695970697,0.1095970695970696,0.0838095238095238
3.0297346229999675,2.9695970695970697,0.1095970695970696,0.0838095238095238
3.036412060002476,2.9695970695970697,0.1095970695970696,0.0838095238095238
3.0430612960008148,1.7301831501831502,0.11443223443223444,0.08864468864468865
3.048148577003303,3.3,0.6873992673992674,0.25787545787545785
3.0505289220018312,3.3,0.6873992673992674,0.25787545787545785
3.0508379640014027,3.3,0.6873992673992674,0.25787545787545785
3.058616163001716,3.3,0.6873992673992674,0.25787545787545785
3.0627806520024023,3.3,2.241098901098901,1.2974358974358973
3.064745252002467,3.3,2.241098901098901,1.2974358974358973
3.066378467003233,3.3,2.241098901098901,1.2974358974358973
3.0704159010019794,3.3,2.241098901098901,1.2974358974358973
3.0774070260013104,3.3,2.241098901098901,1.2974358974358973
3.0810289700020803,3.3,2.241098901098901,1.2974358974358973
3.0872144140012097,3.3,2.241098901098901,1.2974358974358973
3.093361436000123,3.3,2.241098901098901,1.2974358974358973
3.09687901900179,2.9019047619047615,0.1265201465201465,0.10798534798534798
3.097043220001069,3.3,0.2683516483516483,0.2683516483516483
3.1016982660003123,3.3,0.2683516483516483,0.2683516483516483
3.1019575480022468,3.3,0.2683516483516483,0.2683516483516483
3.111494107000908,3.3,0.2683516483516483,0.2683516483516483
3.1187716710010136,2.6504761904761907,0.664029304029304,0.42388278388278383
3.1268755520031846,2.6504761904761907,0.664029304029304,0.42388278388278383
3.13239485899976,2.6504761904761907,0.664029304029304,0.42388278388278383
3.133245748002082,2.6504761904761907,0.664029304029304,0.42388278388278383
3.134957600002963,2.6504761904761907,0.664029304029304,0.42388278388278383
3.142927592001797,2.6504761904761907,0.664029304029304,0.42388278388278383
3.1488171119999606,2.6504761904761907,0.664029304029304,0.42388278388278383
3.153432065002562,2.714945054945055,0.664029304029304,0.1652014652014652
3.1537387880016468,2.714945054945055,0.664029304029304,0.1652014652014652
3.160885600002075,2.714945054945055,0.664029304029304,0.1652014652014652
3.164872840003227,2.714945054945055,0.664029304029304,0.1652014652014652
3.169925891001185,2.714945054945055,0.664029304029304,0.1652014652014652
3.1767179039998155,2.714945054945055,0.664029304029304,0.1652014652014652
3.180896081001265,2.714945054945055,0.664029304029304,0.1652014652014652
3.1844697800006543,2.6649816849816848,1.324029304029304,1.0887179487179486
3.1925141010033258,2.6649816849816848,1.324029304029304,1.0887179487179486
3.1975810950025334,3.261318681318681,2.024322344322344,0.8066666666666666
3.1994168360033655,3.261318681318681,2.024322344322344,0.8066666666666666
3.2018651160033187,2.6746520146520147,1.1830036630036629,0.8969230769230768
3.2020450430027267,2.6746520146520147,1.1830036630036629,0.8969230769230768
3.2100357840026845,2.6746520146520147,1.1830036630036629,0.8969230769230768
3.2150204010031302,2.6746520146520147,1.1830036630036629,0.8969230769230768
3.2190165310021257,2.7004395604395603,1.9332600732600733,1.3506227106227104
3.2236867070023436,2.7004395604395603,1.9332600732600733,1.3506227106227104
3.231470763003017,2.6665934065934067,1.1757509157509156,0.8912820512820512
3.2373184230018524,2.6665934065934067,1.1757509157509156,0.8912820512820512
3.245004237000103,2.6665934065934067,1.1757509157509156,0.8912820512820512
3.2490904980004416,2.6665934065934067,1.1757509157509156,0.8912820512820512
3.252342864001548,3.2226373626373626,0.1797069597069597,0.18857142857142856
3.2532399560004706,3.2226373626373626,0.1797069597069597,0.18857142857142856
3.255465655001899,3.2226373626373626,0.1797069597069597,0.18857142857142856
3.2557538140026736,3.2226373626373626,0.1797069597069597,0.18857142857142856
3.264845794001303,3.2226373626373626,0.1797069597069597,0.18857142857142856
3.2698027430014918,3.2226373626373626,0.1797069597069597,0.18857142857142856
3.2763697410009627,3.2226373626373626,0.1797069597069597,0.18857142857142856
3.2803058390018123,3.2226373626373626,0.1797069597069597,0.18857142857142856
3.2845068690003245,3.2226373626373626,0.1797069597069597,0.18857142857142856
3.286971536999772,2.6585347985347987,0.6809523809523809,0.4657875457875458
3.2871003720028966,2.6585347985347987,0.6809523809523809,0.4657875457875458
3.2946112280005764,2.6585347985347987,0.6809523809523809,0.4657875457875458
3.2985999410011573,2.6585347985347987,0.6809523809523809,0.4657875457875458
3.301937487001851,2.6585347985347987,0.6809523809523809,0.4657875457875458
3.3028111810017435,2.6585347985347987,0.6809523809523809,0.4657875457875458
3.3047418920032214,3.2645421245421247,0.6027838827838827,0.21516483516483517
3.308808144000068,3.2645421245421247,0.6027838827838827,0.21516483516483517
3.3099969060021976,3.3,3.0356776556776555,0.8969230769230768
3.3103590740029176,3.3,3.0356776556776555,0.8969230769230768
3.3148221090013976,3.3,3.0356776556776555,0.8969230769230768
3.3151021000012406,3.3,3.0356776556776555,0.8969230769230768
3.3225860800012015,3.3,3.0356776556776555,0.8969230769230768
3.3269619140010036,2.673040293040293,1.211208791208791,0.850989010989011
3.327242938001291,2.673040293040293,1.211208791208791,0.850989010989011
3.332141655002488,2.673040293040293,1.211208791208791,0.850989010989011
3.338469869002438,2.673040293040293,1.211208791208791,0.850989010989011
3.3433507840018137,3.3,1.5093772893772892,1.166080586080586
3.3483887080001296,3.3,1.5093772893772892,1.166080586080586
3.3510749350025435,3.3,1.5093772893772892,1.166080586080586
3.356272273002105,2.233040293040293,0.08783882783882783,0.0709157509157509
3.359654217001662,2.7197802197802194,1.963076923076923,1.4118681318681316
3.366066372000205,2.7197802197802194,1.963076923076923,1.4118681318681316
3.370134663000499,3.3,0.6366300366300366,0.22564102564102564
3.3750967430023593,3.016336996336996,0.22564102564102564,0.09509157509157509
3.3822491700011597,3.016336996336996,0.22564102564102564,0.09509157509157509
3.3866911090008216,3.016336996336996,0.22564102564102564,0.09509157509157509
3.387015082000289,3.016336996336996,0.22564102564102564,0.09509157509157509
3.396534170002269,3.016336996336996,0.22564102564102564,0.09509157509157509
3.4016432790012914,2.7117216117216114,1.41992673992674,0.9605860805860806
3.4075770000017656,2.681098901098901,0.9767032967032967,0.6656410256410257
3.4129376580021926,2.681098901098901,0.9767032967032967,0.6656410256410257
3.413870874002896,2.681098901098901,0.9767032967032967,0.6656410256410257
3.4148054610013787,2.681098901098901,0.9767032967032967,0.6656410256410257
3.4157637680000335,2.681098901098901,0.9767032967032967,0.6656410256410257
3.41748569000265,2.681098901098901,0.9767032967032967,0.6656410256410257
3.4227628350017767,2.681098901098901,0.9767032967032967,0.6656410256410257
3.426028710000537,2.681098901098901,0.9767032967032967,0.6656410256410257
3.4262371600016195,2.8229304029304028,1.9485714285714284,0.8171428571428572
3.43335867100177,2.8229304029304028,1.9485714285714284,0.8171428571428572
3.438027449999936,2.8229304029304028,1.9485714285714284,0.8171428571428572
3.4453175039998314,2.8229304029304028,1.9485714285714284,0.8171428571428572
3.450088882000273,2.440952380952381,0.5165567765567766,0.13216117216117215
3.450243497001793,2.440952380952381,0.5165567765567766,0.13216117216117215
3.4584433430027275,2.440952380952381,0.5165567765567766,0.13216117216117215
3.4626658680026594,2.484468864468864,1.5408058608058608,0.9783150183150182
3.4642683689999103,2.484468864468864,1.5408058608058608,0.9783150183150182
3.470423615002801,2.484468864468864,1.5408058608058608,0.9783150183150182
3.4783410740019463,3.3,2.996996336996337,0.8630769230769231
3.4843220000002475,2.6746520146520147,0.6519413919413919,0.30139194139194136
3.4890374840033473,2.6746520146520147,0.6519413919413919,0.30139194139194136
3.4948068400008196,2.6746520146520147,0.6519413919413919,0.30139194139194136
3.4998254890015232,2.718168498168498,1.4852014652014651,1.0403663003663002
3.5055616080026084,2.718168498168498,1.4852014652014651,1.0403663003663002
3.505724366001232,2.7004395604395603,1.1757509157509156,0.9025641025641026
3.5143808070024534,2.7004395604395603,1.1757509157509156,0.9025641025641026
3.52165688900277,2.7004395604395603,1.1757509157509156,0.9025641025641026
3.526596881001751,2.7004395604395603,1.1757509157509156,0.9025641025641026
3.530951366003137,2.7004395604395603,1.1757509157509156,0.9025641025641026
3.5312170710021746,2.7004395604395603,1.1757509157509156,0.9025641025641026
3.5399554110008467,2.7004395604395603,1.1757509157509156,0.9025641025641026
3.545414255000651,2.7004395604395603,1.1757509157509156,0.9025641025641026
3.5457281500021054,2.652087912087912,0.8767765567765567,0.4786813186813187
3.5541103050018137,2.652087912087912,0.8767765567765567,0.4786813186813187
3.560545327,2.652087912087912,0.8767765567765567,0.4786813186813187
3.5638492409998435,2.652087912087912,0.8767765567765567,0.4786813186813187
3.5655512230005115,2.652087912087912,0.8767765567765567,0.4786813186813187
3.569580755000061,2.652087912087912,0.8767765567765567,0.4786813186813187
3.5767188370009535,2.652087912087912,0.8767765567765567,0.4786813186813187
3.5812580900019384,2.652087912087912,0.8767765567765567,0.4786813186813187
3.5814960150019033,2.652087912087912,0.8767765567765567,0.4786813186813187
3.5878614600005676,2.652087912087912,0.8767765567765567,0.4786813186813187
3.593054110002413,2.652087912087912,0.8767765567765567,0.4786813186813187
3.5947435490015778,2.652087912087912,0.8767765567765567,0.4786813186813187
3.5980813820024196,2.652087912087912,0.8767765567765567,0.4786813186813187
3.5984964560011576,2.652087912087912,0.8767765567765567,0.4786813186813187
3.6033710700030497,2.652087912087912,0.8767765567765567,0.4786813186813187
3.611700893001398,3.3,0.5157509157509157,0.25142857142857145
3.618732640003145,2.6536996336996337,0.6841758241758242,0.09589743589743589
3.6258827570018184,2.6673992673992672,1.2740659340659342,0.9621978021978022
3.629769089002366,2.6778754578754578,0.9259340659340659,0.5657142857142857
3.63383277200046,2.9953846153846153,0.10153846153846154,0.10153846153846154
3.6370587260025786,2.698827838827839,1.7769230769230768,1.3667399267399267
3.639383573001396,2.698827838827839,1.7769230769230768,1.3667399267399267
3.650226093002857,2.698827838827839,1.7769230769230768,1.3667399267399267
3.6585038490011357,2.698827838827839,1.7769230769230768,1.3667399267399267
3.6642032280033163,2.698827838827839,1.7769230769230768,1.3667399267399267
3.6697084810002707,2.698827838827839,1.7769230769230768,1.3667399267399267
3.6707406020032067,2.698827838827839,1.7769230769230768,1.3667399267399267
3.6716622690000804,2.698827838827839,1.7769230769230768,1.3667399267399267
3.673155616001168,2.698827838827839,1.7769230769230768,1.3667399267399267
3.679759078000643,2.698827838827839,1.7769230769230768,1.3667399267399267
3.6843272610021813,2.698827838827839,1.7769230769230768,1.3667399267399267
3.6845006690018636,2.698827838827839,1.7769230769230768,1.3667399267399267
3.691981101001147,2.698827838827839,1.7769230769230768,1.3667399267399267
3.6980277319999004,2.698827838827839,1.7769230769230768,1.3667399267399267
3.703583771002741,2.698827838827839,1.7769230769230768,1.3667399267399267
3.70388542100045,2.6698168498168497,1.3127472527472526,1.021025641025641
3.710201499001414,2.6698168498168497,1.3127472527472526,1.021025641025641
3.713677722000284,3.3,2.5553846153846154,0.7792673992673992
3.7139611760030675,3.3,2.5553846153846154,0.7792673992673992
3.7187889730012103,3.3,2.5553846153846154,0.7792673992673992
3.728263313001662,3.3,2.5553846153846154,0.7792673992673992
3.7332025470022927,3.3,2.5553846153846154,0.7792673992673992
3.738543033003225,3.3,2.5553846153846154,0.7792673992673992
3.740525012002763,3.3,2.5553846153846154,0.7792673992673992
3.7418795590019727,2.6714285714285713,1.2780952380952382,0.9863736263736262
3.748253305002436,2.6714285714285713,1.2780952380952382,0.9863736263736262
3.752267595002195,3.3,1.6624908424908424,0.6463003663003662
3.758766396000283,2.7004395604395603,1.9526007326007324,1.3441758241758242
3.761655521000648,2.7004395604395603,1.9526007326007324,1.3441758241758242
3.764874776999932,2.9389743589743587,0.5479853479853479,0.25384615384615383
3.7665549350022047,2.9389743589743587,0.5479853479853479,0.25384615384615383
3.7734220400016056,2.9389743589743587,0.5479853479853479,0.25384615384615383
3.7793027100015024,2.9389743589743587,0.5479853479853479,0.25384615384615383
3.783218991000467,2.9389743589743587,0.5479853479853479,0.25384615384615383
3.7901898510026513,1.3046886446886445,0.42468864468864465,0.06527472527472526
3.795404332002363,1.3046886446886445,0.42468864468864465,0.06527472527472526
3.798022379000031,2.7004395604395603,0.8163369963369963,0.45692307692307693
3.8021914590026427,3.3,1.4207326007326007,1.149157509157509
3.805299911000475,3.3,1.4207326007326007,1.149157509157509
3.8093806880024204,3.3,1.4207326007326007,1.149157509157509
3.8110339630002272,3.3,1.4207326007326007,1.149157509157509
3.813834055999905,3.3,1.4207326007326007,1.149157509157509
3.8170049610016576,2.697216117216117,0.8517948717948718,0.5093040293040293
3.819225887000357,2.697216117216117,0.8517948717948718,0.5093040293040293
3.8194934240018483,2.697216117216117,0.8517948717948718,0.5093040293040293
3.828115129002981,2.697216117216117,0.8517948717948718,0.5093040293040293
3.8321263280013227,2.697216117216117,0.8517948717948718,0.5093040293040293
3.838745294000546,3.066300366300366,0.025787545787545788,0.1249084249084249
3.8438601810012187,2.697216117216117,1.9147252747252748,1.1926739926739927
3.8463362280017463,2.697216117216117,1.9147252747252748,1.1926739926739927
3.85209833800036,2.697216117216117,1.9147252747252748,1.1926739926739927
3.8631116720025602,2.697216117216117,1.9147252747252748,1.1926739926739927
3.870600607002416,2.697216117216117,1.9147252747252748,1.1926739926739927
3.8771015370002715,2.697216117216117,1.9147252747252748,1.1926739926739927
3.8832710010028677,2.6673992673992672,0.5173626373626373,0.27802197802197803
3.888224878002802,2.6673992673992672,0.5173626373626373,0.27802197802197803
3.8941927590021805,2.6673992673992672,0.5173626373626373,0.27802197802197803
3.8997428430011496,2.6673992673992672,0.5173626373626373,0.27802197802197803
3.8999745450018963,3.3,1.477142857142857,1.1797802197802196
3.909000551000645,3.3,1.477142857142857,1.1797802197802196
3.914279324002564,3.3,1.477142857142857,1.1797802197802196
3.915978103999805,2.7004395604395603,1.9356776556776556,1.315970695970696
3.919545470002049,2.7004395604395603,1.9356776556776556,1.315970695970696
3.9293401690010796,2.7004395604395603,1.9356776556776556,1.315970695970696
3.9386340490018483,2.7004395604395603,1.9356776556776556,1.315970695970696
3.9485817050008336,2.702051282051282,2.0347985347985347,1.4328205128205127
3.957728422003129,2.702051282051282,2.0347985347985347,1.4328205128205127
3.9657548169998336,2.702051282051282,2.0347985347985347,1.4328205128205127
3.9736050900028204,2.702051282051282,2.0347985347985347,1.4328205128205127
3.9800057650027156,2.702051282051282,2.0347985347985347,1.4328205128205127
3.9854447650031943,1.8333333333333333,0.2756043956043956,0.38358974358974357
3.986940085000242,2.9736263736263737,0.46659340659340653,0.14827838827838827
3.9938724790008564,2.9736263736263737,0.46659340659340653,0.14827838827838827
3.997885253000277,2.6649816849816848,0.5665201465201465,0.25706959706959703
4.002566937000665,2.6649816849816848,0.5665201465201465,0.25706959706959703
4.0027734950017475,2.6649816849816848,0.5665201465201465,0.25706959706959703
4.012944815000083,2.0928205128205124,0.4553113553113553,0.15311355311355312
4.022062440002628,3.1130402930402927,1.8413919413919413,0.7897435897435897
4.031078554002306,3.1130402930402927,1.8413919413919413,0.7897435897435897
4.037396723000711,3.1130402930402927,1.8413919413919413,0.7897435897435897
4.044617891002417,3.1130402930402927,1.8413919413919413,0.7897435897435897
4.048626728999807,3.0356776556776555,0.5931135531135531,0.1805128205128205
4.052082977999817,3.2049084249084245,0.2063003663003663,0.12329670329670328
4.052350757003296,3.2049084249084245,0.2063003663003663,0.12329670329670328
4.059946984001726,3.2049084249084245,0.2063003663003663,0.12329670329670328
4.06469384200318,3.2049084249084245,0.2063003663003663,0.12329670329670328
4.064881820002483,2.6609523809523807,0.6317948717948718,0.365054945054945
4.070983587000228,2.6609523809523807,0.6317948717948718,0.365054945054945
4.077702296002826,3.3,0.913040293040293,0.33684981684981685
4.082200127002579,3.3,0.913040293040293,0.33684981684981685
4.083748165001452,3.3,0.913040293040293,0.33684981684981685
4.091624616001354,3.3,0.913040293040293,0.33684981684981685
4.094836162999854,3.3,0.913040293040293,0.33684981684981685
4.096445459003007,3.1968498168498165,0.22644688644688646,0.27318681318681315
4.100915221002651,3.1968498168498165,0.22644688644688646,0.27318681318681315
4.101234182002372,2.6649816849816848,1.232161172161172,0.9597802197802198
4.109375187999831,2.6649816849816848,1.232161172161172,0.9597802197802198
4.113567176002107,2.6649816849816848,1.232161172161172,0.9597802197802198
4.11596860100326,2.6649816849816848,1.232161172161172,0.9597802197802198
4.124130482003238,2.6649816849816848,1.232161172161172,0.9597802197802198
4.1283300510003755,2.6649816849816848,1.2104029304029302,0.95010989010989
4.1309211180014245,2.6649816849816848,1.2104029304029302,0.95010989010989
4.136005809003109,2.6649816849816848,1.2104029304029302,0.95010989010989
4.1402681860017765,2.6649816849816848,1.2104029304029302,0.95010989010989
4.141494055002113,3.3,1.3836630036630035,1.1483516483516483
4.1416975390020525,3.3,1.3836630036630035,1.1483516483516483
4.146876776001591,3.3,1.3836630036630035,1.1483516483516483
4.149373640000704,3.3,1.3836630036630035,1.1483516483516483
4.149499862000084,3.3,1.3836630036630035,1.1483516483516483
4.155871102000674,2.7455677655677655,0.09831501831501832,0.11604395604395604
4.1593374900003255,2.7455677655677655,0.09831501831501832,0.11604395604395604
4.159461989002011,2.7455677655677655,0.09831501831501832,0.11604395604395604
4.164466073001677,2.7455677655677655,0.09831501831501832,0.11604395604395604
4.168664122000337,2.7455677655677655,0.09831501831501832,0.11604395604395604
4.170767495001201,2.7455677655677655,0.09831501831501832,0.11604395604395604
4.172825626003032,2.7455677655677655,0.09831501831501832,0.11604395604395604
4.173158712001168,2.7455677655677655,0.09831501831501832,0.11604395604395604
4.182514256001014,2.7455677655677655,0.09831501831501832,0.11604395604395604
4.189991971001291,2.7455677655677655,0.09831501831501832,0.11604395604395604
4.196273150002526,2.7455677655677655,0.09831501831501832,0.11604395604395604
4.201498905000335,2.7455677655677655,0.09831501831501832,0.11604395604395604
4.203134243001841,2.7455677655677655,0.09831501831501832,0.11604395604395604
4.210009854999953,1.805934065934066,0.45369963369963373,0.09670329670329669
4.217078231002233,2.652087912087912,0.66,0.08783882783882783
4.223750378001569,2.652087912087912,0.66,0.08783882783882783
4.22801790000085,1.5835164835164834,0.3843956043956044,0.12249084249084248
4.22893109800134,1.5835164835164834,0.3843956043956044,0.12249084249084248
4.230635910000274,1.5835164835164834,0.3843956043956044,0.12249084249084248
4.2346991480008,1.5835164835164834,0.3843956043956044,0.12249084249084248
4.23940476700227,1.5835164835164834,0.3843956043956044,0.12249084249084248
4.246054043000186,1.5835164835164834,0.3843956043956044,0.12249084249084248
4.250169752001966,1.5835164835164834,0.3843956043956044,0.12249084249084248
4.256166088001919,2.848717948717949,0.0975091575091575,0.09912087912087912
4.260259006001434,2.739120879120879,0.17487179487179486,0.3312087912087912
4.262017711000226,2.739120879120879,0.17487179487179486,0.3312087912087912
4.265222498001094,3.3,0.7986080586080586,0.3892307692307692
4.266207116001169,3.3,0.7986080586080586,0.3892307692307692
4.26721502700093,3.3,0.7986080586080586,0.3892307692307692
4.268225181000162,3.3,0.7986080586080586,0.3892307692307692
4.26937117900161,3.3,0.7986080586080586,0.3892307692307692
4.269700410000951,3.3,0.7986080586080586,0.3892307692307692
4.2772090140024375,3.3,0.7986080586080586,0.3892307692307692
4.282564111003012,2.4715750915750916,0.17326007326007326,0.35216117216117215
4.284369425000477,2.726227106227106,1.3127472527472526,1.0782417582417583
4.2880938720009,2.726227106227106,1.3127472527472526,1.0782417582417583
4.295426786000462,2.726227106227106,1.3127472527472526,1.0782417582417583
4.299482770002214,2.726227106227106,1.3127472527472526,1.0782417582417583
4.303167324000242,2.6577289377289377,1.340952380952381,1.1153113553113554
4.312917142000515,2.6577289377289377,1.340952380952381,1.1153113553113554
4.318547187001968,2.6577289377289377,1.340952380952381,1.1153113553113554
4.319422977001523,2.6577289377289377,1.340952380952381,1.1153113553113554
4.321346649001498,2.6673992673992672,1.2885714285714285,1.0572893772893772
4.3238814390024345,2.6673992673992672,1.2885714285714285,1.0572893772893772
4.329999256002338,2.6673992673992672,1.2885714285714285,1.0572893772893772
4.334261314001196,2.6673992673992672,1.2885714285714285,1.0572893772893772
4.335981650001486,2.6673992673992672,1.2885714285714285,1.0572893772893772
4.341631932002201,2.6673992673992672,1.2885714285714285,1.0572893772893772
4.350543196000217,2.6673992673992672,1.2885714285714285,1.0572893772893772
4.358460739000293,3.3,2.594065934065934,0.9122344322344322
4.3658441430015955,3.3,2.594065934065934,0.9122344322344322
4.372455568001897,3.3,2.594065934065934,0.9122344322344322
4.378149948002829,3.3,2.594065934065934,0.9122344322344322
4.383531251001841,3.3,2.594065934065934,0.9122344322344322
4.386383037002815,2.66014652014652,0.693040293040293,0.49802197802197795
4.3925691440017545,2.66014652014652,0.693040293040293,0.49802197802197795
4.396675418000086,2.66014652014652,0.693040293040293,0.49802197802197795
4.400366080000822,2.66014652014652,0.693040293040293,0.49802197802197795
4.408323043000564,2.66014652014652,0.693040293040293,0.49802197802197795
4.412363257000834,2.66014652014652,0.693040293040293,0.49802197802197795
4.415561069999967,2.66014652014652,0.693040293040293,0.49802197802197795
4.4164588270032255,2.66014652014652,0.693040293040293,0.49802197802197795
4.418100176000735,2.66014652014652,0.693040293040293,0.49802197802197795
4.42361295000228,2.652087912087912,1.3884981684981685,1.1386813186813185
4.423859506001463,2.652087912087912,1.3884981684981685,1.1386813186813185
4.428573409000819,2.652087912087912,1.3884981684981685,1.1386813186813185
4.434348279002734,2.652087912087912,1.3884981684981685,1.1386813186813185
4.434627157999785,2.9454212454212456,0.1249084249084249,0.09267399267399268
4.443501488000038,2.9454212454212456,0.1249084249084249,0.09267399267399268
4.448430132000794,2.9454212454212456,0.1249084249084249,0.09267399267399268
4.455010184999992,2.9454212454212456,0.1249084249084249,0.09267399267399268
4.459801865999907,2.9454212454212456,0.1249084249084249,0.09267399267399268
4.463807626001653,2.9454212454212456,0.1249084249084249,0.09267399267399268
4.466928939000354,2.9454212454212456,0.1249084249084249,0.09267399267399268
4.468621768002777,1.7736996336996336,0.30622710622710625,0.12087912087912088
4.474838245001592,1.7736996336996336,0.30622710622710625,0.12087912087912088
4.478127482001582,1.7736996336996336,0.30622710622710625,0.12087912087912088
4.479755246000423,3.3,1.4295970695970697,1.162051282051282
4.484086678003223,3.3,1.4295970695970697,1.162051282051282
4.485146253002313,3.3,1.4295970695970697,1.162051282051282
4.485486916000809,3.3,1.4295970695970697,1.162051282051282
4.491901004999818,3.3,1.4295970695970697,1.162051282051282
4.495629409000685,3.3,1.4295970695970697,1.162051282051282
4.50055584400252,2.702051282051282,2.1363369963369965,1.2893772893772892
4.508542765001039,2.6794871794871793,1.4336263736263737,1.1515750915750915
4.509667107002315,2.6794871794871793,1.4336263736263737,1.1515750915750915
4.509952429001714,2.6794871794871793,1.4336263736263737,1.1515750915750915
4.514868807000312,2.6794871794871793,1.4336263736263737,1.1515750915750915
4.52081877800083,2.6794871794871793,1.4336263736263737,1.1515750915750915
4.52830695600278,2.6794871794871793,1.4336263736263737,1.1515750915750915
4.533419383002183,2.6794871794871793,1.4336263736263737,1.1515750915750915
4.536822673002462,2.6794871794871793,1.4336263736263737,1.1515750915750915
4.537071693001053,2.6794871794871793,1.4336263736263737,1.1515750915750915
4.545641438002349,2.6794871794871793,1.4336263736263737,1.1515750915750915
4.55252966199987,2.6738461538461538,1.2901831501831502,1.0153846153846153
4.559883006000746,2.6536996336996337,0.6543589743589743,0.17809523809523808
4.565733802002796,3.3,1.5343589743589743,1.2184615384615385
4.57619809100288,3.3,0.6301831501831501,0.24578754578754577
4.583334603001276,3.3,2.9873260073260073,0.83003663003663
4.591277862000425,3.3,2.9873260073260073,0.83003663003663
4.596952101001079,3.3,2.9873260073260073,0.83003663003663
4.606845604001137,3.3,2.9873260073260073,0.83003663003663
4.615716154999973,3.3,2.9873260073260073,0.83003663003663
4.624155536002945,3.3,2.9873260073260073,0.83003663003663
4.627856959003111,3.3,2.9873260073260073,0.83003663003663
4.633073419001448,3.3,2.9873260073260073,0.83003663003663
4.635654445002729,3.3,2.9873260073260073,0.83003663003663
4.643125894002878,3.3,2.9873260073260073,0.83003663003663
4.647428459000366,3.3,2.9873260073260073,0.83003663003663
4.6492672320018755,3.3,2.9873260073260073,0.83003663003663
4.651865256000747,3.3,2.9873260073260073,0.83003663003663
4.6601066190014535,2.6778754578754578,1.2579487179487179,0.9356043956043956
4.664192983000248,2.6778754578754578,1.2579487179487179,0.9356043956043956
4.667480560001422,2.6778754578754578,1.2579487179487179,0.9356043956043956
4.668362205000449,2.6778754578754578,1.2579487179487179,0.9356043956043956
4.669308923002973,2.6778754578754578,1.2579487179487179,0.9356043956043956
4.671196312003303,2.6778754578754578,1.2579487179487179,0.9356043956043956
4.674320781999995,2.6778754578754578,1.2579487179487179,0.9356043956043956
4.676881610001146,2.6843223443223443,1.9082783882783882,1.3715750915750915
4.68114006900214,2.6843223443223443,1.9082783882783882,1.3715750915750915
4.682898615999875,2.6843223443223443,1.9082783882783882,1.3715750915750915
4.686357180002233,2.6843223443223443,1.9082783882783882,1.3715750915750915
4.6865249470029084,2.6843223443223443,1.9082783882783882,1.3715750915750915
4.694269759002054,2.6843223443223443,1.9082783882783882,1.3715750915750915
4.699501407001662,2.6843223443223443,1.9082783882783882,1.3715750915750915
4.702737255000102,2.6843223443223443,1.9082783882783882,1.3715750915750915
4.70383367300019,2.6843223443223443,1.9082783882783882,1.3715750915750915
4.70404736600176,2.6843223443223443,1.9082783882783882,1.3715750915750915
4.714260706001369,2.6843223443223443,1.9082783882783882,1.3715750915750915
4.723834814001748,2.6843223443223443,1.9082783882783882,1.3715750915750915
4.730394530000922,2.6843223443223443,1.9082783882783882,1.3715750915750915
4.735956633001479,2.6843223443223443,1.9082783882783882,1.3715750915750915
4.743925394002872,2.6762637362637363,0.6559706959706959,0.36827838827838827
4.74878490500123,2.6762637362637363,0.6559706959706959,0.36827838827838827
4.753838413002086,3.013113553113553,1.8752380952380951,0.8872527472527472
4.7609634660002484,3.013113553113553,1.8752380952380951,0.8872527472527472
4.765513964001002,3.013113553113553,1.8752380952380951,0.8872527472527472
4.765640230001736,3.013113553113553,1.8752380952380951,0.8872527472527472
4.770665719002864,3.013113553113553,1.8752380952380951,0.8872527472527472
4.779594294002891,3.013113553113553,1.8752380952380951,0.8872527472527472
4.786767339002836,3.013113553113553,1.8752380952380951,0.8872527472527472
4.7940653639998345,3.013113553113553,1.8752380952380951,0.8872527472527472
4.798047236999992,3.013113553113553,1.8752380952380951,0.8872527472527472
4.8020853550005995,2.6585347985347987,1.3917216117216116,1.1362637362637362
4.805941597001947,2.6585347985347987,1.3917216117216116,1.1362637362637362
4.810637877002591,2.6585347985347987,1.3917216117216116,1.1362637362637362
4.815222473000176,3.1944322344322345,0.21838827838827837,0.12087912087912088
4.815522979002708,3.1944322344322345,0.21838827838827837,0.12087912087912088
4.820997088001604,3.1944322344322345,0.21838827838827837,0.12087912087912088
4.823320178002177,3.1944322344322345,0.21838827838827837,0.12087912087912088
4.83105537099982,3.1944322344322345,0.21838827838827837,0.12087912087912088
4.8361419630018645,3.1944322344322345,0.21838827838827837,0.12087912087912088
4.844196289002866,3.3,2.7125274725274724,1.3151648351648353
4.849003249000816,2.6843223443223443,1.1539926739926738,0.834065934065934
4.856419955001911,2.6843223443223443,1.1539926739926738,0.834065934065934
4.860789600003045,2.6843223443223443,1.1539926739926738,0.834065934065934
4.86191322400191,2.7616849816849816,0.8252014652014652,0.3706959706959707
4.8623205210024025,2.7616849816849816,0.8252014652014652,0.3706959706959707
4.874323048003134,2.7616849816849816,0.8252014652014652,0.3706959706959707
4.891582606000156,3.3,0.32476190476190475,0.11846153846153845
4.89191294900229,3.3,0.32476190476190475,0.11846153846153845
4.902100956001959,3.3,0.32476190476190475,0.11846153846153845
4.913168195002072,3.3,0.32476190476190475,0.11846153846153845
4.924811038999906,3.3,0.502051282051282,0.190989010989011
4.932070378003118,2.6682051282051282,1.32,1.0613186813186812
4.936771592001605,1.6866666666666665,0.10395604395604395,0.10315018315018315
4.9491299870023795,1.6866666666666665,0.10395604395604395,0.10315018315018315
4.960838893002801,2.681098901098901,1.1298168498168497,0.8235897435897436
4.967361674000131,2.681098901098901,1.1298168498168497,0.8235897435897436
4.97384815100304,3.1904029304029304,0.43113553113553116,0.1571428571428571
4.977380252003059,3.1904029304029304,0.43113553113553116,0.1571428571428571
4.98329655100315,1.5722344322344322,0.8566300366300367,0.6519413919413919
4.991230303003249,1.5722344322344322,0.8566300366300367,0.6519413919413919
4.995466948003013,1.5722344322344322,0.8566300366300367,0.6519413919413919
4.997908972000005,1.5722344322344322,0.8566300366300367,0.6519413919413919
5.003659363002953,1.5722344322344322,0.8566300366300367,0.6519413919413919
5.003840241002763,1.5722344322344322,0.8566300366300367,0.6519413919413919
5.01045691300169,1.5722344322344322,0.8566300366300367,0.6519413919413919
5.014424038003199,1.5722344322344322,0.8566300366300367,0.6519413919413919
5.01954448500328,2.6875457875457873,1.4868131868131869,1.0057142857142858
5.027428719000454,2.6875457875457873,1.4868131868131869,1.0057142857142858
5.033091384000727,3.3,0.49076923076923074,0.09912087912087912
5.033362394002324,3.3,0.49076923076923074,0.09912087912087912
5.041270714002167,3.3,0.49076923076923074,0.09912087912087912
5.045300497000426,3.3,1.4698901098901098,1.2104029304029302
5.0485162010008935,3.3,1.4698901098901098,1.2104029304029302
5.050165433000075,2.7036630036630034,0.734139194139194,0.1643956043956044
5.054120328000863,2.7036630036630034,0.734139194139194,0.1643956043956044
5.058042420001584,2.6488644688644687,0.3457142857142857,0.24095238095238095
5.062679090002348,2.6488644688644687,0.3457142857142857,0.24095238095238095
5.06287076100125,2.6504761904761907,0.8155311355311355,0.4391941391941392
5.0676475720028975,2.6504761904761907,0.8155311355311355,0.4391941391941392
5.067820175001543,2.6504761904761907,0.8155311355311355,0.4391941391941392
5.072561791002954,2.6504761904761907,0.8155311355311355,0.4391941391941392
5.072793167000782,2.6504761904761907,0.8155311355311355,0.4391941391941392
5.077735943003063,2.6504761904761907,0.8155311355311355,0.4391941391941392
5.082735761003278,2.6504761904761907,0.8155311355311355,0.4391941391941392
5.087521827001183,2.652087912087912,0.6430769230769231,0.36827838827838827
5.093432061003114,2.652087912087912,0.6430769230769231,0.36827838827838827
5.099676933001319,2.652087912087912,0.6430769230769231,0.36827838827838827
5.104248725001526,2.652087912087912,0.6430769230769231,0.36827838827838827
5.1043566840016865,2.652087912087912,0.6430769230769231,0.36827838827838827
5.110236923002958,2.652087912087912,0.6430769230769231,0.36827838827838827
5.115985968001041,2.652087912087912,0.5995604395604395,0.08783882783882783
5.116147263001039,2.652087912087912,0.5995604395604395,0.08783882783882783
5.123376938001456,2.652087912087912,0.5995604395604395,0.08783882783882783
5.127330466002604,2.664175824175824,1.3788278388278388,1.1072527472527471
5.130520127000636,2.664175824175824,1.3788278388278388,1.1072527472527471
5.131576224001037,2.664175824175824,1.3788278388278388,1.1072527472527471
5.131877764000819,2.664175824175824,1.3788278388278388,1.1072527472527471
5.13908292600172,2.664175824175824,1.3788278388278388,1.1072527472527471
5.143428852999932,2.664175824175824,1.3788278388278388,1.1072527472527471
5.144421549000981,2.66014652014652,0.7196336996336996,0.34007326007326005
5.145401745001436,2.66014652014652,0.7196336996336996,0.34007326007326005
5.146343273001548,2.66014652014652,0.7196336996336996,0.34007326007326005
5.1473004020008375,2.66014652014652,0.7196336996336996,0.34007326007326005
5.148378822999803,2.66014652014652,0.7196336996336996,0.34007326007326005
5.149231930001406,2.66014652014652,0.7196336996336996,0.34007326007326005
5.150186353002937,2.66014652014652,0.7196336996336996,0.34007326007326005
5.151394609001727,2.66014652014652,0.7196336996336996,0.34007326007326005
5.151598925000144,2.66014652014652,0.7196336996336996,0.34007326007326005
5.158121446002042,2.66014652014652,0.7196336996336996,0.34007326007326005
5.163620066003205,3.3,2.954285714285714,1.3022710622710623
5.163798445002612,2.6536996336996337,0.6471062271062271,0.36747252747252745
5.172250753999833,2.6536996336996337,0.6471062271062271,0.36747252747252745
5.178275196001778,1.6495970695970694,0.6938461538461538,0.4520879120879121
5.181729165000434,1.6495970695970694,0.6938461538461538,0.4520879120879121
5.182042422002269,2.6682051282051282,1.0903296703296703,0.6535531135531135
5.187200439002481,2.6682051282051282,1.0903296703296703,0.6535531135531135
5.190153821000422,2.6682051282051282,1.0903296703296703,0.6535531135531135
5.193212181002309,2.6682051282051282,1.0903296703296703,0.6535531135531135
5.195554952002567,2.6682051282051282,1.0903296703296703,0.6535531135531135
5.195817798001372,2.6682051282051282,1.0903296703296703,0.6535531135531135
5.201316466002027,2.6682051282051282,1.0903296703296703,0.6535531135531135
5.203710875000979,2.701245421245421,1.328058608058608,1.0580952380952382
5.211055177001981,2.701245421245421,1.328058608058608,1.0580952380952382
5.21502894600053,2.701245421245421,1.328058608058608,1.0580952380952382
5.219547078002506,2.701245421245421,1.328058608058608,1.0580952380952382
5.2198748200025875,2.701245421245421,1.328058608058608,1.0580952380952382
5.226468315002421,2.701245421245421,1.328058608058608,1.0580952380952382
5.232279858002585,1.9477655677655676,0.33604395604395604,0.09670329670329669
5.237861768000585,2.648058608058608,0.6132600732600733,0.10234432234432234
5.238064823002787,1.6068864468864468,0.49560439560439556,0.4488644688644688
5.245749207002518,1.6068864468864468,0.49560439560439556,0.4488644688644688
5.251150666001195,1.6068864468864468,0.49560439560439556,0.4488644688644688
5.251645053001994,1.6068864468864468,0.49560439560439556,0.4488644688644688
5.259716847001982,1.6068864468864468,0.49560439560439556,0.4488644688644688
5.265733623000415,1.6068864468864468,0.49560439560439556,0.4488644688644688
5.269713004003279,1.6068864468864468,0.49560439560439556,0.4488644688644688
5.272963707000599,1.6068864468864468,0.49560439560439556,0.4488644688644688
5.27462012000251,1.6068864468864468,0.49560439560439556,0.4488644688644688
5.277808783001092,1.6068864468864468,0.49560439560439556,0.4488644688644688
5.278751595000358,1.6068864468864468,0.49560439560439556,0.4488644688644688
5.280394421002711,1.6068864468864468,0.49560439560439556,0.4488644688644688
5.284635757001524,1.6068864468864468,0.49560439560439556,0.4488644688644688
5.286308354003268,1.0532600732600732,0.38358974358974357,0.3287912087912088
5.290231050999864,1.0532600732600732,0.38358974358974357,0.3287912087912088
5.293529022001167,1.0532600732600732,0.38358974358974357,0.3287912087912088
5.295216300000902,2.698827838827839,1.8317216117216117,1.2668131868131869
5.298396438000054,3.3,2.772967032967033,1.24021978021978
5.300122794000345,3.3,2.772967032967033,1.24021978021978
5.303159784001764,3.3,2.772967032967033,1.24021978021978
5.306396561001748,0.954945054945055,0.3658608058608058,0.08703296703296703
5.306684032002522,0.954945054945055,0.3658608058608058,0.08703296703296703
5.316454668001825,3.3,1.4497435897435897,0.5721611721611721
5.32194999100102,3.3,1.4497435897435897,0.5721611721611721
5.323606247002317,3.3,1.4497435897435897,0.5721611721611721
5.329707723001775,3.3,1.4497435897435897,0.5721611721611721
5.335782079000637,3.3,1.4497435897435897,0.5721611721611721
5.3398599630018,3.3,1.4497435897435897,0.5721611721611721
5.342320506002579,3.3,1.4497435897435897,0.5721611721611721
5.342519200999959,3.3,1.4497435897435897,0.5721611721611721
5.348099265000201,3.3,1.4497435897435897,0.5721611721611721
5.3483081750018755,3.3,1.4497435897435897,0.5721611721611721
5.354807776002417,3.3,1.4497435897435897,0.5721611721611721
5.359137494000606,3.3,1.4497435897435897,0.5721611721611721
5.36045356500108,3.3,1.4497435897435897,0.5721611721611721
5.367004335999809,3.3,1.4497435897435897,0.5721611721611721
5.372937631000241,3.3,1.4497435897435897,0.5721611721611721
5.375807033000456,3.3,1.4497435897435897,0.5721611721611721
5.379254709001543,3.3,1.4497435897435897,0.5721611721611721
5.379577636002068,3.3,1.4497435897435897,0.5721611721611721
5.388580267001089,3.3,1.4497435897435897,0.5721611721611721
5.395497589001025,3.3,1.4497435897435897,0.5721611721611721
5.3996300930011785,3.3,1.4497435897435897,0.5721611721611721
5.402185973001906,3.3,1.4497435897435897,0.5721611721611721
5.410691333003342,3.3,1.4497435897435897,0.5721611721611721
5.417050605999975,2.6536996336996337,0.6197069597069597,0.3287912087912088
5.420467362000636,3.3,1.5126007326007325,1.2273260073260073
5.421468616001221,3.3,1.5126007326007325,1.2273260073260073
5.422610494002583,3.3,1.5126007326007325,1.2273260073260073
5.423017629000242,3.3,1.5126007326007325,1.2273260073260073
5.427509110002575,3.3,0.5383150183150183,0.20146520146520144
5.428487048000534,3.3,0.5383150183150183,0.20146520146520144
5.430112805002864,3.3,0.27399267399267396,0.11282051282051282
5.434107581000717,3.3,0.27399267399267396,0.11282051282051282
5.4374820010016265,3.3,0.27399267399267396,0.11282051282051282
5.439064991001942,3.3,0.27399267399267396,0.11282051282051282
5.445481919003214,3.3,0.27399267399267396,0.11282051282051282
5.45034320600098,3.3,0.27399267399267396,0.11282051282051282
5.45914608000021,3.3,0.27399267399267396,0.11282051282051282
5.463289936000365,2.701245421245421,1.6342857142857143,1.062930402930403
5.467080439000711,2.701245421245421,1.6342857142857143,1.062930402930403
5.472732333000749,2.701245421245421,1.6342857142857143,1.062930402930403
5.479939615001058,2.701245421245421,1.6342857142857143,1.062930402930403
5.4849124740030675,3.3,0.2216117216117216,0.2756043956043956
5.491324788999918,2.9575091575091577,2.258827838827839,0.904981684981685
5.495126675999927,2.9575091575091577,2.258827838827839,0.904981684981685
5.499960742003168,2.655311355311355,0.39406593406593404,0.27641025641025635
5.504938203001075,2.6649816849816848,1.386080586080586,1.166080586080586
5.513079484000627,2.6649816849816848,1.386080586080586,1.166080586080586
5.517530642002384,2.6649816849816848,1.386080586080586,1.166080586080586
5.518523037000705,2.6649816849816848,1.386080586080586,1.166080586080586
5.5188534480003,2.6682051282051282,1.328058608058608,1.075018315018315
5.525737089003087,2.6682051282051282,1.328058608058608,1.075018315018315
5.529839435999747,2.655311355311355,0.6624175824175824,0.4126007326007326
5.533141691001219,2.651282051282051,0.697069597069597,0.15633699633699633
5.534952632002387,2.651282051282051,0.697069597069597,0.15633699633699633
5.538104851002572,2.651282051282051,0.697069597069597,0.15633699633699633
5.53969023800164,3.3,1.423956043956044,1.1475457875457875
5.545225447000121,3.3,1.423956043956044,1.1475457875457875
5.545369139003014,3.3,1.423956043956044,1.1475457875457875
5.551001422001718,3.3,1.423956043956044,1.1475457875457875
5.551908283003286,3.3,2.457875457875458,0.8397069597069596
5.552953844002332,3.3,2.457875457875458,0.8397069597069596
5.5533457760029705,3.3,2.457875457875458,0.8397069597069596
5.561921963002533,3.3,2.457875457875458,0.8397069597069596
5.566651914999966,3.3,2.457875457875458,0.8397069597069596
5.566927050000231,3.3,2.457875457875458,0.8397069597069596
5.573457428999973,3.3,2.457875457875458,0.8397069597069596
5.57807373200194,2.6456410256410257,0.12571428571428572,0.10556776556776555
5.583658390001801,2.784249084249084,1.5947985347985347,1.0097435897435898
5.58581257500191,2.784249084249084,1.5947985347985347,1.0097435897435898
5.5859945050033275,1.1467399267399265,0.3811721611721612,0.3352380952380952
5.5949497540023,1.1467399267399265,0.3811721611721612,0.3352380952380952
5.60081893700044,3.3,0.24256410256410255,0.1112087912087912
5.600974750002933,3.3,0.24256410256410255,0.1112087912087912
5.609129671000119,3.3,0.24256410256410255,0.1112087912087912
5.614150514000357,3.3,2.958315018315018,0.8284249084249083
5.617435973999818,3.3,2.958315018315018,0.8284249084249083
5.618410764000146,3.3,2.958315018315018,0.8284249084249083
5.619326679003279,3.3,2.958315018315018,0.8284249084249083
5.622110266001982,3.3,2.958315018315018,0.8284249084249083
5.626168562001112,3.3,2.958315018315018,0.8284249084249083
5.6304320720009855,2.6617582417582417,0.7389743589743589,0.49076923076923074
5.63134763600101,2.6617582417582417,0.7389743589743589,0.49076923076923074
5.632235289001983,2.6617582417582417,0.7389743589743589,0.49076923076923074
5.633232209002017,2.6617582417582417,0.7389743589743589,0.49076923076923074
5.63444421800159,2.6617582417582417,0.7389743589743589,0.49076923076923074
5.634769716001756,2.6617582417582417,0.7389743589743589,0.49076923076923074
5.641384696002206,2.6617582417582417,0.7389743589743589,0.49076923076923074
5.6454968500002,2.6617582417582417,0.7389743589743589,0.49076923076923074
5.649842072001775,2.6617582417582417,0.7389743589743589,0.49076923076923074
5.651737096002762,2.6617582417582417,0.7389743589743589,0.49076923076923074
5.653441554000892,2.6617582417582417,0.7389743589743589,0.49076923076923074
5.658295405002718,2.6617582417582417,0.7389743589743589,0.49076923076923074
5.6618705530017905,2.6585347985347987,1.3812454212454213,1.1225641025641024
5.667638042999897,2.66014652014652,0.954945054945055,0.5939194139194138
5.667917021000903,3.3,0.3183150183150183,0.14263736263736262
5.676241072000266,3.3,0.3183150183150183,0.14263736263736262
5.680303074001131,2.8664468864468864,0.09347985347985348,0.0701098901098901
5.684554641000432,2.8664468864468864,0.09347985347985348,0.0701098901098901
5.686298104003072,2.8664468864468864,0.09347985347985348,0.0701098901098901
5.690921638000873,2.8664468864468864,0.09347985347985348,0.0701098901098901
5.696895067001606,2.698827838827839,1.85025641025641,1.4062271062271061
5.703033500001766,2.655311355311355,1.627032967032967,1.1032234432234431
5.707926978000614,2.6585347985347987,0.8864468864468864,0.5391208791208791
5.712404497000534,2.6585347985347987,0.8864468864468864,0.5391208791208791
5.71276576800301,2.6585347985347987,0.8864468864468864,0.5391208791208791
5.717708723001124,2.698827838827839,1.1983150183150182,0.7156043956043956
5.722137559001567,3.3,3.0614652014652015,1.3635164835164835
5.72326031600096,3.3,3.0614652014652015,1.3635164835164835
5.723597779000556,3.3,3.0614652014652015,1.3635164835164835
5.728984443001536,3.3,3.0614652014652015,1.3635164835164835
5.72990694800319,3.3,3.0614652014652015,1.3635164835164835
5.730818767002347,3.3,3.0614652014652015,1.3635164835164835
5.732525196002825,3.3,3.0614652014652015,1.3635164835164835
5.736035345002165,3.3,3.0614652014652015,1.3635164835164835
5.736333860000741,3.3,3.0614652014652015,1.3635164835164835
5.743928799001878,3.3,3.0614652014652015,1.3635164835164835
5.748650661000283,2.6665934065934067,1.1757509157509156,0.8356776556776556
5.748805942999752,2.6665934065934067,1.1757509157509156,0.8356776556776556
5.754137433003052,2.6665934065934067,1.1757509157509156,0.8356776556776556
5.7570712190026825,2.6665934065934067,1.1757509157509156,0.8356776556776556
5.760239856001135,2.6665934065934067,1.1757509157509156,0.8356776556776556
5.760633339999913,2.6665934065934067,1.1757509157509156,0.8356776556776556
5.76545987800273,2.6665934065934067,1.1757509157509156,0.8356776556776556
5.772268956003245,2.6665934065934067,1.1757509157509156,0.8356776556776556
5.776232696000079,2.6665934065934067,1.1757509157509156,0.8356776556776556
5.7801673890025995,2.6665934065934067,1.1757509157509156,0.8356776556776556
5.785285352001665,2.6665934065934067,1.1757509157509156,0.8356776556776556
5.791615033002017,2.6665934065934067,1.1757509157509156,0.8356776556776556
5.7949712480003654,2.6665934065934067,1.1757509157509156,0.8356776556776556
5.795910731001641,2.6665934065934067,1.1757509157509156,0.8356776556776556
5.797830030001933,2.6665934065934067,1.1757509157509156,0.8356776556776556
5.800306099001318,2.6665934065934067,1.1757509157509156,0.8356776556776556
5.80865190500117,2.6665934065934067,1.1757509157509156,0.8356776556776556
5.812716370000999,3.3,0.5826373626373627,0.2804395604395604
5.815907270000025,3.3,0.5826373626373627,0.2804395604395604
5.818137722002575,3.3,0.5826373626373627,0.2804395604395604
5.818442436000623,3.3,0.5826373626373627,0.2804395604395604
5.826068970000051,3.3,0.5826373626373627,0.2804395604395604
5.830991397000616,2.799560439560439,0.6019780219780219,0.2917216117216117
5.835954984002456,2.799560439560439,0.6019780219780219,0.2917216117216117
5.844575162002002,2.799560439560439,0.6019780219780219,0.2917216117216117
5.851505311002256,3.287106227106227,2.0767032967032963,0.8574358974358974
5.85883629700038,3.248424908424908,0.17084249084249084,0.13216117216117215
5.862356176003232,2.075091575091575,1.4626373626373625,1.0774358974358973
5.862581511002645,3.3,0.6253479853479853,0.30058608058608055
5.867322333000629,3.3,0.6253479853479853,0.30058608058608055
5.867534044002241,3.3,0.6253479853479853,0.30058608058608055
5.8755335380010365,3.3,0.6253479853479853,0.30058608058608055
5.881251006001548,3.3,0.6253479853479853,0.30058608058608055
5.891111734999868,2.6746520146520147,1.2305494505494505,0.9525274725274724
5.898355559002084,2.9220512820512816,0.4021245421245421,0.11282051282051282
5.903236754002137,2.9220512820512816,0.4021245421245421,0.11282051282051282
5.911303444001533,2.9220512820512816,0.4021245421245421,0.11282051282051282
5.914784570002666,3.3,0.29333333333333333,0.10073260073260072
5.91504612800054,3.3,0.29333333333333333,0.10073260073260072
5.921820485000353,3.3,0.29333333333333333,0.10073260073260072
5.926431204999972,3.3,0.29333333333333333,0.10073260073260072
5.926554591002059,3.082417582417582,0.49882783882783877,0.14424908424908423
5.934921467000095,3.082417582417582,0.49882783882783877,0.14424908424908423
5.943601898001361,3.082417582417582,0.49882783882783877,0.14424908424908423
5.948166511003365,3.082417582417582,0.49882783882783877,0.14424908424908423
5.9483289570016495,1.0919413919413918,0.32476190476190475,0.28527472527472525
5.955408682002599,1.0919413919413918,0.32476190476190475,0.28527472527472525
5.959870565002348,1.0919413919413918,0.32476190476190475,0.28527472527472525
5.960082266003155,3.3,1.46021978021978,1.270842490842491
5.964969140000903,3.3,1.46021978021978,1.270842490842491
5.971917913000652,3.3,1.46021978021978,1.270842490842491
5.976546165002219,3.3,1.46021978021978,1.270842490842491
5.9828897140032495,3.3,1.46021978021978,1.270842490842491
5.989230674000282,3.3,1.46021978021978,1.270842490842491
5.99250929900154,3.3,0.3795604395604395,0.11523809523809524
5.993386125002871,3.3,0.3795604395604395,0.11523809523809524
5.995062296002288,3.3,0.3795604395604395,0.11523809523809524
5.999487359000341,3.3,0.3795604395604395,0.11523809523809524
6.000440019000962,3.3,0.3795604395604395,0.11523809523809524
6.001465455003199,3.3,0.3795604395604395,0.11523809523809524
6.002592332002678,3.3,0.3795604395604395,0.11523809523809524
6.002829085002304,3.3,0.3795604395604395,0.11523809523809524
6.009904069000186,3.3,0.3795604395604395,0.11523809523809524
6.014020711001649,3.3,0.3795604395604395,0.11523809523809524
6.017402324003342,3.3,0.3795604395604395,0.11523809523809524
6.017706611000904,3.3,0.3795604395604395,0.11523809523809524
6.024139127002854,3.3,0.3795604395604395,0.11523809523809524
6.027564383002755,3.3,0.3795604395604395,0.11523809523809524
6.028594026000064,3.3,0.3795604395604395,0.11523809523809524
6.028838583002653,3.3,0.3344322344322344,0.07736263736263736
6.034934223000164,3.3,0.3344322344322344,0.07736263736263736
6.041764765002881,3.2226373626373626,1.8712087912087911,1.1161172161172161
6.0452886410021165,2.6617582417582417,0.855018315018315,0.49721611721611714
6.04552623500058,2.6617582417582417,0.855018315018315,0.49721611721611714
6.050278520000575,2.6617582417582417,0.855018315018315,0.49721611721611714
6.050494729002821,2.6617582417582417,0.855018315018315,0.49721611721611714
6.057998129002954,2.6617582417582417,0.855018315018315,0.49721611721611714
6.061316089002503,2.6617582417582417,0.855018315018315,0.49721611721611714
6.062306416002684,2.6617582417582417,0.855018315018315,0.49721611721611714
6.063270220001868,1.261172161172161,0.42065934065934063,0.09347985347985348
6.065245829002379,2.6536996336996337,0.7156043956043956,0.423076923076923
6.066939121999894,2.9309157509157506,0.43435897435897436,0.12249084249084248
6.071488323999802,2.9309157509157506,0.43435897435897436,0.12249084249084248
6.0718190530024,2.9309157509157506,0.43435897435897436,0.12249084249084248
6.077878037001938,2.9309157509157506,0.43435897435897436,0.12249084249084248
6.081832030002261,2.9309157509157506,0.43435897435897436,0.12249084249084248
6.086612957002217,3.3,0.5286446886446886,0.28285714285714286
6.0867292690018076,2.1008791208791204,0.27802197802197803,0.10315018315018315
6.09309944800043,2.1008791208791204,0.27802197802197803,0.10315018315018315
6.097845181000594,3.179120879120879,0.20146520146520144,0.09670329670329669
6.104014177002682,3.179120879120879,0.20146520146520144,0.09670329670329669
6.111087760000373,1.5770695970695972,0.45772893772893775,0.08703296703296703
6.115857843000413,1.5770695970695972,0.45772893772893775,0.08703296703296703
6.1160177560013835,1.5770695970695972,0.45772893772893775,0.08703296703296703
6.122481055001117,1.5770695970695972,0.45772893772893775,0.08703296703296703
6.12636067800122,1.9961172161172158,0.4778754578754579,0.0838095238095238
6.130562736001593,1.9961172161172158,0.4778754578754579,0.0838095238095238
6.133859151999786,1.9961172161172158,0.4778754578754579,0.0838095238095238
6.134840615002759,1.9961172161172158,0.4778754578754579,0.0838095238095238
6.135850628001208,1.9961172161172158,0.4778754578754579,0.0838095238095238
6.137041667003359,1.9961172161172158,0.4778754578754579,0.0838095238095238
6.137221685999975,1.9961172161172158,0.4778754578754579,0.0838095238095238
6.144345909000549,1.9961172161172158,0.4778754578754579,0.0838095238095238
6.149118422999891,1.9961172161172158,0.4778754578754579,0.0838095238095238
6.149244495001767,1.9961172161172158,0.4778754578754579,0.0838095238095238
6.155193230002624,1.9961172161172158,0.4778754578754579,0.0838095238095238
6.155394454002817,2.7004395604395603,2.007399267399267,1.2837362637362637
6.16210964900165,3.3,2.5102564102564098,1.1419047619047618
6.16608775700297,2.6617582417582417,0.9283516483516483,0.6463003663003662
6.170061396001984,2.6617582417582417,0.9283516483516483,0.6463003663003662
6.17568561400185,2.6617582417582417,0.9283516483516483,0.6463003663003662
6.175899123001727,2.6617582417582417,0.9283516483516483,0.6463003663003662
6.180734379002388,2.6617582417582417,0.9283516483516483,0.6463003663003662
6.186472329001845,2.6617582417582417,0.9283516483516483,0.6463003663003662
6.186658026999794,2.6617582417582417,0.9283516483516483,0.6463003663003662
6.191613673003303,2.6617582417582417,0.9283516483516483,0.6463003663003662
6.196370417001162,2.7004395604395603,1.7559706959706958,1.3989743589743588
6.196498952002003,2.7004395604395603,1.7559706959706958,1.3989743589743588
6.201422568003181,2.7004395604395603,1.7559706959706958,1.3989743589743588
6.206258677000733,2.7004395604395603,1.7559706959706958,1.3989743589743588
6.206446702002722,2.7004395604395603,1.7559706959706958,1.3989743589743588
6.211459262001881,2.7004395604395603,1.7559706959706958,1.3989743589743588
6.21570010400319,2.7004395604395603,1.7559706959706958,1.3989743589743588
6.217351616000087,3.3,2.9099633699633696,1.4191208791208791
6.221579269000358,3.3,2.9099633699633696,1.4191208791208791
6.223242593001487,3.3,2.9099633699633696,1.4191208791208791
6.226668401002826,3.3,2.9099633699633696,1.4191208791208791
6.227564051001536,3.3,2.9099633699633696,1.4191208791208791
6.22849474800023,3.3,2.9099633699633696,1.4191208791208791
6.231194473002688,3.3,2.9099633699633696,1.4191208791208791
6.2365554770003655,3.3,2.9099633699633696,1.4191208791208791
6.238145711002289,3.1904029304029304,1.9106959706959707,1.257142857142857
6.242206280003302,3.1904029304029304,1.9106959706959707,1.257142857142857
6.243942345001415,3.1904029304029304,1.9106959706959707,1.257142857142857
6.247873383999831,3.1904029304029304,1.9106959706959707,1.257142857142857
6.25129798800117,3.1904029304029304,1.9106959706959707,1.257142857142857
6.251501937000285,3.1904029304029304,1.9106959706959707,1.257142857142857
6.257771036001941,3.1904029304029304,1.9106959706959707,1.257142857142857
6.261166316002345,3.1904029304029304,1.9106959706959707,1.257142857142857
6.261450078000053,3.1904029304029304,1.9106959706959707,1.257142857142857
6.266343500003131,3.1904029304029304,1.9106959706959707,1.257142857142857
6.2712477070017485,3.1904029304029304,1.9106959706959707,1.257142857142857
6.274922950000473,3.1904029304029304,1.9106959706959707,1.257142857142857
6.280103983001027,3.3,2.9679853479853477,1.4594139194139193
6.283682225002849,2.6738461538461538,1.3336996336996336,1.1580219780219778
6.283815295002569,2.6738461538461538,1.3336996336996336,1.1580219780219778
6.2882061210002576,2.6738461538461538,1.3336996336996336,1.1580219780219778
6.28970010300327,2.6738461538461538,1.3336996336996336,1.1580219780219778
6.2941325760002655,2.6738461538461538,1.3336996336996336,1.1580219780219778
6.294979821002926,2.6738461538461538,1.3336996336996336,1.1580219780219778
6.296527496000635,2.6738461538461538,1.3336996336996336,1.1580219780219778
6.300888139001472,2.6738461538461538,1.3336996336996336,1.1580219780219778
6.302388656000403,2.6738461538461538,1.3336996336996336,1.1580219780219778
6.306723549001617,2.6738461538461538,1.3336996336996336,1.1580219780219778
6.308940624003299,2.6738461538461538,1.3336996336996336,1.1580219780219778
6.309223221000138,2.6738461538461538,1.3336996336996336,1.1580219780219778
6.313740351000888,2.6738461538461538,1.3336996336996336,1.1580219780219778
6.314601979000145,2.6738461538461538,1.3336996336996336,1.1580219780219778
6.316137197001808,2.6738461538461538,1.3336996336996336,1.1580219780219778
6.320421455002361,2.6738461538461538,1.3336996336996336,1.1580219780219778
6.3226306610013125,2.6609523809523807,1.129010989010989,0.6753113553113552
6.322908375001134,2.6609523809523807,1.129010989010989,0.6753113553113552
6.327943616000994,2.6609523809523807,1.129010989010989,0.6753113553113552
6.332288176003203,2.6609523809523807,1.129010989010989,0.6753113553113552
6.3351925180031685,2.2282051282051283,0.1402197802197802,0.09589743589743589
6.338256080001884,2.2282051282051283,0.1402197802197802,0.09589743589743589
6.340600391002226,3.3,1.506153846153846,1.1975091575091574
6.340877597001963,3.3,1.506153846153846,1.1975091575091574
6.345918982002331,3.3,1.506153846153846,1.1975091575091574
6.349952758002473,3.3,1.506153846153846,1.1975091575091574
6.352529892999883,3.3,1.506153846153846,1.1975091575091574
6.358035055000073,3.3,1.506153846153846,1.1975091575091574
6.359039365001081,3.3,1.506153846153846,1.1975091575091574
6.359918604000995,3.3,1.506153846153846,1.1975091575091574
6.360893324002973,3.3,1.506153846153846,1.1975091575091574
6.362520078000671,3.3,1.506153846153846,1.1975091575091574
6.365582621001522,3.3,1.506153846153846,1.1975091575091574
6.367833927000902,3.3,1.506153846153846,1.1975091575091574
6.368099251001695,3.3,1.506153846153846,1.1975091575091574
6.372479510002449,3.3,1.506153846153846,1.1975091575091574
6.374038900001324,3.3,1.506153846153846,1.1975091575091574
6.378378956000233,3.3,1.506153846153846,1.1975091575091574
6.379954480002198,3.216190476190476,1.5367765567765568,1.2974358974358973
6.383802970001852,3.216190476190476,1.5367765567765568,1.2974358974358973
6.388305047999893,3.216190476190476,1.5367765567765568,1.2974358974358973
6.389321209000627,2.714945054945055,0.747032967032967,0.16036630036630037
6.390224481001496,2.714945054945055,0.747032967032967,0.16036630036630037
6.391755718999775,1.635091575091575,0.12249084249084248,0.0693040293040293
6.396176174002903,1.635091575091575,0.12249084249084248,0.0693040293040293
6.397757316000934,1.635091575091575,0.12249084249084248,0.0693040293040293
6.402134445001138,1.635091575091575,0.12249084249084248,0.0693040293040293
6.402961437001068,1.635091575091575,0.12249084249084248,0.0693040293040293
6.404569142003311,1.635091575091575,0.12249084249084248,0.0693040293040293
6.40893268400032,1.635091575091575,0.12249084249084248,0.0693040293040293
6.410430143001577,1.635091575091575,0.12249084249084248,0.0693040293040293
6.415621940002893,1.635091575091575,0.12249084249084248,0.0693040293040293
6.41954931300279,1.635091575091575,0.12249084249084248,0.0693040293040293
6.4235653080031625,1.635091575091575,0.12249084249084248,0.0693040293040293
6.42694708199997,3.3,0.5512087912087912,0.3449084249084249
6.427208722001524,3.3,0.5512087912087912,0.3449084249084249
6.432930433002184,3.3,0.5512087912087912,0.3449084249084249
6.43308433600032,3.3,0.5512087912087912,0.3449084249084249
6.438896768002451,3.3,0.5512087912087912,0.3449084249084249
6.439030223002192,3.3,0.5512087912087912,0.3449084249084249
6.443907496002794,3.3,0.5512087912087912,0.3449084249084249
6.448990328000946,1.1967032967032967,0.30139194139194136,0.09589743589743589
6.453306499002792,1.1967032967032967,0.30139194139194136,0.09589743589743589
6.454878118001943,2.6682051282051282,2.125860805860806,1.216043956043956
6.459206644001824,2.6682051282051282,2.125860805860806,1.216043956043956
6.46083567900132,2.6682051282051282,2.125860805860806,1.216043956043956
6.464532142999815,2.6682051282051282,2.125860805860806,1.216043956043956
6.469659565002075,3.3,0.6559706959706959,0.29010989010989013
6.4739755150003475,3.3,0.6559706959706959,0.29010989010989013
6.476181411002472,3.3,0.6559706959706959,0.29010989010989013
6.47698983400187,3.3,0.6559706959706959,0.29010989010989013
6.478581842002313,3.3,0.6559706959706959,0.29010989010989013
6.4833590690032,3.3,0.6559706959706959,0.29010989010989013
6.483488402001967,3.3,0.6559706959706959,0.29010989010989013
6.489211167001486,3.3,0.6559706959706959,0.29010989010989013
6.48948928900063,3.3,0.6559706959706959,0.29010989010989013
6.495096508002462,3.3,0.6559706959706959,0.29010989010989013
6.495289504000539,3.3,0.6559706959706959,0.29010989010989013
6.501025028002914,3.3,0.6559706959706959,0.29010989010989013
6.5069070310019015,3.3,0.6559706959706959,0.29010989010989013
6.5125546870003745,3.3,0.4319413919413919,0.18776556776556774
6.514359766002599,2.8334065934065933,0.10234432234432234,0.09912087912087912
6.516841191001731,2.8334065934065933,0.10234432234432234,0.09912087912087912
6.522476481000922,2.8334065934065933,0.10234432234432234,0.09912087912087912
6.5228595280023,2.6682051282051282,0.9186813186813186,0.5802197802197803
6.527826157001982,2.6682051282051282,0.9186813186813186,0.5802197802197803
6.532100738000736,2.6682051282051282,0.9186813186813186,0.5802197802197803
6.533764054001949,2.6649816849816848,1.6745787545787545,1.0323076923076921
6.53705141500177,2.6649816849816848,1.6745787545787545,1.0323076923076921
6.537993573001586,2.6649816849816848,1.6745787545787545,1.0323076923076921
6.5396516590008105,2.6649816849816848,1.6745787545787545,1.0323076923076921
6.543961735002085,2.6649816849816848,1.6745787545787545,1.0323076923076921
6.544884825001645,2.6649816849816848,1.6745787545787545,1.0323076923076921
6.545828035999875,2.6649816849816848,1.6745787545787545,1.0323076923076921
6.547521254000458,2.6649816849816848,1.6745787545787545,1.0323076923076921
6.5517983910031035,2.6649816849816848,1.6745787545787545,1.0323076923076921
6.552791571000853,2.6649816849816848,1.6745787545787545,1.0323076923076921
6.554466120000143,2.6649816849816848,1.6745787545787545,1.0323076923076921
6.5578295170016645,2.6649816849816848,1.6745787545787545,1.0323076923076921
6.558717638999951,2.6649816849816848,1.6745787545787545,1.0323076923076921
6.559665712000424,2.6649816849816848,1.6745787545787545,1.0323076923076921
6.561511233001511,2.6649816849816848,1.6745787545787545,1.0323076923076921
6.564016786000138,2.6649816849816848,1.6745787545787545,1.0323076923076921
6.56972855999993,2.6649816849816848,1.6745787545787545,1.0323076923076921
6.569986652000807,2.6649816849816848,1.6745787545787545,1.0323076923076921
6.575192109001364,2.6649816849816848,1.6745787545787545,1.0323076923076921
6.577584096001374,2.6617582417582417,1.9526007326007324,1.058901098901099
6.577797300000384,2.6617582417582417,1.9526007326007324,1.058901098901099
6.582538167000166,2.6617582417582417,1.9526007326007324,1.058901098901099
6.58281699500003,2.6617582417582417,1.9526007326007324,1.058901098901099
6.587600268001552,2.6617582417582417,1.9526007326007324,1.058901098901099
6.587750779002818,2.6617582417582417,1.9526007326007324,1.058901098901099
6.592776453002443,2.6617582417582417,1.9526007326007324,1.058901098901099
6.596334933001344,2.6617582417582417,1.9526007326007324,1.058901098901099
6.596503476001089,2.6617582417582417,1.9526007326007324,1.058901098901099
6.601289579000877,2.6617582417582417,1.9526007326007324,1.058901098901099
6.6071072869999625,2.6617582417582417,1.9526007326007324,1.058901098901099
6.607514870000159,2.6617582417582417,1.9526007326007324,1.058901098901099
6.612544741001329,2.6617582417582417,1.9526007326007324,1.058901098901099
6.616699487000005,1.9316483516483516,0.10476190476190475,0.06769230769230769
6.6190947009999945,1.9316483516483516,0.10476190476190475,0.06769230769230769
6.619194339000387,1.9316483516483516,0.10476190476190475,0.06769230769230769
6.624950397999783,1.9316483516483516,0.10476190476190475,0.06769230769230769
6.631010831002641,1.9316483516483516,0.10476190476190475,0.06769230769230769
6.6354165470002044,3.3,1.1338461538461537,0.4126007326007326
6.636354017002304,3.3,1.1338461538461537,0.4126007326007326
6.6373510060002445,3.3,1.1338461538461537,0.4126007326007326
6.638315244003024,3.3,1.1338461538461537,0.4126007326007326
6.639245234000555,3.3,1.1338461538461537,0.4126007326007326
6.640245328002493,3.3,1.1338461538461537,0.4126007326007326
6.641880528000911,3.3,1.1338461538461537,0.4126007326007326
6.646165417001612,3.3,1.1338461538461537,0.4126007326007326
6.647851757999888,3.3,1.1338461538461537,0.4126007326007326
6.651950242001476,3.3,1.1338461538461537,0.4126007326007326
6.655262106000009,2.4796336996336996,0.14102564102564102,0.18615384615384614
6.655604766001488,2.4796336996336996,0.14102564102564102,0.18615384615384614
6.661195274002239,2.4796336996336996,0.14102564102564102,0.18615384615384614
6.661500207002973,2.6673992673992672,1.1386813186813185,0.8646886446886447
6.666417657001148,2.6673992673992672,1.1386813186813185,0.8646886446886447
6.671424568001385,2.6673992673992672,1.1386813186813185,0.8646886446886447
6.675696865000646,2.6673992673992672,1.1386813186813185,0.8646886446886447
6.677379685999767,2.6673992673992672,1.1386813186813185,0.8646886446886447
6.6816503050031315,2.594065934065934,1.4416849816849817,0.9686446886446887
6.682559406002838,2.594065934065934,1.4416849816849817,0.9686446886446887
6.684252544000628,2.594065934065934,1.4416849816849817,0.9686446886446887
6.688314490002085,2.594065934065934,1.4416849816849817,0.9686446886446887
6.693288327001937,2.594065934065934,1.4416849816849817,0.9686446886446887
6.697337812001933,2.594065934065934,1.4416849816849817,0.9686446886446887
6.6998195630003465,2.594065934065934,1.4416849816849817,0.9686446886446887
6.705639649000659,2.594065934065934,1.4416849816849817,0.9686446886446887
6.705825344000914,2.594065934065934,1.4416849816849817,0.9686446886446887
6.710979260002205,2.594065934065934,1.4416849816849817,0.9686446886446887
6.714328027002921,2.594065934065934,1.4416849816849817,0.9686446886446887
6.715300253999885,2.594065934065934,1.4416849816849817,0.9686446886446887
6.715616403002059,2.594065934065934,1.4416849816849817,0.9686446886446887
6.72035925900127,2.594065934065934,1.4416849816849817,0.9686446886446887
6.7204999800014775,2.594065934065934,1.4416849816849817,0.9686446886446887
6.72534609700233,2.594065934065934,1.4416849816849817,0.9686446886446887
6.73124924700096,2.594065934065934,1.4416849816849817,0.9686446886446887
6.731448682003247,2.594065934065934,1.4416849816849817,0.9686446886446887
6.736425914001302,2.594065934065934,1.4416849816849817,0.9686446886446887
6.741123455001798,2.594065934065934,1.4416849816849817,0.9686446886446887
6.741233790002298,2.6714285714285713,1.1273992673992674,0.3295970695970696
6.745935970000573,2.6714285714285713,1.1273992673992674,0.3295970695970696
6.7461457820027135,2.6714285714285713,1.1273992673992674,0.3295970695970696
6.751217357999849,2.6714285714285713,1.1273992673992674,0.3295970695970696
6.754655228000047,2.6714285714285713,1.1273992673992674,0.3295970695970696
6.7549704240009305,2.262051282051282,0.17406593406593407,0.33282051282051284
6.759744613002113,2.262051282051282,0.17406593406593407,0.33282051282051284
6.759873348000838,1.7084249084249086,1.286959706959707,0.792967032967033
6.765076137002325,1.7084249084249086,1.286959706959707,0.792967032967033
6.76851263700155,1.2273260073260073,0.3465201465201465,0.05641025641025641
6.768848424002499,1.2273260073260073,0.3465201465201465,0.05641025641025641
6.774591266002972,1.2273260073260073,0.3465201465201465,0.05641025641025641
6.774835742002324,1.2273260073260073,0.3465201465201465,0.05641025641025641
6.780551779000234,1.2273260073260073,0.3465201465201465,0.05641025641025641
6.780798782001511,2.6617582417582417,1.083076923076923,0.8179487179487179
6.785993121000502,2.6617582417582417,1.083076923076923,0.8179487179487179
6.789170823001768,2.6617582417582417,1.083076923076923,0.8179487179487179
6.790094407002471,2.6617582417582417,1.083076923076923,0.8179487179487179
6.791051080002944,2.6617582417582417,1.083076923076923,0.8179487179487179
6.7926830480028,2.6617582417582417,1.083076923076923,0.8179487179487179
6.796632860001409,2.6617582417582417,1.083076923076923,0.8179487179487179
6.799841965002997,2.6617582417582417,1.083076923076923,0.8179487179487179
6.800785142000677,2.6617582417582417,1.083076923076923,0.8179487179487179
6.802422860000661,2.6617582417582417,1.083076923076923,0.8179487179487179
6.806323286000406,2.6617582417582417,1.083076923076923,0.8179487179487179
6.8102956140028255,2.6617582417582417,1.083076923076923,0.8179487179487179
6.814018320001196,2.9188278388278386,0.08703296703296703,0.18615384615384614
6.819378012001835,2.9188278388278386,0.08703296703296703,0.18615384615384614
6.822157593000156,3.3,2.2265934065934068,0.6422710622710622
6.825428244002978,3.3,2.2265934065934068,0.6422710622710622
6.827083539999876,3.3,2.2265934065934068,0.6422710622710622
6.830482025001402,3.3,2.2265934065934068,0.6422710622710622
6.830771304001246,3.3,2.2265934065934068,0.6422710622710622
6.83594139500201,3.3,2.2265934065934068,0.6422710622710622
6.8392996640031924,3.3,2.2265934065934068,0.6422710622710622
6.8395899970018945,2.6617582417582417,1.1112820512820514,0.7244688644688644
6.845583777001593,2.6617582417582417,1.1112820512820514,0.7244688644688644
6.853617687000224,3.3,0.5536263736263736,0.46498168498168496
6.860462720000214,3.3,0.46014652014652013,0.3626373626373626
6.865749104003044,3.3,0.46014652014652013,0.3626373626373626
6.866061619002721,3.3,0.46014652014652013,0.3626373626373626
6.87459256800139,3.3,0.46014652014652013,0.3626373626373626
6.883012252001208,2.071868131868132,0.13619047619047617,0.15069597069597068
6.89039264800158,2.6875457875457873,0.6946520146520146,0.7494505494505495
6.8953540550028265,3.3,0.25868131868131866,0.12087912087912088
6.90113065800324,3.3,0.25868131868131866,0.12087912087912088
6.907375047001551,2.652087912087912,1.2039560439560437,0.9726739926739927
6.911707729002956,3.00989010989011,0.28446886446886444,0.3457142857142857
6.91258265000215,3.00989010989011,0.28446886446886444,0.3457142857142857
6.915017481001996,3.00989010989011,0.28446886446886444,0.3457142857142857
6.9241382100008195,3.00989010989011,0.28446886446886444,0.3457142857142857
6.932723380003154,3.2468131868131866,0.4029304029304029,0.2079120879120879
6.939358821000496,2.9196336996336996,0.5181684981684981,0.4037362637362637
6.944602835003025,2.9196336996336996,0.5181684981684981,0.4037362637362637
6.94599892900078,2.9196336996336996,0.5181684981684981,0.4037362637362637
6.954089644001215,2.9196336996336996,0.5181684981684981,0.4037362637362637
6.960783168000489,2.9196336996336996,0.5181684981684981,0.4037362637362637
6.965312348002044,3.3,0.9033699633699634,0.8542124542124543
6.96545086000333,3.3,0.9033699633699634,0.8542124542124543
6.970143846003339,3.3,0.9033699633699634,0.8542124542124543
6.970263861003332,3.3,0.9033699633699634,0.8542124542124543
6.975046093000856,3.3,0.9033699633699634,0.8542124542124543
6.980668848002097,3.3,0.9033699633699634,0.8542124542124543
6.982450521001738,3.3,0.9033699633699634,0.8542124542124543
6.9850892780013965,3.3,0.9033699633699634,0.8542124542124543
6.989783991000877,3.3,0.9033699633699634,0.8542124542124543
6.98989193700254,3.3,0.5181684981684981,0.2651282051282051
6.995647558000201,3.3,0.5181684981684981,0.2651282051282051
6.995852639000077,3.3,0.5181684981684981,0.2651282051282051
7.000929261001147,3.3,0.5181684981684981,0.2651282051282051
7.005155524002475,3.3,0.5181684981684981,0.2651282051282051
7.006798649003031,3.3,0.5181684981684981,0.2651282051282051
7.010920004002401,3.3,0.5181684981684981,0.2651282051282051
7.013391775002674,3.2178021978021976,0.14989010989010987,0.12571428571428572
7.01362304000213,3.2178021978021976,0.14989010989010987,0.12571428571428572
7.019355415002792,1.6189743589743588,0.5963369963369963,0.49882783882783877
7.024672907002241,3.1404395604395603,1.1725274725274726,0.8638827838827838
7.026921567001409,1.4626373626373625,0.3698901098901099,0.18776556776556774
7.027871920003236,1.4626373626373625,0.3698901098901099,0.18776556776556774
7.028746975000104,1.4626373626373625,0.3698901098901099,0.18776556776556774
7.030342404003022,1.4626373626373625,0.3698901098901099,0.18776556776556774
7.035322821000591,1.4626373626373625,0.3698901098901099,0.18776556776556774
7.03965982400041,1.4626373626373625,0.3698901098901099,0.18776556776556774
7.041892750999978,2.6536996336996337,1.0967765567765566,0.9952380952380951
7.042825499000173,2.6536996336996337,1.0967765567765566,0.9952380952380951
7.043881121000595,2.6536996336996337,1.0967765567765566,0.9952380952380951
7.044760029002646,2.6536996336996337,1.0967765567765566,0.9952380952380951
7.045657202001166,2.6536996336996337,1.0967765567765566,0.9952380952380951
7.047249576000468,2.6536996336996337,1.0967765567765566,0.9952380952380951
7.050940245000675,3.3,0.11846153846153845,0.3167032967032967
7.051093166002829,3.3,0.11846153846153845,0.3167032967032967
7.0561177840027085,3.3,0.11846153846153845,0.3167032967032967
7.060499716000777,3.3,0.11846153846153845,0.3167032967032967
7.0627570990000095,3.3,0.11846153846153845,0.3167032967032967
7.063011846999871,3.3,0.11846153846153845,0.3167032967032967
7.068083624002611,3.3,0.11846153846153845,0.3167032967032967
7.0714305190012965,2.8632234432234434,0.14908424908424908,0.16197802197802197
7.07237769400308,2.8632234432234434,0.14908424908424908,0.16197802197802197
7.0732887190024485,2.8632234432234434,0.14908424908424908,0.16197802197802197
7.074957456003176,2.8632234432234434,0.14908424908424908,0.16197802197802197
7.078160292003304,2.8632234432234434,0.14908424908424908,0.16197802197802197
7.079874175000441,2.8632234432234434,0.14908424908424908,0.16197802197802197
7.083767312000418,2.6617582417582417,0.7212454212454212,0.39890109890109887
7.087757692002924,2.6617582417582417,0.7212454212454212,0.39890109890109887
7.091691942001489,3.235531135531135,0.10315018315018315,0.18937728937728937
7.096189443000185,2.3160439560439556,0.08058608058608058,0.12329670329670328
7.097430368001369,2.697216117216117,0.6326007326007326,0.5455677655677655
7.106275287002063,2.697216117216117,0.6326007326007326,0.5455677655677655
7.114049784002418,2.697216117216117,0.6326007326007326,0.5455677655677655
7.11945418400137,2.697216117216117,0.6326007326007326,0.5455677655677655
7.1202282200029,2.697216117216117,0.6326007326007326,0.5455677655677655
7.121789565000654,2.697216117216117,0.6326007326007326,0.5455677655677655
7.126096759002394,1.4432967032967032,0.6624175824175824,0.13619047619047617
7.128380604000995,1.4432967032967032,0.6624175824175824,0.13619047619047617
7.129189703002339,1.4432967032967032,0.6624175824175824,0.13619047619047617
7.130733534002502,1.4432967032967032,0.6624175824175824,0.13619047619047617
7.135704621003242,1.4432967032967032,0.6624175824175824,0.13619047619047617
7.140935475003062,2.693992673992674,0.4158241758241758,0.4964102564102564
7.144068112000241,2.5005860805860802,0.25465201465201465,0.06769230769230769
7.145627654001146,2.5005860805860802,0.25465201465201465,0.06769230769230769
7.149979263002024,2.5005860805860802,0.25465201465201465,0.06769230769230769
7.151473148001969,2.5005860805860802,0.25465201465201465,0.06769230769230769
7.155732795999938,2.5005860805860802,0.25465201465201465,0.06769230769230769
7.157281026000419,2.5005860805860802,0.25465201465201465,0.06769230769230769
7.161682909001684,2.5005860805860802,0.25465201465201465,0.06769230769230769
7.163881068001501,2.5005860805860802,0.25465201465201465,0.06769230769230769
7.164161144002719,2.5005860805860802,0.25465201465201465,0.06769230769230769
7.169192853001732,2.5005860805860802,0.25465201465201465,0.06769230769230769
7.1743985660032195,2.5005860805860802,0.25465201465201465,0.06769230769230769
7.17834066100113,3.3,2.1726007326007326,0.7575091575091575
7.182310949003295,3.3,2.1726007326007326,0.7575091575091575
7.185650167000858,3.3,2.1726007326007326,0.7575091575091575
7.185925924000912,3.3,2.1726007326007326,0.7575091575091575
7.190688875001797,3.3,2.1726007326007326,0.7575091575091575
7.190971217001788,3.3,2.1726007326007326,0.7575091575091575
7.196045434000553,2.7004395604395603,1.5665934065934064,0.8638827838827838
7.200205987002846,2.7004395604395603,1.5665934065934064,0.8638827838827838
7.202779134000593,2.6649816849816848,0.7937728937728937,0.5761904761904761
7.209174966003047,2.6649816849816848,0.7937728937728937,0.5761904761904761
7.215306040001451,2.6649816849816848,0.7937728937728937,0.5761904761904761
