time,emg1,emg2,emg3
0.0017098060015996452,2.7004395604395603,0.32717948717948714,0.025787545787545788
0.022874528000102146,2.7004395604395603,0.32717948717948714,0.025787545787545788
0.04197887800182798,2.7004395604395603,0.32717948717948714,0.025787545787545788
0.042321846001868835,2.6746520146520147,0.7397802197802198,0.14344322344322344
0.05049236600098084,2.6746520146520147,0.7397802197802198,0.14344322344322344
0.05700190200150246,2.958315018315018,0.7430036630036629,0.5512087912087912
0.061507730999437626,2.958315018315018,0.7430036630036629,0.5512087912087912
0.06247995699959574,2.958315018315018,0.7430036630036629,0.5512087912087912
0.06351128000096651,2.958315018315018,0.7430036630036629,0.5512087912087912
0.06446661500012851,2.958315018315018,0.7430036630036629,0.5512087912087912
0.06547777300147573,2.958315018315018,0.7430036630036629,0.5512087912087912
0.0665006290000747,2.958315018315018,0.7430036630036629,0.5512087912087912
0.06746433200169122,2.958315018315018,0.7430036630036629,0.5512087912087912
0.06847049499992863,2.958315018315018,0.7430036630036629,0.5512087912087912
0.06947575300000608,2.958315018315018,0.7430036630036629,0.5512087912087912
0.07046352100223885,2.958315018315018,0.7430036630036629,0.5512087912087912
0.07146379700134275,2.958315018315018,0.7430036630036629,0.5512087912087912
0.07246649900116608,2.958315018315018,0.7430036630036629,0.5512087912087912
0.07349365800109808,2.958315018315018,0.7430036630036629,0.5512087912087912
0.07444051900165505,2.958315018315018,0.7430036630036629,0.5512087912087912
0.07545050300177536,2.958315018315018,0.7430036630036629,0.5512087912087912
0.07647925200217287,2.958315018315018,0.7430036630036629,0.5512087912087912
0.07744282299972838,2.958315018315018,0.7430036630036629,0.5512087912087912
0.07843959599995287,2.958315018315018,0.7430036630036629,0.5512087912087912
0.07944219400087604,2.958315018315018,0.7430036630036629,0.5512087912087912
0.0804156869999133,2.958315018315018,0.7430036630036629,0.5512087912087912
0.08211971700075082,2.958315018315018,0.7430036630036629,0.5512087912087912
0.085386748000019,2.958315018315018,0.7430036630036629,0.5512087912087912
0.0863436420004291,2.958315018315018,0.7430036630036629,0.5512087912087912
0.08726791300068726,2.958315018315018,0.7430036630036629,0.5512087912087912
0.08965609900042182,2.958315018315018,0.7430036630036629,0.5512087912087912
0.0972713000010117,3.3,2.265274725274725,0.4424175824175824
0.10209513100198819,2.9776556776556777,0.1095970695970696,0.14908424908424908
0.10224299800029257,2.9776556776556777,0.1095970695970696,0.14908424908424908
0.10690751700167311,2.9776556776556777,0.1095970695970696,0.14908424908424908
0.1071322110001347,2.9776556776556777,0.1095970695970696,0.14908424908424908
0.11267044100168278,2.9776556776556777,0.1095970695970696,0.14908424908424908
0.1135084529996675,2.9776556776556777,0.1095970695970696,0.14908424908424908
0.11518215900287032,2.9776556776556777,0.1095970695970696,0.14908424908424908
0.11904274700282258,2.9776556776556777,0.1095970695970696,0.14908424908424908
0.12361900700125261,2.9776556776556777,0.1095970695970696,0.14908424908424908
0.124446074001753,2.9776556776556777,0.1095970695970696,0.14908424908424908
0.12626127700059442,2.9776556776556777,0.1095970695970696,0.14908424908424908
0.13015839400031837,2.7004395604395603,0.8638827838827838,0.24095238095238095
0.13413679900259012,3.3,0.31186813186813184,0.10073260073260072
0.13818469400212052,3.3,2.294285714285714,0.5641025641025641
0.14218646900189924,3.3,2.294285714285714,0.5641025641025641
0.14651282200065907,3.3,2.294285714285714,0.5641025641025641
0.1468693210008496,3.3,2.294285714285714,0.5641025641025641
0.15295207600138383,3.3,2.294285714285714,0.5641025641025641
0.15686271900267457,3.3,2.294285714285714,0.5641025641025641
0.1614031490025809,3.3,2.294285714285714,0.5641025641025641
0.16232170300281723,3.3,2.294285714285714,0.5641025641025641
0.1639571910018276,3.3,2.294285714285714,0.5641025641025641
0.16787616500005242,3.3,2.294285714285714,0.5641025641025641
0.17193399100142415,2.726227106227106,0.5044688644688645,0.14424908424908423
0.17513945000246167,3.3,3.1388278388278383,0.3505494505494505
0.1768912879997515,3.3,3.1388278388278383,0.3505494505494505
0.18187182000110624,2.702051282051282,1.9050549450549448,0.8582417582417583
0.18537384400042356,2.702051282051282,1.9050549450549448,0.8582417582417583
0.1855694570003834,2.702051282051282,1.9050549450549448,0.8582417582417583
0.19258560100206523,3.3,0.4045421245421245,0.1249084249084249
0.1975553200027207,3.3,0.4045421245421245,0.1249084249084249
0.2038454730027297,2.7044688644688644,2.104102564102564,0.9992673992673992
0.20849967400135938,2.702051282051282,1.087106227106227,0.47062271062271055
0.21638590300062788,2.702051282051282,1.087106227106227,0.47062271062271055
0.22558335400026408,3.3,0.10637362637362638,0.16278388278388278
0.23368560600283672,3.3,0.10637362637362638,0.16278388278388278
0.24247640500107082,3.3,0.10637362637362638,0.16278388278388278
0.2497230410008342,3.3,0.10637362637362638,0.16278388278388278
0.2563193259993568,3.3,0.10637362637362638,0.16278388278388278
0.2619205660012085,3.1227106227106223,0.08703296703296703,0.0
0.2682204430020647,3.1227106227106223,0.08703296703296703,0.0
0.2731161180017807,3.1227106227106223,0.08703296703296703,0.0
0.2769961090016295,3.3,2.792307692307692,0.3263736263736263
0.2809623970024404,3.3,2.792307692307692,0.3263736263736263
0.2841917590012599,3.3,3.1726739926739924,0.7897435897435897
0.2864945940018515,3.3,3.1726739926739924,0.7897435897435897
0.28668352699969546,3.3,3.1726739926739924,0.7897435897435897
0.2929161890024261,3.3,3.1726739926739924,0.7897435897435897
0.2969604000027175,2.6536996336996337,0.5987545787545787,0.39809523809523806
0.30021730400039814,2.56989010989011,0.12813186813186814,0.08058608058608058
0.3024834669995471,2.56989010989011,0.12813186813186814,0.08058608058608058
0.3026370160005172,2.56989010989011,0.12813186813186814,0.08058608058608058
0.30875765600285376,2.56989010989011,0.12813186813186814,0.08058608058608058
0.3137454730022,3.3,0.2868864468864469,0.13538461538461538
0.3176529810007196,3.3,2.937362637362637,0.4029304029304029
0.3241179920005379,3.3,2.937362637362637,0.4029304029304029
0.32996819600157323,3.3,2.937362637362637,0.4029304029304029
0.3369619790028082,3.3,2.937362637362637,0.4029304029304029
0.3411969000007957,3.3,2.937362637362637,0.4029304029304029
0.342867801002285,3.3,2.937362637362637,0.4029304029304029
0.3460583960004442,3.3,2.937362637362637,0.4029304029304029
0.3484713569996529,2.7004395604395603,0.95010989010989,0.2917216117216117
0.3486474060009641,2.7004395604395603,0.95010989010989,0.2917216117216117
0.3550388590010698,2.7004395604395603,0.95010989010989,0.2917216117216117
0.3600176800027839,2.7004395604395603,0.95010989010989,0.2917216117216117
0.36323757200079854,2.7004395604395603,0.95010989010989,0.2917216117216117
0.3649206629997934,2.7004395604395603,0.95010989010989,0.2917216117216117
0.3703694659998291,2.7004395604395603,0.95010989010989,0.2917216117216117
0.37064642699988326,2.6585347985347987,0.5133333333333333,0.07816849816849816
0.3761656610004138,2.6585347985347987,0.5133333333333333,0.07816849816849816
0.37646461999975145,2.6794871794871793,0.8953113553113552,0.46820512820512816
0.3812947330006864,2.6794871794871793,0.8953113553113552,0.46820512820512816
0.38881876600135,2.6794871794871793,0.8953113553113552,0.46820512820512816
0.3937354530025914,2.7036630036630034,1.0016849816849815,0.3739194139194139
0.3986159410014807,3.3,0.11282051282051282,0.1539194139194139
0.3987205699995684,3.3,0.11282051282051282,0.1539194139194139
0.4061866949996329,3.3,0.11282051282051282,0.1539194139194139
0.411968522999814,3.3,2.6964102564102563,0.7615384615384615
0.416678306999529,2.705274725274725,0.7075457875457875,0.2756043956043956
0.4245620880028582,2.705274725274725,0.7075457875457875,0.2756043956043956
0.429318004000379,2.705274725274725,0.7075457875457875,0.2756043956043956
0.42953640700216056,2.705274725274725,0.7075457875457875,0.2756043956043956
0.4343088599998737,3.3,0.7881318681318681,0.42388278388278383
0.43448405300296145,3.3,0.7881318681318681,0.42388278388278383
0.441248817001906,3.3,0.7881318681318681,0.42388278388278383
0.4451678120021825,2.702857142857143,2.133113553113553,0.8219780219780219
0.4491859510017093,2.702857142857143,2.133113553113553,0.8219780219780219
0.4542108860005101,2.6714285714285713,0.6035897435897435,0.14505494505494507
0.4587691020024067,2.6714285714285713,0.6035897435897435,0.14505494505494507
0.46778696600085823,2.6714285714285713,0.6035897435897435,0.14505494505494507
0.4769171690022631,2.6714285714285713,0.6035897435897435,0.14505494505494507
0.4873732670021127,2.6714285714285713,0.6035897435897435,0.14505494505494507
0.493190647001029,2.6665934065934067,1.4376556776556777,0.8284249084249083
0.4980655840008694,2.6649816849816848,0.5358974358974359,0.34007326007326005
0.504586532999383,2.6649816849816848,0.5358974358974359,0.34007326007326005
0.5083818460007024,2.6649816849816848,0.5358974358974359,0.34007326007326005
0.5132956790002936,2.6649816849816848,0.5358974358974359,0.34007326007326005
0.518929758000013,2.6649816849816848,0.5358974358974359,0.34007326007326005
0.519257779000327,2.6649816849816848,0.5358974358974359,0.34007326007326005
0.5257958960028191,2.6649816849816848,0.5358974358974359,0.34007326007326005
0.5298247540013108,2.6649816849816848,0.5358974358974359,0.34007326007326005
0.5329738060027012,2.6649816849816848,0.5358974358974359,0.34007326007326005
0.5364915850004763,2.6649816849816848,0.5358974358974359,0.34007326007326005
0.5451009500029613,2.6649816849816848,0.5358974358974359,0.34007326007326005
0.5509885640021821,2.0009523809523806,1.6592673992673992,0.855018315018315
0.5511114440014353,2.693186813186813,0.4319413919413919,0.10153846153846154
0.5590447739996307,2.693186813186813,0.4319413919413919,0.10153846153846154
0.5638759710018348,2.693186813186813,0.4319413919413919,0.10153846153846154
0.5691525830006867,2.693186813186813,0.4319413919413919,0.10153846153846154
0.5743230879998009,2.6682051282051282,0.5608791208791208,0.12571428571428572
0.5759756780025782,3.3,0.09992673992673992,0.16117216117216115
0.5817241580007249,3.3,0.09992673992673992,0.16117216117216115
0.5919106490000559,2.743956043956044,1.6657142857142855,0.925128205128205
0.5983656140015228,2.743956043956044,1.6657142857142855,0.925128205128205
0.6024368070029595,2.743956043956044,1.6657142857142855,0.925128205128205
0.60705790800057,2.743956043956044,1.6657142857142855,0.925128205128205
0.6120857599998999,2.743956043956044,1.6657142857142855,0.925128205128205
0.615983273000893,2.6673992673992672,0.6390476190476191,0.448058608058608
0.6232684610004071,2.6673992673992672,0.6390476190476191,0.448058608058608
0.628913571999874,2.6673992673992672,0.6390476190476191,0.448058608058608
0.6345598350017099,2.6673992673992672,0.6390476190476191,0.448058608058608
0.6363095859996974,2.6673992673992672,0.6390476190476191,0.448058608058608
0.6397230450020288,2.698827838827839,2.0307692307692307,0.9758974358974358
0.6458023660015897,2.698827838827839,2.0307692307692307,0.9758974358974358
0.6504842530011956,2.7004395604395603,1.4183150183150184,0.7832967032967032
0.6506548060024215,2.7004395604395603,1.4183150183150184,0.7832967032967032
0.6570976740003971,2.7004395604395603,1.4183150183150184,0.7832967032967032
0.6609914770015166,2.7004395604395603,1.4183150183150184,0.7832967032967032
0.6656700010025816,2.7004395604395603,1.4183150183150184,0.7832967032967032
0.6658444750028139,2.7004395604395603,1.4183150183150184,0.7832967032967032
0.6732772909999767,2.7004395604395603,1.4183150183150184,0.7832967032967032
0.6774372460022278,2.7004395604395603,1.4183150183150184,0.7832967032967032
0.6791523370011419,2.7004395604395603,1.4183150183150184,0.7832967032967032
0.6830105139997613,2.7004395604395603,1.4183150183150184,0.7832967032967032
0.6893881659998442,3.3,2.281391941391941,0.6535531135531135
0.6928701070028183,3.3,2.281391941391941,0.6535531135531135
0.6931690810015425,3.3,2.281391941391941,0.6535531135531135
0.6987815490028879,3.3,2.281391941391941,0.6535531135531135
0.6990310920009506,3.3,2.281391941391941,0.6535531135531135
0.7062999520021549,3.3,2.281391941391941,0.6535531135531135
0.7105757870012894,2.698827838827839,1.0580952380952382,0.4182417582417582
0.7115356079993944,2.66014652014652,0.5004395604395604,0.0846153846153846
0.7132432260004862,2.66014652014652,0.5004395604395604,0.0846153846153846
0.7171388030001253,2.66014652014652,0.5004395604395604,0.0846153846153846
0.7234910590013897,2.6714285714285713,1.569010989010989,0.6696703296703297
0.7266999960011162,2.7036630036630034,0.2627106227106227,0.23369963369963367
0.7283457260018622,2.7036630036630034,0.2627106227106227,0.23369963369963367
0.7324180120012898,2.7036630036630034,0.2627106227106227,0.23369963369963367
0.7359542369995324,2.7036630036630034,0.2627106227106227,0.23369963369963367
0.745650247001322,2.9687912087912087,0.112014652014652,0.083003663003663
0.7511769100019592,2.9687912087912087,0.112014652014652,0.083003663003663
0.7544666450012301,3.3,2.472380952380952,0.49721611721611714
0.7546350800002983,3.167838827838828,0.10798534798534798,0.11765567765567764
0.7600663010016433,3.167838827838828,0.10798534798534798,0.11765567765567764
0.7627262220012199,3.167838827838828,0.10798534798534798,0.11765567765567764
0.7665394380019279,3.167838827838828,0.10798534798534798,0.11765567765567764
0.7752778890026093,3.167838827838828,0.10798534798534798,0.11765567765567764
0.7792314520011132,3.167838827838828,0.10798534798534798,0.11765567765567764
0.7837984530015092,3.167838827838828,0.10798534798534798,0.11765567765567764
0.7840208670022548,0.8808058608058608,1.627032967032967,0.7623443223443224
0.7925492390022555,0.8808058608058608,1.627032967032967,0.7623443223443224
0.7972901560024184,3.3,0.1523076923076923,0.2079120879120879
0.7974682620006206,2.7004395604395603,2.1999999999999997,0.9750915750915751
0.8024256650023744,2.7004395604395603,2.1999999999999997,0.9750915750915751
0.8092000840006222,2.7004395604395603,2.1999999999999997,0.9750915750915751
0.8131940260027477,2.7036630036630034,0.8542124542124543,0.26593406593406593
0.8170456160005415,3.3,2.5908424908424905,0.4279120879120879
0.8245372980018146,3.3,2.5908424908424905,0.4279120879120879
0.8284730949999357,3.3,2.5908424908424905,0.4279120879120879
0.8330120460013859,3.3,2.5908424908424905,0.4279120879120879
0.8333011480026471,3.3,2.5908424908424905,0.4279120879120879
0.8403848350026237,3.3,2.5908424908424905,0.4279120879120879
0.8443642660022306,3.3,2.5908424908424905,0.4279120879120879
0.8483649020017765,2.702857142857143,1.1564102564102563,0.6656410256410257
0.8537738240011095,2.702857142857143,1.1564102564102563,0.6656410256410257
0.8540203590018791,3.195238095238095,0.1523076923076923,0.1676190476190476
0.8597482590012078,3.195238095238095,0.1523076923076923,0.1676190476190476
0.8600089650026348,3.195238095238095,0.1523076923076923,0.1676190476190476
0.8647374690008292,3.195238095238095,0.1523076923076923,0.1676190476190476
0.8650930730000255,3.3,1.5085714285714285,0.8816117216117215
0.8722366020010668,3.3,1.5085714285714285,0.8816117216117215
0.8780677190006827,3.3,1.5085714285714285,0.8816117216117215
0.8843049170027371,3.3,1.5085714285714285,0.8816117216117215
0.8908153340016725,3.3,1.5085714285714285,0.8816117216117215
0.8957083460009017,2.681098901098901,0.6503296703296703,0.2208058608058608
0.9012608590019227,3.3,0.11282051282051282,0.21597069597069596
0.9093914799996128,3.3,0.11282051282051282,0.21597069597069596
0.916958590001741,3.3,0.11282051282051282,0.21597069597069596
0.9239716480005882,3.3,0.11282051282051282,0.21597069597069596
0.929589950999798,2.705274725274725,0.6406593406593406,0.16117216117216115
0.9410251360022812,2.685934065934066,0.6342124542124542,0.23208791208791207
0.9495846989993879,3.3,2.1089377289377285,0.618095238095238
0.9565885289994185,3.3,2.1089377289377285,0.618095238095238
0.9606291070012958,3.3,2.1089377289377285,0.618095238095238
0.9637115290024667,3.3,2.1089377289377285,0.618095238095238
0.9653189010023198,3.3,2.1089377289377285,0.618095238095238
0.9706455420018756,3.3,2.1089377289377285,0.618095238095238
0.9720597760024248,3.3,2.1089377289377285,0.618095238095238
0.9770569820029777,3.3,2.1089377289377285,0.618095238095238
0.9818194649997167,3.3,2.1089377289377285,0.618095238095238
0.9894440019998001,3.3,2.1089377289377285,0.618095238095238
0.9934539390014834,2.7036630036630034,1.3095238095238093,0.5487912087912087
0.9972579960012808,2.7036630036630034,1.3095238095238093,0.5487912087912087
1.0024231740026153,2.7036630036630034,1.3095238095238093,0.5487912087912087
1.0055337940029858,2.7036630036630034,1.3095238095238093,0.5487912087912087
1.0065364220026822,2.7036630036630034,1.3095238095238093,0.5487912087912087
1.0074886300026265,2.7036630036630034,1.3095238095238093,0.5487912087912087
1.0092652109997289,2.7036630036630034,1.3095238095238093,0.5487912087912087
1.011763016002078,2.7036630036630034,1.3095238095238093,0.5487912087912087
1.0118988040012482,2.7036630036630034,1.3095238095238093,0.5487912087912087
1.0167026250019262,2.7036630036630034,1.3095238095238093,0.5487912087912087
1.016873739001312,3.167838827838828,0.1418315018315018,0.14505494505494507
1.0234704940012307,3.167838827838828,0.1418315018315018,0.14505494505494507
1.0274009040003875,3.3,2.5835897435897435,0.6575824175824176
1.031873997002549,2.6843223443223443,0.942051282051282,0.28849816849816845
1.0327117779997934,2.6843223443223443,0.942051282051282,0.28849816849816845
1.0346392200008268,2.6843223443223443,0.942051282051282,0.28849816849816845
1.0378930629995011,2.6843223443223443,0.942051282051282,0.28849816849816845
1.0382698450011958,2.6843223443223443,0.942051282051282,0.28849816849816845
1.0441005530010443,2.6843223443223443,0.942051282051282,0.28849816849816845
1.048070455002744,2.7044688644688644,1.1821978021978021,0.5463736263736263
1.051527479001379,2.7044688644688644,1.1821978021978021,0.5463736263736263
1.0520536240001093,2.7044688644688644,1.1821978021978021,0.5463736263736263
1.057142390000081,2.7044688644688644,1.1821978021978021,0.5463736263736263
1.0589228810022178,2.7044688644688644,1.1821978021978021,0.5463736263736263
1.0617727570024726,2.7044688644688644,1.1821978021978021,0.5463736263736263
1.0642192939994857,2.7044688644688644,1.1821978021978021,0.5463736263736263
1.0643527150023147,2.7044688644688644,1.1821978021978021,0.5463736263736263
1.0702273880015127,2.7044688644688644,1.1821978021978021,0.5463736263736263
1.0761373519999324,2.7044688644688644,1.1821978021978021,0.5463736263736263
1.0817420090024825,2.7044688644688644,1.1821978021978021,0.5463736263736263
1.0820797590022266,2.7044688644688644,1.1821978021978021,0.5463736263736263
1.0868319500004873,2.7044688644688644,1.1821978021978021,0.5463736263736263
1.0924722870004189,2.681098901098901,0.6688644688644688,0.11846153846153845
1.0941446739998355,2.681098901098901,0.6688644688644688,0.11846153846153845
1.0973896350005816,2.681098901098901,0.6688644688644688,0.11846153846153845
1.0990205769994645,2.681098901098901,0.6688644688644688,0.11846153846153845
1.1030013090021384,2.698827838827839,1.5416117216117216,0.6446886446886446
1.1068018690020835,2.698827838827839,1.5416117216117216,0.6446886446886446
1.111278107000544,2.698827838827839,1.5416117216117216,0.6446886446886446
1.1121974550005689,2.6585347985347987,0.46095238095238095,0.07897435897435898
1.1138512649995391,2.6585347985347987,0.46095238095238095,0.07897435897435898
1.1179166410001926,2.6585347985347987,0.46095238095238095,0.07897435897435898
1.1209531420026906,2.6585347985347987,0.46095238095238095,0.07897435897435898
1.1234173400007421,2.6585347985347987,0.46095238095238095,0.07897435897435898
1.1236710260018299,2.6706227106227107,1.4086446886446886,0.8252014652014652
1.1282655200011504,2.6706227106227107,1.4086446886446886,0.8252014652014652
1.1285479460020724,2.6706227106227107,1.4086446886446886,0.8252014652014652
1.1334115710014885,3.3,0.25868131868131866,0.1386080586080586
1.1389520060001814,2.7197802197802194,0.7002930402930403,0.48432234432234433
1.1398041450011078,2.7004395604395603,0.6261538461538461,0.14102564102564102
1.1413909740003874,2.7004395604395603,0.6261538461538461,0.14102564102564102
1.1453777509996144,2.7004395604395603,0.6261538461538461,0.14102564102564102
1.1493521289994533,2.7004395604395603,0.6261538461538461,0.14102564102564102
1.155585106000217,2.7004395604395603,0.6261538461538461,0.14102564102564102
1.1606210770005418,2.7004395604395603,0.6261538461538461,0.14102564102564102
1.163751667001634,2.7004395604395603,0.6261538461538461,0.14102564102564102
1.165402164002444,2.7004395604395603,0.6261538461538461,0.14102564102564102
1.1708056870011205,2.7004395604395603,0.6261538461538461,0.14102564102564102
1.1720593190002546,3.3,3.082417582417582,0.33684981684981685
1.1722988760011503,3.3,3.082417582417582,0.33684981684981685
1.1771679490011593,3.3,3.082417582417582,0.33684981684981685
1.1826477840004372,3.3,3.082417582417582,0.33684981684981685
1.1849056760001986,3.3,3.082417582417582,0.33684981684981685
1.185148513999593,3.3,3.082417582417582,0.33684981684981685
1.1907115079993673,3.3,3.082417582417582,0.33684981684981685
1.1908862279997265,3.3,3.082417582417582,0.33684981684981685
1.1962818840002,3.3,2.3676190476190473,0.43355311355311354
1.1990657420028583,3.3,2.3676190476190473,0.43355311355311354
1.2034084219994838,3.3,2.3676190476190473,0.43355311355311354
1.2051855410027201,2.690769230769231,1.4610256410256408,0.8284249084249083
1.2079724950017408,2.690769230769231,1.4610256410256408,0.8284249084249083
1.2118856660017627,2.690769230769231,1.4610256410256408,0.8284249084249083
1.2160567460014136,2.690769230769231,1.4610256410256408,0.8284249084249083
1.2184014710001065,2.690769230769231,1.4610256410256408,0.8284249084249083
1.2185934290027944,2.690769230769231,1.4610256410256408,0.8284249084249083
1.2235434670001268,2.690769230769231,1.4610256410256408,0.8284249084249083
1.2280532110016793,2.690769230769231,1.4610256410256408,0.8284249084249083
1.2283288950020506,2.690769230769231,1.4610256410256408,0.8284249084249083
1.2330086239999218,2.690769230769231,1.4610256410256408,0.8284249084249083
1.2388639630007674,3.3,2.3998534798534794,0.5415384615384615
1.2389976750018832,2.6722344322344322,1.9864468864468863,0.8243956043956043
1.2436177080016932,2.6722344322344322,1.9864468864468863,0.8243956043956043
1.2438781230011955,2.6722344322344322,1.9864468864468863,0.8243956043956043
1.248446301000513,2.6722344322344322,1.9864468864468863,0.8243956043956043
1.2493088340015674,2.6722344322344322,1.9864468864468863,0.8243956043956043
1.2509274010008085,2.6722344322344322,1.9864468864468863,0.8243956043956043
1.2547355500028061,2.6722344322344322,1.9864468864468863,0.8243956043956043
1.259295244999521,2.6722344322344322,1.9864468864468863,0.8243956043956043
1.2595972920025815,2.6722344322344322,1.9864468864468863,0.8243956043956043
1.2642016829995555,2.6722344322344322,1.9864468864468863,0.8243956043956043
1.2644689030021254,2.6722344322344322,1.9864468864468863,0.8243956043956043
1.2691226759998244,2.6722344322344322,1.9864468864468863,0.8243956043956043
1.2693500260029396,2.6722344322344322,1.9864468864468863,0.8243956043956043
1.2741913589998148,2.6722344322344322,1.9864468864468863,0.8243956043956043
1.2797483899994404,2.6722344322344322,1.9864468864468863,0.8243956043956043
1.2799996430003375,2.6722344322344322,1.9864468864468863,0.8243956043956043
1.2846315980023064,2.6722344322344322,1.9864468864468863,0.8243956043956043
1.2849319010019826,2.6722344322344322,1.9864468864468863,0.8243956043956043
1.2894657380020362,2.6722344322344322,1.9864468864468863,0.8243956043956043
1.2903005620028125,2.6722344322344322,1.9864468864468863,0.8243956043956043
1.291953978001402,2.6722344322344322,1.9864468864468863,0.8243956043956043
1.2952001110024867,2.6722344322344322,1.9864468864468863,0.8243956043956043
1.2969546200001787,2.6722344322344322,1.9864468864468863,0.8243956043956043
1.2994536820006033,2.6722344322344322,1.9864468864468863,0.8243956043956043
1.3056605189995025,2.6722344322344322,1.9864468864468863,0.8243956043956043
1.3098325760001899,2.6722344322344322,1.9864468864468863,0.8243956043956043
1.3115244990003703,2.6722344322344322,1.9864468864468863,0.8243956043956043
1.3155383310004254,3.3,2.727032967032967,0.3908424908424908
1.3187569460023951,3.3,2.727032967032967,0.3908424908424908
1.3196479409998574,2.7004395604395603,2.0863736263736263,1.008937728937729
1.321306829002424,2.7004395604395603,2.0863736263736263,1.008937728937729
1.325288610001735,3.3,3.1887912087912085,0.7704029304029304
1.3295773120007652,3.3,3.1887912087912085,0.7704029304029304
1.3313568779994966,3.3,3.1887912087912085,0.7704029304029304
1.334983448999992,3.3,3.1887912087912085,0.7704029304029304
1.3411212050014,2.7125274725274724,0.8775824175824175,0.4819047619047619
1.3463040830029058,2.7125274725274724,0.8775824175824175,0.4819047619047619
1.3488825880012882,2.702051282051282,1.1547985347985346,0.5584615384615385
1.3539452010008972,2.702051282051282,1.1547985347985346,0.5584615384615385
1.3587624400024652,3.3,2.3087912087912086,0.4891575091575091
1.3642189120000694,2.702051282051282,0.9283516483516483,0.3352380952380952
1.3664205460008816,3.3,1.1789743589743589,0.4891575091575091
1.3666326610000397,3.3,1.1789743589743589,0.4891575091575091
1.373854277000646,3.3,1.1789743589743589,0.4891575091575091
1.378272857000411,3.3,1.1789743589743589,0.4891575091575091
1.3800485620013205,3.3,1.1789743589743589,0.4891575091575091
1.3831815770026878,3.3,1.1789743589743589,0.4891575091575091
1.3854950589993678,2.6633699633699632,1.4747252747252748,0.7744322344322344
1.3857407930008776,2.6633699633699632,1.4747252747252748,0.7744322344322344
1.3908434360018873,2.6633699633699632,1.4747252747252748,0.7744322344322344
1.3960783590009669,3.3,0.4254945054945055,0.1095970695970696
1.399425499002973,2.652087912087912,1.3538461538461537,0.6245421245421244
1.3996997460017155,2.652087912087912,1.3538461538461537,0.6245421245421244
1.4055478129994299,2.652087912087912,1.3538461538461537,0.6245421245421244
1.405763876002311,2.652087912087912,1.3538461538461537,0.6245421245421244
1.4108690140019462,2.652087912087912,1.3538461538461537,0.6245421245421244
1.4144176890004019,2.652087912087912,1.3538461538461537,0.6245421245421244
1.4146811579994392,3.3,0.32476190476190475,0.3529670329670329
1.421925579001254,3.3,0.32476190476190475,0.3529670329670329
1.429757324000093,2.7036630036630034,1.5891575091575092,0.7349450549450549
1.4367907060004654,2.7036630036630034,0.7832967032967032,0.24175824175824176
1.442137198002456,3.3,0.32798534798534795,0.3142857142857142
1.4436803820026398,2.7004395604395603,2.075897435897436,0.834065934065934
1.4496326450025663,2.7004395604395603,2.075897435897436,0.834065934065934
1.4533206209998752,2.6545054945054947,0.5423443223443223,0.07736263736263736
1.4608768590005639,2.6545054945054947,0.5423443223443223,0.07736263736263736
1.4662639140005922,2.7246153846153844,0.5866666666666667,0.15794871794871795
1.466636068002117,2.7246153846153844,0.5866666666666667,0.15794871794871795
1.4748146109996014,2.7246153846153844,0.5866666666666667,0.15794871794871795
1.4809080869999889,2.7246153846153844,0.5866666666666667,0.15794871794871795
1.4850220970001828,2.6536996336996337,0.3843956043956044,0.3698901098901099
1.4883008489996428,2.73992673992674,1.2015384615384614,0.5705494505494505
1.4893212349998066,2.73992673992674,1.2015384615384614,0.5705494505494505
1.48960600600185,2.73992673992674,1.2015384615384614,0.5705494505494505
1.4976119300008577,2.73992673992674,1.2015384615384614,0.5705494505494505
1.502934970001661,2.73992673992674,1.2015384615384614,0.5705494505494505
1.5043486950016813,2.705274725274725,0.3287912087912088,0.2232234432234432
1.5133523300028173,2.705274725274725,0.3287912087912088,0.2232234432234432
1.5212069130029704,2.705274725274725,0.3287912087912088,0.2232234432234432
1.5273229820013512,2.705274725274725,0.3287912087912088,0.2232234432234432
1.5308886790007818,2.705274725274725,0.3287912087912088,0.2232234432234432
1.531108058999962,2.705274725274725,0.3287912087912088,0.2232234432234432
1.5361156649996701,2.705274725274725,0.3287912087912088,0.2232234432234432
1.5402910440025153,2.705274725274725,0.3287912087912088,0.2232234432234432
1.5424488330027089,2.705274725274725,0.3287912087912088,0.2232234432234432
1.543228195001575,2.705274725274725,0.3287912087912088,0.2232234432234432
1.5454282560021966,2.705274725274725,0.3287912087912088,0.2232234432234432
1.5457625260023633,2.7036630036630034,1.2587545787545786,0.6382417582417582
1.5506005130009726,2.7036630036630034,1.2587545787545786,0.6382417582417582
1.5507895940027083,2.7036630036630034,1.2587545787545786,0.6382417582417582
1.5550864960023318,2.7036630036630034,1.2587545787545786,0.6382417582417582
1.5572975860013685,2.7036630036630034,1.2587545787545786,0.6382417582417582
1.5580743540012918,2.7036630036630034,1.2587545787545786,0.6382417582417582
1.559624874000292,2.7036630036630034,1.2587545787545786,0.6382417582417582
1.563762123001652,3.3,2.0887912087912084,0.6116483516483516
1.5666177620005328,3.3,2.7536263736263735,0.7421978021978022
1.570241117002297,3.3,2.7536263736263735,0.7421978021978022
1.570516989002499,3.3,2.7536263736263735,0.7421978021978022
1.5754210510021949,3.3,2.7536263736263735,0.7421978021978022
1.5804143999994267,3.3,2.7536263736263735,0.7421978021978022
1.5846147510019364,2.6649816849816848,0.19663003663003664,0.3876190476190476
1.5867641959994216,2.6649816849816848,0.19663003663003664,0.3876190476190476
1.5881984219995502,2.6649816849816848,0.19663003663003664,0.3876190476190476
1.5935543590021553,2.6585347985347987,0.4512820512820513,0.07333333333333333
1.5962021240011381,2.6585347985347987,0.4512820512820513,0.07333333333333333
1.601716249002493,2.6585347985347987,0.4512820512820513,0.07333333333333333
1.6034283500011952,2.6585347985347987,0.4512820512820513,0.07333333333333333
1.6066442470000766,2.6585347985347987,0.4512820512820513,0.07333333333333333
1.6082461930018326,2.6585347985347987,0.4512820512820513,0.07333333333333333
1.6127608540009533,2.6585347985347987,0.4512820512820513,0.07333333333333333
1.6136414280008466,2.6585347985347987,0.4512820512820513,0.07333333333333333
1.6152153160001035,2.6585347985347987,0.4512820512820513,0.07333333333333333
1.6193657490002806,2.6585347985347987,0.4512820512820513,0.07333333333333333
1.6232019369999762,2.755238095238095,0.4029304029304029,0.4383882783882784
1.6278581309998117,3.3,2.597289377289377,0.6479120879120879
1.6279738600023848,3.3,2.597289377289377,0.6479120879120879
1.6326823630006402,3.3,2.597289377289377,0.6479120879120879
1.632847215001675,3.3,2.597289377289377,0.6479120879120879
1.6386869870002556,3.3,2.597289377289377,0.6479120879120879
1.638835828001902,3.3,2.597289377289377,0.6479120879120879
1.6442061160014418,3.3,2.597289377289377,0.6479120879120879
1.6458966150021297,3.3,2.597289377289377,0.6479120879120879
1.6490610490000108,3.3,2.597289377289377,0.6479120879120879
1.6514436840006965,2.6923809523809523,0.718021978021978,0.28527472527472525
1.6516021080024075,2.6923809523809523,0.718021978021978,0.28527472527472525
1.6580497800023295,2.6923809523809523,0.718021978021978,0.28527472527472525
1.6618899370005238,2.6923809523809523,0.718021978021978,0.28527472527472525
1.6666733130005014,2.6923809523809523,0.718021978021978,0.28527472527472525
1.6668154600010894,2.6923809523809523,0.718021978021978,0.28527472527472525
1.6728863419994013,2.6923809523809523,0.718021978021978,0.28527472527472525
1.6774074900022242,3.3,0.23047619047619047,0.1813186813186813
1.6783028450008715,3.3,0.23047619047619047,0.1813186813186813
1.6800817450020986,3.3,0.23047619047619047,0.1813186813186813
1.6834946390008554,3.3,0.23047619047619047,0.1813186813186813
1.6837722830023267,3.203296703296703,1.585934065934066,0.9219047619047619
1.6891218140008277,3.203296703296703,1.585934065934066,0.9219047619047619
1.690691706000507,3.203296703296703,1.585934065934066,0.9219047619047619
1.6945150249994185,3.203296703296703,1.585934065934066,0.9219047619047619
1.6982924730000377,3.3,0.15956043956043955,0.21274725274725276
1.7030220859996916,2.705274725274725,0.7792673992673992,0.2957509157509157
1.7032616790020256,2.705274725274725,0.7792673992673992,0.2957509157509157
1.708941283999593,2.705274725274725,0.7792673992673992,0.2957509157509157
1.7090973049998865,3.1259340659340658,0.3594139194139194,0.17567765567765567
1.7146039889994427,3.1259340659340658,0.3594139194139194,0.17567765567765567
1.7157384570018621,3.3,2.756043956043956,0.31347985347985347
1.7160721220025152,3.3,2.756043956043956,0.31347985347985347
1.720752673001698,3.3,2.756043956043956,0.31347985347985347
1.7210272310003347,3.3,2.756043956043956,0.31347985347985347
1.7260586760021397,3.3,2.756043956043956,0.31347985347985347
1.730140345000109,3.3,2.756043956043956,0.31347985347985347
1.7342318860028172,3.3,2.756043956043956,0.31347985347985347
1.7369584879998001,3.3,2.756043956043956,0.31347985347985347
1.7409579650011437,3.3,2.756043956043956,0.31347985347985347
1.7440779470016423,3.3,3.0308424908424905,0.7389743589743589
1.7465734370016435,3.3,3.0308424908424905,0.7389743589743589
1.7523118680001062,3.3,3.0308424908424905,0.7389743589743589
1.7525379530015925,3.3,3.0308424908424905,0.7389743589743589
1.757712843002082,3.3,3.0308424908424905,0.7389743589743589
1.7608730690008088,3.3,3.0308424908424905,0.7389743589743589
1.7617564430001948,3.3,3.0308424908424905,0.7389743589743589
1.7634737180014781,3.3,3.0308424908424905,0.7389743589743589
1.7668377660011174,3.3,3.0308424908424905,0.7389743589743589
1.7671908690026612,3.3,3.0308424908424905,0.7389743589743589
1.7723341939999955,3.3,3.0308424908424905,0.7389743589743589
1.7756329540025035,2.655311355311355,0.6632234432234432,0.39890109890109887
1.7766520100012713,2.756849816849817,0.09912087912087912,0.06608058608058608
1.777526301000762,2.756849816849817,0.09912087912087912,0.06608058608058608
1.779296685999725,2.756849816849817,0.09912087912087912,0.06608058608058608
1.78316697199989,2.756849816849817,0.09912087912087912,0.06608058608058608
1.787256902000081,2.756849816849817,0.09912087912087912,0.06608058608058608
1.7906010760016215,2.756849816849817,0.09912087912087912,0.06608058608058608
1.7914937230016221,2.756849816849817,0.09912087912087912,0.06608058608058608
1.7932194080021873,2.756849816849817,0.09912087912087912,0.06608058608058608
1.7965638670029875,2.756849816849817,0.09912087912087912,0.06608058608058608
1.7974471650013584,2.756849816849817,0.09912087912087912,0.06608058608058608
1.799079566000728,2.756849816849817,0.09912087912087912,0.06608058608058608
1.8029202710022219,2.756849816849817,0.09912087912087912,0.06608058608058608
1.8072853530029533,2.756849816849817,0.09912087912087912,0.06608058608058608
1.8096854020004685,2.756849816849817,0.09912087912087912,0.06608058608058608
1.8098068159997638,2.756849816849817,0.09912087912087912,0.06608058608058608
1.8154345820003073,2.756849816849817,0.09912087912087912,0.06608058608058608
1.816332931000943,2.756849816849817,0.09912087912087912,0.06608058608058608
1.8178958440003044,2.756849816849817,0.09912087912087912,0.06608058608058608
1.8231066890002694,2.756849816849817,0.09912087912087912,0.06608058608058608
1.8263305239997862,2.756849816849817,0.09912087912087912,0.06608058608058608
1.8271729959997174,2.756849816849817,0.09912087912087912,0.06608058608058608
1.8288548750024347,2.756849816849817,0.09912087912087912,0.06608058608058608
1.8327336580005067,2.756849816849817,0.09912087912087912,0.06608058608058608
1.8375312220014166,2.756849816849817,0.09912087912087912,0.06608058608058608
1.843487174002803,2.993772893772894,0.15311355311355312,0.07736263736263736
1.8436038899999403,2.993772893772894,0.15311355311355312,0.07736263736263736
1.8489015529994504,2.993772893772894,0.15311355311355312,0.07736263736263736
1.851898840002832,2.993772893772894,0.15311355311355312,0.07736263736263736
1.855559710002126,2.993772893772894,0.15311355311355312,0.07736263736263736
1.8610396559997753,2.993772893772894,0.15311355311355312,0.07736263736263736
1.8627125560014974,2.993772893772894,0.15311355311355312,0.07736263736263736
1.8659320260012464,2.993772893772894,0.15311355311355312,0.07736263736263736
1.8675330650003161,2.993772893772894,0.15311355311355312,0.07736263736263736
1.8728436840028735,2.6665934065934067,0.46336996336996333,0.06769230769230769
1.8751366159995086,2.6649816849816848,0.5093040293040293,0.08703296703296703
1.8752926460001618,2.6649816849816848,0.5093040293040293,0.08703296703296703
1.8798109119998117,3.0775824175824176,0.09347985347985348,0.1095970695970696
1.88009060100012,3.0775824175824176,0.09347985347985348,0.1095970695970696
1.8854984909994528,3.0775824175824176,0.09347985347985348,0.1095970695970696
1.8863874020025833,2.702051282051282,1.2587545787545786,0.7123809523809523
1.8885843490024854,2.702051282051282,1.2587545787545786,0.7123809523809523
1.8888794820013572,2.702051282051282,1.2587545787545786,0.7123809523809523
1.8936988990026293,2.702051282051282,1.2587545787545786,0.7123809523809523
1.8994728020006733,2.702051282051282,1.2587545787545786,0.7123809523809523
1.8996853940006986,2.726227106227106,1.9574358974358974,0.9065934065934066
1.9046753570000874,2.726227106227106,1.9574358974358974,0.9065934065934066
1.9086402480024844,2.726227106227106,1.9574358974358974,0.9065934065934066
1.9127303770001163,2.726227106227106,1.9574358974358974,0.9065934065934066
1.9150362370019138,3.3,1.804322344322344,0.5753846153846153
1.9153243809996638,3.3,1.804322344322344,0.5753846153846153
1.9202450869997847,3.3,1.804322344322344,0.5753846153846153
1.9250108140004158,3.3,1.804322344322344,0.5753846153846153
1.9252982750003866,3.3,1.804322344322344,0.5753846153846153
1.9303266950009856,3.3,1.804322344322344,0.5753846153846153
1.934131663001608,3.3,0.8534065934065934,0.423076923076923
1.9399813990021357,3.3,0.8534065934065934,0.423076923076923
1.9456340950018784,3.3,0.8534065934065934,0.423076923076923
1.9458536460006144,3.3,0.8534065934065934,0.423076923076923
1.9507777790022374,3.3,0.8534065934065934,0.423076923076923
1.9560497510028654,3.3,0.8534065934065934,0.423076923076923
1.9585443130017666,3.102564102564102,0.6986813186813187,0.40937728937728934
1.9643241020021378,3.102564102564102,0.6986813186813187,0.40937728937728934
1.964534934002586,3.102564102564102,0.6986813186813187,0.40937728937728934
1.9704816449993814,2.702051282051282,1.4134798534798534,0.8405128205128204
1.9764319589994557,3.3,0.3602197802197802,0.11684981684981684
1.9822648010012927,3.3,0.18615384615384614,0.1104029304029304
1.982521745001577,3.3,0.18615384615384614,0.1104029304029304
1.9884056230002898,2.6536996336996337,1.4916483516483516,0.8252014652014652
1.9941850380018877,2.6536996336996337,1.4916483516483516,0.8252014652014652
1.9997389199997997,2.6536996336996337,1.4916483516483516,0.8252014652014652
2.000814060000266,2.6536996336996337,1.4916483516483516,0.8252014652014652
2.00167809100094,3.3,3.1396336996336993,0.763956043956044
2.0026217750018986,3.3,3.1396336996336993,0.763956043956044
2.0043726969997806,3.3,3.1396336996336993,0.763956043956044
2.0078200259995356,3.3,3.1396336996336993,0.763956043956044
2.007989947000169,3.3,3.1396336996336993,0.763956043956044
2.012840014001995,3.3,3.1396336996336993,0.763956043956044
2.013061417001154,3.3,3.1396336996336993,0.763956043956044
2.017988599000091,3.3,3.1396336996336993,0.763956043956044
2.023869654000009,3.3,3.1396336996336993,0.763956043956044
2.024096411001665,3.3,3.1396336996336993,0.763956043956044
2.029720177000854,3.3,3.1396336996336993,0.763956043956044
2.030683745000715,2.681098901098901,0.6463003663003662,0.2369230769230769
2.031598028999724,2.681098901098901,0.6463003663003662,0.2369230769230769
2.0326389580004616,2.681098901098901,0.6463003663003662,0.2369230769230769
2.0334888440011127,2.681098901098901,0.6463003663003662,0.2369230769230769
2.0351264029995946,2.681098901098901,0.6463003663003662,0.2369230769230769
2.039754036002705,2.681098901098901,0.6463003663003662,0.2369230769230769
2.04564285500237,2.681098901098901,0.6463003663003662,0.2369230769230769
2.050925723000546,2.681098901098901,0.6463003663003662,0.2369230769230769
2.0526089480008523,3.3,1.6689377289377287,0.4964102564102564
2.0569356980013254,3.3,1.6689377289377287,0.4964102564102564
2.0585307360015577,3.3,1.6689377289377287,0.4964102564102564
2.063226392001525,3.3,1.6689377289377287,0.4964102564102564
2.0634014179995575,3.3,1.6689377289377287,0.4964102564102564
2.067969510000694,3.3,1.6689377289377287,0.4964102564102564
2.068270616000518,3.3,1.6689377289377287,0.4964102564102564
2.073244720999355,3.3,1.6689377289377287,0.4964102564102564
2.0770048200029123,3.3,1.6689377289377287,0.4964102564102564
2.081329447002645,3.3,1.6689377289377287,0.4964102564102564
2.083678757000598,3.3,1.6689377289377287,0.4964102564102564
2.0838887940008135,3.3,1.6689377289377287,0.4964102564102564
2.088819136002712,3.3,1.6689377289377287,0.4964102564102564
2.094625494999491,2.705274725274725,1.0492307692307692,0.41018315018315016
2.0947451000029105,2.705274725274725,1.0492307692307692,0.41018315018315016
2.0995864140022604,2.705274725274725,1.0492307692307692,0.41018315018315016
2.10517143800098,2.705274725274725,1.0492307692307692,0.41018315018315016
2.1070854810022865,3.3,1.5303296703296703,0.8429304029304028
2.1087752230014303,3.3,0.3344322344322344,0.18695970695970696
2.112692110000353,3.3,0.3344322344322344,0.18695970695970696
2.1164522120016045,3.3,0.3344322344322344,0.18695970695970696
2.1211895330015977,2.909157509157509,0.1402197802197802,0.08622710622710622
2.1268625860029715,3.3,1.751135531135531,0.6035897435897435
2.1270131790006417,3.3,1.751135531135531,0.6035897435897435
2.1319890650011075,3.3,1.751135531135531,0.6035897435897435
2.1363879310010816,3.3,1.751135531135531,0.6035897435897435
2.137489490000007,3.3,1.751135531135531,0.6035897435897435
2.137751346002915,3.3,1.751135531135531,0.6035897435897435
2.1426294680022693,3.3,1.751135531135531,0.6035897435897435
2.1485170400010247,3.3,1.751135531135531,0.6035897435897435
2.148646601002838,2.7004395604395603,1.3965567765567766,0.7687912087912088
2.153610417000891,2.7004395604395603,1.3965567765567766,0.7687912087912088
2.1586335380015953,2.7004395604395603,1.3965567765567766,0.7687912087912088
2.161872011001833,2.7004395604395603,1.3965567765567766,0.7687912087912088
2.1628154930003802,3.3,2.913186813186813,0.7438095238095238
2.1637320930021815,3.3,2.913186813186813,0.7438095238095238
2.165359062000789,3.3,2.913186813186813,0.7438095238095238
2.169254734999413,3.3,2.913186813186813,0.7438095238095238
2.1741018510001595,2.686739926739927,0.7067399267399267,0.2949450549450549
2.1742064700010815,2.686739926739927,0.7067399267399267,0.2949450549450549
2.179794170002424,2.686739926739927,0.7067399267399267,0.2949450549450549
2.180116822000855,2.686739926739927,0.7067399267399267,0.2949450549450549
2.185470644002635,2.686739926739927,0.7067399267399267,0.2949450549450549
2.188063477002288,2.686739926739927,0.7067399267399267,0.2949450549450549
2.1931161310021707,2.686739926739927,0.7067399267399267,0.2949450549450549
2.198022802000196,3.3,0.25384615384615383,0.14666666666666667
2.2028848379995907,2.924468864468864,0.13699633699633698,0.09347985347985348
2.2092147879993718,2.924468864468864,0.13699633699633698,0.09347985347985348
2.2130432190024294,2.924468864468864,0.13699633699633698,0.09347985347985348
2.2168430510027974,2.924468864468864,0.13699633699633698,0.09347985347985348
2.2212704730009136,2.3845421245421243,0.11604395604395604,0.1112087912087912
2.222262283001328,2.7044688644688644,0.5600732600732601,0.15472527472527473
2.223893255002622,0.9082051282051282,1.6286446886446886,0.6962637362637363
2.2268184650019975,2.6617582417582417,1.4690842490842488,0.8469597069597068
2.2300795699993614,2.6617582417582417,1.4690842490842488,0.8469597069597068
2.2323541559999285,2.6617582417582417,1.4690842490842488,0.8469597069597068
2.2325525090018346,3.3,3.1275457875457873,0.3352380952380952
2.237710788002005,3.3,0.36747252747252745,0.3424908424908425
2.241992264000146,3.3,0.36747252747252745,0.3424908424908425
2.2428523050002696,3.3,0.36747252747252745,0.3424908424908425
2.244440915001178,3.3,0.36747252747252745,0.3424908424908425
2.2490440040019166,3.3,0.36747252747252745,0.3424908424908425
2.249352632999944,3.3,0.36747252747252745,0.3424908424908425
2.255170992000785,3.3,0.36747252747252745,0.3424908424908425
2.255298889002006,3.3,0.36747252747252745,0.3424908424908425
2.2601620919995185,3.3,0.36747252747252745,0.3424908424908425
2.260263815001963,3.3,0.36747252747252745,0.3424908424908425
2.265668760999688,3.3,0.36747252747252745,0.3424908424908425
2.2673224810023385,3.3,0.36747252747252745,0.3424908424908425
2.2706553349999012,2.7044688644688644,0.896117216117216,0.3344322344322344
2.2717472620024637,2.7044688644688644,0.896117216117216,0.3344322344322344
2.2720192939996195,2.7044688644688644,0.896117216117216,0.3344322344322344
2.2767248960008146,2.7044688644688644,0.896117216117216,0.3344322344322344
2.2770213969997712,2.7044688644688644,0.896117216117216,0.3344322344322344
2.282101713000884,2.7044688644688644,0.896117216117216,0.3344322344322344
2.2863787570022396,2.7044688644688644,0.896117216117216,0.3344322344322344
2.2881328229996143,2.7044688644688644,0.896117216117216,0.3344322344322344
2.290529633002734,2.7044688644688644,0.896117216117216,0.3344322344322344
2.2906862650015682,2.7044688644688644,0.896117216117216,0.3344322344322344
2.2960879120000754,2.7044688644688644,0.896117216117216,0.3344322344322344
2.298231814002065,2.7044688644688644,0.896117216117216,0.3344322344322344
2.299123724002129,2.7044688644688644,0.896117216117216,0.3344322344322344
2.300700563002465,2.7044688644688644,0.896117216117216,0.3344322344322344
2.3052928400029487,2.7044688644688644,0.896117216117216,0.3344322344322344
2.3055476420013292,2.7044688644688644,1.1338461538461537,0.5294505494505495
2.3100048810010776,2.7044688644688644,1.1338461538461537,0.5294505494505495
2.31092573800197,2.7044688644688644,1.1338461538461537,0.5294505494505495
2.3125327980014845,3.3,2.1274725274725275,0.4964102564102564
2.316095435002353,3.3,2.1274725274725275,0.4964102564102564
2.3163571760014747,3.3,2.1274725274725275,0.4964102564102564
2.3216706550010713,3.3,2.1274725274725275,0.4964102564102564
2.3233499440029846,3.3,2.1274725274725275,0.4964102564102564
2.327051759002643,3.3,2.1274725274725275,0.4964102564102564
2.332066818002204,3.3,2.1274725274725275,0.4964102564102564
2.3364905279995583,3.3,2.9518681318681317,0.3199267399267399
2.3390456330016605,3.3,2.9518681318681317,0.3199267399267399
2.3442039969995676,3.3,2.9518681318681317,0.3199267399267399
2.3478961030014034,3.3,2.9518681318681317,0.3199267399267399
2.3480578620001324,3.3,2.9518681318681317,0.3199267399267399
2.353200816000026,3.3,2.9518681318681317,0.3199267399267399
2.3582744390005246,3.3,2.9518681318681317,0.3199267399267399
2.3624140550018637,3.3,2.9518681318681317,0.3199267399267399
2.3648460210024496,3.3,2.9518681318681317,0.3199267399267399
2.364964239000983,3.3,2.9518681318681317,0.3199267399267399
2.3699136060022283,3.3,2.9518681318681317,0.3199267399267399
2.3749589750004816,3.3,2.9518681318681317,0.3199267399267399
2.378894085999491,3.3,2.9518681318681317,0.3199267399267399
2.3827574999995704,3.3,2.9518681318681317,0.3199267399267399
2.3879151700020884,3.3,2.9518681318681317,0.3199267399267399
2.391866588000994,3.3,2.9518681318681317,0.3199267399267399
2.3959093690027657,3.3,2.9518681318681317,0.3199267399267399
2.399303823000082,3.3,2.9518681318681317,0.3199267399267399
2.400144833001832,3.3,2.9518681318681317,0.3199267399267399
2.4017668859996775,3.2065201465201465,0.9783150183150182,0.5157509157509157
2.406300132999604,3.2065201465201465,0.9783150183150182,0.5157509157509157
2.407157598001504,2.705274725274725,1.012967032967033,0.40937728937728934
2.4088534870024887,2.705274725274725,1.012967032967033,0.40937728937728934
2.4129199950002658,3.3,0.43758241758241756,0.1249084249084249
2.415304375001142,3.3,0.43758241758241756,0.1249084249084249
2.416318551000586,3.3,0.43758241758241756,0.1249084249084249
2.4166374939995876,3.3,0.43758241758241756,0.1249084249084249
2.42178166800295,3.3,0.43758241758241756,0.1249084249084249
2.4250116130024253,2.7004395604395603,0.850989010989011,0.26593406593406593
2.4260991900009685,2.7004395604395603,0.850989010989011,0.26593406593406593
2.4269901709994883,2.7004395604395603,0.850989010989011,0.26593406593406593
2.4279417190009553,3.3,0.38681318681318677,0.15069597069597068
2.4297688950027805,3.3,0.38681318681318677,0.15069597069597068
2.43222996500117,2.6778754578754578,0.6043956043956044,0.1805128205128205
2.4324055010001757,2.6778754578754578,0.6043956043956044,0.1805128205128205
2.4372933490012656,2.6778754578754578,0.6043956043956044,0.1805128205128205
2.4431035990019154,2.6778754578754578,0.6043956043956044,0.1805128205128205
2.443266013000539,2.6778754578754578,0.6043956043956044,0.1805128205128205
2.4476049710028747,2.6778754578754578,0.6043956043956044,0.1805128205128205
2.449852803001704,2.6778754578754578,0.6043956043956044,0.1805128205128205
2.4506369320006343,2.6778754578754578,0.6043956043956044,0.1805128205128205
2.4529294970016053,2.6778754578754578,0.6043956043956044,0.1805128205128205
2.4532075870010885,2.6778754578754578,0.6043956043956044,0.1805128205128205
2.4584105320027447,2.6778754578754578,0.6043956043956044,0.1805128205128205
2.4613022160010587,2.6778754578754578,0.6043956043956044,0.1805128205128205
2.464150135001546,2.693992673992674,0.25384615384615383,0.24014652014652016
2.4670833210002456,2.693992673992674,0.25384615384615383,0.24014652014652016
2.4710745770025824,2.693992673992674,0.25384615384615383,0.24014652014652016
2.474812632000976,2.6738461538461538,0.5898901098901098,0.195018315018315
2.479904717001773,2.9808791208791208,0.10395604395604395,0.13619047619047617
2.4835357960000692,2.9808791208791208,0.10395604395604395,0.13619047619047617
2.483648469002219,2.9808791208791208,0.10395604395604395,0.13619047619047617
2.489276537002297,2.9808791208791208,0.10395604395604395,0.13619047619047617
2.489536086002772,2.6746520146520147,0.6753113553113552,0.1378021978021978
2.495083000001614,2.6746520146520147,0.6753113553113552,0.1378021978021978
2.495344199000101,2.9647619047619047,0.734139194139194,0.5278388278388277
2.5007653960019525,2.9647619047619047,0.734139194139194,0.5278388278388277
2.5023084250024112,2.9647619047619047,0.734139194139194,0.5278388278388277
2.5067963670007885,2.9647619047619047,0.734139194139194,0.5278388278388277
2.5076292539997667,2.6746520146520147,1.3772161172161173,0.8026373626373626
2.5092377889995987,2.6746520146520147,1.3772161172161173,0.8026373626373626
2.5134278090008593,2.6746520146520147,1.3772161172161173,0.8026373626373626
2.514955122001993,2.6746520146520147,1.3772161172161173,0.8026373626373626
2.520191561001411,2.6746520146520147,1.3772161172161173,0.8026373626373626
2.523693990002357,2.6746520146520147,1.3772161172161173,0.8026373626373626
2.523839797002438,2.6746520146520147,1.3772161172161173,0.8026373626373626
2.5289078970017727,2.6746520146520147,1.3772161172161173,0.8026373626373626
2.532755331001681,2.6746520146520147,1.3772161172161173,0.8026373626373626
2.536645784002758,2.6746520146520147,1.3772161172161173,0.8026373626373626
2.541110064001259,3.3,0.1095970695970696,0.16842490842490843
2.5426539630025218,2.7278388278388275,1.7011721611721609,0.734139194139194
2.5465177559999574,2.7278388278388275,1.7011721611721609,0.734139194139194
2.5510171960013395,2.7278388278388275,1.7011721611721609,0.734139194139194
2.5513546950023738,3.3,2.9953846153846153,0.3416849816849817
2.556053314001474,3.3,2.9953846153846153,0.3416849816849817
2.5562065539998002,3.3,2.9953846153846153,0.3416849816849817
2.5611730990021897,2.7246153846153844,2.028351648351648,0.9968498168498168
2.5661402469995664,3.3,2.5199267399267398,0.7583150183150182
2.5700683040013246,3.3,2.5199267399267398,0.7583150183150182
2.5741151590009395,3.3,2.5199267399267398,0.7583150183150182
2.5780697820009664,3.3,2.5199267399267398,0.7583150183150182
2.5812084440003673,3.3,2.5199267399267398,0.7583150183150182
2.5829220050000004,3.3,2.5199267399267398,0.7583150183150182
2.586061965001136,3.3,2.5199267399267398,0.7583150183150182
2.5879066540001077,3.3,2.5199267399267398,0.7583150183150182
2.5905943230027333,3.3,2.5199267399267398,0.7583150183150182
2.5943219410000893,3.3,2.5199267399267398,0.7583150183150182
2.59442949699951,3.3,2.5199267399267398,0.7583150183150182
2.6000750310013245,3.3,2.5199267399267398,0.7583150183150182
2.6003288220017566,3.3,2.5199267399267398,0.7583150183150182
2.6052867680009513,3.3,2.5199267399267398,0.7583150183150182
2.610161024000263,3.3,2.5199267399267398,0.7583150183150182
2.6148272800019186,3.3,2.5199267399267398,0.7583150183150182
2.620761009002308,3.3,2.5199267399267398,0.7583150183150182
2.620960489999561,2.702051282051282,0.3078388278388278,0.24901098901098898
2.626185950000945,2.702051282051282,0.3078388278388278,0.24901098901098898
2.629213637999783,2.7455677655677655,2.0267399267399266,0.630989010989011
2.632102769002813,2.7455677655677655,2.0267399267399266,0.630989010989011
2.635051075001684,2.7455677655677655,2.0267399267399266,0.630989010989011
2.638362264002353,3.0115018315018314,0.09267399267399268,0.10798534798534798
2.6392953819995455,2.7278388278388275,1.6093040293040293,0.6841758241758242
2.6401977320019796,2.7278388278388275,1.6093040293040293,0.6841758241758242
2.6417669780021242,2.7278388278388275,1.6093040293040293,0.6841758241758242
2.646004881000408,2.9341391941391937,1.656043956043956,0.9573626373626374
2.6476798399999097,2.9341391941391937,1.656043956043956,0.9573626373626374
2.6512802050019673,2.9341391941391937,1.656043956043956,0.9573626373626374
2.651393830001325,3.3,0.27238095238095233,0.12974358974358974
2.6569637120010157,3.3,0.27238095238095233,0.12974358974358974
2.657208256001468,3.3,0.27238095238095233,0.12974358974358974
2.662313303000701,3.3,0.27238095238095233,0.12974358974358974
2.6663572210018174,3.3,0.27238095238095233,0.12974358974358974
2.668589801000053,3.3,0.27238095238095233,0.12974358974358974
2.6688600430024962,3.3,0.27238095238095233,0.12974358974358974
2.6751317600028415,3.3,0.27238095238095233,0.12974358974358974
2.6782041149999714,2.8583882783882784,0.09831501831501832,0.07494505494505493
2.6813001789996633,2.8583882783882784,0.09831501831501832,0.07494505494505493
2.6837105190024886,2.8583882783882784,0.09831501831501832,0.07494505494505493
2.689480098000786,2.6746520146520147,1.4787545787545788,0.8171428571428572
2.689721221002401,2.702857142857143,1.099194139194139,0.49399267399267394
2.694691660002718,2.702857142857143,1.099194139194139,0.49399267399267394
2.6996850880022976,2.702857142857143,1.099194139194139,0.49399267399267394
2.7049117120004667,2.702857142857143,1.099194139194139,0.49399267399267394
2.70727104999969,2.702857142857143,1.099194139194139,0.49399267399267394
2.70748719599942,2.702857142857143,1.099194139194139,0.49399267399267394
2.713126509999711,3.042124542124542,0.4472527472527472,0.1241025641025641
2.7139589250000427,3.042124542124542,0.4472527472527472,0.1241025641025641
2.7149440060020424,3.042124542124542,0.4472527472527472,0.1241025641025641
2.715863009001623,3.042124542124542,0.4472527472527472,0.1241025641025641
2.7174580190003326,3.042124542124542,0.4472527472527472,0.1241025641025641
2.7224355380021734,2.9760439560439558,1.091135531135531,0.5093040293040293
2.726537497001118,2.9760439560439558,1.091135531135531,0.5093040293040293
2.7290155930022593,2.9760439560439558,1.091135531135531,0.5093040293040293
2.7291295870018075,2.9760439560439558,1.091135531135531,0.5093040293040293
2.7352288980000594,2.9760439560439558,1.091135531135531,0.5093040293040293
2.739669007001794,2.6746520146520147,0.0,0.07736263736263736
2.739984870000626,2.6746520146520147,0.0,0.07736263736263736
2.745254813002248,2.6746520146520147,0.0,0.07736263736263736
2.7484285480022663,2.6746520146520147,0.0,0.07736263736263736
2.749309096001525,2.7036630036630034,0.6745054945054945,0.24417582417582417
2.7509594510011084,2.7036630036630034,0.6745054945054945,0.24417582417582417
2.7544661030005955,3.3,0.23128205128205126,0.1668131868131868
2.7547620900004404,3.3,0.23128205128205126,0.1668131868131868
2.7593185260011523,3.3,0.23128205128205126,0.1668131868131868
2.7601884480027365,3.3,0.23128205128205126,0.1668131868131868
2.7618137060017034,3.2057142857142855,0.6656410256410257,0.46095238095238095
2.7656765210012964,3.1283516483516483,2.033992673992674,0.6245421245421244
2.7713389140008076,3.1283516483516483,2.033992673992674,0.6245421245421244
2.771587491999526,3.1283516483516483,2.033992673992674,0.6245421245421244
2.776171945002716,3.1283516483516483,2.033992673992674,0.6245421245421244
2.777100823001092,2.8100366300366297,0.09347985347985348,0.09831501831501832
2.777990945000056,2.8100366300366297,0.09347985347985348,0.09831501831501832
2.7790687660017284,2.8100366300366297,0.09347985347985348,0.09831501831501832
2.780249786999775,2.8100366300366297,0.09347985347985348,0.09831501831501832
2.7804572530003497,2.8100366300366297,0.09347985347985348,0.09831501831501832
2.7890931610018015,2.8100366300366297,0.09347985347985348,0.09831501831501832
2.794494140001916,2.8100366300366297,0.09347985347985348,0.09831501831501832
2.7948584309997386,2.8100366300366297,0.09347985347985348,0.09831501831501832
2.7997067760006757,2.8100366300366297,0.09347985347985348,0.09831501831501832
2.806089919002261,2.8100366300366297,0.09347985347985348,0.09831501831501832
2.809323888999643,2.8100366300366297,0.09347985347985348,0.09831501831501832
2.810245134001889,2.6794871794871793,0.6503296703296703,0.21597069597069596
2.8119256169993605,2.6794871794871793,0.6503296703296703,0.21597069597069596
2.815965452002274,2.6794871794871793,0.6503296703296703,0.21597069597069596
2.8198082910021185,2.6794871794871793,0.6503296703296703,0.21597069597069596
2.8265970980028214,2.6794871794871793,0.6503296703296703,0.21597069597069596
2.830615700000635,2.7004395604395603,1.2531135531135529,0.6954578754578754
2.8347679220023565,2.7004395604395603,1.2531135531135529,0.6954578754578754
2.838931632999447,3.3,3.167838827838828,0.3432967032967033
2.839973418002046,3.3,3.167838827838828,0.3432967032967033
2.840860219002934,3.3,3.167838827838828,0.3432967032967033
2.841817770000489,3.3,3.167838827838828,0.3432967032967033
2.8434188550018007,3.3,3.167838827838828,0.3432967032967033
2.8503163210007187,3.3,3.167838827838828,0.3432967032967033
2.85805579999942,2.6746520146520147,0.6382417582417582,0.20388278388278389
2.8643401820008876,3.058241758241758,0.12893772893772892,0.10153846153846154
2.871587601999636,3.058241758241758,0.12893772893772892,0.10153846153846154
2.878038408001885,2.6698168498168497,0.5342857142857143,0.10153846153846154
2.8818054540024605,3.3,0.12168498168498168,0.15311355311355312
2.887489676999394,3.3,0.12168498168498168,0.15311355311355312
2.8956240139996225,3.3,0.12168498168498168,0.15311355311355312
2.9015376190000097,3.3,0.12168498168498168,0.15311355311355312
2.9065912020014366,3.3,0.12168498168498168,0.15311355311355312
2.909091637000529,3.3,0.12168498168498168,0.15311355311355312
2.915841226000339,3.3,0.12168498168498168,0.15311355311355312
2.922783853002329,3.3,0.12168498168498168,0.15311355311355312
2.9289096840002458,2.702857142857143,1.9606593406593404,0.9396336996336996
2.9353937129999395,2.702051282051282,1.079047619047619,0.4126007326007326
2.939097694001248,3.3,0.356996336996337,0.25465201465201465
2.9437738740016357,3.3,0.356996336996337,0.25465201465201465
2.9440180210003746,3.3,0.356996336996337,0.25465201465201465
2.9493938100022206,3.3,0.356996336996337,0.25465201465201465
2.953562986000179,3.3,0.356996336996337,0.25465201465201465
2.953945580000436,3.3,0.356996336996337,0.25465201465201465
2.9625800260000688,3.3,0.14747252747252745,0.19179487179487179
2.969101918002707,3.3,0.14747252747252745,0.19179487179487179
2.9733305310001015,2.7004395604395603,1.3401465201465201,0.7147985347985348
2.9742861920021824,2.7004395604395603,1.3401465201465201,0.7147985347985348
2.9752331240015337,3.3,0.14747252747252745,0.29010989010989013
2.976870926002448,3.3,0.14747252747252745,0.29010989010989013
2.980224242000986,2.7616849816849816,0.09992673992673992,0.06688644688644689
2.9805533130020194,2.7616849816849816,0.09992673992673992,0.06688644688644689
2.9909934000024805,2.7616849816849816,0.09992673992673992,0.06688644688644689
3.0070198659996095,2.7616849816849816,0.09992673992673992,0.06688644688644689
3.0199378800025443,3.3,0.3231501831501831,0.19904761904761903
3.0327184660018247,3.3,0.3231501831501831,0.19904761904761903
3.045711503000348,2.7044688644688644,1.361098901098901,0.5689377289377289
3.056436972001393,2.7044688644688644,1.361098901098901,0.5689377289377289
3.0629319850013417,2.7044688644688644,1.361098901098901,0.5689377289377289
3.068169404999935,2.7044688644688644,1.361098901098901,0.5689377289377289
3.0713856990005297,2.7044688644688644,1.361098901098901,0.5689377289377289
3.0717287020015647,3.3,2.3619780219780218,0.47142857142857136
3.076874329999555,3.3,2.3619780219780218,0.47142857142857136
3.0794750650020433,3.3,0.1676190476190476,0.253040293040293
3.085836706999544,3.3,0.1676190476190476,0.253040293040293
3.092241682999884,2.7036630036630034,0.917069597069597,0.27641025641025635
3.096786444002646,2.7036630036630034,0.917069597069597,0.27641025641025635
3.105407302002277,2.7036630036630034,0.917069597069597,0.27641025641025635
3.1095567000011215,2.7036630036630034,0.917069597069597,0.27641025641025635
3.112095330001466,2.7036630036630034,0.917069597069597,0.27641025641025635
3.1189387400008854,3.3,2.647252747252747,0.4085714285714286
3.1236300970012962,2.698827838827839,0.5415384615384615,0.13619047619047617
3.1308936400018865,3.3,1.5754578754578754,0.8743589743589744
3.139598941001168,3.3,1.5754578754578754,0.8743589743589744
3.1462813630023447,3.3,1.5754578754578754,0.8743589743589744
3.1506329700023343,3.3,1.5754578754578754,0.8743589743589744
3.1532647810017806,3.3,1.5754578754578754,0.8743589743589744
3.157423505999759,3.3,1.5754578754578754,0.8743589743589744
3.1599524360026408,3.3,1.5754578754578754,0.8743589743589744
3.165445668000757,2.7004395604395603,0.8751648351648351,0.29010989010989013
3.166641805000836,2.7004395604395603,0.8751648351648351,0.29010989010989013
3.1668769780008006,2.7004395604395603,0.8751648351648351,0.29010989010989013
3.1750998650022666,2.7004395604395603,0.8751648351648351,0.29010989010989013
3.179289401999995,2.7004395604395603,0.8751648351648351,0.29010989010989013
3.181670230002055,2.7004395604395603,0.8751648351648351,0.29010989010989013
3.181822454000212,2.7004395604395603,0.8751648351648351,0.29010989010989013
3.1910848950028594,2.7004395604395603,0.8751648351648351,0.29010989010989013
3.195391749002738,2.7004395604395603,0.8751648351648351,0.29010989010989013
3.197755417000735,3.3,0.09025641025641025,0.19018315018315018
3.1978612250022707,3.3,0.09025641025641025,0.19018315018315018
3.205983144001948,3.3,0.09025641025641025,0.19018315018315018
3.210867457000859,3.3,0.09025641025641025,0.19018315018315018
3.2164907270016556,3.3,0.09025641025641025,0.19018315018315018
3.2182935470009397,3.3,0.1539194139194139,0.22644688644688646
3.2220559140005207,3.3,0.1539194139194139,0.22644688644688646
3.225344665002922,3.3,2.913186813186813,0.8211721611721612
3.2262244600024133,3.3,2.913186813186813,0.8211721611721612
3.227840586001548,3.3,2.913186813186813,0.8211721611721612
3.2317737440025667,3.3,2.913186813186813,0.8211721611721612
3.236798670001008,3.3,2.0549450549450547,0.4456410256410256
3.239536955999938,3.3,2.0549450549450547,0.4456410256410256
3.2429801450016384,3.3,2.0549450549450547,0.4456410256410256
3.2432987310021417,3.3,2.0549450549450547,0.4456410256410256
3.2523886910021247,3.3,2.0549450549450547,0.4456410256410256
3.2601061109999137,3.3,2.0549450549450547,0.4456410256410256
3.264945824001188,3.3,2.0549450549450547,0.4456410256410256
3.2721503380016657,2.7044688644688644,1.4094505494505494,0.8074725274725274
3.276139087000047,2.7044688644688644,1.4094505494505494,0.8074725274725274
3.279995939999935,2.7044688644688644,1.4094505494505494,0.8074725274725274
3.2841378550001536,2.705274725274725,2.1911355311355307,0.8888644688644688
3.288449766001577,3.3,1.5754578754578754,0.8606593406593407
3.2886716249995516,3.3,1.5754578754578754,0.8606593406593407
3.293461222001497,3.3,1.5754578754578754,0.8606593406593407
3.29894576100196,3.3,1.5754578754578754,0.8606593406593407
3.29990962300144,3.3,0.1249084249084249,0.14908424908424908
3.3013931370005594,3.3,0.1249084249084249,0.14908424908424908
3.3080413560019224,3.3,0.1249084249084249,0.14908424908424908
3.311487177001254,3.3,0.1249084249084249,0.14908424908424908
3.3117135890024656,3.3,0.1249084249084249,0.14908424908424908
3.3187724519993935,3.3,0.1249084249084249,0.14908424908424908
3.3240538480022224,3.3,0.12732600732600732,0.15311355311355312
3.3250496390028275,3.3,3.2419780219780217,0.7599267399267399
3.326099559002614,2.7036630036630034,1.2386080586080586,0.5866666666666667
3.3277072010023403,2.7036630036630034,1.2386080586080586,0.5866666666666667
3.331474642000103,2.7036630036630034,1.2386080586080586,0.5866666666666667
3.3405025780011783,2.7036630036630034,1.2386080586080586,0.5866666666666667
3.347845109001355,3.3,0.3690842490842491,0.23369963369963367
3.354801102002966,3.3,0.3690842490842491,0.23369963369963367
3.358354378000513,3.3,0.3690842490842491,0.23369963369963367
3.3637610280020454,3.3,0.3690842490842491,0.23369963369963367
3.3654065000009723,3.3,0.3690842490842491,0.23369963369963367
3.372414093999396,2.7004395604395603,1.0282783882783881,0.3739194139194139
3.3755144360002305,2.7004395604395603,1.0282783882783881,0.3739194139194139
3.377148096002202,2.7004395604395603,1.0282783882783881,0.3739194139194139
3.380969024001388,2.7004395604395603,1.0282783882783881,0.3739194139194139
3.3890277089994925,2.7004395604395603,1.0282783882783881,0.3739194139194139
3.3930090829999244,2.7004395604395603,1.0282783882783881,0.3739194139194139
3.3962844199995743,2.7004395604395603,1.0282783882783881,0.3739194139194139
3.3972125870022865,2.7004395604395603,1.0282783882783881,0.3739194139194139
3.398899703999632,2.7004395604395603,1.0282783882783881,0.3739194139194139
3.404507633000321,2.7004395604395603,1.0282783882783881,0.3739194139194139
3.4047501050008577,2.7004395604395603,1.0282783882783881,0.3739194139194139
3.4090095330029726,2.7004395604395603,1.0282783882783881,0.3739194139194139
3.4100459780020174,2.673040293040293,0.684981684981685,0.08864468864468865
3.41100101900156,2.6649816849816848,0.3795604395604395,0.07413919413919413
3.412077101002069,2.6649816849816848,0.3795604395604395,0.07413919413919413
3.413019534000341,2.6649816849816848,0.3795604395604395,0.07413919413919413
3.413973471000645,2.6649816849816848,0.3795604395604395,0.07413919413919413
3.4155779989996518,2.6649816849816848,0.3795604395604395,0.07413919413919413
3.4228650570003083,2.6649816849816848,0.3795604395604395,0.07413919413919413
3.4268281770018802,2.6649816849816848,0.3795604395604395,0.07413919413919413
3.430742476000887,2.705274725274725,1.166080586080586,0.5576556776556777
3.436702636001428,3.013113553113553,0.5004395604395604,0.20307692307692307
3.442239279000205,3.3,2.897069597069597,0.3287912087912088
3.4425168430025224,3.3,2.897069597069597,0.3287912087912088
3.447038510999846,3.3,2.897069597069597,0.3287912087912088
3.4479405359998054,3.3,2.897069597069597,0.3287912087912088
3.4497287680023874,3.3,0.42468864468864465,0.07494505494505493
3.453862296002626,3.3,0.42468864468864465,0.07494505494505493
3.454992957002105,2.655311355311355,0.5262271062271061,0.3731135531135531
3.45532208500299,2.655311355311355,0.5262271062271061,0.3731135531135531
3.460028219000378,2.655311355311355,0.5262271062271061,0.3731135531135531
3.4603240239994193,2.655311355311355,0.5262271062271061,0.3731135531135531
3.4650737480005773,2.655311355311355,0.5262271062271061,0.3731135531135531
3.465287098002591,2.655311355311355,0.5262271062271061,0.3731135531135531
3.473675765002554,2.655311355311355,0.5262271062271061,0.3731135531135531
3.4776331989996834,2.655311355311355,0.5262271062271061,0.3731135531135531
3.4807120540026517,2.655311355311355,0.5262271062271061,0.3731135531135531
3.483426867001981,2.698827838827839,0.6753113553113552,0.16036630036630037
3.4902488340012496,2.698827838827839,0.6753113553113552,0.16036630036630037
3.4940569150021474,3.2226373626373626,0.25142857142857145,0.2063003663003663
3.501120267002989,3.2226373626373626,0.25142857142857145,0.2063003663003663
3.506211781001184,3.2226373626373626,0.25142857142857145,0.2063003663003663
3.5086710120012867,3.2226373626373626,0.25142857142857145,0.2063003663003663
3.5088340830006928,3.2226373626373626,0.25142857142857145,0.2063003663003663
3.5130338110029697,3.2226373626373626,0.25142857142857145,0.2063003663003663
3.51629206600046,3.3,1.224102564102564,0.45772893772893775
3.5174462600007246,3.3,1.224102564102564,0.45772893772893775
3.5179613010004687,3.3,1.224102564102564,0.45772893772893775
3.5230799020027916,3.3,1.224102564102564,0.45772893772893775
3.52546102800261,3.3,1.224102564102564,0.45772893772893775
3.525616835002438,3.3,1.224102564102564,0.45772893772893775
3.530216451999877,3.3,1.224102564102564,0.45772893772893775
3.5304890050028916,3.3,1.224102564102564,0.45772893772893775
3.5355084570001054,3.3,1.224102564102564,0.45772893772893775
3.540696462001506,3.3,0.1829304029304029,0.2498168498168498
3.5423311529993953,3.3,0.1829304029304029,0.2498168498168498
3.5460874650016194,3.3,0.1829304029304029,0.2498168498168498
3.552739880000445,3.3,0.1829304029304029,0.2498168498168498
3.5565854779997608,3.3,2.1677655677655676,0.4964102564102564
3.5598756250001315,3.3,2.1677655677655676,0.4964102564102564
3.560710248999385,3.3,2.1677655677655676,0.4964102564102564
3.562828530000843,3.3,2.1677655677655676,0.4964102564102564
3.5639368150004884,3.3,2.1677655677655676,0.4964102564102564
3.564202212000964,2.6714285714285713,1.4658608058608058,0.8106959706959707
3.57260936700186,2.6714285714285713,1.4658608058608058,0.8106959706959707
3.578608052001073,2.6714285714285713,1.4658608058608058,0.8106959706959707
3.5870368169998983,2.9357509157509156,0.12329670329670328,0.0693040293040293
3.5952641180010687,2.9357509157509156,0.12329670329670328,0.0693040293040293
3.5991822910000337,2.681098901098901,0.5310622710622711,0.19824175824175824
3.6062654180022946,2.681098901098901,0.5310622710622711,0.19824175824175824
3.6102713830005086,2.705274725274725,0.9082051282051282,0.30622710622710625
3.6134093870023207,2.702051282051282,0.7107692307692308,0.2747985347985348
3.6158187100008945,3.3,3.129157509157509,0.34813186813186814
3.616109951002727,3.3,3.129157509157509,0.34813186813186814
3.6256364140026562,3.3,0.22886446886446887,0.13619047619047617
3.6309718690026784,3.3,3.1130402930402927,0.7905494505494506
3.6340135210011795,3.3,3.1130402930402927,0.7905494505494506
3.635345906001021,3.3,3.1130402930402927,0.7905494505494506
3.6355711489995883,3.3,3.1130402930402927,0.7905494505494506
3.6446684840011585,3.3,3.1130402930402927,0.7905494505494506
3.655103244000202,3.3,3.1130402930402927,0.7905494505494506
3.664426232000551,3.3,3.1130402930402927,0.7905494505494506
3.6756809550024627,3.3,1.9195604395604395,0.6301831501831501
3.6826438900025096,3.3,1.9195604395604395,0.6301831501831501
3.690198753000004,3.3,1.9195604395604395,0.6301831501831501
3.6959132680021867,2.6762637362637363,0.7212454212454212,0.10395604395604395
3.707512619002955,2.6762637362637363,0.7212454212454212,0.10395604395604395
3.7167145390012593,2.702051282051282,1.8832967032967032,0.8687179487179487
3.721882972000458,3.203296703296703,0.419047619047619,0.35619047619047617
3.7249568260012893,2.726227106227106,0.7631501831501831,0.23208791208791207
3.727284540000255,2.726227106227106,0.7631501831501831,0.23208791208791207
3.7281503090016486,2.726227106227106,0.7631501831501831,0.23208791208791207
3.7298390040014056,2.726227106227106,0.7631501831501831,0.23208791208791207
3.733622372001264,2.697216117216117,0.7164102564102564,0.28849816849816845
3.7392300570027146,3.3,2.3595604395604393,0.3747252747252747
3.7407822530003614,3.3,2.3595604395604393,0.3747252747252747
3.744512068002223,3.3,2.3595604395604393,0.3747252747252747
3.7499170740011323,3.3,2.3595604395604393,0.3747252747252747
3.7522985540017544,3.3,2.3595604395604393,0.3747252747252747
3.7524769980009296,3.3,2.3595604395604393,0.3747252747252747
3.7583036989999528,3.3,2.3595604395604393,0.3747252747252747
3.763913268001488,3.3,2.3595604395604393,0.3747252747252747
3.764275515000918,3.063882783882784,2.4167765567765565,0.6301831501831501
3.7720240100024967,3.063882783882784,2.4167765567765565,0.6301831501831501
3.7760525070007134,3.3,0.4464468864468864,0.14827838827838827
3.7800039009998727,3.3,0.10637362637362638,0.17326007326007326
3.7858587139999145,3.3,0.10637362637362638,0.17326007326007326
3.7923025430027337,3.3,0.10637362637362638,0.17326007326007326
3.796397097001318,3.3,0.10637362637362638,0.17326007326007326
3.7997339499997906,3.3,0.10637362637362638,0.17326007326007326
3.8015145210010814,2.7036630036630034,1.1789743589743589,0.41098901098901097
3.805555208000442,2.7036630036630034,1.1789743589743589,0.41098901098901097
3.807993382000859,2.7036630036630034,1.1789743589743589,0.41098901098901097
3.813527040001645,2.7036630036630034,1.1789743589743589,0.41098901098901097
3.815924038000958,3.3,2.9953846153846153,0.332014652014652
3.823900171002606,3.3,2.9953846153846153,0.332014652014652
3.8285153010001522,3.3,2.9953846153846153,0.332014652014652
3.8297729570003867,3.3,2.9953846153846153,0.332014652014652
3.8388944569996966,3.3,2.9953846153846153,0.332014652014652
3.845361089002836,3.3,2.9953846153846153,0.332014652014652
3.8513316530006705,3.3,1.622197802197802,0.90014652014652
3.856844280002406,3.3,1.622197802197802,0.90014652014652
3.8652698420009983,3.3,1.622197802197802,0.90014652014652
3.874607564001053,3.3,1.622197802197802,0.90014652014652
3.8799701500029187,3.3,1.622197802197802,0.90014652014652
3.8816066479994333,3.3,1.622197802197802,0.90014652014652
3.888909269000578,3.3,1.622197802197802,0.90014652014652
3.8930037450008967,3.3,1.622197802197802,0.90014652014652
3.8972650680007064,3.3,0.361025641025641,0.3771428571428571
3.8996356339994236,3.3,0.361025641025641,0.3771428571428571
3.8997994620003738,3.3,0.361025641025641,0.3771428571428571
3.9071280550015217,3.3,0.361025641025641,0.3771428571428571
3.91094237300058,3.3,0.361025641025641,0.3771428571428571
3.915728897001827,3.3,0.361025641025641,0.3771428571428571
3.9159497290020227,3.3,0.361025641025641,0.3771428571428571
3.9234046390010917,3.3,0.361025641025641,0.3771428571428571
3.927601251001761,2.7036630036630034,0.5181684981684981,0.15311355311355312
3.9299787460004154,2.7036630036630034,0.5181684981684981,0.15311355311355312
3.9302888330021233,2.7036630036630034,0.5181684981684981,0.15311355311355312
3.9390272710006684,2.7036630036630034,0.5181684981684981,0.15311355311355312
3.9429929540019657,2.7036630036630034,0.5181684981684981,0.15311355311355312
3.947169903000031,2.7036630036630034,0.5181684981684981,0.15311355311355312
3.9494936060000327,2.697216117216117,0.7365567765567765,0.17487179487179486
3.949711978999403,2.697216117216117,0.7365567765567765,0.17487179487179486
3.95649123000112,2.697216117216117,0.7365567765567765,0.17487179487179486
3.960453501000302,2.697216117216117,0.7365567765567765,0.17487179487179486
3.964231189002021,2.697216117216117,0.7365567765567765,0.17487179487179486
3.971260862002964,2.697216117216117,0.7365567765567765,0.17487179487179486
3.9761765389994252,2.697216117216117,0.7365567765567765,0.17487179487179486
3.9792392640010803,2.735897435897436,0.10798534798534798,0.026593406593406595
3.9815595130021393,2.735897435897436,0.10798534798534798,0.026593406593406595
3.9818277369995485,2.735897435897436,0.10798534798534798,0.026593406593406595
3.990402950999851,2.735897435897436,0.10798534798534798,0.026593406593406595
3.9944477490025747,2.735897435897436,0.10798534798534798,0.026593406593406595
4.000058696001361,3.3,0.15794871794871795,0.17164835164835165
4.0109676030006085,3.3,0.15794871794871795,0.17164835164835165
4.019061842001975,3.3,0.15794871794871795,0.17164835164835165
4.024472937002429,3.3,0.15794871794871795,0.17164835164835165
4.024713123002584,3.3,0.15794871794871795,0.17164835164835165
4.029572236002423,3.3,0.15794871794871795,0.17164835164835165
4.038345730001311,2.7004395604395603,1.0806593406593406,0.4013186813186813
4.042250881000655,2.7004395604395603,1.0806593406593406,0.4013186813186813
4.0472438060023705,2.7004395604395603,1.0806593406593406,0.4013186813186813
4.053917635999824,2.705274725274725,1.0983882783882783,0.47062271062271055
4.057195454999601,3.3,2.266886446886447,0.5560439560439561
4.058782697000424,3.3,2.266886446886447,0.5560439560439561
4.062822361000144,3.3,2.266886446886447,0.5560439560439561
4.066083437999623,3.3,2.266886446886447,0.5560439560439561
4.0674900070007425,2.7036630036630034,1.3385347985347984,0.7228571428571429
4.075628857000993,2.7036630036630034,1.3385347985347984,0.7228571428571429
4.081231406002189,2.7036630036630034,1.3385347985347984,0.7228571428571429
4.082177362000948,2.7036630036630034,1.3385347985347984,0.7228571428571429
4.084018101999391,2.7036630036630034,1.3385347985347984,0.7228571428571429
4.087865489000251,2.7036630036630034,1.3385347985347984,0.7228571428571429
4.091678848999436,2.7036630036630034,1.3385347985347984,0.7228571428571429
4.095653802000015,2.7036630036630034,1.3385347985347984,0.7228571428571429
4.099150322999776,2.7036630036630034,1.3385347985347984,0.7228571428571429
4.099526583002444,2.702051282051282,1.955018315018315,0.8211721611721612
4.106099620999885,2.702051282051282,1.955018315018315,0.8211721611721612
4.1099540579998575,2.702051282051282,1.955018315018315,0.8211721611721612
4.114626898001006,2.702051282051282,1.955018315018315,0.8211721611721612
4.114744979000534,2.702051282051282,1.955018315018315,0.8211721611721612
4.122101501001453,2.702051282051282,1.955018315018315,0.8211721611721612
4.125313398999424,2.702051282051282,1.955018315018315,0.8211721611721612
4.12857115999941,2.702051282051282,1.955018315018315,0.8211721611721612
4.128744822999579,2.702051282051282,1.955018315018315,0.8211721611721612
4.137190026001917,2.702051282051282,1.955018315018315,0.8211721611721612
4.143808086002537,2.702051282051282,1.955018315018315,0.8211721611721612
4.149371069001063,2.702051282051282,1.955018315018315,0.8211721611721612
4.149567587002821,2.697216117216117,0.759120879120879,0.17245421245421244
4.157183094001084,2.697216117216117,0.759120879120879,0.17245421245421244
4.1618583260024025,2.729450549450549,2.1750183150183147,1.0008791208791208
4.162186584002484,2.7246153846153844,0.6269597069597069,0.15956043956043955
4.166335709000123,2.7246153846153844,0.6269597069597069,0.15956043956043955
4.173530094001762,2.7246153846153844,0.6269597069597069,0.15956043956043955
4.178956851999828,3.3,2.8696703296703294,0.37875457875457874
4.179124130001583,3.2645421245421247,0.14666666666666667,0.11926739926739927
4.185967281002377,3.2645421245421247,0.14666666666666667,0.11926739926739927
4.190328652999597,3.2645421245421247,0.14666666666666667,0.11926739926739927
4.191187079002702,3.2645421245421247,0.14666666666666667,0.11926739926739927
4.19297791000281,3.2645421245421247,0.14666666666666667,0.11926739926739927
4.195614456999465,3.2645421245421247,0.14666666666666667,0.11926739926739927
4.202417259999493,3.2645421245421247,0.14666666666666667,0.11926739926739927
4.207996766002907,3.2645421245421247,0.14666666666666667,0.11926739926739927
4.208219830001326,3.2645421245421247,0.14666666666666667,0.11926739926739927
4.212993288001599,3.2645421245421247,0.14666666666666667,0.11926739926739927
4.2132493179997255,3.2645421245421247,0.14666666666666667,0.11926739926739927
4.221603660000255,3.2645421245421247,0.14666666666666667,0.11926739926739927
4.22559031000128,2.702051282051282,1.378021978021978,0.5028571428571429
4.22965171100077,2.702051282051282,1.378021978021978,0.5028571428571429
4.232830237000599,2.702051282051282,1.378021978021978,0.5028571428571429
4.234404844999517,2.702051282051282,1.378021978021978,0.5028571428571429
4.240451274999941,2.702051282051282,1.378021978021978,0.5028571428571429
4.243642371002352,2.702051282051282,1.378021978021978,0.5028571428571429
4.245398989001842,2.702051282051282,1.378021978021978,0.5028571428571429
4.250567597002373,2.702051282051282,1.378021978021978,0.5028571428571429
4.251835153001593,3.3,0.40534798534798533,0.09589743589743589
4.262063463000231,3.3,0.40534798534798533,0.09589743589743589
4.272507671001222,3.3,0.40534798534798533,0.09589743589743589
4.279700467999646,3.3,0.40534798534798533,0.09589743589743589
4.283751207000023,3.2548717948717947,0.14102564102564102,0.11604395604395604
4.292183399000351,3.2548717948717947,0.14102564102564102,0.11604395604395604
4.300505155999417,3.3,0.3964835164835165,0.17084249084249084
4.30861716200161,3.3,0.3964835164835165,0.17084249084249084
4.313279666999733,3.3,0.3964835164835165,0.17084249084249084
4.313606441002776,3.3,0.3964835164835165,0.17084249084249084
4.3212431440006185,3.3,0.3964835164835165,0.17084249084249084
4.325518060999457,3.3,3.058241758241758,0.7881318681318681
4.327180939002574,3.3,2.996996336996337,0.7937728937728937
4.331120828002895,3.3,2.996996336996337,0.7937728937728937
4.335569184000633,3.3,2.996996336996337,0.7937728937728937
4.335906005002471,3.3,2.996996336996337,0.7937728937728937
4.341250424000464,3.3,2.996996336996337,0.7937728937728937
4.34287173499979,3.3,2.996996336996337,0.7937728937728937
4.346794315999432,3.3,2.996996336996337,0.7937728937728937
4.352847067002585,2.6762637362637363,0.5834432234432234,0.09267399267399268
4.357238343000063,2.6762637362637363,0.5834432234432234,0.09267399267399268
4.362810530001298,2.6762637362637363,0.5834432234432234,0.09267399267399268
4.363665043001674,2.7044688644688644,1.9123076923076923,0.8534065934065934
4.365240838000318,2.7044688644688644,1.9123076923076923,0.8534065934065934
4.371986009002285,2.7044688644688644,1.9123076923076923,0.8534065934065934
4.375723781002307,2.7044688644688644,1.9123076923076923,0.8534065934065934
4.381726243002049,2.7044688644688644,1.9123076923076923,0.8534065934065934
4.3886128250014735,3.3,3.1098168498168497,0.7744322344322344
4.391755454002123,2.9824908424908423,1.6705494505494505,0.9259340659340659
4.3934560350026,2.9824908424908423,1.6705494505494505,0.9259340659340659
4.3974932370001625,2.9824908424908423,1.6705494505494505,0.9259340659340659
4.401649351002561,2.9824908424908423,1.6705494505494505,0.9259340659340659
4.40360554200015,2.6649816849816848,0.3102564102564102,0.3771428571428571
4.4048442150015035,2.6649816849816848,0.3102564102564102,0.3771428571428571
4.40498715600188,2.6649816849816848,0.3102564102564102,0.3771428571428571
4.4101408410024305,2.6649816849816848,0.3102564102564102,0.3771428571428571
4.413602106000326,2.6649816849816848,0.3102564102564102,0.3771428571428571
4.413884012999915,2.6649816849816848,0.3102564102564102,0.3771428571428571
4.423083409001265,2.6649816849816848,0.3102564102564102,0.3771428571428571
4.429198715999519,2.6649816849816848,0.3102564102564102,0.3771428571428571
4.435921170999791,2.6649816849816848,0.3102564102564102,0.3771428571428571
4.442516384002374,3.3,0.24498168498168496,0.15311355311355312
4.4469907420025265,3.3,0.24498168498168496,0.15311355311355312
4.447215959000459,3.3,0.24498168498168496,0.15311355311355312
4.454890296001395,3.3,0.24498168498168496,0.15311355311355312
4.460100003001571,3.3,0.24498168498168496,0.15311355311355312
4.462758431000111,3.3,0.24498168498168496,0.15311355311355312
4.471011728001031,3.3,0.24498168498168496,0.15311355311355312
4.477661093002098,2.702857142857143,1.228937728937729,0.6253479853479853
4.481406775001233,2.702857142857143,1.228937728937729,0.6253479853479853
4.4922493350022705,2.702857142857143,1.228937728937729,0.6253479853479853
4.50275111800147,2.8390476190476193,1.664102564102564,0.8945054945054944
4.51187840700004,2.8390476190476193,1.664102564102564,0.8945054945054944
4.5222784280013,3.3,0.8566300366300367,0.46095238095238095
4.528553883999848,3.3,0.8566300366300367,0.46095238095238095
4.532813150999573,3.3,0.8566300366300367,0.46095238095238095
4.537740064002719,3.3,0.8566300366300367,0.46095238095238095
4.541233629002818,3.3,0.8566300366300367,0.46095238095238095
4.549493135000375,2.6778754578754578,0.26109890109890105,0.3021978021978022
4.557245383002737,2.6778754578754578,0.26109890109890105,0.3021978021978022
4.564251150000928,3.3,1.6447619047619046,0.3997069597069597
4.57099049899989,3.3,1.6447619047619046,0.3997069597069597
4.576283581001917,2.706080586080586,1.2853479853479852,0.6334065934065934
4.577454985002987,3.3,0.31347985347985347,0.25787545787545785
4.577682693001407,3.3,0.31347985347985347,0.25787545787545785
4.585892025999783,3.3,0.31347985347985347,0.25787545787545785
4.5912120130014955,2.6698168498168497,0.19663003663003664,0.3779487179487179
4.593314068999462,2.6698168498168497,0.19663003663003664,0.3779487179487179
4.593589500000235,2.6698168498168497,0.19663003663003664,0.3779487179487179
4.598157017000631,2.6698168498168497,0.19663003663003664,0.3779487179487179
4.598411300001317,2.6698168498168497,0.19663003663003664,0.3779487179487179
4.606570852000004,2.6698168498168497,0.19663003663003664,0.3779487179487179
4.611257127002318,2.6698168498168497,0.19663003663003664,0.3779487179487179
4.611470807001751,2.6698168498168497,0.19663003663003664,0.3779487179487179
4.616775722002785,2.6698168498168497,0.19663003663003664,0.3779487179487179
4.620919720000529,3.3,0.1095970695970696,0.1539194139194139
4.621301696002774,2.706080586080586,1.93003663003663,0.8485714285714284
4.626902236002934,2.706080586080586,1.93003663003663,0.8485714285714284
4.627172594002332,2.706080586080586,1.93003663003663,0.8485714285714284
4.635475421000592,2.706080586080586,1.93003663003663,0.8485714285714284
4.640597796002112,2.706080586080586,1.93003663003663,0.8485714285714284
4.64292279700021,2.706080586080586,1.93003663003663,0.8485714285714284
4.643113608999556,2.706080586080586,1.93003663003663,0.8485714285714284
4.648886214999948,2.706080586080586,1.93003663003663,0.8485714285714284
4.64908438600105,2.706080586080586,1.93003663003663,0.8485714285714284
4.656537579001451,2.706080586080586,1.93003663003663,0.8485714285714284
4.661106535000727,2.706080586080586,1.93003663003663,0.8485714285714284
4.661388393000379,2.7036630036630034,0.3167032967032967,0.19663003663003664
4.66610945100183,3.3,1.6415384615384614,0.5560439560439561
4.66626846500003,3.3,1.6415384615384614,0.5560439560439561
4.675259379000636,3.3,1.6415384615384614,0.5560439560439561
4.681766591002088,3.3,1.6415384615384614,0.5560439560439561
4.688191893001203,3.3,1.6415384615384614,0.5560439560439561
4.691684522000287,3.3,1.6415384615384614,0.5560439560439561
4.691905452000356,3.3,1.6415384615384614,0.5560439560439561
4.696966218001762,3.3,1.6415384615384614,0.5560439560439561
4.702425360999769,3.3,1.6415384615384614,0.5560439560439561
4.703980368001794,3.3,1.6415384615384614,0.5560439560439561
4.709018436002225,3.3,1.6415384615384614,0.5560439560439561
4.714384032002272,3.3,1.6415384615384614,0.5560439560439561
4.714597906000563,3.3,1.6415384615384614,0.5560439560439561
4.721829812002397,3.3,1.6415384615384614,0.5560439560439561
4.725642880999658,3.3,1.6415384615384614,0.5560439560439561
4.731354280000232,2.7036630036630034,1.1241758241758242,0.4996336996336996
4.731619879999926,2.6633699633699632,0.47465201465201456,0.09992673992673992
4.739405546999478,3.3,2.7906959706959706,0.4174358974358974
4.74445648800247,3.3,2.7906959706959706,0.4174358974358974
4.747491755999363,3.3,2.7906959706959706,0.4174358974358974
4.750983103000181,3.3,2.7906959706959706,0.4174358974358974
4.751167227001133,3.3,2.7906959706959706,0.4174358974358974
4.756630853000388,3.3,2.453846153846154,0.3505494505494505
4.757476184000552,3.3,2.453846153846154,0.3505494505494505
4.759475470000325,3.3,2.453846153846154,0.3505494505494505
4.7604045270018105,3.3,2.453846153846154,0.3505494505494505
4.762128124999435,3.3,2.453846153846154,0.3505494505494505
4.765466553999431,3.3,2.453846153846154,0.3505494505494505
4.767332695999357,3.3,2.453846153846154,0.3505494505494505
4.768822595000529,3.3,2.453846153846154,0.3505494505494505
4.777573489001952,3.3,2.453846153846154,0.3505494505494505
4.785715704001632,3.3,0.20227106227106226,0.2232234432234432
4.790208406000602,3.3,0.20227106227106226,0.2232234432234432
4.796793044999504,3.3,0.20227106227106226,0.2232234432234432
4.802457890000369,3.3,0.20227106227106226,0.2232234432234432
4.80889318300251,2.7286446886446885,2.007399267399267,0.9364102564102563
4.812976135999634,2.7286446886446885,2.007399267399267,0.9364102564102563
4.816511486002128,2.7286446886446885,2.007399267399267,0.9364102564102563
4.816778784002963,2.7286446886446885,2.007399267399267,0.9364102564102563
4.824590039002942,2.7286446886446885,2.007399267399267,0.9364102564102563
4.829143996001221,2.705274725274725,0.4254945054945055,0.1821245421245421
4.829382463001821,2.705274725274725,0.4254945054945055,0.1821245421245421
4.8355134400007955,2.705274725274725,0.4254945054945055,0.1821245421245421
4.842713594000088,2.705274725274725,0.4254945054945055,0.1821245421245421
4.846693276002043,2.705274725274725,0.4254945054945055,0.1821245421245421
4.853389009000239,2.705274725274725,0.4254945054945055,0.1821245421245421
4.856999023002572,3.3,1.3578754578754577,0.46175824175824176
4.862589753000066,3.3,1.3578754578754577,0.46175824175824176
4.862849301000097,3.3,1.3578754578754577,0.46175824175824176
4.870172827002534,3.3,1.3578754578754577,0.46175824175824176
4.8759968529993785,2.7036630036630034,1.1378754578754577,0.49157509157509155
4.8804508700013685,2.7036630036630034,1.1378754578754577,0.49157509157509155
4.880718991000322,2.7036630036630034,1.1378754578754577,0.49157509157509155
4.88771514200198,2.7036630036630034,1.1378754578754577,0.49157509157509155
4.8917757279996295,2.7036630036630034,1.1378754578754577,0.49157509157509155
4.89565653200043,3.3,2.2265934065934068,0.4416117216117216
4.900635244001023,3.3,2.7906959706959706,0.3441025641025641
4.907095806000143,2.702051282051282,2.05010989010989,0.8783882783882784
4.912336362001952,2.702051282051282,2.05010989010989,0.8783882783882784
4.913991131001239,3.3,0.3505494505494505,0.037875457875457874
4.9188431309994485,3.3,0.921098901098901,0.5778021978021978
4.927037648001715,3.3,0.921098901098901,0.5778021978021978
4.931657002001884,3.3,0.921098901098901,0.5778021978021978
4.931890273001045,3.3,2.1991941391941388,0.49882783882783877
4.940030214002036,3.3,2.1991941391941388,0.49882783882783877
4.9444536230003,3.3,2.1991941391941388,0.49882783882783877
4.945780556001409,3.3,2.46996336996337,0.7494505494505495
4.945938319000561,3.3,2.46996336996337,0.7494505494505495
4.955555479002214,3.3,2.46996336996337,0.7494505494505495
4.960482951002632,3.3,2.46996336996337,0.7494505494505495
4.964997825001774,3.3,2.46996336996337,0.7494505494505495
4.965335381999466,3.3,2.46996336996337,0.7494505494505495
4.972076530000777,3.3,2.46996336996337,0.7494505494505495
4.976231325999834,3.3,2.46996336996337,0.7494505494505495
4.978717838999728,2.652087912087912,0.6382417582417582,0.4142124542124542
4.978868522000994,2.652087912087912,0.6382417582417582,0.4142124542124542
4.984673814000416,2.652087912087912,0.6382417582417582,0.4142124542124542
4.984826421001344,2.7278388278388275,0.3158974358974359,0.2361172161172161
4.990332257999398,2.705274725274725,1.2434432234432233,0.6326007326007326
4.992808789000264,2.6746520146520147,0.5947252747252747,0.17487179487179486
4.997788806002063,2.6746520146520147,0.5947252747252747,0.17487179487179486
5.008021517001907,2.565054945054945,0.13296703296703297,0.09186813186813186
5.013068749001832,2.565054945054945,0.13296703296703297,0.09186813186813186
5.019181525000022,2.565054945054945,0.13296703296703297,0.09186813186813186
5.023898691000795,3.3,0.3304029304029304,0.33282051282051284
5.024075323002762,3.3,0.3304029304029304,0.33282051282051284
5.0308765480003785,3.3,0.3304029304029304,0.33282051282051284
5.035011334002775,2.681904761904762,0.6994871794871794,0.2917216117216117
5.038565612001548,2.681904761904762,0.6994871794871794,0.2917216117216117
5.038695753999491,2.7036630036630034,2.036410256410256,0.938021978021978
5.0433359970011225,2.7036630036630034,2.036410256410256,0.938021978021978
5.043572802002018,2.7036630036630034,2.036410256410256,0.938021978021978
5.048400176001451,2.7036630036630034,2.036410256410256,0.938021978021978
5.054787809000118,2.681098901098901,1.444102564102564,0.788937728937729
5.058676315002231,2.681098901098901,1.444102564102564,0.788937728937729
5.063252856001782,2.729450549450549,1.6898901098901096,0.6430769230769231
5.063539799000864,2.729450549450549,1.6898901098901096,0.6430769230769231
5.069171757000731,2.729450549450549,1.6898901098901096,0.6430769230769231
5.069442403000721,2.6617582417582417,0.5947252747252747,0.07655677655677656
5.074125940001977,2.6617582417582417,0.5947252747252747,0.07655677655677656
5.074388558001374,2.6617582417582417,0.5947252747252747,0.07655677655677656
5.079773754001508,2.6617582417582417,0.5947252747252747,0.07655677655677656
5.081310140001733,2.6617582417582417,0.5947252747252747,0.07655677655677656
5.086199042001681,2.6706227106227107,0.21838827838827837,0.37150183150183147
5.090866853999614,2.6706227106227107,0.21838827838827837,0.37150183150183147
5.091085694002686,2.6673992673992672,0.5471794871794872,0.12329670329670328
5.097458915999596,2.6673992673992672,0.5471794871794872,0.12329670329670328
5.100892501002818,2.6673992673992672,0.5471794871794872,0.12329670329670328
5.101017791999766,2.6673992673992672,0.5471794871794872,0.12329670329670328
5.109762613999919,2.6673992673992672,0.5471794871794872,0.12329670329670328
5.116192426001362,3.3,2.8745054945054944,0.8018315018315018
5.122429915001703,3.3,2.8745054945054944,0.8018315018315018
5.125917964000109,3.3,2.8745054945054944,0.8018315018315018
5.126037439000356,3.3,2.8745054945054944,0.8018315018315018
5.131250055001146,3.3,2.8745054945054944,0.8018315018315018
5.134832709001785,2.6617582417582417,0.5052747252747253,0.09267399267399268
5.140560405001452,2.6617582417582417,0.5052747252747253,0.09267399267399268
5.140746861001389,2.6617582417582417,0.5052747252747253,0.09267399267399268
5.146065379001811,2.6617582417582417,0.5052747252747253,0.09267399267399268
5.148089102000085,3.3,2.731062271062271,0.7518681318681318
5.150017883002874,2.689157509157509,0.70996336996337,0.0821978021978022
5.151631421002094,2.689157509157509,0.70996336996337,0.0821978021978022
5.1589016819998506,2.689157509157509,0.70996336996337,0.0821978021978022
5.165905507001298,3.3,0.18857142857142856,0.303003663003663
5.172033762002684,3.3,0.18857142857142856,0.303003663003663
5.1776010659996246,3.3,0.18857142857142856,0.303003663003663
5.183518997000647,3.3,0.18857142857142856,0.303003663003663
5.188563829000486,3.3,1.6504029304029304,0.9098168498168498
5.192409631999908,3.3,1.6504029304029304,0.9098168498168498
5.197079333000147,3.3,1.6504029304029304,0.9098168498168498
5.197225907999382,3.3,1.6504029304029304,0.9098168498168498
5.204115185999399,3.3,1.6504029304029304,0.9098168498168498
5.207934313999431,3.3,1.6504029304029304,0.9098168498168498
5.2124474459997145,3.3,1.6504029304029304,0.9098168498168498
5.2133233540007495,3.3,1.6504029304029304,0.9098168498168498
5.214930133999587,3.3,1.6504029304029304,0.9098168498168498
5.21896304099937,3.3,1.6504029304029304,0.9098168498168498
5.222954930999549,3.3,1.6504029304029304,0.9098168498168498
5.226022164999449,3.3,1.6504029304029304,0.9098168498168498
5.227729366000858,3.3,1.6504029304029304,0.9098168498168498
5.23146568300217,3.3,1.6504029304029304,0.9098168498168498
5.236500451999746,3.3,1.6504029304029304,0.9098168498168498
5.240389778002282,3.3,1.6504029304029304,0.9098168498168498
5.244293847001245,3.3,1.6504029304029304,0.9098168498168498
5.24833482500253,3.3,1.6504029304029304,0.9098168498168498
5.251030717001413,3.3,1.6504029304029304,0.9098168498168498
5.256095726002968,3.3,1.6504029304029304,0.9098168498168498
5.25933620700016,3.3,1.6504029304029304,0.9098168498168498
5.260212954999588,3.3,1.6504029304029304,0.9098168498168498
5.261876386000949,3.3,1.6504029304029304,0.9098168498168498
5.265054024002893,3.3,1.6504029304029304,0.9098168498168498
5.266821209002956,3.3,1.6504029304029304,0.9098168498168498
5.272084094001912,3.3,1.6504029304029304,0.9098168498168498
5.272969435001869,3.3,1.6504029304029304,0.9098168498168498
5.274092160001601,3.3,1.6504029304029304,0.9098168498168498
5.274384705000557,3.3,1.6504029304029304,0.9098168498168498
5.279332895002881,3.3,1.6504029304029304,0.9098168498168498
5.285614700002043,3.3,1.6504029304029304,0.9098168498168498
5.2894558620027965,3.3,1.6504029304029304,0.9098168498168498
5.29365481500281,3.3,1.6504029304029304,0.9098168498168498
5.295349571999395,3.3,1.6504029304029304,0.9098168498168498
5.299687162001646,3.3,1.6504029304029304,0.9098168498168498
5.299986388999969,3.3,1.6504029304029304,0.9098168498168498
5.309563033999439,3.3,1.6504029304029304,0.9098168498168498
5.31708048800283,3.3,1.6504029304029304,0.9098168498168498
5.325504795000597,3.3,1.6504029304029304,0.9098168498168498
5.333113186999981,2.7036630036630034,1.9985347985347983,0.8203663003663003
5.34079161200134,2.7036630036630034,1.9985347985347983,0.8203663003663003
5.347874671002501,2.7036630036630034,1.9985347985347983,0.8203663003663003
5.3541329330000735,2.7036630036630034,1.9985347985347983,0.8203663003663003
5.3571103980029875,3.3,2.4038827838827834,0.4851282051282051
5.359625805001997,3.3,2.4038827838827834,0.4851282051282051
5.365129253001214,3.3,2.4038827838827834,0.4851282051282051
5.366706914999668,2.414358974358974,1.7092307692307693,0.8775824175824175
5.373694365000119,2.414358974358974,1.7092307692307693,0.8775824175824175
5.378627174999565,2.414358974358974,1.7092307692307693,0.8775824175824175
5.386493884001538,3.3,0.13054945054945052,0.1692307692307692
5.39473544700013,3.3,0.13054945054945052,0.1692307692307692
5.40234471200165,3.3,0.13054945054945052,0.1692307692307692
5.408008573002007,3.3,0.13054945054945052,0.1692307692307692
5.416119754001556,2.705274725274725,1.3498168498168497,0.726080586080586
5.4250692810019245,2.705274725274725,1.3498168498168497,0.726080586080586
5.435344210000039,3.3,2.721391941391941,0.7824908424908424
5.442289665999851,3.3,2.721391941391941,0.7824908424908424
5.447625655000593,3.3,2.721391941391941,0.7824908424908424
5.45038457100236,2.7004395604395603,1.091135531135531,0.4424175824175824
5.4548379050029325,2.7004395604395603,1.091135531135531,0.4424175824175824
5.455130359001487,2.7004395604395603,1.091135531135531,0.4424175824175824
5.460447297002247,2.7004395604395603,1.091135531135531,0.4424175824175824
5.4628265499995905,2.7004395604395603,1.091135531135531,0.4424175824175824
5.463023577001877,2.7004395604395603,1.091135531135531,0.4424175824175824
5.4680391940019035,2.7004395604395603,1.091135531135531,0.4424175824175824
5.473035660001187,2.7004395604395603,1.091135531135531,0.4424175824175824
5.477508519001276,2.7004395604395603,1.091135531135531,0.4424175824175824
5.478403109002102,2.7004395604395603,1.091135531135531,0.4424175824175824
5.4800334999999905,2.7004395604395603,1.091135531135531,0.4424175824175824
5.484367862001818,2.7278388278388275,1.3917216117216116,0.5157509157509157
5.485951622002176,2.7278388278388275,1.3917216117216116,0.5157509157509157
5.489103792002425,2.7278388278388275,1.3917216117216116,0.5157509157509157
5.491455067000061,2.7278388278388275,1.3917216117216116,0.5157509157509157
5.491738144999545,2.7278388278388275,1.3917216117216116,0.5157509157509157
5.496343648999755,3.3,1.9856410256410255,0.48835164835164835
5.496653165002499,3.3,1.9856410256410255,0.48835164835164835
5.5017702160002955,3.3,1.9856410256410255,0.48835164835164835
5.505141574001755,2.7036630036630034,1.801098901098901,0.846153846153846
5.505401098002039,2.7036630036630034,1.801098901098901,0.846153846153846
5.510127341000043,2.7036630036630034,1.801098901098901,0.846153846153846
5.510278631001711,2.7036630036630034,1.801098901098901,0.846153846153846
5.514849053000944,2.7036630036630034,1.801098901098901,0.846153846153846
5.51508866000222,2.7036630036630034,1.801098901098901,0.846153846153846
5.521241554000881,2.7036630036630034,1.801098901098901,0.846153846153846
5.525097859001107,2.7036630036630034,1.801098901098901,0.846153846153846
5.5296303930008435,2.7036630036630034,1.801098901098901,0.846153846153846
5.530624955001258,2.7036630036630034,1.801098901098901,0.846153846153846
5.531500397002674,3.3,0.32073260073260074,0.14505494505494507
5.533413052002288,3.3,0.32073260073260074,0.14505494505494507
5.536038679001649,3.3,0.32073260073260074,0.14505494505494507
5.540549508001277,3.3,0.32073260073260074,0.14505494505494507
5.540741680000792,3.3,0.32073260073260074,0.14505494505494507
5.545372177002719,3.3,0.32073260073260074,0.14505494505494507
5.546484487000271,3.3,3.05985347985348,0.78007326007326
5.546692214000359,3.3,3.05985347985348,0.78007326007326
5.553687522002292,3.3,3.05985347985348,0.78007326007326
5.557230398000684,3.3,2.996996336996337,0.3457142857142857
5.557369316000404,3.1694505494505494,0.13135531135531134,0.083003663003663
5.562824493001244,3.1694505494505494,0.13135531135531134,0.083003663003663
5.563747135001904,2.7278388278388275,0.6293772893772893,0.1652014652014652
5.565414886001236,2.7278388278388275,0.6293772893772893,0.1652014652014652
5.5710394630004885,2.7278388278388275,0.6293772893772893,0.1652014652014652
5.571240712000872,3.042124542124542,0.45369963369963373,0.2191941391941392
5.57579244000226,3.042124542124542,0.45369963369963373,0.2191941391941392
5.576093856001535,3.042124542124542,0.45369963369963373,0.2191941391941392
5.581478998999955,3.042124542124542,0.45369963369963373,0.2191941391941392
5.584140680002747,2.723003663003663,1.00007326007326,0.3287912087912088
5.588847618000727,2.723003663003663,1.00007326007326,0.3287912087912088
5.594262848000653,2.723003663003663,1.00007326007326,0.3287912087912088
5.5967173270000785,2.723003663003663,1.00007326007326,0.3287912087912088
5.603059136999946,2.723003663003663,1.00007326007326,0.3287912087912088
5.6068517550011165,2.723003663003663,1.00007326007326,0.3287912087912088
5.611462946002575,2.723003663003663,1.00007326007326,0.3287912087912088
5.611690828001883,2.723003663003663,1.00007326007326,0.3287912087912088
5.617330594002851,2.723003663003663,1.00007326007326,0.3287912087912088
5.618333620001067,2.723003663003663,1.00007326007326,0.3287912087912088
5.619022389000747,2.723003663003663,1.00007326007326,0.3287912087912088
5.623454802000197,2.723003663003663,1.00007326007326,0.3287912087912088
5.623685593000118,3.3,2.581978021978022,0.7583150183150182
5.630525417000172,3.3,2.581978021978022,0.7583150183150182
5.6376194290023705,3.3,2.581978021978022,0.7583150183150182
5.643305760000658,3.3,2.581978021978022,0.7583150183150182
5.650269263001974,3.3,2.8906227106227105,0.7913553113553113
5.654313060000277,3.3,2.8906227106227105,0.7913553113553113
5.657672408000508,3.3,0.20146520146520144,0.2063003663003663
5.65786108100292,2.9067399267399265,0.14424908424908423,0.05802197802197802
5.663105622999865,2.9067399267399265,0.14424908424908423,0.05802197802197802
5.665621682001074,2.9067399267399265,0.14424908424908423,0.05802197802197802
5.6741665360023035,2.9067399267399265,0.14424908424908423,0.05802197802197802
5.678712821001682,3.3,1.6858608058608056,0.5729670329670329
5.679534667000553,3.3,1.6858608058608056,0.5729670329670329
5.680390520999936,3.3,1.6858608058608056,0.5729670329670329
5.683080547001737,3.3,1.6858608058608056,0.5729670329670329
5.6896641019993694,3.3,1.6858608058608056,0.5729670329670329
5.694601011000486,2.6633699633699632,0.6438827838827839,0.20146520146520144
5.699432670000533,2.6633699633699632,0.6438827838827839,0.20146520146520144
5.707915893002792,2.7278388278388275,0.10073260073260072,0.06446886446886446
5.711759065001388,3.3,1.166080586080586,0.5302564102564102
5.718369131001964,3.3,1.166080586080586,0.5302564102564102
5.721454373000597,2.7036630036630034,2.01062271062271,0.8775824175824175
5.723853993000375,2.7036630036630034,2.01062271062271,0.8775824175824175
5.724024753002595,3.3,3.1138461538461537,0.7462271062271062
5.728644052000163,3.3,3.1138461538461537,0.7462271062271062
5.729939886001375,3.3,0.4085714285714286,0.14102564102564102
5.7386989680016995,3.3,0.4085714285714286,0.14102564102564102
5.743438355002581,2.7286446886446885,1.991282051282051,0.7607326007326007
5.74363936699956,2.6746520146520147,0.2909157509157509,0.29413919413919415
5.750523378002981,2.6746520146520147,0.2909157509157509,0.29413919413919415
5.7560267170010775,2.655311355311355,0.415018315018315,0.0693040293040293
5.756207160000486,2.655311355311355,0.415018315018315,0.0693040293040293
5.761443388000771,2.655311355311355,0.415018315018315,0.0693040293040293
5.764485283001704,2.6698168498168497,0.24498168498168496,0.3731135531135531
5.7675469940004405,2.6698168498168497,0.24498168498168496,0.3731135531135531
5.768943831000797,2.6698168498168497,0.24498168498168496,0.3731135531135531
5.778464495000662,2.6698168498168497,0.24498168498168496,0.3731135531135531
5.786085376999836,2.6698168498168497,0.24498168498168496,0.3731135531135531
5.790612431999762,2.7036630036630034,0.3352380952380952,0.1805128205128205
5.790824319999956,2.7036630036630034,0.3352380952380952,0.1805128205128205
5.795771647000947,2.7036630036630034,0.3352380952380952,0.1805128205128205
5.803813976002857,2.7036630036630034,0.3352380952380952,0.1805128205128205
5.807919779002987,2.7036630036630034,0.3352380952380952,0.1805128205128205
5.811149426001066,2.7036630036630034,0.3352380952380952,0.1805128205128205
5.812774240002909,2.7036630036630034,0.3352380952380952,0.1805128205128205
5.819008176000352,2.7036630036630034,0.3352380952380952,0.1805128205128205
5.82284300000174,2.7036630036630034,0.3352380952380952,0.1805128205128205
5.827358941001876,2.7036630036630034,0.3352380952380952,0.1805128205128205
5.828226352001366,2.7036630036630034,0.9122344322344322,0.28930402930402926
5.829873842001689,2.7036630036630034,0.9122344322344322,0.28930402930402926
5.834025039002881,2.6778754578754578,0.6164835164835165,0.15069597069597068
5.837305032000586,2.6778754578754578,0.6164835164835165,0.15069597069597068
5.838385556002322,2.6778754578754578,0.6164835164835165,0.15069597069597068
5.8386367990024155,2.6778754578754578,0.6164835164835165,0.15069597069597068
5.843214254000486,2.6778754578754578,0.6164835164835165,0.15069597069597068
5.844039880001219,2.7036630036630034,1.3659340659340657,0.4899633699633699
5.8449904740009515,2.7036630036630034,1.3659340659340657,0.4899633699633699
5.846903199002554,2.7036630036630034,1.3659340659340657,0.4899633699633699
5.849162016002083,2.7036630036630034,1.3659340659340657,0.4899633699633699
5.8496161040020525,3.3,0.43274725274725273,0.1555311355311355
5.857257867002772,3.3,0.43274725274725273,0.1555311355311355
5.861254324001493,3.3,0.43274725274725273,0.1555311355311355
5.865017235002597,3.3,0.43274725274725273,0.1555311355311355
5.872777300002781,3.3,0.43274725274725273,0.1555311355311355
5.877342403000512,2.6964102564102563,0.6922344322344323,0.2643223443223443
5.87763350500245,3.3,0.2643223443223443,0.2361172161172161
5.8844283940015885,3.3,0.2643223443223443,0.2361172161172161
5.888359224001761,3.3,0.2643223443223443,0.2361172161172161
5.892148463000922,2.66014652014652,0.5173626373626373,0.017728937728937726
5.897504502001539,2.66014652014652,0.5173626373626373,0.017728937728937726
5.901113583000551,2.66014652014652,0.5173626373626373,0.017728937728937726
5.901293587001419,2.702051282051282,2.0621978021978022,0.8904761904761904
5.908687953000481,2.702051282051282,2.0621978021978022,0.8904761904761904
5.914250590001757,2.722197802197802,1.216849816849817,0.6317948717948718
5.916906049002137,2.722197802197802,1.216849816849817,0.6317948717948718
5.920947736001835,2.722197802197802,1.216849816849817,0.6317948717948718
5.922566319000907,2.722197802197802,1.216849816849817,0.6317948717948718
5.926426231999358,3.3,1.1749450549450549,0.5649084249084249
5.931129534001229,3.3,1.1749450549450549,0.5649084249084249
5.931346102999669,2.705274725274725,0.9017582417582416,0.31267399267399265
5.937730909001402,2.705274725274725,0.9017582417582416,0.31267399267399265
5.941569613001775,2.705274725274725,0.9017582417582416,0.31267399267399265
5.946106757000962,2.705274725274725,0.9017582417582416,0.31267399267399265
5.946885009001562,2.729450549450549,1.432014652014652,0.7357509157509158
5.948716383001738,2.729450549450549,1.432014652014652,0.7357509157509158
5.953968075002194,2.729450549450549,1.432014652014652,0.7357509157509158
5.95439051500216,2.729450549450549,1.432014652014652,0.7357509157509158
5.958818974002497,2.729450549450549,1.432014652014652,0.7357509157509158
5.959821092001221,2.729450549450549,1.432014652014652,0.7357509157509158
5.960674898000434,2.729450549450549,1.432014652014652,0.7357509157509158
5.962313295000058,2.729450549450549,1.432014652014652,0.7357509157509158
5.967880470001546,2.729450549450549,1.432014652014652,0.7357509157509158
5.968064373002562,2.729450549450549,1.432014652014652,0.7357509157509158
5.97381830300219,2.664175824175824,0.5713553113553113,0.10717948717948718
5.979211855999893,2.664175824175824,0.5713553113553113,0.10717948717948718
5.981753153002501,3.3,0.13054945054945052,0.13941391941391942
5.990996258002269,2.6746520146520147,0.23531135531135527,0.356996336996337
5.999170015002164,2.6778754578754578,1.5254945054945055,0.8098901098901098
6.00887844799945,2.6778754578754578,1.5254945054945055,0.8098901098901098
6.018573093002487,3.3,2.432893772893773,0.6769230769230768
6.0250300700026855,3.3,2.432893772893773,0.6769230769230768
6.029375280999375,2.705274725274725,1.4207326007326007,0.7293040293040293
6.03237086900117,2.705274725274725,1.4207326007326007,0.7293040293040293
6.036238572000002,2.705274725274725,1.4207326007326007,0.7293040293040293
6.040536666001572,3.3,0.12893772893772892,0.18454212454212454
6.040898749000917,3.3,0.12893772893772892,0.18454212454212454
6.050460685000871,3.3,0.12893772893772892,0.18454212454212454
6.05604755999957,3.3,2.432893772893773,0.7317216117216117
6.056266350002261,3.3,0.3416849816849817,0.30945054945054945
6.061608307001734,3.3,0.3416849816849817,0.30945054945054945
6.063977786001487,3.3,0.3416849816849817,0.30945054945054945
6.064123160002055,3.3,0.3416849816849817,0.30945054945054945
6.073890301002393,3.3,0.3416849816849817,0.30945054945054945
6.079083242002525,2.705274725274725,0.9863736263736262,0.3884249084249084
6.08546771300098,2.7036630036630034,1.8687912087912086,0.8880586080586079
6.090151770000375,2.6746520146520147,1.3538461538461537,0.776043956043956
6.09470873600003,2.7036630036630034,1.1096703296703296,0.33926739926739924
6.094971918002557,2.7036630036630034,1.1096703296703296,0.33926739926739924
6.1046484230028,2.7036630036630034,1.1096703296703296,0.33926739926739924
6.1104770340025425,3.3,1.569010989010989,0.9041758241758242
6.116158655000618,2.690769230769231,0.7824908424908424,0.10798534798534798
6.11642997799936,2.690769230769231,0.7824908424908424,0.10798534798534798
6.125544414000615,2.690769230769231,0.7824908424908424,0.10798534798534798
6.130989386001602,2.690769230769231,0.7824908424908424,0.10798534798534798
6.131991604001087,2.690769230769231,0.7824908424908424,0.10798534798534798
6.132367381000222,2.690769230769231,0.7824908424908424,0.10798534798534798
6.141261491000478,2.690769230769231,0.7824908424908424,0.10798534798534798
6.14832263900098,2.690769230769231,0.7824908424908424,0.10798534798534798
6.153701291001198,2.690769230769231,0.7824908424908424,0.10798534798534798
6.15399784300098,2.690769230769231,0.7824908424908424,0.10798534798534798
6.160936113999924,2.690769230769231,0.7824908424908424,0.10798534798534798
6.165216811001301,2.6843223443223443,1.9356776556776556,0.9347985347985347
6.167996415002563,3.3,1.6044688644688643,0.8671062271062271
6.171423223000602,3.3,1.6044688644688643,0.8671062271062271
6.171662554002978,3.3,1.6044688644688643,0.8671062271062271
6.177018010002939,3.3,1.6044688644688643,0.8671062271062271
6.179094135000923,3.3,0.2635164835164835,0.3336263736263736
6.180966838001041,3.3,0.2635164835164835,0.3336263736263736
6.183822119000979,2.7004395604395603,1.120952380952381,0.4593406593406593
6.187799151000945,2.6665934065934067,1.494871794871795,0.8727472527472527
6.191039571000147,2.6665934065934067,1.494871794871795,0.8727472527472527
6.1920298139993974,2.6665934065934067,1.494871794871795,0.8727472527472527
6.193132852000417,2.6665934065934067,1.494871794871795,0.8727472527472527
6.193458419002127,2.6665934065934067,1.494871794871795,0.8727472527472527
6.198646168002597,2.6665934065934067,1.494871794871795,0.8727472527472527
6.202646937999816,3.3,0.6084249084249085,0.36827838827838827
6.206830647999595,3.3,0.9944322344322343,0.5181684981684981
6.2105348680015595,3.3,0.9944322344322343,0.5181684981684981
6.218471883999882,2.6585347985347987,0.4021245421245421,0.08622710622710622
6.224807147002139,2.6585347985347987,0.4021245421245421,0.08622710622710622
6.22953206999955,2.6585347985347987,0.4021245421245421,0.08622710622710622
6.238045989000966,2.6585347985347987,0.4021245421245421,0.08622710622710622
6.242345466002007,3.3,2.8229304029304028,0.3545787545787546
6.244259808001516,3.3,2.8229304029304028,0.3545787545787546
6.246756143002131,3.3,2.8229304029304028,0.3545787545787546
6.255652337000356,3.3,2.8229304029304028,0.3545787545787546
6.260274172000209,3.231501831501831,0.13296703296703297,0.08783882783882783
6.26051676300267,2.702051282051282,1.3522344322344322,0.5939194139194138
6.265984114001185,2.702051282051282,1.3522344322344322,0.5939194139194138
6.268442639000568,2.702051282051282,1.3522344322344322,0.5939194139194138
6.274380721999478,2.702051282051282,1.3522344322344322,0.5939194139194138
6.2800119150015234,3.3,2.797142857142857,0.37875457875457874
6.280260999999882,3.3,0.2747985347985348,0.17003663003663003
6.286156928999844,3.3,0.2747985347985348,0.17003663003663003
6.286264481001126,3.3,0.2747985347985348,0.17003663003663003
6.2915623520020745,3.3,0.2747985347985348,0.17003663003663003
6.293916828002693,3.3,0.2747985347985348,0.17003663003663003
6.294093027001509,3.3,0.2747985347985348,0.17003663003663003
6.299637729000096,3.3,0.2747985347985348,0.17003663003663003
6.30059538900241,3.3,0.2747985347985348,0.17003663003663003
6.302219356002752,2.702857142857143,0.6358241758241758,0.13054945054945052
6.30601014900094,2.702857142857143,0.6358241758241758,0.13054945054945052
6.309990264002408,2.702857142857143,0.6358241758241758,0.13054945054945052
6.314019404002465,3.0276190476190474,0.5221978021978021,0.16197802197802197
6.318000151000888,3.0276190476190474,0.5221978021978021,0.16197802197802197
6.3211940430010145,2.726227106227106,2.1685714285714286,1.1104761904761904
6.322964161001437,2.726227106227106,2.1685714285714286,1.1104761904761904
6.325449403000675,2.726227106227106,2.1685714285714286,1.1104761904761904
6.3256339310028125,2.726227106227106,2.1685714285714286,1.1104761904761904
6.330619341002603,2.726227106227106,2.1685714285714286,1.1104761904761904
6.334634730999824,2.6649816849816848,0.3602197802197802,0.06446886446886446
6.3384047860017745,2.6649816849816848,0.3602197802197802,0.06446886446886446
6.338499254001363,2.6649816849816848,0.3602197802197802,0.06446886446886446
6.343680518999463,2.6649816849816848,0.3602197802197802,0.06446886446886446
6.346605324000848,2.6649816849816848,0.3602197802197802,0.06446886446886446
6.3501669649995165,2.6649816849816848,0.3602197802197802,0.06446886446886446
6.350495896000211,2.6706227106227107,0.4416117216117216,0.029816849816849816
6.355442244002916,2.6706227106227107,0.4416117216117216,0.029816849816849816
6.3590582690012525,2.6706227106227107,0.4416117216117216,0.029816849816849816
6.359248351000133,2.6706227106227107,0.4416117216117216,0.029816849816849816
6.364382337000279,2.6706227106227107,0.4416117216117216,0.029816849816849816
6.367974491000496,2.6706227106227107,0.4416117216117216,0.029816849816849816
6.368247905000317,2.6706227106227107,0.4416117216117216,0.029816849816849816
6.373171417002595,2.6706227106227107,0.4416117216117216,0.029816849816849816
6.37745821000135,2.6706227106227107,0.4416117216117216,0.029816849816849816
6.379658574001951,2.6706227106227107,0.4416117216117216,0.029816849816849816
6.380438616000902,2.6706227106227107,0.4416117216117216,0.029816849816849816
6.381995887000812,2.6706227106227107,0.4416117216117216,0.029816849816849816
6.3864106820001325,2.6706227106227107,0.4416117216117216,0.029816849816849816
6.387237441002071,2.6706227106227107,0.4416117216117216,0.029816849816849816
6.389417541002331,2.6706227106227107,0.4416117216117216,0.029816849816849816
6.390307446999941,2.6706227106227107,0.4416117216117216,0.029816849816849816
6.3918318249998265,2.6706227106227107,0.4416117216117216,0.029816849816849816
6.396500328999537,2.6706227106227107,0.4416117216117216,0.029816849816849816
6.3967916540023,2.6706227106227107,0.4416117216117216,0.029816849816849816
6.40388854000048,2.6706227106227107,0.4416117216117216,0.029816849816849816
6.40818920500169,2.6706227106227107,0.4416117216117216,0.029816849816849816
6.409952955000335,2.6706227106227107,0.4416117216117216,0.029816849816849816
6.412895853001828,2.6706227106227107,0.4416117216117216,0.029816849816849816
6.41645160200278,2.6706227106227107,0.4416117216117216,0.029816849816849816
6.416658427002403,2.6706227106227107,0.4416117216117216,0.029816849816849816
6.422752761001902,2.6706227106227107,0.4416117216117216,0.029816849816849816
6.427934147002816,2.6706227106227107,0.4416117216117216,0.029816849816849816
6.430608222002775,2.6706227106227107,0.4416117216117216,0.029816849816849816
6.434751758999482,2.6706227106227107,0.4416117216117216,0.029816849816849816
6.438016673000675,3.3,2.116996336996337,0.5205860805860806
6.438345474001835,3.3,0.15311355311355312,0.30542124542124544
6.443767888002185,3.3,0.15311355311355312,0.30542124542124544
6.446359428002324,3.3,0.15311355311355312,0.30542124542124544
6.451704842002073,3.3,0.15311355311355312,0.30542124542124544
6.4534046160006255,3.3,0.15311355311355312,0.30542124542124544
6.457386261001375,3.3,0.15311355311355312,0.30542124542124544
6.461594497999613,3.3,0.15311355311355312,0.30542124542124544
6.464247926000098,3.3,0.15311355311355312,0.30542124542124544
6.4693612750015745,3.3,0.15311355311355312,0.30542124542124544
6.472421738999401,2.697216117216117,0.5673260073260072,0.36344322344322344
6.474060806001944,2.697216117216117,0.5673260073260072,0.36344322344322344
6.478826996000862,2.655311355311355,0.6358241758241758,0.32395604395604394
6.4790268180004205,2.705274725274725,1.913919413919414,0.9920146520146519
6.483809978002682,2.705274725274725,1.913919413919414,0.9920146520146519
6.483931890001259,2.705274725274725,1.913919413919414,0.9920146520146519
6.488824495001609,2.705274725274725,1.913919413919414,0.9920146520146519
6.4936517420028395,2.705274725274725,1.913919413919414,0.9920146520146519
6.499193864001427,2.705274725274725,1.913919413919414,0.9920146520146519
6.500049712001783,2.705274725274725,1.913919413919414,0.9920146520146519
