time,emg1,emg2,emg3
0.01861849600027199,2.1758241758241756,1.9775824175824175,2.6085714285714285
0.03252184500161093,0.09670329670329669,0.4472527472527472,0.6326007326007326
0.04131953800242627,0.1515018315018315,0.4029304029304029,0.5874725274725274
0.04791042700162507,0.5286446886446886,0.5600732600732601,0.6785347985347985
0.0525846790005744,0.5286446886446886,0.5600732600732601,0.6785347985347985
0.052754308002477046,0.5286446886446886,0.5600732600732601,0.6785347985347985
0.05846858400036581,0.5286446886446886,0.5600732600732601,0.6785347985347985
0.05872071799967671,3.3,3.3,3.3
0.06445049600006314,3.3,3.3,3.3
0.06458570500035421,3.3,3.3,3.3
0.07001483500062022,3.3,3.3,3.3
0.07186479099982535,1.0580952380952382,0.6777289377289377,0.7567032967032966
0.07458193999991636,1.0580952380952382,0.6777289377289377,0.7567032967032966
0.0799891970018507,1.0580952380952382,0.6777289377289377,0.7567032967032966
0.08097584799907054,1.0580952380952382,0.6777289377289377,0.7567032967032966
0.0819626930024242,1.0580952380952382,0.6777289377289377,0.7567032967032966
0.08227746700140415,1.0580952380952382,0.6777289377289377,0.7567032967032966
0.09027023499947973,0.0709157509157509,0.5326739926739926,0.5906959706959707
0.09396534800180234,1.3788278388278388,1.9356776556776556,2.532820512820513
0.10000788300021668,1.3788278388278388,1.9356776556776556,2.532820512820513
0.10426847700000508,1.3788278388278388,1.9356776556776556,2.532820512820513
0.10597151900219615,1.3788278388278388,1.9356776556776556,2.532820512820513
0.10958984200260602,1.2515018315018314,1.8325274725274725,2.418388278388278
0.11532748200261267,3.3,2.2193406593406593,2.9994139194139193
0.1154589819998364,3.3,2.2193406593406593,2.9994139194139193
0.12037182299900451,3.3,2.2193406593406593,2.9994139194139193
0.1250134980000439,0.5624908424908425,0.3884249084249084,0.6253479853479853
0.12524640500123496,0.13699633699633698,0.5576556776556777,0.6648351648351648
0.1306035650013655,0.13699633699633698,0.5576556776556777,0.6648351648351648
0.13221838400204433,2.6496703296703297,3.3,3.3
0.1389225400016585,3.3,2.9309157509157506,3.25003663003663
0.14431014500223682,3.3,2.9309157509157506,3.25003663003663
0.14450626500183716,3.3,2.9309157509157506,3.25003663003663
0.15103705100045772,3.3,2.9309157509157506,3.25003663003663
0.15509500900225248,3.3,2.9309157509157506,3.25003663003663
0.15862795800057938,3.3,2.9309157509157506,3.25003663003663
0.16646584900081507,3.3,2.9309157509157506,3.25003663003663
0.17261353499998222,0.07413919413919413,0.5238095238095237,0.5802197802197803
0.17906070000026375,2.6456410256410257,3.3,3.3
0.18511217999912333,2.6456410256410257,3.3,3.3
0.1905428589998337,2.6456410256410257,3.3,3.3
0.19080235100045684,2.6456410256410257,3.3,3.3
0.19986091499959002,2.6456410256410257,3.3,3.3
0.20772852500158479,2.6456410256410257,3.3,3.3
0.21431782900253893,2.6456410256410257,3.3,3.3
0.21965051100050914,2.6456410256410257,3.3,3.3
0.22274514300079318,2.6456410256410257,3.3,3.3
0.22312044000136666,2.6456410256410257,3.3,3.3
0.2322679850003624,2.6456410256410257,3.3,3.3
0.24011553300078958,2.6456410256410257,3.3,3.3
0.2484309840001515,0.6736996336996337,0.46659340659340653,0.6406593406593406
0.25370880300033605,1.8091575091575092,2.3619780219780218,2.9744322344322343
0.2553248750009516,3.3,3.1388278388278383,3.3
0.26082716699966113,3.3,3.1388278388278383,3.3
0.26102342900048825,3.3,3.1388278388278383,3.3
0.26588093399914214,3.3,3.1388278388278383,3.3
0.27226032800172106,3.3,3.1388278388278383,3.3
0.27808689800076536,3.3,3.1388278388278383,3.3
0.2820747459991253,2.116996336996337,1.382051282051282,1.4328205128205127
0.28615916200214997,2.116996336996337,1.382051282051282,1.4328205128205127
0.28930387500076904,2.116996336996337,1.382051282051282,1.4328205128205127
0.29137455399904866,2.116996336996337,1.382051282051282,1.4328205128205127
0.29249660999994376,2.116996336996337,1.382051282051282,1.4328205128205127
0.292743005000375,2.116996336996337,1.382051282051282,1.4328205128205127
0.29900039000131073,2.116996336996337,1.382051282051282,1.4328205128205127
0.30336945000090054,2.116996336996337,1.382051282051282,1.4328205128205127
0.30432753200148,2.116996336996337,1.382051282051282,1.4328205128205127
0.3052771280017623,2.9865201465201463,3.3,2.834212454212454
0.30797107400212553,2.9865201465201463,3.3,2.834212454212454
0.3118754829993122,2.9865201465201463,3.3,2.834212454212454
0.3153045149992977,2.9865201465201463,3.3,2.834212454212454
0.31553709999934654,2.9865201465201463,3.3,2.834212454212454
0.32086345100105973,2.9865201465201463,3.3,2.834212454212454
0.32273193900255137,2.9865201465201463,3.3,2.834212454212454
0.32746656100061955,2.9865201465201463,3.3,2.834212454212454
0.3327575319999596,2.9865201465201463,3.3,2.834212454212454
0.3337840890017105,2.9865201465201463,3.3,2.834212454212454
0.3347354590005125,2.9865201465201463,3.3,2.834212454212454
0.33577091000188375,2.9865201465201463,3.3,2.834212454212454
0.33701635200122837,2.9865201465201463,3.3,2.834212454212454
0.33726739800113137,2.9865201465201463,3.3,2.834212454212454
0.3446024330005457,2.9865201465201463,3.3,2.834212454212454
0.3488554280011158,2.9865201465201463,3.3,2.834212454212454
0.3506506609992357,2.9865201465201463,3.3,2.834212454212454
0.35392980799952056,2.9865201465201463,3.3,2.834212454212454
0.35481841000000713,2.9865201465201463,3.3,2.834212454212454
0.35578752500077826,2.9865201465201463,3.3,2.834212454212454
0.3568205230003514,2.9865201465201463,3.3,2.834212454212454
0.35799754099934944,2.9865201465201463,3.3,2.834212454212454
0.35829443799957517,2.9865201465201463,3.3,2.834212454212454
0.3665561620000517,2.9865201465201463,3.3,2.834212454212454
0.3709331270001712,2.9865201465201463,3.3,2.834212454212454
0.3718864940019557,1.0661538461538462,0.7325274725274724,0.7631501831501831
0.3737365189990669,1.0661538461538462,0.7325274725274724,0.7631501831501831
0.37764709100156324,1.046007326007326,1.3836630036630035,2.028351648351648
0.3805190290004248,1.1773626373626374,0.7236630036630036,0.846153846153846
0.38448335100110853,1.1773626373626374,0.7236630036630036,0.846153846153846
0.38825864500176976,1.1773626373626374,0.7236630036630036,0.846153846153846
0.39566028700210154,1.195091575091575,0.7462271062271062,0.713992673992674
0.40015689600113546,1.195091575091575,0.7462271062271062,0.713992673992674
0.40052146000016364,1.195091575091575,0.7462271062271062,0.713992673992674
0.40581926199956797,1.195091575091575,0.7462271062271062,0.713992673992674
0.4106162200005201,1.195091575091575,0.7462271062271062,0.713992673992674
0.4158327900004224,1.195091575091575,0.7462271062271062,0.713992673992674
0.41856172400002833,1.195091575091575,0.7462271062271062,0.713992673992674
0.4223468870004581,1.195091575091575,0.7462271062271062,0.713992673992674
0.4300315100008447,1.195091575091575,0.7462271062271062,0.713992673992674
0.4343193130007421,0.6906227106227106,0.4432234432234432,0.6825641025641025
0.43613073600135976,0.6906227106227106,0.4432234432234432,0.6825641025641025
0.4404552510022768,0.6906227106227106,0.4432234432234432,0.6825641025641025
0.44160188599926187,0.6906227106227106,0.4432234432234432,0.6825641025641025
0.4418375749992265,0.6906227106227106,0.4432234432234432,0.6825641025641025
0.4484917209993,0.6906227106227106,0.4432234432234432,0.6825641025641025
0.4527259980022791,0.6906227106227106,0.4432234432234432,0.6825641025641025
0.4546933509991504,3.3,2.840659340659341,3.3
0.45710706200043205,3.3,2.840659340659341,3.3
0.465338434001751,3.3,2.840659340659341,3.3
0.47130953700252576,3.3,2.840659340659341,3.3
0.4804757019992394,3.3,2.840659340659341,3.3
0.4855061950001982,3.3,2.840659340659341,3.3
0.4926680739990843,0.25868131868131866,0.5334798534798535,0.5987545787545787
0.4983889460017963,0.25868131868131866,0.5334798534798535,0.5987545787545787
0.5051766390024568,2.6682051282051282,2.553772893772894,2.5666666666666664
0.512652617002459,0.5955311355311355,0.7518681318681318,1.2893772893772892
0.517667189000349,0.5955311355311355,0.7518681318681318,1.2893772893772892
0.5202396060012688,1.6931135531135528,0.9283516483516483,1.0073260073260073
0.5289728460011247,1.6931135531135528,0.9283516483516483,1.0073260073260073
0.5359180980012752,1.6931135531135528,0.9283516483516483,1.0073260073260073
0.541700141999172,1.6931135531135528,0.9283516483516483,1.0073260073260073
0.5490460930013796,1.6931135531135528,0.9283516483516483,1.0073260073260073
0.556653137999092,1.6931135531135528,0.9283516483516483,1.0073260073260073
0.5630485620022228,3.3,3.3,2.856776556776557
0.5664093420018617,0.8928937728937728,0.9138461538461539,1.32
0.5666923860007955,3.3,3.3,2.844688644688645
0.5723303140002827,3.3,3.3,2.844688644688645
0.5726183670012688,3.3,3.299194139194139,3.3
0.5798939619999146,3.3,3.299194139194139,3.3
0.5849461889993108,3.3,3.299194139194139,3.3
0.5892340600003081,3.3,3.299194139194139,3.3
0.5908302909992926,3.3,3.299194139194139,3.3
0.5948688130010851,3.3,3.299194139194139,3.3
0.5975560219994804,2.848717948717949,3.248424908424908,3.3
0.6008423450002738,2.848717948717949,3.248424908424908,3.3
0.6025143890001345,0.24256410256410255,0.36666666666666664,0.6301831501831501
0.6079919330004486,0.24256410256410255,0.36666666666666664,0.6301831501831501
0.6083624720013177,0.24256410256410255,0.36666666666666664,0.6301831501831501
0.614113728999655,0.24256410256410255,0.36666666666666664,0.6301831501831501
0.6142238489992451,0.24256410256410255,0.36666666666666664,0.6301831501831501
0.6192571760002465,0.24256410256410255,0.36666666666666664,0.6301831501831501
0.6247360070010473,0.24256410256410255,0.36666666666666664,0.6301831501831501
0.6262207260006107,0.24256410256410255,0.36666666666666664,0.6301831501831501
0.6316170060017612,0.24256410256410255,0.36666666666666664,0.6301831501831501
0.6333364120000624,0.24256410256410255,0.36666666666666664,0.6301831501831501
0.6378322080017824,0.24256410256410255,0.36666666666666664,0.6301831501831501
0.6387713190015347,0.24256410256410255,0.36666666666666664,0.6301831501831501
0.6390886440021859,0.24256410256410255,0.36666666666666664,0.6301831501831501
0.6480401090011583,0.24256410256410255,0.36666666666666664,0.6301831501831501
0.6538044289991376,0.24256410256410255,0.36666666666666664,0.6301831501831501
0.6540815820007992,1.2224908424908425,0.7953846153846154,0.801025641025641
0.6609218410012545,1.2224908424908425,0.7953846153846154,0.801025641025641
0.6653848839996499,1.3788278388278388,0.7502564102564102,0.9388278388278387
0.6656825840000238,1.3788278388278388,0.7502564102564102,0.9388278388278387
0.6707605010014959,1.3788278388278388,0.7502564102564102,0.9388278388278387
0.6765958110008796,1.3788278388278388,0.7502564102564102,0.9388278388278387
0.6830054179990839,1.3788278388278388,0.7502564102564102,0.9388278388278387
0.687247785001091,1.3788278388278388,0.7502564102564102,0.9388278388278387
0.6889705460016557,1.0065201465201465,0.5681318681318681,0.6680586080586081
0.6957703139996738,1.0065201465201465,0.5681318681318681,0.6680586080586081
0.6992786859991611,2.655311355311355,3.3,3.3
0.6994692709995434,2.655311355311355,3.3,3.3
0.7046885780000594,2.655311355311355,3.3,3.3
0.7094263610015332,0.21355311355311357,0.4045421245421245,0.6591941391941392
0.7174100800002634,1.191062271062271,0.7027106227106227,0.7059340659340658
0.7215064619995246,1.191062271062271,0.7027106227106227,0.7059340659340658
0.7268866100021114,1.191062271062271,0.7027106227106227,0.7059340659340658
0.7272887979997904,1.191062271062271,0.7027106227106227,0.7059340659340658
0.7340730440009793,1.191062271062271,0.7027106227106227,0.7059340659340658
0.7385660920008377,1.191062271062271,0.7027106227106227,0.7059340659340658
0.7389190009998856,1.191062271062271,0.7027106227106227,0.7059340659340658
0.7479846599999291,1.191062271062271,0.7027106227106227,0.7059340659340658
0.7533774620023905,1.191062271062271,0.7027106227106227,0.7059340659340658
0.7551067330023216,1.191062271062271,0.7027106227106227,0.7059340659340658
0.7604302079998888,1.191062271062271,0.7027106227106227,0.7059340659340658
0.7608287940020091,1.191062271062271,0.7027106227106227,0.7059340659340658
0.7669167580024805,1.191062271062271,0.7027106227106227,0.7059340659340658
0.770952129001671,1.191062271062271,0.7027106227106227,0.7059340659340658
0.7763512099991203,1.191062271062271,0.7027106227106227,0.7059340659340658
0.7783242520017666,1.191062271062271,0.7027106227106227,0.7059340659340658
0.7793063680001069,1.191062271062271,0.7027106227106227,0.7059340659340658
0.7810546170003363,0.48754578754578753,0.5608791208791208,1.02021978021978
0.7843541069996718,0.48754578754578753,0.5608791208791208,1.02021978021978
0.785327404999407,0.29010989010989013,0.5383150183150183,0.5753846153846153
0.7863328029998229,0.29010989010989013,0.5383150183150183,0.5753846153846153
0.7873166700010188,0.29010989010989013,0.5383150183150183,0.5753846153846153
0.7883060029998887,0.29010989010989013,0.5383150183150183,0.5753846153846153
0.7908638879998762,0.29010989010989013,0.5383150183150183,0.5753846153846153
0.7984820950005087,0.29010989010989013,0.5383150183150183,0.5753846153846153
0.8039046570011124,0.29010989010989013,0.5383150183150183,0.5753846153846153
0.804835136001202,3.183956043956044,3.3,3.3
0.8059779809991596,3.183956043956044,3.3,3.3
0.8063647620001575,3.183956043956044,3.3,3.3
0.8136071940025431,0.3038095238095238,0.630989010989011,1.0323076923076921
0.8177679239997815,0.3038095238095238,0.630989010989011,1.0323076923076921
0.8204217220009014,0.3038095238095238,0.630989010989011,1.0323076923076921
0.8298728320005466,0.3038095238095238,0.630989010989011,1.0323076923076921
0.8347921540007519,1.5851282051282052,2.299120879120879,3.042930402930403
0.8398329810006544,1.5851282051282052,2.299120879120879,3.042930402930403
0.8456416910012194,2.6029304029304026,1.5383882783882783,1.6109157509157508
0.8500312140022288,0.32476190476190475,0.7083516483516483,1.0484249084249082
0.850324761999218,0.32476190476190475,0.7083516483516483,1.0484249084249082
0.855842078999558,0.32476190476190475,0.7083516483516483,1.0484249084249082
0.8573676090018125,0.32476190476190475,0.7083516483516483,1.0484249084249082
0.8636743320021196,0.32476190476190475,0.7083516483516483,1.0484249084249082
0.8694106590010051,0.32476190476190475,0.7083516483516483,1.0484249084249082
0.8792203289995086,1.236190476190476,0.618095238095238,0.523003663003663
0.8883111989998724,1.6624908424908424,1.9123076923076923,2.622271062271062
0.8967024220000894,1.6624908424908424,1.9123076923076923,2.622271062271062
0.9007699960020545,1.6624908424908424,1.9123076923076923,2.622271062271062
0.904687099999137,0.18454212454212454,0.3602197802197802,0.5818315018315018
0.9113397330002044,0.1087912087912088,0.5641025641025641,0.6857875457875457
0.9149043899997196,2.652087912087912,3.3,3.3
0.915111911999702,2.652087912087912,3.3,3.3
0.9200862739999138,2.652087912087912,3.3,3.3
0.926666794999619,2.652087912087912,3.3,3.3
0.9310510280010931,2.652087912087912,3.3,3.3
0.9319922120012052,2.652087912087912,3.3,3.3
0.9336830909996934,2.652087912087912,3.3,3.3
0.9362929759990948,2.652087912087912,3.3,3.3
0.946428133000154,2.652087912087912,3.3,3.3
0.9514181150007062,1.5746520146520147,0.6535531135531135,0.8179487179487179
0.9556298300012713,1.5746520146520147,0.6535531135531135,0.8179487179487179
0.9592420360022516,1.5746520146520147,0.6535531135531135,0.8179487179487179
0.9668921890006459,1.5746520146520147,0.6535531135531135,0.8179487179487179
0.9710692250009743,1.5746520146520147,0.6535531135531135,0.8179487179487179
0.9747174210024241,3.008278388278388,3.3,3.3
0.9811139060002461,3.008278388278388,3.3,3.3
0.9851742989994818,3.008278388278388,3.3,3.3
0.9889259459996538,3.008278388278388,3.3,3.3
0.9965792680013692,1.1894505494505494,0.6213186813186813,0.5898901098901098
0.9999669380013074,1.1894505494505494,0.6213186813186813,0.5898901098901098
1.0009560889993736,1.1894505494505494,0.6213186813186813,0.5898901098901098
1.001944193001691,1.1894505494505494,0.6213186813186813,0.5898901098901098
1.0028333549998933,1.1894505494505494,0.6213186813186813,0.5898901098901098
1.0049849320021167,1.1894505494505494,0.6213186813186813,0.5898901098901098
1.0053838800013182,1.1894505494505494,0.6213186813186813,0.5898901098901098
1.0128945350006688,1.1894505494505494,0.6213186813186813,0.5898901098901098
1.017897007001011,1.1894505494505494,0.6213186813186813,0.5898901098901098
1.0237631050003984,1.4038095238095236,0.7736263736263735,0.8018315018315018
1.0330339819993242,1.4038095238095236,0.7736263736263735,0.8018315018315018
1.0399936470021203,1.4038095238095236,0.7736263736263735,0.8018315018315018
1.045153188999393,1.4038095238095236,0.7736263736263735,0.8018315018315018
1.0469266770014656,1.4038095238095236,0.7736263736263735,0.8018315018315018
1.050330293001025,1.4038095238095236,0.7736263736263735,0.8018315018315018
1.0506202770011441,1.4038095238095236,0.7736263736263735,0.8018315018315018
1.0554460530001961,1.4038095238095236,0.7736263736263735,0.8018315018315018
1.063038857999345,1.4038095238095236,0.7736263736263735,0.8018315018315018
1.0679435810016003,1.0701831501831502,0.7147985347985348,0.8002197802197801
1.0744286520020978,1.0701831501831502,0.7147985347985348,0.8002197802197801
1.078236070999992,1.0701831501831502,0.7147985347985348,0.8002197802197801
1.0831204120004259,1.4465201465201465,0.8308424908424907,0.8856410256410255
1.088421943000867,1.4465201465201465,0.8308424908424907,0.8856410256410255
1.0906356960003905,0.7333333333333333,1.527912087912088,2.108131868131868
1.0974120480022975,0.7333333333333333,1.527912087912088,2.108131868131868
1.1014796320014284,0.7333333333333333,1.527912087912088,2.108131868131868
1.1056425040005706,0.7333333333333333,1.527912087912088,2.108131868131868
1.1081154929997865,0.7333333333333333,1.527912087912088,2.108131868131868
1.1146641609993821,0.7333333333333333,1.527912087912088,2.108131868131868
1.1186328229996434,0.7333333333333333,1.527912087912088,2.108131868131868
1.1226469339999312,0.7333333333333333,1.527912087912088,2.108131868131868
1.125940575999266,0.7333333333333333,1.527912087912088,2.108131868131868
1.1278208650001034,0.7333333333333333,1.527912087912088,2.108131868131868
1.130324179001036,1.2547252747252746,0.6688644688644688,0.6688644688644688
1.1362714970018715,1.2547252747252746,0.6688644688644688,0.6688644688644688
1.1416948000005505,1.2547252747252746,0.6688644688644688,0.6688644688644688
1.144608516999142,0.22564102564102564,0.5616849816849817,0.6406593406593406
1.1478355060025933,0.22564102564102564,0.5616849816849817,0.6406593406593406
1.149423504000879,0.22564102564102564,0.5616849816849817,0.6406593406593406
1.154600574001961,0.22564102564102564,0.5616849816849817,0.6406593406593406
1.1573607200007245,0.7961904761904761,1.1177289377289377,2.0009523809523806
1.161438613999053,0.7961904761904761,1.1177289377289377,2.0009523809523806
1.1632399859990983,0.5294505494505495,0.4810989010989011,0.6358241758241758
1.1671332940022694,0.5294505494505495,0.4810989010989011,0.6358241758241758
1.1711273649998475,0.5294505494505495,0.4810989010989011,0.6358241758241758
1.178031846000522,0.5294505494505495,0.4810989010989011,0.6358241758241758
1.182162615001289,0.5294505494505495,0.4810989010989011,0.6358241758241758
1.1846431820013095,0.4545054945054945,0.5963369963369963,0.701098901098901
1.1848543900014192,0.4545054945054945,0.5963369963369963,0.701098901098901
1.1927109870011918,0.4545054945054945,0.5963369963369963,0.701098901098901
1.1974369269992167,0.4545054945054945,0.5963369963369963,0.701098901098901
1.202870996999991,2.6649816849816848,2.5521611721611723,2.5586080586080584
1.2052818550000666,2.6649816849816848,2.5521611721611723,2.5586080586080584
1.2112451670000155,2.6649816849816848,2.5521611721611723,2.5586080586080584
1.2157965789992886,2.6649816849816848,2.5521611721611723,2.5586080586080584
1.2160520460020052,2.6649816849816848,2.5521611721611723,2.5586080586080584
1.220582590001868,2.553772893772894,1.5577289377289376,1.5504761904761903
1.2209498209995218,2.553772893772894,1.5577289377289376,1.5504761904761903
1.226039650002349,2.553772893772894,1.5577289377289376,1.5504761904761903
1.2326927870017244,2.553772893772894,1.5577289377289376,1.5504761904761903
1.2372950669996499,0.9718681318681318,0.6471062271062271,0.6793406593406592
1.2374014090019045,0.9718681318681318,0.6471062271062271,0.6793406593406592
1.2433342330004962,0.9718681318681318,0.6471062271062271,0.6793406593406592
1.2434412130023702,0.9718681318681318,0.6471062271062271,0.6793406593406592
1.2483136280025064,3.051794871794872,2.8003663003663,3.3
1.2538895420002518,2.9744322344322343,2.556996336996337,2.556996336996337
1.2550643909999053,2.9744322344322343,2.556996336996337,2.556996336996337
1.2552655790022982,2.9744322344322343,2.556996336996337,2.556996336996337
1.2615746459996444,2.9744322344322343,2.556996336996337,2.556996336996337
1.2658293599997705,2.9744322344322343,2.556996336996337,2.556996336996337
1.2682721960009076,2.9744322344322343,2.556996336996337,2.556996336996337
1.2767990489992371,2.9744322344322343,2.556996336996337,2.556996336996337
1.2819594430002326,2.6665934065934067,3.3,3.3
1.2844303769998078,2.6665934065934067,3.3,3.3
1.2893821770012437,2.6665934065934067,3.3,3.3
1.2947886610018031,1.7865934065934064,2.444175824175824,3.1694505494505494
1.2956841560007888,1.7865934065934064,2.444175824175824,3.1694505494505494
1.2973972170002526,1.7865934065934064,2.444175824175824,3.1694505494505494
1.3006138689997897,1.7865934065934064,2.444175824175824,3.1694505494505494
1.301562766002462,1.7865934065934064,2.444175824175824,3.1694505494505494
1.3032098549992952,1.7865934065934064,2.444175824175824,3.1694505494505494
1.3070463990006829,1.7865934065934064,2.444175824175824,3.1694505494505494
1.311678464000579,1.7865934065934064,2.444175824175824,3.1694505494505494
1.3172430790000362,1.7865934065934064,2.444175824175824,3.1694505494505494
1.3188571680002497,1.7865934065934064,2.444175824175824,3.1694505494505494
1.3230412640004943,1.7865934065934064,2.444175824175824,3.1694505494505494
1.3246625760002644,1.7865934065934064,2.444175824175824,3.1694505494505494
1.3285310579994984,1.7865934065934064,2.444175824175824,3.1694505494505494
1.3333720310001809,1.7865934065934064,2.444175824175824,3.1694505494505494
1.3396024979992944,1.7865934065934064,2.444175824175824,3.1694505494505494
1.3437545810011216,1.7865934065934064,2.444175824175824,3.1694505494505494
1.346290240999224,2.8180952380952378,3.3,2.7455677655677655
1.3518444139990606,2.8180952380952378,3.3,2.7455677655677655
1.3527594430015597,2.8180952380952378,3.3,2.7455677655677655
1.3537535399991611,2.8180952380952378,3.3,2.7455677655677655
1.3549297099998512,2.8180952380952378,3.3,2.7455677655677655
1.3552344790005009,2.8180952380952378,3.3,2.7455677655677655
1.3603600290007307,2.8180952380952378,3.3,2.7455677655677655
1.3645490540002356,2.8180952380952378,3.3,2.7455677655677655
1.3660896590008633,0.29413919413919415,0.46095238095238095,0.5818315018315018
1.37007402800009,0.29413919413919415,0.46095238095238095,0.5818315018315018
1.3740871230002085,0.29413919413919415,0.46095238095238095,0.5818315018315018
1.378777899000852,0.29413919413919415,0.46095238095238095,0.5818315018315018
1.3847232410007564,0.29413919413919415,0.46095238095238095,0.5818315018315018
1.3848210930009373,0.29413919413919415,0.46095238095238095,0.5818315018315018
1.3906641690009565,0.29413919413919415,0.46095238095238095,0.5818315018315018
1.3907703020013287,1.1846153846153846,0.7502564102564102,0.7526739926739926
1.3959829970008286,1.1846153846153846,0.7502564102564102,0.7526739926739926
1.4002381930004049,1.1846153846153846,0.7502564102564102,0.7526739926739926
1.4011182230024133,1.1846153846153846,0.7502564102564102,0.7526739926739926
1.4027673689997755,1.1846153846153846,0.7502564102564102,0.7526739926739926
1.4070849870004167,1.1846153846153846,0.7502564102564102,0.7526739926739926
1.4089699030009797,1.1846153846153846,0.7502564102564102,0.7526739926739926
1.4115492000019003,1.1846153846153846,0.7502564102564102,0.7526739926739926
1.4171819420007523,1.1846153846153846,0.7502564102564102,0.7526739926739926
1.418095364002511,1.1846153846153846,0.7502564102564102,0.7526739926739926
1.4199758319991815,1.1846153846153846,0.7502564102564102,0.7526739926739926
1.4226320310008305,1.1846153846153846,0.7502564102564102,0.7526739926739926
1.4282614280018606,0.1829304029304029,0.523003663003663,0.6785347985347985
1.4283943170012208,0.1829304029304029,0.523003663003663,0.6785347985347985
1.4337064850005845,0.1829304029304029,0.523003663003663,0.6785347985347985
1.4352044840015878,0.1829304029304029,0.523003663003663,0.6785347985347985
1.440968924001936,0.1829304029304029,0.523003663003663,0.6785347985347985
1.4469735660022707,0.1829304029304029,0.523003663003663,0.6785347985347985
1.45135891800237,0.1829304029304029,0.523003663003663,0.6785347985347985
1.452964695999981,0.1829304029304029,0.523003663003663,0.6785347985347985
1.460909712001012,0.1829304029304029,0.523003663003663,0.6785347985347985
1.4654786780010909,0.1829304029304029,0.523003663003663,0.6785347985347985
1.465700671000377,0.1829304029304029,0.523003663003663,0.6785347985347985
1.474956640999153,0.1829304029304029,0.523003663003663,0.6785347985347985
1.4831197630010138,3.171062271062271,2.249157509157509,3.3
1.4901007600019511,3.171062271062271,2.249157509157509,3.3
1.4948411260011198,3.171062271062271,2.249157509157509,3.3
1.4949673789997178,3.171062271062271,2.249157509157509,3.3
1.4998112290013523,3.171062271062271,2.249157509157509,3.3
1.5051263850000396,0.6350183150183151,0.4472527472527472,0.5769963369963369
1.5082287410004938,0.07655677655677656,0.5084981684981685,0.6068131868131869
1.5107709799995064,1.0605128205128205,0.6680586080586081,0.8106959706959707
1.5163868570016348,1.0605128205128205,0.6680586080586081,0.8106959706959707
1.5175694009994913,3.3,2.693992673992674,2.7745787545787546
1.5177499349993013,3.3,2.693992673992674,2.7745787545787546
1.5231088809996436,3.3,2.693992673992674,2.7745787545787546
1.5247987170005217,3.3,2.693992673992674,2.7745787545787546
1.5283332920007524,3.3,3.3,2.8503296703296703
1.5337924980012758,3.3,3.3,2.8503296703296703
1.5354809580021538,1.075018315018315,1.2176556776556777,2.2217582417582418
1.538670671001455,1.075018315018315,1.2176556776556777,2.2217582417582418
1.5405665479993331,1.075018315018315,1.2176556776556777,2.2217582417582418
1.5423897660002694,1.075018315018315,1.2176556776556777,2.2217582417582418
1.5450111310019565,1.075018315018315,1.2176556776556777,2.2217582417582418
1.5498219760011125,1.075018315018315,1.2176556776556777,2.2217582417582418
1.5499515260016778,1.075018315018315,1.2176556776556777,2.2217582417582418
1.554618203001155,1.075018315018315,1.2176556776556777,2.2217582417582418
1.5548243600023852,1.075018315018315,1.2176556776556777,2.2217582417582418
1.5605198810008005,1.075018315018315,1.2176556776556777,2.2217582417582418
1.5607114049998927,1.5375824175824175,0.8542124542124543,0.8888644688644688
1.5657726179997553,1.5375824175824175,0.8542124542124543,0.8888644688644688
1.5690447820015834,3.3,3.3,2.856776556776557
1.5700610970015987,3.3,3.3,2.856776556776557
1.5704136660024233,3.3,3.3,2.856776556776557
1.5755453300007503,3.3,3.3,2.856776556776557
1.5787811930022144,3.3,3.3,2.856776556776557
1.5797820379993937,3.3,3.3,2.856776556776557
1.5807770150022407,3.3,3.3,2.856776556776557
1.5817099310006597,3.3,3.3,2.856776556776557
1.5827092389990867,3.3,3.3,2.856776556776557
1.5843813370011048,3.3,3.3,2.856776556776557
1.5876365149997582,3.3,3.3,2.856776556776557
1.5892542120018334,3.3,3.3,2.856776556776557
1.5935625540005276,3.3,3.3,2.856776556776557
1.5944689999996626,3.3,3.3,2.856776556776557
1.5961148030000913,3.3,3.3,2.856776556776557
1.6002865230002499,3.3,3.3,2.856776556776557
1.6020803489991522,3.3,3.3,2.856776556776557
1.6045248600021296,3.3,3.3,2.856776556776557
1.6046425090025878,3.3,3.3,2.856776556776557
1.609797493001679,3.3,3.3,2.856776556776557
1.6130767020003987,3.3,3.3,2.856776556776557
1.6140203460017801,3.3,3.3,2.856776556776557
1.6149694630003069,3.3,3.3,2.856776556776557
1.6167621660024452,3.3,3.3,2.856776556776557
1.6192262020013004,3.3,3.3,2.856776556776557
1.6249410279997392,3.3,3.3,2.856776556776557
1.6252219670022896,3.3,3.3,2.856776556776557
1.6302085630013607,3.3,3.3,2.856776556776557
1.6341262019996066,0.43113553113553116,0.6519413919413919,1.0282783882783881
1.6379026100003102,0.43113553113553116,0.6519413919413919,1.0282783882783881
1.6436915029989905,0.43113553113553116,0.6519413919413919,1.0282783882783881
1.6438330260025396,0.43113553113553116,0.6519413919413919,1.0282783882783881
1.649781553001958,0.43113553113553116,0.6519413919413919,1.0282783882783881
1.655237983999541,2.647252747252747,3.3,3.3
1.6561720240024442,2.647252747252747,3.3,3.3
1.657139165999979,2.647252747252747,3.3,3.3
1.658058634999179,2.647252747252747,3.3,3.3
1.6599907370000437,2.647252747252747,3.3,3.3
1.6618310330013628,2.647252747252747,3.3,3.3
1.664261122001335,2.647252747252747,3.3,3.3
1.6702032110006257,2.647252747252747,3.3,3.3
1.675789752000128,2.647252747252747,3.3,3.3
1.675961756001925,2.647252747252747,3.3,3.3
1.6810328290011967,2.647252747252747,3.3,3.3
1.6849844310017943,2.647252747252747,3.3,3.3
1.6882102919989848,2.647252747252747,3.3,3.3
1.689121557999897,2.647252747252747,3.3,3.3
1.6907751210019342,2.647252747252747,3.3,3.3
1.6950243259998388,2.647252747252747,3.3,3.3
1.6967253280017758,2.647252747252747,3.3,3.3
1.699681401001726,2.647252747252747,3.3,3.3
1.7020461169995542,2.647252747252747,3.3,3.3
1.702303310001298,2.647252747252747,3.3,3.3
1.7068925960011256,2.647252747252747,3.3,3.3
1.707690637002088,2.647252747252747,3.3,3.3
1.7095587850017182,2.647252747252747,3.3,3.3
1.7120015950022207,2.647252747252747,3.3,3.3
1.7172534330020426,3.3,2.6682051282051282,3.3
1.7200192429991148,3.3,2.6682051282051282,3.3
1.724069698000676,3.3,2.6682051282051282,3.3
1.727623325001332,3.3,2.6682051282051282,3.3
1.7331928120001976,3.3,2.6682051282051282,3.3
1.734115899002063,3.3,2.6682051282051282,3.3
1.735053478001646,3.3,2.6682051282051282,3.3
1.73687675200199,3.3,2.6682051282051282,3.3
1.739502001000801,3.3,2.6682051282051282,3.3
1.7439590300018608,3.3,2.6682051282051282,3.3
1.7448751410011027,0.11604395604395604,0.5568498168498168,0.6922344322344323
1.7465414370017243,0.11604395604395604,0.5568498168498168,0.6922344322344323
1.7505792660012958,0.9194871794871795,0.49802197802197795,0.7792673992673992
1.7540603209999972,0.9194871794871795,0.49802197802197795,0.7792673992673992
1.7543298990021867,1.290989010989011,1.3554578754578754,2.1202197802197804
1.759419786001672,2.6577289377289377,2.5521611721611723,2.561831501831502
1.7628061690011236,2.6577289377289377,2.5521611721611723,2.561831501831502
1.7643061380003928,2.6577289377289377,2.5521611721611723,2.561831501831502
1.7698290049993375,2.6577289377289377,2.5521611721611723,2.561831501831502
1.7768394840022665,2.6577289377289377,2.5521611721611723,2.561831501831502
1.7854752509992977,3.3,3.219413919413919,3.3
1.7929593570006546,0.2796336996336996,0.5262271062271061,0.5568498168498168
1.7991075530007947,0.8743589743589744,0.6503296703296703,0.7583150183150182
1.8052604100012104,0.8743589743589744,0.6503296703296703,0.7583150183150182
1.8116431960006594,0.8743589743589744,0.6503296703296703,0.7583150183150182
1.8165377130026172,0.8743589743589744,0.6503296703296703,0.7583150183150182
1.8226590119993489,2.9260805860805856,3.129157509157509,3.3
1.8271883189991058,2.9260805860805856,3.129157509157509,3.3
1.8273697549993813,2.9260805860805856,3.129157509157509,3.3
1.8349194760012324,2.9260805860805856,3.129157509157509,3.3
1.8398363510023046,0.8808058608058608,1.3586813186813185,2.1830769230769227
1.8447751980020257,0.8808058608058608,1.3586813186813185,2.1830769230769227
1.8517145139994682,0.8808058608058608,1.3586813186813185,2.1830769230769227
1.8566550310024468,0.8808058608058608,1.3586813186813185,2.1830769230769227
1.861502637999365,0.8808058608058608,1.3586813186813185,2.1830769230769227
1.865973899999517,0.8808058608058608,1.3586813186813185,2.1830769230769227
1.8662311100015359,0.8808058608058608,1.3586813186813185,2.1830769230769227
1.87350133200016,0.8808058608058608,1.3586813186813185,2.1830769230769227
1.8798101050015248,2.6545054945054947,3.3,3.3
1.8849650529991777,2.6545054945054947,3.3,3.3
1.8873844720001216,2.6545054945054947,3.3,3.3
1.8974374060016999,1.1064468864468864,0.6003663003663003,0.7413919413919414
1.904104819001077,3.3,3.106593406593406,3.3
1.90884294100033,3.3,3.106593406593406,3.3
1.9167890919998172,3.3,3.106593406593406,3.3
1.9234122699999716,3.3,3.106593406593406,3.3
1.929034775999753,3.3,3.106593406593406,3.3
1.9376582570002938,0.5882783882783883,0.6261538461538461,0.9871794871794871
1.9448968899996544,0.5882783882783883,0.6261538461538461,0.9871794871794871
1.950494131000596,0.5882783882783883,0.6261538461538461,0.9871794871794871
1.9601572780011338,0.5882783882783883,0.6261538461538461,0.9871794871794871
1.9689269080008671,0.842124542124542,1.166080586080586,1.810769230769231
1.9777835349996167,2.9180219780219776,3.3,3.3
1.9849177239993878,0.8115018315018314,0.5624908424908425,0.6108424908424909
1.9893349279991526,0.8115018315018314,0.5624908424908425,0.6108424908424909
1.9896209590006038,0.8115018315018314,0.5624908424908425,0.6108424908424909
1.997073337999609,0.8115018315018314,0.5624908424908425,0.6108424908424909
2.002218741999968,0.8115018315018314,0.5624908424908425,0.6108424908424909
2.0055582839995623,0.03142857142857143,0.49560439560439556,0.5737728937728938
2.005812581999635,2.6609523809523807,2.556996336996337,2.561831501831502
2.0132538700017903,0.11282051282051282,0.8719413919413919,1.3747985347985348
2.0192788370004564,0.11282051282051282,0.8719413919413919,1.3747985347985348
2.0235888230017736,0.11282051282051282,0.8719413919413919,1.3747985347985348
2.025024647999089,0.11282051282051282,0.8719413919413919,1.3747985347985348
2.0329342530021677,0.11282051282051282,0.8719413919413919,1.3747985347985348
2.0390383300000394,0.11282051282051282,0.8719413919413919,1.3747985347985348
2.0437494729994796,0.11282051282051282,0.8719413919413919,1.3747985347985348
2.051558739000029,0.11282051282051282,0.8719413919413919,1.3747985347985348
2.0578582320013084,0.11282051282051282,0.8719413919413919,1.3747985347985348
2.0629614620011125,1.4690842490842488,0.7478388278388278,0.7937728937728937
2.0663904050015844,1.4690842490842488,0.7478388278388278,0.7937728937728937
2.0666656110006443,2.6964102564102563,2.556996336996337,2.5634432234432234
2.074485850000201,2.6964102564102563,2.556996336996337,2.5634432234432234
2.0803890679999313,2.6964102564102563,2.556996336996337,2.5634432234432234
2.087506179999764,0.581025641025641,0.6277655677655677,0.718021978021978
2.0931073569990986,0.581025641025641,0.6277655677655677,0.718021978021978
2.093331673000648,0.6857875457875457,1.037948717948718,1.543223443223443
2.101949494001019,0.6857875457875457,1.037948717948718,1.543223443223443
2.1108306200003426,0.13296703296703297,0.5125274725274725,0.6422710622710622
2.118119372000365,0.13296703296703297,0.5125274725274725,0.6422710622710622
2.124184532000072,2.6577289377289377,3.024395604395604,3.3
2.1284822529996745,2.6577289377289377,3.024395604395604,3.3
2.1287929780010018,2.6577289377289377,3.024395604395604,3.3
2.134403300999111,2.6577289377289377,3.024395604395604,3.3
2.1354714690023684,2.6577289377289377,3.024395604395604,3.3
2.135746472002211,2.6577289377289377,3.024395604395604,3.3
2.142655236999417,3.2468131868131866,2.314432234432234,2.3917948717948714
2.150221824002074,3.2468131868131866,2.314432234432234,2.3917948717948714
2.1562412370003585,3.2468131868131866,2.314432234432234,2.3917948717948714
2.1616391249990556,3.2468131868131866,2.314432234432234,2.3917948717948714
2.1618663260014728,3.2468131868131866,2.314432234432234,2.3917948717948714
2.1712907790024474,3.2468131868131866,2.314432234432234,2.3917948717948714
2.1812207820003096,3.2468131868131866,2.314432234432234,2.3917948717948714
2.190780736000306,3.2468131868131866,2.314432234432234,2.3917948717948714
2.198989671000163,1.3014652014652013,2.181465201465201,2.872893772893773
2.2055623150008614,2.6585347985347987,2.557802197802198,2.565860805860806
2.2114483330005896,2.6585347985347987,2.557802197802198,2.565860805860806
2.2209328270000697,1.2104029304029302,1.4046153846153846,2.2008058608058607
2.2297840070023085,1.2104029304029302,1.4046153846153846,2.2008058608058607
2.236539112000173,2.652087912087912,3.3,3.3
2.2421984630018414,2.652087912087912,3.3,3.3
2.2506957910009078,2.652087912087912,3.3,3.3
2.257057861999783,2.652087912087912,3.3,3.3
2.260658662999049,0.7921611721611721,0.6092307692307692,0.7881318681318681
2.260875292999117,0.7921611721611721,0.6092307692307692,0.7881318681318681
2.2665447879990097,0.7921611721611721,0.6092307692307692,0.7881318681318681
2.2667061569991347,2.655311355311355,3.287106227106227,3.3
2.2711088270007167,2.655311355311355,3.287106227106227,3.3
2.272626083002251,2.655311355311355,3.287106227106227,3.3
2.2769564680020267,2.655311355311355,3.287106227106227,3.3
2.2784769419995428,2.317655677655677,1.5456410256410256,1.4158974358974357
2.282161946000997,2.317655677655677,1.5456410256410256,1.4158974358974357
2.2823810010013403,0.5262271062271061,0.4464468864468864,0.6189010989010989
2.2874335310007154,0.5262271062271061,0.4464468864468864,0.6189010989010989
2.291690476999065,0.7937728937728937,0.5463736263736263,0.7558974358974359
2.2939369550003903,0.7937728937728937,0.5463736263736263,0.7558974358974359
2.2947393860013108,0.7937728937728937,0.5463736263736263,0.7558974358974359
2.296226051999838,0.7937728937728937,0.5463736263736263,0.7558974358974359
2.3011685090023093,0.7937728937728937,0.5463736263736263,0.7558974358974359
2.3054820310026116,0.7937728937728937,0.5463736263736263,0.7558974358974359
2.307663578001666,0.7937728937728937,0.5463736263736263,0.7558974358974359
2.3084579370006395,0.7937728937728937,0.5463736263736263,0.7558974358974359
2.3106372760012164,1.0693772893772893,0.7478388278388278,0.801025641025641
2.3109432679993915,1.0693772893772893,0.7478388278388278,0.801025641025641
2.3159506770025473,1.0693772893772893,0.7478388278388278,0.801025641025641
2.3195920559992373,1.0693772893772893,0.7478388278388278,0.801025641025641
2.324782072999369,1.0693772893772893,0.7478388278388278,0.801025641025641
2.3290974330011522,1.0693772893772893,0.7478388278388278,0.801025641025641
2.330629844000214,3.3,2.3257142857142856,2.8285714285714283
2.3348773479992815,3.3,2.3257142857142856,2.8285714285714283
2.337403618999815,3.3,2.3257142857142856,2.8285714285714283
2.3436212400010845,3.3,2.3257142857142856,2.8285714285714283
2.3493491600020207,3.3,2.3257142857142856,2.8285714285714283
2.3567936639992695,3.3,2.3257142857142856,2.8285714285714283
2.3641555960020924,3.3,2.3257142857142856,2.8285714285714283
2.371901840000646,3.3,2.3257142857142856,2.8285714285714283
2.379004171001725,3.3,2.3257142857142856,2.8285714285714283
2.3839903910011344,3.3,2.3257142857142856,2.8285714285714283
2.3908775320014684,3.1186813186813183,2.5634432234432234,2.561831501831502
2.3971426080024685,1.1306227106227105,0.6946520146520146,0.8268131868131867
2.402740568999434,1.1306227106227105,0.6946520146520146,0.8268131868131867
2.4126411319994077,1.1306227106227105,0.6946520146520146,0.8268131868131867
2.419645183999819,1.2724542124542124,0.8002197802197801,0.8654945054945055
2.4246733040017716,1.2724542124542124,0.8002197802197801,0.8654945054945055
2.4288246920004894,1.2724542124542124,0.8002197802197801,0.8654945054945055
2.431435408001562,1.2724542124542124,0.8002197802197801,0.8654945054945055
2.4364870970021,1.2724542124542124,0.8002197802197801,0.8654945054945055
2.440552285999729,2.66014652014652,2.556996336996337,2.5634432234432234
2.4429113840014907,0.5157509157509157,0.5568498168498168,0.6317948717948718
2.4431098000022757,0.5157509157509157,0.5568498168498168,0.6317948717948718
2.4480341609996685,0.5157509157509157,0.5568498168498168,0.6317948717948718
2.4546990170019853,0.5157509157509157,0.5568498168498168,0.6317948717948718
2.46044771599918,0.5157509157509157,0.5568498168498168,0.6317948717948718
2.470146203002514,0.5157509157509157,0.5568498168498168,0.6317948717948718
2.4778995029992075,0.5157509157509157,0.5568498168498168,0.6317948717948718
2.484362933999364,2.6577289377289377,2.553772893772894,2.5586080586080584
2.4882886310006143,2.6577289377289377,2.553772893772894,2.5586080586080584
2.4922500510001555,2.6577289377289377,2.553772893772894,2.5586080586080584
2.496153611999034,2.6577289377289377,2.553772893772894,2.5586080586080584
2.5000879850013007,2.6577289377289377,2.553772893772894,2.5586080586080584
2.503965951000282,2.6577289377289377,2.553772893772894,2.5586080586080584
2.507922841999971,2.793113553113553,3.1227106227106223,3.3
2.5116601230001834,2.793113553113553,3.1227106227106223,3.3
2.5159463090021745,2.793113553113553,3.1227106227106223,3.3
2.5181703090020164,2.793113553113553,3.1227106227106223,3.3
2.5184021660024882,2.793113553113553,3.1227106227106223,3.3
2.523401634000038,2.793113553113553,3.1227106227106223,3.3
2.5270267279993277,0.4964102564102564,0.6527472527472526,0.7518681318681318
2.5272368059995642,1.0178021978021978,0.49721611721611714,0.6688644688644688
2.5322527890020865,1.0178021978021978,0.49721611721611714,0.6688644688644688
2.536738103000971,1.0178021978021978,0.49721611721611714,0.6688644688644688
2.5379532400002063,1.0178021978021978,0.49721611721611714,0.6688644688644688
2.5381109100017056,1.0178021978021978,0.49721611721611714,0.6688644688644688
2.543797837999591,1.0178021978021978,0.49721611721611714,0.6688644688644688
2.5442130340015865,1.0178021978021978,0.49721611721611714,0.6688644688644688
2.552457530000538,3.3,3.3,2.851941391941392
2.5590477820005617,3.3,3.3,2.851941391941392
2.5643326560020796,0.7019047619047618,0.6358241758241758,0.7655677655677655
2.56577942900185,0.7019047619047618,0.6358241758241758,0.7655677655677655
2.5742336490002344,0.7019047619047618,0.6358241758241758,0.7655677655677655
2.58226369300246,0.7019047619047618,0.6358241758241758,0.7655677655677655
2.588896986999316,0.7019047619047618,0.6358241758241758,0.7655677655677655
2.5930602680018637,3.3,2.548937728937729,3.1396336996336993
2.5951822710012493,3.3,2.548937728937729,3.1396336996336993
2.5955126980006753,3.3,2.548937728937729,3.1396336996336993
2.6042483349992835,3.3,2.548937728937729,3.1396336996336993
2.6094482640000933,3.3,2.548937728937729,3.1396336996336993
2.612840548001259,0.6712820512820512,0.4754578754578754,0.8928937728937728
2.613171725999564,0.6712820512820512,0.4754578754578754,0.8928937728937728
2.6212865470006363,0.6712820512820512,0.4754578754578754,0.8928937728937728
2.6274488560011378,2.681098901098901,1.9405128205128204,2.0484981684981682
2.6326890119999007,2.681098901098901,1.9405128205128204,2.0484981684981682
2.634131465001701,2.681098901098901,1.9405128205128204,2.0484981684981682
2.6403812259995902,2.681098901098901,1.9405128205128204,2.0484981684981682
2.64449726300154,1.8558974358974358,0.9613919413919414,1.0218315018315018
2.6476552820022334,1.8558974358974358,0.9613919413919414,1.0218315018315018
2.649278103999677,1.236996336996337,0.7131868131868132,0.6414652014652015
2.6531356730010884,1.236996336996337,0.7131868131868132,0.6414652014652015
2.6578844640025636,1.236996336996337,0.7131868131868132,0.6414652014652015
2.6580919830012135,1.236996336996337,0.7131868131868132,0.6414652014652015
2.6637895810017653,1.236996336996337,0.7131868131868132,0.6414652014652015
2.6691071820023353,1.236996336996337,0.7131868131868132,0.6414652014652015
2.6719624280012795,1.236996336996337,0.7131868131868132,0.6414652014652015
2.676627410000947,1.236996336996337,0.7131868131868132,0.6414652014652015
2.676792488000501,2.9381684981684977,3.261318681318681,3.3
2.6835850669995125,2.9381684981684977,3.261318681318681,3.3
2.689991547002137,2.9381684981684977,3.261318681318681,3.3
2.6945823040005052,1.0452014652014652,0.6648351648351648,0.6680586080586081
2.7025401909995708,2.6714285714285713,2.556996336996337,2.5634432234432234
2.7082682239997666,2.2765567765567765,0.8203663003663003,1.1241758241758242
2.708460390000255,2.2765567765567765,0.8203663003663003,1.1241758241758242
2.7133125410000503,2.2765567765567765,0.8203663003663003,1.1241758241758242
2.719156887000281,3.3,3.1887912087912085,3.3
2.7251897730020573,3.3,3.1887912087912085,3.3
2.7309288639989973,0.1104029304029304,0.46659340659340653,0.5471794871794872
2.7310693580002408,3.3,3.3,3.3
2.7359783190004237,3.3,3.3,3.3
2.7411320920000435,3.3,3.3,3.3
2.745076441002311,3.3,3.3,3.3
2.749059419002151,3.3,3.3,3.3
2.7522284850019787,3.3,3.3,3.3
2.75389216700205,3.3,3.3,3.3
2.7589649649999046,3.3,3.3,3.3
2.761626259001787,3.3,3.3,3.3
2.7648147239997343,3.3,3.3,3.3
2.766516343999683,3.3,3.3,3.3
2.770476542002143,3.3,3.3,3.3
2.77539814100237,3.3,3.3,3.3
2.7853802390018245,3.3,3.3,3.3
2.791307282001071,3.3,3.3,3.3
2.796209247000661,3.3,3.3,3.3
2.800994928002183,3.3,3.3,3.3
2.8064739980000013,3.3,3.3,3.3
2.8073814650015265,3.3,3.3,3.3
2.8090484380009,3.3,3.3,3.3
2.8130674210005964,3.3,3.3,3.3
2.817032299000857,3.3,3.3,3.3
2.82103242499943,3.3,3.3,3.3
2.8250069160021667,3.3,3.3,3.3
2.828307355001016,0.2643223443223443,1.0532600732600732,1.5931868131868132
2.8285846069993568,0.2643223443223443,1.0532600732600732,1.5931868131868132
2.8340594170003897,0.2643223443223443,1.0532600732600732,1.5931868131868132
2.83589451700027,0.2643223443223443,1.0532600732600732,1.5931868131868132
2.839965855000628,0.2643223443223443,1.0532600732600732,1.5931868131868132
2.8416843459999654,0.2643223443223443,1.0532600732600732,1.5931868131868132
2.8450626880003256,0.2643223443223443,1.0532600732600732,1.5931868131868132
2.846462181001698,0.2643223443223443,1.0532600732600732,1.5931868131868132
2.853988663999189,0.2643223443223443,1.0532600732600732,1.5931868131868132
2.863658956001018,0.2643223443223443,1.0532600732600732,1.5931868131868132
2.874013074000686,0.5786080586080585,0.5326739926739926,0.6825641025641025
2.8806985980008903,2.655311355311355,2.556996336996337,2.5666666666666664
2.884815615001571,2.655311355311355,2.556996336996337,2.5666666666666664
2.888418770999124,2.655311355311355,2.556996336996337,2.5666666666666664
2.8958982770018338,2.655311355311355,2.556996336996337,2.5666666666666664
2.900861607002298,2.655311355311355,2.556996336996337,2.5666666666666664
2.9056575809991045,2.655311355311355,2.556996336996337,2.5666666666666664
2.915475873000105,2.655311355311355,2.556996336996337,2.5666666666666664
2.9219186539994553,2.655311355311355,2.556996336996337,2.5666666666666664
2.9279557209993072,0.29736263736263735,0.4142124542124542,0.5931135531135531
2.9335624890009058,3.0453479853479855,3.3,3.3
2.942269918999955,2.6706227106227107,2.5553846153846154,2.565054945054945
2.9467496180004673,2.6706227106227107,2.5553846153846154,2.565054945054945
2.947012206001091,3.3,3.3,2.8454945054945053
2.952131730002293,3.3,3.3,2.8454945054945053
2.9585253760014893,3.3,3.3,2.8454945054945053
2.9618609080025635,3.3,3.3,2.8454945054945053
2.9621709999992163,3.3,3.3,2.8454945054945053
2.966965543000697,3.3,3.3,2.8454945054945053
2.9671863360017596,3.3,3.3,2.8454945054945053
2.9722928470000625,3.3,3.3,2.8454945054945053
2.9767688989995804,1.041978021978022,0.7881318681318681,0.7824908424908424
2.977063091999298,1.041978021978022,0.7881318681318681,0.7824908424908424
2.9818621010017523,1.041978021978022,0.7881318681318681,0.7824908424908424
2.9820020830011345,1.041978021978022,0.7881318681318681,0.7824908424908424
2.9867911170003936,1.041978021978022,0.7881318681318681,0.7824908424908424
2.986998593001772,1.041978021978022,0.7881318681318681,0.7824908424908424
2.9931241270023747,1.041978021978022,0.7881318681318681,0.7824908424908424
2.9978983130022243,1.041978021978022,0.7881318681318681,0.7824908424908424
3.003299190000689,1.041978021978022,0.7881318681318681,0.7824908424908424
3.0057580600005167,1.041978021978022,0.7881318681318681,0.7824908424908424
3.011043382000935,1.041978021978022,0.7881318681318681,0.7824908424908424
3.014464134001173,1.4932600732600732,0.8324542124542124,0.7268864468864469
3.0145884640005534,0.7986080586080586,1.1644688644688646,1.7736996336996336
3.0194951680023223,0.7986080586080586,1.1644688644688646,1.7736996336996336
3.0261247490016103,0.7986080586080586,1.1644688644688646,1.7736996336996336
3.03007436900225,0.7986080586080586,1.1644688644688646,1.7736996336996336
3.0341008830000646,0.7986080586080586,1.1644688644688646,1.7736996336996336
3.0372397460014326,0.7712087912087912,1.2095970695970695,1.9574358974358974
3.0390909039997496,0.7712087912087912,1.2095970695970695,1.9574358974358974
3.041310995002277,0.5915018315018314,0.5133333333333333,0.622124542124542
3.041705797000759,0.5915018315018314,0.5133333333333333,0.622124542124542
3.0457494350011984,0.5915018315018314,0.5133333333333333,0.622124542124542
3.049622286001977,0.5915018315018314,0.5133333333333333,0.622124542124542
3.0537652679995517,0.5915018315018314,0.5133333333333333,0.622124542124542
3.056552575999376,0.5915018315018314,0.5133333333333333,0.622124542124542
3.0608196329994826,0.5915018315018314,0.5133333333333333,0.622124542124542
3.062506228001439,0.5915018315018314,0.5133333333333333,0.622124542124542
3.065837548001582,0.5915018315018314,0.5133333333333333,0.622124542124542
3.066197446001752,3.138021978021978,3.274212454212454,3.3
3.0710646740008087,3.138021978021978,3.274212454212454,3.3
3.0773653460018977,3.138021978021978,3.274212454212454,3.3
3.0805715179994877,2.6150183150183146,1.804322344322344,1.834945054945055
3.081483157002367,2.6150183150183146,1.804322344322344,1.834945054945055
3.0831400060014857,2.6150183150183146,1.804322344322344,1.834945054945055
3.0871217179992527,2.6150183150183146,1.804322344322344,1.834945054945055
3.093287989999226,2.6150183150183146,1.804322344322344,1.834945054945055
3.097148778000701,2.6150183150183146,1.804322344322344,1.834945054945055
3.100534362001781,2.6150183150183146,1.804322344322344,1.834945054945055
3.10077399399961,2.6150183150183146,1.804322344322344,1.834945054945055
3.1074095149997447,2.6150183150183146,1.804322344322344,1.834945054945055
3.113743827001599,2.6150183150183146,1.804322344322344,1.834945054945055
3.119906447001995,2.6150183150183146,1.804322344322344,1.834945054945055
3.125633547002508,1.6834432234432233,0.9750915750915751,0.942051282051282
3.1321252810012084,1.6834432234432233,0.9750915750915751,0.942051282051282
3.136494087000756,1.6834432234432233,0.9750915750915751,0.942051282051282
3.138835662000929,1.6834432234432233,0.9750915750915751,0.942051282051282
3.1466339030012023,1.6834432234432233,0.9750915750915751,0.942051282051282
3.1526024529994174,0.04029304029304029,0.4383882783882784,0.5995604395604395
3.1613729460004834,1.0049084249084248,0.8179487179487179,0.8526007326007327
3.1675037770000927,1.0049084249084248,0.8179487179487179,0.8526007326007327
3.1715839700009383,1.0049084249084248,0.8179487179487179,0.8526007326007327
3.1770780840015505,1.2458608058608058,1.2539194139194139,2.0815384615384613
3.1772196790007,2.655311355311355,2.5561904761904763,2.5634432234432234
3.1819615029999113,2.655311355311355,2.5561904761904763,2.5634432234432234
3.1821084110015363,2.655311355311355,2.5561904761904763,2.5634432234432234
3.187547475001338,2.655311355311355,2.5561904761904763,2.5634432234432234
3.1884598940014257,2.655311355311355,2.5561904761904763,2.5634432234432234
3.1905667210012325,2.655311355311355,2.5561904761904763,2.5634432234432234
3.1923000659990066,2.655311355311355,2.5561904761904763,2.5634432234432234
3.195444372999191,2.655311355311355,2.5561904761904763,2.5634432234432234
3.1964453020009387,2.655311355311355,2.5561904761904763,2.5634432234432234
3.1974032780017296,2.655311355311355,2.5561904761904763,2.5634432234432234
3.1983814310005982,2.655311355311355,2.5561904761904763,2.5634432234432234
3.199267300999054,2.655311355311355,2.5561904761904763,2.5634432234432234
3.20093262500086,2.655311355311355,2.5561904761904763,2.5634432234432234
3.2056957720014907,2.655311355311355,2.5561904761904763,2.5634432234432234
3.21381478100011,2.655311355311355,2.5561904761904763,2.5634432234432234
3.221659325001383,2.655311355311355,2.5561904761904763,2.5634432234432234
3.230395441001747,0.051575091575091575,0.4383882783882784,0.6398534798534798
3.235046575002343,0.051575091575091575,0.4383882783882784,0.6398534798534798
3.2351788680025493,0.051575091575091575,0.4383882783882784,0.6398534798534798
3.2427383070025826,0.051575091575091575,0.4383882783882784,0.6398534798534798
3.2467779489998065,0.051575091575091575,0.4383882783882784,0.6398534798534798
3.2512272720014153,0.4005128205128205,0.6809523809523809,1.0838827838827838
3.2514472200018645,0.4005128205128205,0.6809523809523809,1.0838827838827838
3.258962148000137,0.4005128205128205,0.6809523809523809,1.0838827838827838
3.2640200099995127,0.7164102564102564,1.1419047619047618,1.6673260073260072
3.267197336001118,0.7164102564102564,1.1419047619047618,1.6673260073260072
3.2696231600020838,2.8873992673992674,3.3,2.752014652014652
3.278946218000783,2.8873992673992674,3.3,2.752014652014652
3.2840766469998925,2.8873992673992674,3.3,2.752014652014652
3.2881973090006795,0.24256410256410255,0.5068864468864469,0.6745054945054945
3.294366678001097,1.2136263736263737,0.5536263736263736,0.6769230769230768
3.2976451159993303,1.2136263736263737,0.5536263736263736,0.6769230769230768
3.2985113659997296,1.2136263736263737,0.5536263736263736,0.6769230769230768
3.3001053139996657,1.2136263736263737,0.5536263736263736,0.6769230769230768
3.3040840809990186,1.2136263736263737,0.5536263736263736,0.6769230769230768
3.3097200650008745,1.2136263736263737,0.5536263736263736,0.6769230769230768
3.3153691180013993,1.2136263736263737,0.5536263736263736,0.6769230769230768
3.3161896349993185,1.2136263736263737,0.5536263736263736,0.6769230769230768
3.3180428279993066,2.690769230769231,1.9292307692307693,2.0186813186813186
3.3217786450004496,2.690769230769231,1.9292307692307693,2.0186813186813186
3.328148766002414,0.1418315018315018,0.5165567765567766,0.6704761904761904
3.332093208002334,1.1064468864468864,1.8687912087912086,2.5674725274725274
3.3370877699999255,1.1064468864468864,1.8687912087912086,2.5674725274725274
3.3431010320018686,1.1064468864468864,1.8687912087912086,2.5674725274725274
3.3463581850010087,1.1064468864468864,1.8687912087912086,2.5674725274725274
3.347296367999661,1.1064468864468864,1.8687912087912086,2.5674725274725274
3.348919134001335,1.1064468864468864,1.8687912087912086,2.5674725274725274
3.3528333579997707,1.1064468864468864,1.8687912087912086,2.5674725274725274
3.357146851001744,1.1064468864468864,1.8687912087912086,2.5674725274725274
3.3583576179989905,1.1064468864468864,1.8687912087912086,2.5674725274725274
3.3646025380003266,1.1064468864468864,1.8687912087912086,2.5674725274725274
3.368109701001231,1.1064468864468864,1.8687912087912086,2.5674725274725274
3.368313732000388,1.1064468864468864,1.8687912087912086,2.5674725274725274
3.376260593999177,1.1064468864468864,1.8687912087912086,2.5674725274725274
3.3818699379989994,2.651282051282051,3.3,3.3
3.382151022000471,2.651282051282051,3.3,3.3
3.391306800000166,2.651282051282051,3.3,3.3
3.3962844160014356,2.651282051282051,3.3,3.3
3.403121375999035,2.651282051282051,3.3,3.3
3.4094667009994737,2.651282051282051,3.3,3.3
3.4121659459997318,1.0854945054945053,0.9025641025641026,0.8953113553113552
3.416116928001429,1.0854945054945053,0.9025641025641026,0.8953113553113552
3.4196178470010636,1.0854945054945053,0.9025641025641026,0.8953113553113552
3.420046826999169,1.0854945054945053,0.9025641025641026,0.8953113553113552
3.426199217999965,1.0854945054945053,0.9025641025641026,0.8953113553113552
3.429611504001514,1.0854945054945053,0.9025641025641026,0.8953113553113552
3.4305394680013706,1.0854945054945053,0.9025641025641026,0.8953113553113552
3.4314987860016117,1.0854945054945053,0.9025641025641026,0.8953113553113552
3.4331428030018287,1.0854945054945053,0.9025641025641026,0.8953113553113552
3.4372244860023784,1.0854945054945053,0.9025641025641026,0.8953113553113552
3.440849935999722,1.0854945054945053,0.9025641025641026,0.8953113553113552
3.4458444619995134,1.0854945054945053,0.9025641025641026,0.8953113553113552
3.449855129001662,3.0453479853479855,3.145274725274725,3.3
3.45234765600253,3.0453479853479855,3.145274725274725,3.3
3.4596168480020424,3.0453479853479855,3.145274725274725,3.3
3.4646093049996125,3.0453479853479855,3.145274725274725,3.3
3.467898884002352,2.9776556776556777,2.557802197802198,2.561025641025641
3.468841918001999,2.9776556776556777,2.557802197802198,2.561025641025641
3.470549640001991,2.9776556776556777,2.557802197802198,2.561025641025641
3.4736796260003757,2.9776556776556777,2.557802197802198,2.561025641025641
3.475389892999374,2.9776556776556777,2.557802197802198,2.561025641025641
3.4789587810009834,2.9776556776556777,2.557802197802198,2.561025641025641
3.483827277999808,2.9776556776556777,2.557802197802198,2.561025641025641
3.489583975999267,2.9776556776556777,2.557802197802198,2.561025641025641
3.4980917290013167,2.9776556776556777,2.557802197802198,2.561025641025641
3.507603009002196,2.9776556776556777,2.557802197802198,2.561025641025641
3.514960863001761,2.9776556776556777,2.557802197802198,2.561025641025641
3.5206441590016766,2.9776556776556777,2.557802197802198,2.561025641025641
3.5285675849991094,0.051575091575091575,0.48835164835164835,0.6156776556776556
3.5337589840019064,0.051575091575091575,0.48835164835164835,0.6156776556776556
3.537417383002321,3.3,2.8616117216117214,3.3
3.5461503750011616,3.3,2.8616117216117214,3.3
3.5512976970021555,3.3,2.8616117216117214,3.3
3.5548385260008217,1.4167032967032966,0.9452747252747251,0.9428571428571427
3.5624014410022937,1.4167032967032966,0.9452747252747251,0.9428571428571427
3.5671381280008063,1.4167032967032966,0.9452747252747251,0.9428571428571427
3.5673615939995216,1.4167032967032966,0.9452747252747251,0.9428571428571427
3.572470635001082,1.4167032967032966,0.9452747252747251,0.9428571428571427
3.5782919170014793,2.6673992673992672,3.3,3.3
3.585695747999125,2.6673992673992672,3.3,3.3
3.593517642999359,1.116923076923077,0.5584615384615385,0.7824908424908424
3.597572646001936,1.116923076923077,0.5584615384615385,0.7824908424908424
3.6019237479995354,1.116923076923077,0.5584615384615385,0.7824908424908424
3.602943467001751,1.116923076923077,0.5584615384615385,0.7824908424908424
3.6050862900010543,1.116923076923077,0.5584615384615385,0.7824908424908424
3.6055026319991157,1.116923076923077,0.5584615384615385,0.7824908424908424
3.6125346990011167,1.116923076923077,0.5584615384615385,0.7824908424908424
3.6167929420007567,2.697216117216117,3.3,3.3
3.618573121002555,1.4505494505494505,0.9436630036630036,0.9871794871794871
3.6232805860017834,1.4505494505494505,0.9436630036630036,0.9871794871794871
3.630547998000111,3.0936996336996336,3.3,2.768937728937729
3.635294478001015,3.0936996336996336,3.3,2.768937728937729
3.6354148050013464,3.0936996336996336,3.3,2.768937728937729
3.643448607999744,3.0936996336996336,3.3,2.768937728937729
3.6488770800024213,3.0936996336996336,3.3,2.768937728937729
3.6491854970008717,3.0936996336996336,3.3,2.768937728937729
3.6586691820011765,3.0936996336996336,3.3,2.768937728937729
3.6632492070020817,2.655311355311355,2.5545787545787544,2.5602197802197804
3.6634381799995026,2.655311355311355,2.5545787545787544,2.5602197802197804
3.6689432999992277,2.655311355311355,2.5545787545787544,2.5602197802197804
3.669818108999607,2.655311355311355,2.5545787545787544,2.5602197802197804
3.670772802001011,2.655311355311355,2.5545787545787544,2.5602197802197804
3.6720895930011466,2.655311355311355,2.5545787545787544,2.5602197802197804
3.6726614460021665,1.8655677655677654,1.6068864468864468,2.2757509157509155
3.6763693210014026,1.8655677655677654,1.6068864468864468,2.2757509157509155
3.681721414999629,2.6746520146520147,2.553772893772894,2.561831501831502
3.6826095060023363,0.18373626373626373,0.5761904761904761,0.6922344322344323
3.6843448899999203,0.18373626373626373,0.5761904761904761,0.6922344322344323
3.687713472001633,0.18373626373626373,0.5761904761904761,0.6922344322344323
3.6880101520000608,0.18373626373626373,0.5761904761904761,0.6922344322344323
3.694275445999665,0.18373626373626373,0.5761904761904761,0.6922344322344323
3.6978505780025444,0.18373626373626373,0.5761904761904761,0.6922344322344323
3.697994424001081,0.18373626373626373,0.5761904761904761,0.6922344322344323
3.703812249001203,0.18373626373626373,0.5761904761904761,0.6922344322344323
3.703964480999275,2.955091575091575,3.2210256410256406,3.3
3.712638771001366,2.955091575091575,3.2210256410256406,3.3
3.718036417001713,2.955091575091575,3.2210256410256406,3.3
3.718340637999063,1.8986080586080583,0.8469597069597068,0.8969230769230768
3.7262368939991575,1.8986080586080583,0.8469597069597068,0.8969230769230768
3.7327621010008443,1.8986080586080583,0.8469597069597068,0.8969230769230768
3.737718340002175,1.212820512820513,1.3659340659340657,2.1476190476190475
3.7443036980002944,1.7197069597069596,1.0919413919413918,1.075018315018315
3.748387948002346,1.7197069597069596,1.0919413919413918,1.075018315018315
3.7515030190006655,1.7197069597069596,1.0919413919413918,1.075018315018315
3.7532055449992185,1.7197069597069596,1.0919413919413918,1.075018315018315
3.7610671330003242,1.7197069597069596,1.0919413919413918,1.075018315018315
3.766682266999851,1.7197069597069596,1.0919413919413918,1.075018315018315
3.7738131250007427,1.7197069597069596,1.0919413919413918,1.075018315018315
3.778067197999917,1.7197069597069596,1.0919413919413918,1.075018315018315
3.77898328000083,1.7197069597069596,1.0919413919413918,1.075018315018315
3.780637342002592,1.7197069597069596,1.0919413919413918,1.075018315018315
3.783811899000284,1.7197069597069596,1.0919413919413918,1.075018315018315
3.785487531000399,1.7197069597069596,1.0919413919413918,1.075018315018315
3.789938075999089,0.9356043956043956,0.4891575091575091,0.8098901098901098
3.7901339790005295,3.3,2.6682051282051282,3.0888644688644686
3.796748196000408,3.3,2.6682051282051282,3.0888644688644686
3.800962986999366,3.3,2.6682051282051282,3.0888644688644686
3.8035470030008582,3.3,2.6682051282051282,3.0888644688644686
3.811009084001853,3.3,2.6682051282051282,3.0888644688644686
3.8150606130002416,3.3,2.6682051282051282,3.0888644688644686
3.8190336450024915,3.3,2.6682051282051282,3.0888644688644686
3.824374436000653,3.3,2.6682051282051282,3.0888644688644686
3.8247599650021584,0.16358974358974357,0.4835164835164835,0.6043956043956044
3.833024559000478,0.16358974358974357,0.4835164835164835,0.6043956043956044
3.8377807149990986,1.0887179487179486,0.4464468864468864,0.6672527472527472
3.8484333810010867,1.0887179487179486,0.4464468864468864,0.6672527472527472
3.8581930639993516,0.29413919413919415,0.4931868131868131,0.6285714285714284
3.8682491120016493,0.29413919413919415,0.4931868131868131,0.6285714285714284
3.877966056999867,0.29413919413919415,0.4931868131868131,0.6285714285714284
3.8827220929997566,0.29413919413919415,0.4931868131868131,0.6285714285714284
3.8830329760021414,0.29413919413919415,0.4931868131868131,0.6285714285714284
3.8879205090015603,0.29413919413919415,0.4931868131868131,0.6285714285714284
3.8967050240025856,0.16278388278388278,0.9452747252747251,1.502124542124542
3.9024157589992683,0.16278388278388278,0.9452747252747251,1.502124542124542
3.9027145910004037,0.16278388278388278,0.9452747252747251,1.502124542124542
3.9093234649990336,0.16278388278388278,0.9452747252747251,1.502124542124542
3.914530570000352,0.4931868131868131,0.6519413919413919,1.1241758241758242
3.9174299539990898,2.0686446886446883,2.629523809523809,3.3
3.920345938000537,0.6551648351648351,0.606007326007326,0.6873992673992674
3.923068644002342,0.03223443223443223,0.44080586080586076,0.6237362637362637
3.9286473220017797,0.03223443223443223,0.44080586080586076,0.6237362637362637
3.9344955130000017,0.03223443223443223,0.44080586080586076,0.6237362637362637
3.9346614589994715,2.311208791208791,2.8229304029304028,3.3
3.9420608910004376,2.311208791208791,2.8229304029304028,3.3
3.945693036999728,2.311208791208791,2.8229304029304028,3.3
3.951357953999832,1.0677655677655677,0.49721611721611714,0.7575091575091575
3.952383715000906,1.518241758241758,0.9847619047619047,0.9283516483516483
3.9527205710001,1.518241758241758,0.9847619047619047,0.9283516483516483
3.9595092380004644,1.518241758241758,0.9847619047619047,0.9283516483516483
3.9627490410020982,1.518241758241758,0.9847619047619047,0.9283516483516483
3.9644397770025535,1.518241758241758,0.9847619047619047,0.9283516483516483
3.9677403410023544,1.518241758241758,0.9847619047619047,0.9283516483516483
3.9680999360025453,1.518241758241758,0.9847619047619047,0.9283516483516483
3.9736986179996165,1.518241758241758,0.9847619047619047,0.9283516483516483
3.9739953630014497,1.518241758241758,0.9847619047619047,0.9283516483516483
3.979452363000746,1.518241758241758,0.9847619047619047,0.9283516483516483
3.979764731000614,1.518241758241758,0.9847619047619047,0.9283516483516483
3.9849579940018884,1.518241758241758,0.9847619047619047,0.9283516483516483
3.9884333580012026,1.518241758241758,0.9847619047619047,0.9283516483516483
3.9885768040003313,1.518241758241758,0.9847619047619047,0.9283516483516483
3.995050995999918,1.518241758241758,0.9847619047619047,0.9283516483516483
3.9990963919990463,2.6617582417582417,2.5586080586080584,2.5674725274725274
4.002331733001483,2.6617582417582417,2.5586080586080584,2.5674725274725274
4.003249037999922,2.6617582417582417,2.5586080586080584,2.5674725274725274
4.00623528000142,2.6617582417582417,2.5586080586080584,2.5674725274725274
4.007964380001795,2.6617582417582417,2.5586080586080584,2.5674725274725274
4.0123185890006425,2.6617582417582417,2.5586080586080584,2.5674725274725274
4.012539335999463,2.166153846153846,1.2079853479853477,1.4432967032967032
4.017417253999156,2.166153846153846,1.2079853479853477,1.4432967032967032
4.0252394000017375,2.166153846153846,1.2079853479853477,1.4432967032967032
4.029924549002317,0.045128205128205125,0.4585347985347985,0.5544322344322344
4.035538265001378,1.3772161172161173,0.8397069597069596,0.805054945054945
4.035996851001983,1.3772161172161173,0.8397069597069596,0.805054945054945
4.043267413002468,1.3772161172161173,0.8397069597069596,0.805054945054945
4.0474701810016995,1.3772161172161173,0.8397069597069596,0.805054945054945
4.049176811000507,1.3772161172161173,0.8397069597069596,0.805054945054945
4.05247907300145,1.3772161172161173,0.8397069597069596,0.805054945054945
4.054189957001654,1.3772161172161173,0.8397069597069596,0.805054945054945
4.059174138001254,1.3772161172161173,0.8397069597069596,0.805054945054945
4.063295174000814,1.3772161172161173,0.8397069597069596,0.805054945054945
4.065804680001747,1.3772161172161173,0.8397069597069596,0.805054945054945
4.0705499470022914,1.3772161172161173,0.8397069597069596,0.805054945054945
4.07066648700129,1.3772161172161173,0.8397069597069596,0.805054945054945
4.077758261999406,1.3772161172161173,0.8397069597069596,0.805054945054945
4.081771531000413,1.3772161172161173,0.8397069597069596,0.805054945054945
4.085728807000123,0.46659340659340653,0.618095238095238,0.6672527472527472
4.090701070999785,0.46659340659340653,0.618095238095238,0.6672527472527472
4.096621763001167,0.46659340659340653,0.618095238095238,0.6672527472527472
4.1016811190020235,0.46659340659340653,0.618095238095238,0.6672527472527472
4.107325700999354,0.46659340659340653,0.618095238095238,0.6672527472527472
4.107541574001516,0.46659340659340653,0.618095238095238,0.6672527472527472
4.113589814001898,0.46659340659340653,0.618095238095238,0.6672527472527472
4.117683878001117,0.46659340659340653,0.618095238095238,0.6672527472527472
4.121329707999394,0.46659340659340653,0.618095238095238,0.6672527472527472
4.1216407520005305,0.23208791208791207,0.5568498168498168,0.6463003663003662
4.127624346001539,0.23208791208791207,0.5568498168498168,0.6463003663003662
4.131640506002441,0.23208791208791207,0.5568498168498168,0.6463003663003662
4.1358280860004015,0.23208791208791207,0.5568498168498168,0.6463003663003662
4.138942325000244,0.23208791208791207,0.5568498168498168,0.6463003663003662
4.142022161002387,0.23208791208791207,0.5568498168498168,0.6463003663003662
4.143007637001574,0.23208791208791207,0.5568498168498168,0.6463003663003662
4.143313762000616,0.23208791208791207,0.5568498168498168,0.6463003663003662
4.14997277600196,0.23208791208791207,0.5568498168498168,0.6463003663003662
4.1535368930017285,1.224102564102564,0.6672527472527472,0.7494505494505495
4.162263469999743,1.224102564102564,0.6672527472527472,0.7494505494505495
4.167038036001031,2.1395604395604395,1.3336996336996336,1.295018315018315
4.16720972800249,2.1395604395604395,1.3336996336996336,1.295018315018315
4.17313748000015,2.1395604395604395,1.3336996336996336,1.295018315018315
4.181081864000589,2.1395604395604395,1.3336996336996336,1.295018315018315
4.186284618001082,2.1395604395604395,1.3336996336996336,1.295018315018315
4.189575968001009,2.1395604395604395,1.3336996336996336,1.295018315018315
4.189836276000278,2.1395604395604395,1.3336996336996336,1.295018315018315
4.1979638550001255,2.1395604395604395,1.3336996336996336,1.295018315018315
4.202988426000957,3.3,3.3,2.8551648351648353
4.210474243001954,0.6745054945054945,0.4432234432234432,0.6704761904761904
4.2150817069996265,0.6745054945054945,0.4432234432234432,0.6704761904761904
4.215343061001477,0.6745054945054945,0.4432234432234432,0.6704761904761904
4.219711326000834,0.6745054945054945,0.4432234432234432,0.6704761904761904
4.220737252999243,0.6745054945054945,0.4432234432234432,0.6704761904761904
4.222552445000474,0.6745054945054945,0.4432234432234432,0.6704761904761904
4.225289420999616,0.6745054945054945,0.4432234432234432,0.6704761904761904
4.229510687000584,3.2822710622710622,2.996996336996337,3.3
4.231272218999948,3.2822710622710622,2.996996336996337,3.3
4.234483337000711,3.2822710622710622,2.996996336996337,3.3
4.2361996740000905,3.2822710622710622,2.996996336996337,3.3
4.242894945000444,3.2822710622710622,2.996996336996337,3.3
4.247799929999019,0.4520879120879121,0.5632967032967032,0.6479120879120879
4.251819207001972,0.4520879120879121,0.5632967032967032,0.6479120879120879
4.256605443999433,0.4520879120879121,0.5632967032967032,0.6479120879120879
4.266893367999728,0.4520879120879121,0.5632967032967032,0.6479120879120879
4.275600719000067,0.4520879120879121,0.5632967032967032,0.6479120879120879
4.283281574000284,0.4520879120879121,0.5632967032967032,0.6479120879120879
4.290104487001372,0.4520879120879121,0.5632967032967032,0.6479120879120879
4.295975068002008,0.4520879120879121,0.5632967032967032,0.6479120879120879
4.302453083000728,0.8389010989010988,1.2563369963369961,1.8558974358974358
4.3088620900016394,0.05882783882783882,0.5197802197802197,0.6334065934065934
4.312232112999482,0.05882783882783882,0.5197802197802197,0.6334065934065934
4.313361894000991,3.3,3.175897435897436,3.3
4.313582345999748,3.3,3.175897435897436,3.3
4.3224385760004225,3.3,3.175897435897436,3.3
4.3276388270023745,1.843003663003663,1.1201465201465202,1.062930402930403
4.329348785999173,1.0548717948717947,1.771282051282051,2.456263736263736
4.33255814000222,1.0548717948717947,1.771282051282051,2.456263736263736
4.3335077360025025,1.0548717948717947,1.771282051282051,2.456263736263736
4.335229543001333,2.3378021978021977,2.436117216117216,3.2854945054945053
4.339165647001209,2.3378021978021977,2.436117216117216,3.2854945054945053
4.343178233000799,2.3378021978021977,2.436117216117216,3.2854945054945053
4.34503084500102,2.3378021978021977,2.436117216117216,3.2854945054945053
4.347718820001319,0.6906227106227106,1.4618315018315018,2.137142857142857
4.352565856999718,0.6906227106227106,1.4618315018315018,2.137142857142857
4.361891526001273,0.6906227106227106,1.4618315018315018,2.137142857142857
4.367897203999746,0.6906227106227106,1.4618315018315018,2.137142857142857
4.371164869000495,0.6906227106227106,1.4618315018315018,2.137142857142857
4.373256636001315,0.6906227106227106,1.4618315018315018,2.137142857142857
4.375470565002615,0.6906227106227106,1.4618315018315018,2.137142857142857
4.375815261002572,0.6906227106227106,1.4618315018315018,2.137142857142857
4.381227605001186,0.6906227106227106,1.4618315018315018,2.137142857142857
4.382115508000425,0.6906227106227106,1.4618315018315018,2.137142857142857
4.383794065000984,0.6906227106227106,1.4618315018315018,2.137142857142857
4.3894780129994615,0.6906227106227106,1.4618315018315018,2.137142857142857
4.4004204609991575,0.6906227106227106,1.4618315018315018,2.137142857142857
4.411682014000689,2.22981684981685,1.5254945054945055,1.5367765567765568
4.417532544001006,2.22981684981685,1.5254945054945055,1.5367765567765568
4.4176711040017835,1.6238095238095236,1.8284981684981685,2.5215384615384613
4.4266260500007775,1.6238095238095236,1.8284981684981685,2.5215384615384613
4.431279200001882,1.6238095238095236,1.8284981684981685,2.5215384615384613
4.431454845002008,3.3,2.8777289377289375,3.3
4.436893082001916,3.3,2.8777289377289375,3.3
4.438391084000614,1.6189743589743588,1.0975824175824174,1.0315018315018314
4.444969382002455,1.6189743589743588,1.0975824175824174,1.0315018315018314
4.449234513002011,1.6189743589743588,1.0975824175824174,1.0315018315018314
4.451005115999578,1.3659340659340657,0.7905494505494506,0.6753113553113552
4.456059120999271,3.3,3.2145787545787545,3.3
4.460415200999705,3.3,3.2145787545787545,3.3
4.460555821002345,3.3,3.2145787545787545,3.3
4.46585556699938,3.3,3.2145787545787545,3.3
4.46830771399982,3.3,3.2145787545787545,3.3
4.475876398002583,3.3,3.2145787545787545,3.3
4.4800577470014105,0.8437362637362636,1.149157509157509,1.8373626373626373
4.483332372001314,0.8437362637362636,1.149157509157509,1.8373626373626373
4.484301240001514,0.8437362637362636,1.149157509157509,1.8373626373626373
4.485199536000437,0.8437362637362636,1.149157509157509,1.8373626373626373
4.48685726000258,0.8437362637362636,1.149157509157509,1.8373626373626373
4.492186679999577,0.8437362637362636,1.149157509157509,1.8373626373626373
4.493353937999927,0.8437362637362636,1.149157509157509,1.8373626373626373
4.493531186999462,0.6994871794871794,0.9944322344322343,1.556117216117216
4.49852662000194,0.6994871794871794,0.9944322344322343,1.556117216117216
4.504469774001336,2.6536996336996337,3.3,3.3
4.511407248999603,2.6536996336996337,3.3,3.3
4.515512922000198,2.6536996336996337,3.3,3.3
4.519534828999895,2.6536996336996337,3.3,3.3
4.522510881000926,0.5431501831501832,0.38278388278388276,0.6285714285714284
4.525956768000469,0.5431501831501832,0.38278388278388276,0.6285714285714284
4.531658257001254,1.0073260073260073,0.42065934065934063,0.7961904761904761
4.531947535000654,1.0073260073260073,0.42065934065934063,0.7961904761904761
4.537871668002481,1.0073260073260073,0.42065934065934063,0.7961904761904761
4.545840437000152,1.0073260073260073,0.42065934065934063,0.7961904761904761
4.550747998000588,0.9767032967032967,0.5093040293040293,0.7567032967032966
4.558401864000189,0.9767032967032967,0.5093040293040293,0.7567032967032966
4.562506194000889,0.9767032967032967,0.5093040293040293,0.7567032967032966
4.566407529000571,0.9767032967032967,0.5093040293040293,0.7567032967032966
4.570475082000485,0.9767032967032967,0.5093040293040293,0.7567032967032966
4.575266080999427,1.4779487179487178,0.8872527472527472,0.8163369963369963
4.579479030002403,1.4779487179487178,0.8872527472527472,0.8163369963369963
4.580490604999795,1.4779487179487178,0.8872527472527472,0.8163369963369963
4.581453564002004,1.4779487179487178,0.8872527472527472,0.8163369963369963
4.582391333999112,1.4779487179487178,0.8872527472527472,0.8163369963369963
4.584212273999583,1.4779487179487178,0.8872527472527472,0.8163369963369963
4.585913401002472,1.4779487179487178,0.8872527472527472,0.8163369963369963
4.590416399001697,1.4779487179487178,0.8872527472527472,0.8163369963369963
4.590606649999245,2.6545054945054947,3.3,3.3
4.59656228500171,2.6545054945054947,3.3,3.3
4.601387433001946,1.1273992673992674,0.6189010989010989,0.8268131868131867
4.610064282001986,1.1273992673992674,0.6189010989010989,0.8268131868131867
4.614904196001589,1.1273992673992674,0.6189010989010989,0.8268131868131867
4.6203992869996,1.2643956043956044,1.2378021978021978,2.158095238095238
4.62140850400101,0.04673992673992674,0.42710622710622714,0.5713553113553113
4.623251171000447,0.04673992673992674,0.42710622710622714,0.5713553113553113
4.625630301001365,0.07494505494505493,0.49802197802197795,0.5842490842490843
4.631175038000947,0.07494505494505493,0.49802197802197795,0.5842490842490843
4.632790597999701,3.3,2.5916483516483515,3.3
4.636120286002551,3.3,2.5916483516483515,3.3
4.63708561599924,3.3,2.5916483516483515,3.3
4.63807997999902,3.3,2.5916483516483515,3.3
4.639693618999445,3.3,2.5916483516483515,3.3
4.64397028500025,3.3,2.5916483516483515,3.3
4.644929062000301,3.3,2.5916483516483515,3.3
4.646336682002584,3.3,2.5916483516483515,3.3
4.657900237001741,3.3,2.5916483516483515,3.3
4.663780792001489,1.9574358974358974,1.1676923076923076,1.1580219780219778
4.668820095001138,3.1146520146520142,3.1694505494505494,3.3
4.673047355001472,3.1146520146520142,3.1694505494505494,3.3
4.676189142999647,3.1146520146520142,3.1694505494505494,3.3
4.676455713000905,3.1146520146520142,3.1694505494505494,3.3
4.681191773001046,3.1146520146520142,3.1694505494505494,3.3
4.68130555800235,3.1146520146520142,3.1694505494505494,3.3
4.686068308001268,3.1146520146520142,3.1694505494505494,3.3
4.68625633999909,2.681098901098901,2.5521611721611723,2.5634432234432234
4.69274867400236,2.681098901098901,2.5521611721611723,2.5634432234432234
4.696247225001571,2.681098901098901,2.5521611721611723,2.5634432234432234
4.696486756001832,2.681098901098901,2.5521611721611723,2.5634432234432234
4.701351809002517,2.681098901098901,2.5521611721611723,2.5634432234432234
4.707930610999028,2.681098901098901,2.5521611721611723,2.5634432234432234
4.7117783700014115,2.681098901098901,2.5521611721611723,2.5634432234432234
4.715667054999358,2.681098901098901,2.5521611721611723,2.5634432234432234
4.719284709000931,2.681098901098901,2.5521611721611723,2.5634432234432234
4.727531792999798,2.681098901098901,2.5521611721611723,2.5634432234432234
4.732478256999457,2.681098901098901,2.5521611721611723,2.5634432234432234
4.737472281001828,0.7389743589743589,1.0975824175824174,1.7994871794871792
4.7455796290014405,2.432893772893773,1.6109157509157508,1.6407326007326006
4.7499908530007815,2.432893772893773,1.6109157509157508,1.6407326007326006
4.7516244540020125,2.9712087912087912,3.211355311355311,3.3
4.756245527001738,2.9712087912087912,3.211355311355311,3.3
4.76279664699905,2.9712087912087912,3.211355311355311,3.3
4.767096080002375,2.9712087912087912,3.211355311355311,3.3
4.76878956300061,3.3,3.3,2.83985347985348
4.773768576000293,3.3,3.3,2.83985347985348
4.779803917001118,3.3,3.3,2.83985347985348
4.7857990539996536,3.3,3.3,2.83985347985348
4.791460661999736,3.3,3.3,2.83985347985348
4.802018305999809,3.3,3.3,2.83985347985348
4.8139498620003,3.3,3.3,2.83985347985348
4.821841269000288,2.6633699633699632,2.556996336996337,2.5634432234432234
4.828947443002107,2.3684249084249083,1.4739194139194138,1.4747252747252748
4.834140196999215,2.3684249084249083,1.4739194139194138,1.4747252747252748
4.837522960002389,2.6738461538461538,2.5602197802197804,2.5682783882783884
4.837829362000775,2.6738461538461538,2.5602197802197804,2.5682783882783884
4.844725503000518,2.6738461538461538,2.5602197802197804,2.5682783882783884
4.8489241679999395,2.7939194139194137,3.3,2.7125274725274724
4.852546263999102,2.6504761904761907,3.3,3.3
4.860103490002075,3.098534798534798,3.2331135531135526,3.3
4.8640638229990145,0.8743589743589744,0.6446886446886446,0.7293040293040293
4.868005656000605,0.8743589743589744,0.6446886446886446,0.7293040293040293
4.8747915320018365,0.8743589743589744,0.6446886446886446,0.7293040293040293
4.8789820990023145,0.8743589743589744,0.6446886446886446,0.7293040293040293
4.881554387000506,0.5536263736263736,0.5689377289377289,0.6865934065934066
4.885849271999177,0.5536263736263736,0.5689377289377289,0.6865934065934066
4.888990111001476,0.5536263736263736,0.5689377289377289,0.6865934065934066
4.891444795001007,0.5536263736263736,0.5689377289377289,0.6865934065934066
4.897537643002579,0.5536263736263736,0.5689377289377289,0.6865934065934066
4.902018680000765,1.4086446886446886,0.8268131868131867,0.9186813186813186
4.90301499799898,1.4086446886446886,0.8268131868131867,0.9186813186813186
4.9041321740005515,1.4086446886446886,0.8268131868131867,0.9186813186813186
4.904597417000332,1.4086446886446886,0.8268131868131867,0.9186813186813186
4.911082885999349,1.4086446886446886,0.8268131868131867,0.9186813186813186
4.915284774000611,1.39010989010989,0.8332600732600732,0.8364835164835164
4.916971916001785,1.39010989010989,0.8332600732600732,0.8364835164835164
4.921251878000476,1.39010989010989,0.8332600732600732,0.8364835164835164
4.923879019999731,0.044322344322344324,0.4553113553113553,0.5246153846153846
4.928374875998998,0.044322344322344324,0.4553113553113553,0.5246153846153846
4.928613503001543,0.8687179487179487,0.5093040293040293,0.9871794871794871
4.933765688001586,0.8687179487179487,0.5093040293040293,0.9871794871794871
4.937286386000778,0.8687179487179487,0.5093040293040293,0.9871794871794871
4.937578013999882,2.42967032967033,1.5649816849816849,1.5730402930402931
4.94501901699914,2.42967032967033,1.5649816849816849,1.5730402930402931
4.950027933999081,0.5568498168498168,0.614065934065934,0.6728937728937728
4.9552743130007,0.5568498168498168,0.614065934065934,0.6728937728937728
4.961271372001647,0.5568498168498168,0.614065934065934,0.6728937728937728
4.965180579001753,0.5568498168498168,0.614065934065934,0.6728937728937728
4.96869158499976,2.22981684981685,2.772967032967033,3.3
4.968849911001598,2.22981684981685,2.772967032967033,3.3
4.97720027700052,2.22981684981685,2.772967032967033,3.3
4.981843092999043,2.22981684981685,2.772967032967033,3.3
4.982035351000377,2.22981684981685,2.772967032967033,3.3
4.987470590000157,2.22981684981685,2.772967032967033,3.3
4.9884501960004854,2.22981684981685,2.772967032967033,3.3
4.9900343350018375,2.22981684981685,2.772967032967033,3.3
4.994769487002486,2.22981684981685,2.772967032967033,3.3
4.999706593000155,1.5625641025641024,1.2547252747252746,2.3619780219780218
5.004234636999172,1.5625641025641024,1.2547252747252746,2.3619780219780218
5.005776001002232,1.5625641025641024,1.2547252747252746,2.3619780219780218
5.010305946001608,1.5625641025641024,1.2547252747252746,2.3619780219780218
5.015830329000892,3.3,2.771355311355311,3.3
5.016840837000927,2.4909157509157507,1.581904761904762,1.5923809523809522
5.017800345001888,2.4909157509157507,1.581904761904762,1.5923809523809522
5.018959770000947,0.8485714285714284,0.70996336996337,0.7921611721611721
5.019234929000959,0.2925274725274725,0.5254212454212454,0.6527472527472526
5.029408695001621,0.2925274725274725,0.5254212454212454,0.6527472527472526
5.037812696999026,0.2925274725274725,0.5254212454212454,0.6527472527472526
5.043578790999163,1.1564102564102563,1.1967032967032967,1.995311355311355
5.043712435999623,1.1564102564102563,1.1967032967032967,1.995311355311355
5.048877117002121,1.1564102564102563,1.1967032967032967,1.995311355311355
5.052468163001322,1.1564102564102563,1.1967032967032967,1.995311355311355
5.057999524000479,1.1136996336996337,1.2353846153846153,2.0275457875457876
5.058285216000513,1.1136996336996337,1.2353846153846153,2.0275457875457876
5.06360261500231,1.1136996336996337,1.2353846153846153,2.0275457875457876
5.066138506001153,1.1136996336996337,1.2353846153846153,2.0275457875457876
5.070945900999504,1.1136996336996337,1.2353846153846153,2.0275457875457876
5.076003925001714,1.1136996336996337,1.2353846153846153,2.0275457875457876
5.079695772001287,2.3877655677655674,2.5199267399267398,3.3
5.084789775999525,2.3877655677655674,2.5199267399267398,3.3
5.088461343002564,3.247619047619047,3.3,3.3
5.093725808001182,3.247619047619047,3.3,3.3
5.0977706980011135,3.247619047619047,3.3,3.3
5.103051254001912,2.3813186813186813,1.4755311355311356,1.3844688644688645
5.10326570899997,2.3813186813186813,1.4755311355311356,1.3844688644688645
5.109671556001558,2.3813186813186813,1.4755311355311356,1.3844688644688645
5.1137878940025985,2.3813186813186813,1.4755311355311356,1.3844688644688645
5.1175528849998955,2.3813186813186813,1.4755311355311356,1.3844688644688645
5.126876902999356,2.3813186813186813,1.4755311355311356,1.3844688644688645
5.131777771999623,2.3813186813186813,1.4755311355311356,1.3844688644688645
5.136541912001121,2.3813186813186813,1.4755311355311356,1.3844688644688645
5.142261547000089,2.3813186813186813,1.4755311355311356,1.3844688644688645
5.1424872589996085,2.3813186813186813,1.4755311355311356,1.3844688644688645
5.147398683999199,2.3813186813186813,1.4755311355311356,1.3844688644688645
5.152252977000899,2.3813186813186813,1.4755311355311356,1.3844688644688645
5.1570821210007125,2.3813186813186813,1.4755311355311356,1.3844688644688645
5.162511530001211,2.3813186813186813,1.4755311355311356,1.3844688644688645
5.164297544000874,0.2071062271062271,0.5133333333333333,0.5915018315018314
5.167550089001452,0.2071062271062271,0.5133333333333333,0.5915018315018314
5.168403658000898,0.2071062271062271,0.5133333333333333,0.5915018315018314
5.1700559750024695,0.2071062271062271,0.5133333333333333,0.5915018315018314
5.1747015549990465,0.2071062271062271,0.5133333333333333,0.5915018315018314
5.1749470140021,0.2071062271062271,0.5133333333333333,0.5915018315018314
5.180185075001646,0.2071062271062271,0.5133333333333333,0.5915018315018314
5.183122484002524,0.2071062271062271,0.5133333333333333,0.5915018315018314
5.186733167000057,0.2071062271062271,0.5133333333333333,0.5915018315018314
5.186934567002027,0.2071062271062271,0.5133333333333333,0.5915018315018314
5.191908329001308,0.2071062271062271,0.5133333333333333,0.5915018315018314
5.196268782001425,0.2071062271062271,0.5133333333333333,0.5915018315018314
5.19779304000258,1.3562637362637362,0.805054945054945,0.838095238095238
5.203236811001261,1.3562637362637362,0.805054945054945,0.838095238095238
5.204938025999581,1.3562637362637362,0.805054945054945,0.838095238095238
5.208893729999545,1.3562637362637362,0.805054945054945,0.838095238095238
5.212191160000657,1.3562637362637362,0.805054945054945,0.838095238095238
5.213262790999579,1.9977289377289376,1.5375824175824175,2.3917948717948714
5.213556147999043,1.9977289377289376,1.5375824175824175,2.3917948717948714
5.218372712999553,1.9977289377289376,1.5375824175824175,2.3917948717948714
5.218607527000131,1.9977289377289376,1.5375824175824175,2.3917948717948714
5.22327207300259,1.9977289377289376,1.5375824175824175,2.3917948717948714
5.22341561400026,1.9977289377289376,1.5375824175824175,2.3917948717948714
5.228255414000159,1.9977289377289376,1.5375824175824175,2.3917948717948714
5.2336328880010115,1.9977289377289376,1.5375824175824175,2.3917948717948714
5.235253172999364,2.652087912087912,3.232307692307692,3.3
5.239150959001563,2.652087912087912,3.232307692307692,3.3
5.243176497002423,2.652087912087912,3.232307692307692,3.3
5.246396235001157,2.652087912087912,3.232307692307692,3.3
5.247323687999597,0.8799999999999999,1.6399267399267399,2.233040293040293
5.249114377002115,0.8799999999999999,1.6399267399267399,2.233040293040293
5.252110875000653,0.8799999999999999,1.6399267399267399,2.233040293040293
5.253897525999491,0.8799999999999999,1.6399267399267399,2.233040293040293
5.257055042002321,3.3,3.3,2.8285714285714283
5.258013340000616,3.3,3.3,2.8285714285714283
5.259659743001976,3.3,3.3,2.8285714285714283
5.262835704001191,3.3,3.3,2.8285714285714283
5.264510664001136,1.4972893772893772,1.5722344322344322,2.444175824175824
5.267719098999805,1.4972893772893772,1.5722344322344322,2.444175824175824
5.269347348999872,1.3917216117216116,0.826007326007326,0.8437362637362636
5.273244934000104,1.3917216117216116,0.826007326007326,0.8437362637362636
5.277208483999857,1.3917216117216116,0.826007326007326,0.8437362637362636
5.280424930999288,1.3917216117216116,0.826007326007326,0.8437362637362636
5.282102737000969,1.3917216117216116,0.826007326007326,0.8437362637362636
5.285981147000712,1.3917216117216116,0.826007326007326,0.8437362637362636
5.289891946002172,1.2337728937728938,0.6197069597069597,0.7647619047619048
5.2945613709998725,1.2337728937728938,0.6197069597069597,0.7647619047619048
5.294739791999746,1.2337728937728938,0.6197069597069597,0.7647619047619048
5.300554720000946,1.2337728937728938,0.6197069597069597,0.7647619047619048
5.300692112999968,1.2337728937728938,0.6197069597069597,0.7647619047619048
5.3068224109993025,1.2337728937728938,0.6197069597069597,0.7647619047619048
5.310759444000723,1.2337728937728938,0.6197069597069597,0.7647619047619048
5.314723429000878,1.2337728937728938,0.6197069597069597,0.7647619047619048
5.318713807999302,3.3,3.017142857142857,3.2105494505494505
5.322638494002604,3.3,3.017142857142857,3.2105494505494505
5.326576976000069,3.3,3.017142857142857,3.2105494505494505
5.329833395000605,3.3,3.017142857142857,3.2105494505494505
5.331492699999217,3.3,3.017142857142857,3.2105494505494505
5.334673763001774,3.3,3.017142857142857,3.2105494505494505
5.335644532002334,3.3,3.017142857142857,3.2105494505494505
5.33662541800004,3.3,3.017142857142857,3.2105494505494505
5.337611081002251,3.3,3.017142857142857,3.2105494505494505
5.338553202000185,3.3,3.017142857142857,3.2105494505494505
5.339517178999813,3.3,3.017142857142857,3.2105494505494505
5.340500656002405,0.24498168498168496,0.46417582417582415,0.6108424908424909
5.34216049600218,0.24498168498168496,0.46417582417582415,0.6108424908424909
5.3453558159999375,0.047545787545787546,0.49076923076923074,0.6172893772893773
5.347099238999363,0.047545787545787546,0.49076923076923074,0.6172893772893773
5.350558344001911,0.047545787545787546,0.49076923076923074,0.6172893772893773
5.350802109001961,0.047545787545787546,0.49076923076923074,0.6172893772893773
5.356523507001839,0.047545787545787546,0.49076923076923074,0.6172893772893773
5.356698061001225,0.047545787545787546,0.49076923076923074,0.6172893772893773
5.362817907000135,0.047545787545787546,0.49076923076923074,0.6172893772893773
5.367395105000469,1.2780952380952382,1.216849816849817,1.8204395604395605
5.3676307650021045,1.2780952380952382,1.216849816849817,1.8204395604395605
5.3771358049998526,1.2780952380952382,1.216849816849817,1.8204395604395605
5.384585070001776,1.2780952380952382,1.216849816849817,1.8204395604395605
5.391270779000479,0.7051282051282051,0.4472527472527472,0.6382417582417582
5.394666660002258,0.7051282051282051,0.4472527472527472,0.6382417582417582
5.394996166000055,0.7051282051282051,0.4472527472527472,0.6382417582417582
5.400631989999965,0.7051282051282051,0.4472527472527472,0.6382417582417582
5.400959729002352,0.7051282051282051,0.4472527472527472,0.6382417582417582
5.406289293001464,0.7051282051282051,0.4472527472527472,0.6382417582417582
5.408814287999121,0.7051282051282051,0.4472527472527472,0.6382417582417582
5.41477393400055,0.7051282051282051,0.4472527472527472,0.6382417582417582
5.420539204002125,1.8526739926739926,1.552087912087912,2.3998534798534794
5.420652893000806,1.0887179487179486,0.7172161172161172,0.7953846153846154
5.429349571000785,1.0887179487179486,0.7172161172161172,0.7953846153846154
5.43367310100075,3.3,2.7383150183150184,2.561831501831502
5.435102532999736,1.913919413919414,1.4497435897435897,2.664175824175824
5.444459615999222,1.913919413919414,1.4497435897435897,2.664175824175824
5.450015663001977,0.9831501831501831,0.469010989010989,0.8316483516483516
5.451601867000136,0.9831501831501831,0.469010989010989,0.8316483516483516
5.459742144001211,0.9831501831501831,0.469010989010989,0.8316483516483516
5.464457059999404,0.9831501831501831,0.469010989010989,0.8316483516483516
5.464712672001042,0.9831501831501831,0.469010989010989,0.8316483516483516
5.474012818001938,0.9831501831501831,0.469010989010989,0.8316483516483516
5.479437799000152,0.9831501831501831,0.469010989010989,0.8316483516483516
5.479996440000832,1.070989010989011,0.7284981684981684,0.8534065934065934
5.4840050599996175,1.070989010989011,0.7284981684981684,0.8534065934065934
5.487416388001293,1.070989010989011,0.7284981684981684,0.8534065934065934
5.4878636409994215,1.2498901098901098,0.6374358974358975,0.6914285714285714
5.4940960700005235,1.2498901098901098,0.6374358974358975,0.6914285714285714
5.498407473001862,1.2498901098901098,0.6374358974358975,0.6914285714285714
5.5000850390024425,1.2498901098901098,0.6374358974358975,0.6914285714285714
5.50491157000215,1.2498901098901098,0.6374358974358975,0.6914285714285714
5.51440376300161,1.2498901098901098,0.6374358974358975,0.6914285714285714
5.520381997001095,1.2498901098901098,0.6374358974358975,0.6914285714285714
5.530128442002024,0.2095238095238095,0.4794871794871795,0.5818315018315018
5.536815277002461,0.2095238095238095,0.4794871794871795,0.5818315018315018
5.543942670999968,0.751062271062271,1.1467399267399265,1.7946520146520144
5.548122673000762,2.038021978021978,2.5175091575091573,3.3
5.55137391199969,0.11765567765567764,0.7881318681318681,1.2095970695970695
5.551734003001911,0.11765567765567764,0.7881318681318681,1.2095970695970695
5.5579220639992855,0.11765567765567764,0.7881318681318681,1.2095970695970695
5.561510252002336,2.6617582417582417,2.561831501831502,2.5666666666666664
5.561701931001153,2.6617582417582417,2.561831501831502,2.5666666666666664
5.5664111400001275,2.6617582417582417,2.561831501831502,2.5666666666666664
5.566670053001872,2.6617582417582417,2.561831501831502,2.5666666666666664
5.5718217070025275,2.6617582417582417,2.561831501831502,2.5666666666666664
5.5756516180008475,2.6617582417582417,2.561831501831502,2.5666666666666664
5.579067855000176,1.7108424908424908,0.9847619047619047,1.1257875457875457
5.579298777000076,1.7108424908424908,0.9847619047619047,1.1257875457875457
5.584173410999938,1.7108424908424908,0.9847619047619047,1.1257875457875457
5.591304656001739,1.7108424908424908,0.9847619047619047,1.1257875457875457
5.594746560000203,1.7108424908424908,0.9847619047619047,1.1257875457875457
5.594991312002094,1.7108424908424908,0.9847619047619047,1.1257875457875457
5.599630385000637,1.7108424908424908,0.9847619047619047,1.1257875457875457
5.59980091000034,1.7108424908424908,0.9847619047619047,1.1257875457875457
5.606399502001295,0.7438095238095238,0.43032967032967034,0.5979487179487178
5.610218068999529,2.909157509157509,2.613406593406593,3.3
5.6153478090018325,2.909157509157509,2.613406593406593,3.3
5.618801317999896,3.046153846153846,2.1476190476190475,2.2394871794871793
5.618960202002199,3.046153846153846,2.1476190476190475,2.2394871794871793
5.627903848999267,3.046153846153846,2.1476190476190475,2.2394871794871793
5.635407015000965,2.9744322344322343,2.5634432234432234,2.561831501831502
5.6409018539998215,2.9744322344322343,2.5634432234432234,2.561831501831502
5.64126052100255,2.9744322344322343,2.5634432234432234,2.561831501831502
5.646418234999146,2.9744322344322343,2.5634432234432234,2.561831501831502
5.650840333000815,2.9744322344322343,2.5634432234432234,2.561831501831502
5.651012283000455,2.9744322344322343,2.5634432234432234,2.561831501831502
5.656260236999515,2.9744322344322343,2.5634432234432234,2.561831501831502
5.660468518999551,2.9744322344322343,2.5634432234432234,2.561831501831502
5.660777799999778,2.9744322344322343,2.5634432234432234,2.561831501831502
5.665612980999867,2.9744322344322343,2.5634432234432234,2.561831501831502
5.672358571999212,2.9744322344322343,2.5634432234432234,2.561831501831502
5.676725921999605,2.9744322344322343,2.5634432234432234,2.561831501831502
5.677046205000806,2.9744322344322343,2.5634432234432234,2.561831501831502
5.682020533000468,2.9744322344322343,2.5634432234432234,2.561831501831502
5.685917262999283,2.9744322344322343,2.5634432234432234,2.561831501831502
5.694907618002617,2.9744322344322343,2.5634432234432234,2.561831501831502
5.699551290999807,1.324029304029304,1.3876923076923076,2.3386080586080586
5.699707009000122,1.6367032967032966,0.8856410256410255,0.929157509157509
5.706414322001365,1.6367032967032966,0.8856410256410255,0.929157509157509
5.710698368999147,1.6367032967032966,0.8856410256410255,0.929157509157509
5.7108768110010715,1.6367032967032966,0.8856410256410255,0.929157509157509
5.71764272099972,1.6367032967032966,0.8856410256410255,0.929157509157509
5.722025540002505,1.6367032967032966,0.8856410256410255,0.929157509157509
5.722430030000396,1.6367032967032966,0.8856410256410255,0.929157509157509
5.72837717800212,1.6367032967032966,0.8856410256410255,0.929157509157509
5.736781322000752,1.6367032967032966,0.8856410256410255,0.929157509157509
5.742894266000803,2.66014652014652,2.561831501831502,2.56989010989011
5.746757333999994,2.66014652014652,2.561831501831502,2.56989010989011
5.750822754002002,3.3,2.759267399267399,2.5594139194139194
5.755248376000964,3.3,2.759267399267399,2.5594139194139194
5.755375925000408,3.3,2.759267399267399,2.5594139194139194
5.763812551002047,3.3,2.759267399267399,2.5594139194139194
5.768946580999909,3.3,2.759267399267399,2.5594139194139194
5.774586243001977,3.3,2.759267399267399,2.5594139194139194
5.780474773000606,3.3,2.759267399267399,2.5594139194139194
5.785204028001317,0.2868864468864469,0.5358974358974359,0.7027106227106227
5.785464014999889,2.8616117216117214,3.3,3.3
5.7953929510003945,2.8616117216117214,3.3,3.3
5.8005368300000555,2.8616117216117214,3.3,3.3
5.8037267079998855,0.07333333333333333,0.4835164835164835,0.5294505494505495
5.805816235999373,0.07333333333333333,0.4835164835164835,0.5294505494505495
5.807944480002334,0.07333333333333333,0.4835164835164835,0.5294505494505495
5.8084610940022685,1.0403663003663002,0.5246153846153846,0.7357509157509158
5.812332999001228,1.0403663003663002,0.5246153846153846,0.7357509157509158
5.816328315002465,2.6545054945054947,3.3,3.3
5.819804390001082,3.3,2.6279120879120876,2.8535531135531134
5.81997706599941,2.002564102564102,0.747032967032967,1.1201465201465202
5.827265399002499,2.002564102564102,0.747032967032967,1.1201465201465202
5.831800246000057,1.8945787545787542,2.464322344322344,3.171868131868132
5.8320437889997265,3.3,3.1130402930402927,3.3
5.837073094000516,3.3,3.1130402930402927,3.3
5.844040379000944,3.3,3.1130402930402927,3.3
5.848101305000455,3.3,3.1130402930402927,3.3
5.851508810999803,3.3,3.1130402930402927,3.3
5.851813370001764,3.3,3.261318681318681,3.3
5.859816813001089,3.3,3.261318681318681,3.3
5.864758719999372,3.3,3.261318681318681,3.3
5.870027969001967,3.3,3.261318681318681,3.3
5.873322348001238,3.3,2.5521611721611723,3.3
5.873579915001756,3.3,2.5521611721611723,3.3
5.882133742001315,3.3,2.5521611721611723,3.3
5.890438467002241,3.3,2.5521611721611723,3.3
5.895908127000439,3.3,2.5521611721611723,3.3
5.896185917001276,3.3,2.5521611721611723,3.3
5.904361574001086,3.3,2.5521611721611723,3.3
5.912375670999609,0.02498168498168498,0.43597069597069593,0.5294505494505495
5.916791219002334,2.6536996336996337,3.3,3.3
5.917722361002234,2.6536996336996337,3.3,3.3
5.918635247999191,2.6536996336996337,3.3,3.3
5.919569543999387,0.6132600732600733,0.527032967032967,0.7865201465201466
5.922255579000193,0.6132600732600733,0.527032967032967,0.7865201465201466
5.927879589002259,0.6132600732600733,0.527032967032967,0.7865201465201466
5.928136230002565,0.40695970695970696,0.6293772893772893,1.008937728937729
5.934725991999585,3.3,2.7705494505494506,3.2838827838827838
5.942178073000832,3.3,2.7705494505494506,3.2838827838827838
5.945974034999381,3.3,2.7705494505494506,3.2838827838827838
5.951948612000706,3.3,2.7705494505494506,3.2838827838827838
5.9596073089996935,3.3,2.7705494505494506,3.2838827838827838
5.964290980999067,2.6577289377289377,2.5586080586080584,2.561831501831502
5.964527471001929,0.49882783882783877,0.6189010989010989,0.6543589743589743
5.9692996779995156,0.49882783882783877,0.6189010989010989,0.6543589743589743
5.969554801999038,0.49882783882783877,0.6189010989010989,0.6543589743589743
5.976296405002358,0.49882783882783877,0.6189010989010989,0.6543589743589743
5.98025152700211,3.3,2.752014652014652,2.552967032967033
5.9849593920007464,3.3,2.752014652014652,2.552967032967033
5.985204692999105,3.3,2.752014652014652,2.552967032967033
5.994635143000778,3.3,2.752014652014652,2.552967032967033
5.999452972002473,3.3,2.752014652014652,2.552967032967033
6.007580770001368,3.3,2.752014652014652,2.552967032967033
6.011877797001944,3.3,2.752014652014652,2.552967032967033
6.0135242079995805,2.673040293040293,3.3,3.3
6.016739958999096,2.9309157509157506,3.3,2.785054945054945
6.0188253250016714,2.9309157509157506,3.3,2.785054945054945
6.019782200000918,2.9309157509157506,3.3,2.785054945054945
6.022008968000591,2.9309157509157506,3.3,2.785054945054945
6.022294110000075,2.9309157509157506,3.3,2.785054945054945
6.028359989999444,2.9309157509157506,3.3,2.785054945054945
6.032645946001139,2.9309157509157506,3.3,2.785054945054945
6.034268186002009,2.9309157509157506,3.3,2.785054945054945
6.040093424002407,2.6488644688644687,3.3,2.8543589743589743
6.0456438710025395,2.6488644688644687,3.3,2.8543589743589743
6.0458271780007635,2.6488644688644687,3.3,2.8543589743589743
6.051798094002152,2.6488644688644687,3.3,2.8543589743589743
6.060739602999092,1.2821245421245422,0.7607326007326007,0.6898168498168498
6.06542219000039,1.2821245421245422,0.7607326007326007,0.6898168498168498
6.0656564380005875,1.2821245421245422,0.7607326007326007,0.6898168498168498
6.070493990002433,1.2821245421245422,0.7607326007326007,0.6898168498168498
6.078821150000294,1.2821245421245422,0.7607326007326007,0.6898168498168498
6.084410628001933,1.2821245421245422,0.7607326007326007,0.6898168498168498
6.086051238002256,1.2821245421245422,0.7607326007326007,0.6898168498168498
6.092567083000176,1.2821245421245422,0.7607326007326007,0.6898168498168498
6.09672605400192,1.2821245421245422,0.7607326007326007,0.6898168498168498
6.1008155010022165,2.2064468864468862,1.44007326007326,1.4843956043956044
6.1051929690002,2.2064468864468862,1.44007326007326,1.4843956043956044
6.1055718080024235,0.4867399267399267,1.24021978021978,1.8857142857142855
6.11091382900122,0.4867399267399267,1.24021978021978,1.8857142857142855
6.112526971999614,0.4867399267399267,1.24021978021978,1.8857142857142855
6.116500576001272,0.801025641025641,1.145128205128205,1.759194139194139
6.119662455999787,2.6633699633699632,2.5561904761904763,2.5706959706959704
6.121656007002457,2.6633699633699632,2.5561904761904763,2.5706959706959704
6.123991945001762,2.6633699633699632,2.5561904761904763,2.5706959706959704
6.124158483999054,2.6633699633699632,2.5561904761904763,2.5706959706959704
6.128922703999706,2.6633699633699632,2.5561904761904763,2.5706959706959704
6.129061424999236,0.18937728937728937,0.7752380952380952,1.1684981684981686
6.134705426000437,0.18937728937728937,0.7752380952380952,1.1684981684981686
6.13487628400253,0.9082051282051282,1.228131868131868,2.1443956043956045
6.141950322999037,0.9082051282051282,1.228131868131868,2.1443956043956045
6.146212044001004,1.9840293040293038,0.8227838827838827,0.9517216117216116
6.148002390000329,1.9840293040293038,0.8227838827838827,0.9517216117216116
6.151076829999511,1.9840293040293038,0.8227838827838827,0.9517216117216116
6.1527863680021255,1.9840293040293038,0.8227838827838827,0.9517216117216116
6.158596171000681,0.7164102564102564,1.1676923076923076,1.7414652014652015
6.163402214999223,0.7164102564102564,1.1676923076923076,1.7414652014652015
6.169673069001874,0.8195604395604396,0.9452747252747251,1.3296703296703296
6.175198839002405,3.3,2.9478388278388277,3.3
6.175419955001416,3.3,2.9478388278388277,3.3
6.180626330999075,3.3,2.9478388278388277,3.3
6.183752130000357,3.3,2.9478388278388277,3.3
6.184914511999523,3.3,2.9478388278388277,3.3
6.185177994000696,0.18615384615384614,0.9146520146520146,1.3683516483516485
6.19039004500155,0.18615384615384614,0.9146520146520146,1.3683516483516485
6.193575395001972,1.4706959706959708,0.85018315018315,0.9887912087912087
6.194466797001951,1.4706959706959708,0.85018315018315,0.9887912087912087
6.196194323001691,1.4706959706959708,0.85018315018315,0.9887912087912087
6.199754527002369,1.4706959706959708,0.85018315018315,0.9887912087912087
6.199865691000014,0.21274725274725276,0.5399267399267399,0.7002930402930403
6.205989720001526,0.21274725274725276,0.5399267399267399,0.7002930402930403
6.209882433002349,0.21274725274725276,0.5399267399267399,0.7002930402930403
6.2142391500019585,0.21274725274725276,0.5399267399267399,0.7002930402930403
6.215769357000681,0.21274725274725276,0.5399267399267399,0.7002930402930403
6.223110717000964,0.21274725274725276,0.5399267399267399,0.7002930402930403
6.228804645001219,0.2506227106227106,0.4021245421245421,0.5923076923076923
6.228943951999099,0.2506227106227106,0.4021245421245421,0.5923076923076923
6.235797702000127,0.2506227106227106,0.4021245421245421,0.5923076923076923
6.241724262999924,0.2506227106227106,0.4021245421245421,0.5923076923076923
6.245554434000951,0.2506227106227106,0.4021245421245421,0.5923076923076923
6.249048835001304,2.4038827838827834,2.2394871794871793,3.232307692307692
6.249296156001947,2.4038827838827834,2.2394871794871793,3.232307692307692
6.255347107999114,2.4038827838827834,2.2394871794871793,3.232307692307692
6.259166875999654,2.4038827838827834,2.2394871794871793,3.232307692307692
6.263985107001645,2.4038827838827834,2.2394871794871793,3.232307692307692
6.270811917001993,2.4038827838827834,2.2394871794871793,3.232307692307692
6.2763377640003455,3.3,2.9260805860805856,3.3
6.276585146999423,1.8357509157509158,1.1298168498168497,1.1475457875457875
6.282702155000152,1.8357509157509158,1.1298168498168497,1.1475457875457875
6.28982027299935,1.8357509157509158,1.1298168498168497,1.1475457875457875
6.29641585400168,1.8357509157509158,1.1298168498168497,1.1475457875457875
6.302486701999442,2.2024175824175822,1.5625641025641024,1.4569963369963368
6.307320169002196,0.5761904761904761,0.6608058608058608,0.6793406593406592
6.315451710001071,0.5761904761904761,0.6608058608058608,0.6793406593406592
6.321867563001433,0.5761904761904761,0.6608058608058608,0.6793406593406592
6.32819830399967,0.11604395604395604,0.5415384615384615,0.6608058608058608
6.333866307999415,0.11604395604395604,0.5415384615384615,0.6608058608058608
6.334088375999272,2.648058608058608,3.3,3.3
6.34222813100132,2.648058608058608,3.3,3.3
6.3492140880007355,2.648058608058608,3.3,3.3
6.355746526001894,2.648058608058608,3.3,3.3
6.361158325998986,2.6706227106227107,2.556996336996337,2.565054945054945
6.361515761000192,2.6706227106227107,2.556996336996337,2.565054945054945
6.36817048300145,2.6706227106227107,2.556996336996337,2.565054945054945
6.37476533500012,2.6706227106227107,2.556996336996337,2.565054945054945
6.37958884100226,2.6706227106227107,2.556996336996337,2.565054945054945
6.3857120190004935,2.6706227106227107,2.556996336996337,2.565054945054945
6.391752049999923,2.805201465201465,3.3,2.7326739926739925
6.397259732002567,1.137069597069597,0.7744322344322344,0.8469597069597068
6.398993556002097,1.137069597069597,0.7744322344322344,0.8469597069597068
6.4050624430019525,1.137069597069597,0.7744322344322344,0.8469597069597068
6.411156145000859,1.137069597069597,0.7744322344322344,0.8469597069597068
6.416918090002582,1.137069597069597,0.7744322344322344,0.8469597069597068
6.425614072999451,1.137069597069597,0.7744322344322344,0.8469597069597068
6.435318018000544,1.1386813186813185,0.7228571428571429,0.7583150183150182
6.444939023000188,3.3,3.1646153846153844,3.3
6.45399872499911,0.12249084249084248,0.5173626373626373,0.6857875457875457
6.461034056999779,0.12249084249084248,0.5173626373626373,0.6857875457875457
6.465283926001575,0.12249084249084248,0.5173626373626373,0.6857875457875457
6.466596551999828,0.12249084249084248,0.5173626373626373,0.6857875457875457
6.4758232990025135,0.12249084249084248,0.5173626373626373,0.6857875457875457
6.4826777310008765,0.12249084249084248,0.5173626373626373,0.6857875457875457
6.4876963250026165,0.12249084249084248,0.5173626373626373,0.6857875457875457
6.4913022100008675,2.6682051282051282,2.5553846153846154,2.561831501831502
6.4999707370006945,2.6682051282051282,2.5553846153846154,2.561831501831502
6.506686889002594,2.6682051282051282,2.5553846153846154,2.561831501831502
6.512103184999432,0.3658608058608058,1.0065201465201465,1.6495970695970694
6.512383954999677,3.3,2.8285714285714283,3.3
6.520410692999576,3.3,2.8285714285714283,3.3
6.52678855600243,0.10556776556776555,0.5205860805860806,0.722051282051282
6.531311492999521,0.10556776556776555,0.5205860805860806,0.722051282051282
6.531549416999042,0.10556776556776555,0.5205860805860806,0.722051282051282
6.54046368499985,0.10556776556776555,0.5205860805860806,0.722051282051282
6.546561925999413,0.10556776556776555,0.5205860805860806,0.722051282051282
6.551094711001497,0.10556776556776555,0.5205860805860806,0.722051282051282
6.551190697002312,0.10556776556776555,0.5205860805860806,0.722051282051282
6.560669859001791,0.10556776556776555,0.5205860805860806,0.722051282051282
6.568202294001821,0.10556776556776555,0.5205860805860806,0.722051282051282
6.575595135000185,2.071868131868132,2.8390476190476193,3.3
6.583281723000255,3.3,2.731062271062271,3.3
6.588657262000197,0.5455677655677655,0.6148717948717949,0.8695238095238095
6.589022497002588,0.5455677655677655,0.6148717948717949,0.8695238095238095
6.597465192000527,0.5455677655677655,0.6148717948717949,0.8695238095238095
6.604823477999162,0.5455677655677655,0.6148717948717949,0.8695238095238095
6.611717178002436,0.5455677655677655,0.6148717948717949,0.8695238095238095
6.617689942999277,1.8897435897435895,1.635091575091575,2.635164835164835
6.623235779999959,1.8897435897435895,1.635091575091575,2.635164835164835
6.633696269000211,1.8897435897435895,1.635091575091575,2.635164835164835
6.641332138002326,1.187032967032967,1.9397069597069596,2.5868131868131865
6.647875189999468,1.187032967032967,1.9397069597069596,2.5868131868131865
6.65456561800238,1.187032967032967,1.9397069597069596,2.5868131868131865
6.660432676002529,2.6585347985347987,2.561831501831502,2.5715018315018314
6.669220465999388,2.6585347985347987,2.561831501831502,2.5715018315018314
6.675704303001112,2.6585347985347987,2.561831501831502,2.5715018315018314
6.681606984002428,2.6585347985347987,2.561831501831502,2.5715018315018314
6.688592231999792,1.3393406593406594,0.7486446886446886,1.00007326007326
6.69453888100179,0.689010989010989,0.5213919413919413,0.8654945054945055
6.698497798999597,3.3,3.2145787545787545,3.3
6.702441519002605,3.3,3.2145787545787545,3.3
6.705674396001996,3.3,3.2145787545787545,3.3
6.706570987000305,3.3,3.2145787545787545,3.3
6.707524656001624,3.3,3.2145787545787545,3.3
6.708494880000217,3.3,3.2145787545787545,3.3
6.7101606280011765,3.3,3.2145787545787545,3.3
6.713442896001652,3.3,3.2145787545787545,3.3
6.714337374000024,3.3,3.2145787545787545,3.3
6.7159886459994595,3.3,3.2145787545787545,3.3
6.719916115001979,3.3,3.2145787545787545,3.3
6.722953542001051,3.3,3.2145787545787545,3.3
6.725898958000471,3.3,3.2145787545787545,3.3
6.728904211002373,3.3,3.2145787545787545,3.3
6.731902674000594,3.3,3.2145787545787545,3.3
6.7342061740018835,3.3,3.2145787545787545,3.3
6.734484938002424,3.3,3.2145787545787545,3.3
6.73916171500241,3.3,3.2145787545787545,3.3
6.739283045000775,0.9339926739926739,0.7518681318681318,0.7865201465201466
6.744564328000706,0.9339926739926739,0.7518681318681318,0.7865201465201466
6.747431938001682,0.022564102564102562,0.39567765567765567,0.7002930402930403
6.7503993780010205,0.022564102564102562,0.39567765567765567,0.7002930402930403
6.753378359000635,0.022564102564102562,0.39567765567765567,0.7002930402930403
6.75636641500023,0.022564102564102562,0.39567765567765567,0.7002930402930403
6.759247155001503,0.022564102564102562,0.39567765567765567,0.7002930402930403
6.762243649001903,0.190989010989011,0.34813186813186814,0.6736996336996337
6.765234688999044,0.190989010989011,0.34813186813186814,0.6736996336996337
6.7681936680019135,0.190989010989011,0.34813186813186814,0.6736996336996337
6.771134680999239,1.1580219780219778,0.469010989010989,0.6237362637362637
6.774091054001474,1.1580219780219778,0.469010989010989,0.6237362637362637
6.777688590002072,1.1580219780219778,0.469010989010989,0.6237362637362637
6.7827481490021455,1.1580219780219778,0.469010989010989,0.6237362637362637
6.787181395000516,1.1580219780219778,0.469010989010989,0.6237362637362637
6.789651825001783,1.5053479853479852,2.262857142857143,3.3
6.795788776002155,3.3,2.721391941391941,3.3
6.799781735000579,3.3,2.721391941391941,3.3
6.803840812000999,0.2643223443223443,0.41018315018315016,0.6922344322344323
6.807128823002131,3.243589743589743,2.803589743589743,3.3
6.807423604001087,3.243589743589743,2.803589743589743,3.3
6.812289542001963,3.243589743589743,2.803589743589743,3.3
6.817278009999427,3.0888644688644686,1.8849084249084247,3.3
6.821276067999861,3.0888644688644686,1.8849084249084247,3.3
6.825200106999546,3.0888644688644686,1.8849084249084247,3.3
6.829249627000536,3.0888644688644686,1.8849084249084247,3.3
6.831672057000105,3.0888644688644686,1.8849084249084247,3.3
6.831802374999825,3.0888644688644686,1.8849084249084247,3.3
6.83752545400057,0.8453479853479853,1.220879120879121,2.15003663003663
6.837773552000726,0.8453479853479853,1.220879120879121,2.15003663003663
6.8425100530002965,0.8453479853479853,1.220879120879121,2.15003663003663
6.842770031002146,0.8453479853479853,1.220879120879121,2.15003663003663
6.847516046000237,0.8453479853479853,1.220879120879121,2.15003663003663
6.847639767001965,0.8453479853479853,1.220879120879121,2.15003663003663
6.852484890001506,0.8453479853479853,1.220879120879121,2.15003663003663
6.852620665998984,0.8453479853479853,1.220879120879121,2.15003663003663
6.857538372001727,0.8453479853479853,1.220879120879121,2.15003663003663
6.862433474001591,0.8453479853479853,1.220879120879121,2.15003663003663
6.86815692700111,0.8453479853479853,1.220879120879121,2.15003663003663
6.868344826001703,0.8453479853479853,1.220879120879121,2.15003663003663
6.873076840001886,0.8453479853479853,1.220879120879121,2.15003663003663
6.873260807002225,0.8453479853479853,1.220879120879121,2.15003663003663
6.877977513002406,0.8453479853479853,1.220879120879121,2.15003663003663
6.883542228999431,2.2717216117216115,1.0822710622710623,1.0613186813186812
6.8844336770016525,2.2717216117216115,1.0822710622710623,1.0613186813186812
6.88538465700185,2.2717216117216115,1.0822710622710623,1.0613186813186812
6.88704069600135,2.2717216117216115,1.0822710622710623,1.0613186813186812
6.890255849000823,2.2717216117216115,1.0822710622710623,1.0613186813186812
6.891934438001044,2.9712087912087912,2.9454212454212456,3.3
6.896874317000766,2.9712087912087912,2.9454212454212456,3.3
6.900911937002093,2.9712087912087912,2.9454212454212456,3.3
6.904263557000377,2.9712087912087912,2.9454212454212456,3.3
6.904567939000117,2.9712087912087912,2.9454212454212456,3.3
6.909338633002335,2.9712087912087912,2.9454212454212456,3.3
6.91515517100197,2.6585347985347987,3.1662271062271063,3.3
6.9153353450019495,2.6585347985347987,3.1662271062271063,3.3
6.920252366002387,2.6585347985347987,3.1662271062271063,3.3
6.925113962999603,2.6585347985347987,3.1662271062271063,3.3
6.930044552002073,2.6496703296703297,2.5545787545787544,2.573113553113553
6.934864751001442,2.6496703296703297,2.5545787545787544,2.573113553113553
6.935019168999133,2.6496703296703297,2.5545787545787544,2.573113553113553
6.939959950999764,3.299194139194139,1.6624908424908424,1.569010989010989
6.945005535999371,3.299194139194139,1.6624908424908424,1.569010989010989
6.948904149001464,0.14908424908424908,0.6277655677655677,1.4964835164835164
6.953932979999081,0.14908424908424908,0.6277655677655677,1.4964835164835164
6.958002678999037,1.7873992673992671,1.9010256410256408,3.254065934065934
6.961303897001926,1.3208058608058608,0.8904761904761904,0.921098901098901
6.962167665999004,1.3208058608058608,0.8904761904761904,0.921098901098901
6.963984174999496,1.3208058608058608,0.8904761904761904,0.921098901098901
6.9671331320023455,1.3208058608058608,0.8904761904761904,0.921098901098901
6.96808744000009,1.3208058608058608,0.8904761904761904,0.921098901098901
6.969023024001217,1.3208058608058608,0.8904761904761904,0.921098901098901
6.970828624002024,1.3208058608058608,0.8904761904761904,0.921098901098901
6.974115041000914,1.3208058608058608,0.8904761904761904,0.921098901098901
6.974478061001719,0.7019047619047618,1.0548717948717947,1.7608058608058608
6.979336967000563,0.7019047619047618,1.0548717948717947,1.7608058608058608
6.985353285999736,0.7019047619047618,1.0548717948717947,1.7608058608058608
6.990271719001612,0.7019047619047618,1.0548717948717947,1.7608058608058608
6.995767717999115,0.7019047619047618,1.0548717948717947,1.7608058608058608
6.996767889002513,3.3,2.9784615384615383,3.3
6.9977090310021595,3.3,2.9784615384615383,3.3
6.998710593001306,3.3,2.9784615384615383,3.3
6.999620656999468,0.10153846153846154,0.42468864468864465,0.6736996336996337
7.001397721000103,0.4964102564102564,0.3344322344322344,0.6728937728937728
7.003936026001611,0.4964102564102564,0.3344322344322344,0.6728937728937728
7.0104021840015776,0.4045421245421245,1.1749450549450549,2.028351648351648
7.013574435000919,0.4045421245421245,1.1749450549450549,2.028351648351648
7.015255427999364,0.4045421245421245,1.1749450549450549,2.028351648351648
7.019251802001236,0.4045421245421245,1.1749450549450549,2.028351648351648
7.023189883999294,0.4045421245421245,1.1749450549450549,2.028351648351648
7.026318226002331,0.4045421245421245,1.1749450549450549,2.028351648351648
7.0280586299995775,0.4045421245421245,1.1749450549450549,2.028351648351648
7.031309598001826,0.4045421245421245,1.1749450549450549,2.028351648351648
7.032207732001552,0.4045421245421245,1.1749450549450549,2.028351648351648
7.034014799999568,0.4045421245421245,1.1749450549450549,2.028351648351648
7.036468523001531,0.4045421245421245,1.1749450549450549,2.028351648351648
7.036634993000916,0.4045421245421245,1.1749450549450549,2.028351648351648
7.041468522002106,0.4045421245421245,1.1749450549450549,2.028351648351648
7.046866004999174,0.4045421245421245,1.1749450549450549,2.028351648351648
7.049231973000133,0.4045421245421245,1.1749450549450549,2.028351648351648
7.0493585120020725,0.4045421245421245,1.1749450549450549,2.028351648351648
7.054189377002331,0.4045421245421245,1.1749450549450549,2.028351648351648
7.059649516002537,0.4045421245421245,1.1749450549450549,2.028351648351648
7.061996657001146,0.4045421245421245,1.1749450549450549,2.028351648351648
7.062199389001762,0.4045421245421245,1.1749450549450549,2.028351648351648
7.067043646002276,0.4045421245421245,1.1749450549450549,2.028351648351648
7.072785766002198,0.6269597069597069,0.8356776556776556,0.8606593406593407
7.072956340001838,0.6269597069597069,0.8356776556776556,0.8606593406593407
7.077642186999583,0.6269597069597069,0.8356776556776556,0.8606593406593407
7.077845009000157,0.6269597069597069,0.8356776556776556,0.8606593406593407
7.083337386000494,1.7221245421245421,0.622124542124542,0.846153846153846
7.084207666001021,1.7221245421245421,0.622124542124542,0.846153846153846
7.0858542770001804,1.7221245421245421,0.622124542124542,0.846153846153846
7.089724170000409,1.7221245421245421,0.622124542124542,0.846153846153846
7.09343818400157,1.7221245421245421,0.622124542124542,0.846153846153846
7.098532964999322,1.7221245421245421,0.622124542124542,0.846153846153846
7.102676095000788,1.6068864468864468,0.5713553113553113,0.8517948717948718
7.105042907001916,1.6068864468864468,0.5713553113553113,0.8517948717948718
7.105298066999239,1.6068864468864468,0.5713553113553113,0.8517948717948718
7.110126225001295,1.6068864468864468,0.5713553113553113,0.8517948717948718
