time,emg1,emg2,emg3
0.006565656000020681,0.14263736263736262,0.4287179487179487,0.5608791208791208
0.013118068000039784,0.14263736263736262,0.4287179487179487,0.5608791208791208
0.019241690999479033,2.025128205128205,1.5456410256410256,1.797069597069597
0.023314076999668032,3.3,3.3,2.848717948717949
0.024641752999741584,0.24175824175824176,0.5278388278388277,0.6479120879120879
0.03218808499877923,0.24175824175824176,0.5278388278388277,0.6479120879120879
0.03952697899876512,2.394212454212454,2.8430769230769233,3.3
0.044110037000791635,2.394212454212454,2.8430769230769233,3.3
0.04423253599816235,0.2071062271062271,0.5246153846153846,0.6253479853479853
0.049736715998733416,0.2071062271062271,0.5246153846153846,0.6253479853479853
0.05072178100090241,0.2071062271062271,0.5246153846153846,0.6253479853479853
0.051030713999352884,0.2071062271062271,0.5246153846153846,0.6253479853479853
0.05628055800116272,0.2071062271062271,0.5246153846153846,0.6253479853479853
0.0581119310008944,0.2071062271062271,0.5246153846153846,0.6253479853479853
0.06152091100011603,2.6545054945054947,2.541684981684982,2.552967032967033
0.06165549000070314,0.34813186813186814,0.26754578754578756,0.4778754578754579
0.06866285800060723,0.34813186813186814,0.26754578754578756,0.4778754578754579
0.07513215099970694,2.685934065934066,2.5521611721611723,2.565054945054945
0.08151235900004394,2.685934065934066,2.5521611721611723,2.565054945054945
0.0872208420005336,0.5520146520146519,0.8155311355311355,0.5955311355311355
0.09284011099953204,0.2909157509157509,0.3158974358974359,0.4859340659340659
0.09300275900022825,0.2909157509157509,0.3158974358974359,0.4859340659340659
0.09834023100120248,0.2909157509157509,0.3158974358974359,0.4859340659340659
0.1015254609992553,0.2909157509157509,0.3158974358974359,0.4859340659340659
0.10311766099766828,0.2909157509157509,0.3158974358974359,0.4859340659340659
0.10754669599918998,0.2909157509157509,0.3158974358974359,0.4859340659340659
0.10907415399924503,0.39003663003663,0.32395604395604394,0.5802197802197803
0.11349378199884086,0.39003663003663,0.32395604395604394,0.5802197802197803
0.11502662400016561,0.39003663003663,0.32395604395604394,0.5802197802197803
0.12053127299805055,0.39003663003663,0.32395604395604394,0.5802197802197803
0.12136787599956733,0.39003663003663,0.32395604395604394,0.5802197802197803
0.12529813600121997,0.39003663003663,0.32395604395604394,0.5802197802197803
0.12729764799951226,0.39003663003663,0.32395604395604394,0.5802197802197803
0.12817329799872823,2.723003663003663,2.5465201465201464,2.5626373626373624
0.13045230399802676,2.723003663003663,2.5465201465201464,2.5626373626373624
0.13070613099989714,2.723003663003663,2.5465201465201464,2.5626373626373624
0.135194133999903,2.723003663003663,2.5465201465201464,2.5626373626373624
0.13606386500032386,2.723003663003663,2.5465201465201464,2.5626373626373624
0.13767594899763935,2.723003663003663,2.5465201465201464,2.5626373626373624
0.14140357299766038,2.723003663003663,2.5465201465201464,2.5626373626373624
0.14663420600118116,0.11926739926739927,0.3916483516483516,0.5173626373626373
0.14957121199768153,0.11926739926739927,0.3916483516483516,0.5173626373626373
0.15255362799871364,0.5439560439560439,0.3626373626373626,0.7276923076923076
0.15555389499786543,0.5439560439560439,0.3626373626373626,0.7276923076923076
0.15850167499957024,0.5439560439560439,0.3626373626373626,0.7276923076923076
0.16143719499814324,0.5439560439560439,0.3626373626373626,0.7276923076923076
0.1644565889982914,0.5439560439560439,0.3626373626373626,0.7276923076923076
0.16750618500009296,0.5439560439560439,0.3626373626373626,0.7276923076923076
0.16997698200066225,0.5439560439560439,0.3626373626373626,0.7276923076923076
0.17013950399996247,0.5439560439560439,0.3626373626373626,0.7276923076923076
0.17698976400060928,0.5439560439560439,0.3626373626373626,0.7276923076923076
0.18114731799869332,0.5439560439560439,0.3626373626373626,0.7276923076923076
0.18774928099810495,0.11926739926739927,0.3183150183150183,0.46498168498168496
0.19962450000093668,0.11926739926739927,0.3183150183150183,0.46498168498168496
0.21582640099950368,0.9775091575091575,0.5955311355311355,0.5906959706959707
0.22949167499973555,0.8074725274725274,0.43274725274725273,0.713992673992674
0.2448786499990092,0.8074725274725274,0.43274725274725273,0.713992673992674
0.24521508099860512,0.8074725274725274,0.43274725274725273,0.713992673992674
0.2528391300002113,0.8074725274725274,0.43274725274725273,0.713992673992674
0.2589878270009649,3.3,3.3,3.3
0.2627710880005907,2.087985347985348,2.5843956043956045,3.3
0.2687572270006058,2.087985347985348,2.5843956043956045,3.3
0.2727213389989629,2.087985347985348,2.5843956043956045,3.3
0.27529019600115134,2.087985347985348,2.5843956043956045,3.3
0.2820223779999651,2.087985347985348,2.5843956043956045,3.3
0.28768789500099956,2.8873992673992674,2.9236630036630036,2.8366300366300368
0.2926855309997336,2.6037362637362635,3.0195604395604394,3.3
0.2968008380012179,0.6736996336996337,0.5012454212454212,0.6817582417582417
0.3003549019995262,2.876117216117216,3.024395604395604,3.3
0.3008656069978315,2.876117216117216,3.024395604395604,3.3
0.30494705000091926,2.876117216117216,3.024395604395604,3.3
0.30664200599858304,2.876117216117216,3.024395604395604,3.3
0.3099658069986617,2.876117216117216,3.024395604395604,3.3
0.31035001700001885,0.12893772893772892,0.6745054945054945,1.0661538461538462
0.3151493740006117,0.12893772893772892,0.6745054945054945,1.0661538461538462
0.3153513569995994,1.016190476190476,1.324029304029304,2.254798534798535
0.3221432479986106,1.016190476190476,1.324029304029304,2.254798534798535
0.32632912899862276,1.5383882783882783,0.9694505494505494,0.9073992673992675
0.32881302099849563,1.5383882783882783,0.9694505494505494,0.9073992673992675
0.3362424059996556,1.5383882783882783,0.9694505494505494,0.9073992673992675
0.3400995919982961,1.5383882783882783,0.9694505494505494,0.9073992673992675
0.3441167499986477,3.3,3.3,3.3
0.34729595499811694,3.3,3.3,3.3
0.348205941998458,3.3,3.3,3.3
0.35008115299933706,3.3,3.3,3.3
0.35351613799866755,3.3,3.3,3.3
0.3595730779998121,3.3,3.3,3.3
0.3635559040012595,3.3,3.3,3.3
0.36920481199922506,0.0838095238095238,0.3779487179487179,0.5866666666666667
0.36949227700097254,0.03706959706959707,0.6189010989010989,1.0282783882783881
0.3747886239980289,0.03706959706959707,0.6189010989010989,1.0282783882783881
0.37644206899858546,0.03706959706959707,0.6189010989010989,1.0282783882783881
0.3811722649988951,0.03706959706959707,0.6189010989010989,1.0282783882783881
0.38134290499874623,0.03706959706959707,0.6189010989010989,1.0282783882783881
0.38849803099947167,0.03706959706959707,0.6189010989010989,1.0282783882783881
0.3944535230002657,0.7043223443223443,0.3441025641025641,0.6374358974358975
0.39886372399996617,0.7043223443223443,0.3441025641025641,0.6374358974358975
0.39919224999903236,0.7043223443223443,0.3441025641025641,0.6374358974358975
0.4067303230003745,0.7043223443223443,0.3441025641025641,0.6374358974358975
0.4114162660007423,0.7043223443223443,0.3441025641025641,0.6374358974358975
0.4116438519995427,0.7043223443223443,0.3441025641025641,0.6374358974358975
0.41770785599874216,0.7043223443223443,0.3441025641025641,0.6374358974358975
0.423778428001242,0.767985347985348,1.0685714285714285,1.9526007326007324
0.4283810579981946,0.767985347985348,1.0685714285714285,1.9526007326007324
0.4286319269995147,0.767985347985348,1.0685714285714285,1.9526007326007324
0.4332750749999832,0.767985347985348,1.0685714285714285,1.9526007326007324
0.4334969019982964,0.767985347985348,1.0685714285714285,1.9526007326007324
0.4386608870008786,1.2265201465201465,1.3747985347985348,2.1879120879120877
0.4419968570000492,1.2265201465201465,1.3747985347985348,2.1879120879120877
0.44232409699907294,1.2265201465201465,1.3747985347985348,2.1879120879120877
0.4470244369986176,1.2265201465201465,1.3747985347985348,2.1879120879120877
0.4472016079998866,0.15633699633699633,0.4488644688644688,0.5028571428571429
0.4533483220002381,0.15633699633699633,0.4488644688644688,0.5028571428571429
0.45747372999903746,0.15633699633699633,0.4488644688644688,0.5028571428571429
0.46179782299805083,0.15633699633699633,0.4488644688644688,0.5028571428571429
0.4620652970006631,0.15633699633699633,0.4488644688644688,0.5028571428571429
0.47141501599980984,0.15633699633699633,0.4488644688644688,0.5028571428571429
0.47871320899866987,0.15633699633699633,0.4488644688644688,0.5028571428571429
0.4840706979994138,3.3,3.3,3.3
0.4854573299999174,3.3,3.3,3.3
0.49048423299973365,3.3,3.3,3.3
0.4945555960002821,3.3,3.3,3.3
0.49765413099885336,3.3,3.3,3.3
0.4992756930005271,3.3,3.3,3.3
0.5048314730011043,1.8784615384615382,1.7736996336996336,1.510989010989011
0.5050165389984613,1.8784615384615382,1.7736996336996336,1.510989010989011
0.5107289090010454,1.8784615384615382,1.7736996336996336,1.510989010989011
0.5115687840007013,1.8784615384615382,1.7736996336996336,1.510989010989011
0.5132234039992909,1.8784615384615382,1.7736996336996336,1.510989010989011
0.5171882930007996,1.8784615384615382,1.7736996336996336,1.510989010989011
0.5211958420004521,1.8784615384615382,1.7736996336996336,1.510989010989011
0.5244033150011091,1.8784615384615382,1.7736996336996336,1.510989010989011
0.5261076710012276,1.8784615384615382,1.7736996336996336,1.510989010989011
0.5292282499976864,0.6463003663003662,0.4013186813186813,0.5673260073260072
0.5309125409985427,0.6463003663003662,0.4013186813186813,0.5673260073260072
0.5364805680001155,0.6463003663003662,0.4013186813186813,0.5673260073260072
0.5367853729985654,0.6463003663003662,0.4013186813186813,0.5673260073260072
0.5413731250009732,0.6463003663003662,0.4013186813186813,0.5673260073260072
0.5415438970012474,0.6463003663003662,0.4013186813186813,0.5673260073260072
0.5473479780011985,0.6463003663003662,0.4013186813186813,0.5673260073260072
0.554531699999643,0.6463003663003662,0.4013186813186813,0.5673260073260072
0.558688188000815,0.7413919413919414,0.7695970695970695,0.7131868131868132
0.5617267369998444,0.7413919413919414,0.7695970695970695,0.7131868131868132
0.5642179579990625,0.7413919413919414,0.7695970695970695,0.7131868131868132
0.564403284999571,0.09509157509157509,0.356996336996337,0.61003663003663
0.5726294859996415,0.09509157509157509,0.356996336996337,0.61003663003663
0.5776190260003204,0.09509157509157509,0.356996336996337,0.61003663003663
0.5814575650001643,0.09509157509157509,0.356996336996337,0.61003663003663
0.5902963560001808,0.09589743589743589,0.4158241758241758,0.5745787545787545
0.5955193230001896,1.8172161172161172,2.552967032967033,3.1428571428571423
0.597178404997976,1.8172161172161172,2.552967032967033,3.1428571428571423
0.6027820899980725,1.8172161172161172,2.552967032967033,3.1428571428571423
0.6092566369989072,1.8172161172161172,2.552967032967033,3.1428571428571423
0.6133003830000234,1.8172161172161172,2.552967032967033,3.1428571428571423
0.618286413999158,2.5030036630036627,2.5078388278388277,3.3
0.6242822479980532,2.6504761904761907,2.5505494505494504,2.5674725274725274
0.6292991509981221,2.6504761904761907,2.5505494505494504,2.5674725274725274
0.6317174319992773,3.3,3.3,2.8454945054945053
0.6318619300000137,3.3,3.3,2.8454945054945053
0.6393878489980125,3.3,3.3,2.8454945054945053
0.644313038999826,3.3,3.3,2.8454945054945053
0.6487624580004194,3.3,3.3,2.8454945054945053
0.6498299849990872,3.3,3.3,2.8454945054945053
0.6501677300002484,3.3,3.3,2.8454945054945053
0.6582479089993285,3.3,3.3,2.8454945054945053
0.6630401559996244,3.3,3.3,2.8454945054945053
0.6716124279992073,3.3,3.3,2.8454945054945053
0.6778294579999056,0.1104029304029304,0.3964835164835165,0.5157509157509157
0.6816889500005345,0.9476923076923076,1.2660073260073261,2.162124542124542
0.6898699739977019,0.6656410256410257,0.3690842490842491,0.6672527472527472
0.693906035998225,0.6656410256410257,0.3690842490842491,0.6672527472527472
0.6971303770005761,3.3,3.3,3.3
0.6980509550012357,0.7832967032967032,1.021025641025641,1.938095238095238
0.6999831719986105,0.7832967032967032,1.021025641025641,1.938095238095238
0.7028893749993586,1.2257142857142858,1.4231501831501832,1.075018315018315
0.7077786139998352,1.2257142857142858,1.4231501831501832,1.075018315018315
0.7117699070004164,0.6438827838827839,1.3812454212454213,1.7680586080586078
0.7149315309980011,0.8115018315018314,0.726080586080586,0.7534798534798535
0.7179911739985982,2.690769230769231,2.701245421245421,3.3
0.7215532740010531,3.3,3.3,2.776190476190476
0.7265629719986464,0.5955311355311355,0.9613919413919414,0.8106959706959707
0.7305158870003652,0.9356043956043956,0.7244688644688644,1.2224908424908425
0.7349209290005092,0.9356043956043956,0.7244688644688644,1.2224908424908425
0.7353054679988418,0.9323809523809523,1.248278388278388,2.1556776556776556
0.7408033229985449,0.9323809523809523,1.248278388278388,2.1556776556776556
0.7410481059996528,0.9323809523809523,1.248278388278388,2.1556776556776556
0.7465348449986777,0.9323809523809523,1.248278388278388,2.1556776556776556
0.7474261999996088,0.9323809523809523,1.248278388278388,2.1556776556776556
0.7490658759998041,0.9323809523809523,1.248278388278388,2.1556776556776556
0.7559868999996979,0.9323809523809523,1.248278388278388,2.1556776556776556
0.7600302539976838,0.9323809523809523,1.248278388278388,2.1556776556776556
0.7639929539982404,0.9323809523809523,1.248278388278388,2.1556776556776556
0.7701335159981681,0.9323809523809523,1.248278388278388,2.1556776556776556
0.7742749569988518,0.7671794871794871,0.49802197802197795,0.5649084249084249
0.775495382000372,0.7671794871794871,0.49802197802197795,0.5649084249084249
0.7757290529989405,0.7671794871794871,0.49802197802197795,0.5649084249084249
0.7834825509999064,0.7671794871794871,0.49802197802197795,0.5649084249084249
0.7895666149997851,0.7671794871794871,0.49802197802197795,0.5649084249084249
0.7936741119992803,0.7671794871794871,0.49802197802197795,0.5649084249084249
0.7960717599999043,0.7671794871794871,0.49802197802197795,0.5649084249084249
0.7962739079994208,0.7671794871794871,0.49802197802197795,0.5649084249084249
0.8033262399985688,0.7671794871794871,0.49802197802197795,0.5649084249084249
0.8077663479998591,0.7671794871794871,0.49802197802197795,0.5649084249084249
0.808692948998214,0.7671794871794871,0.49802197802197795,0.5649084249084249
0.8096088780002901,0.7671794871794871,0.49802197802197795,0.5649084249084249
0.8114566920012294,0.7671794871794871,0.49802197802197795,0.5649084249084249
0.8145326509984443,0.7671794871794871,0.49802197802197795,0.5649084249084249
0.8183412949983904,0.7671794871794871,0.49802197802197795,0.5649084249084249
0.822428758998285,0.7671794871794871,0.49802197802197795,0.5649084249084249
0.8242035359980946,0.7961904761904761,1.0597069597069597,0.8437362637362636
0.8281296319983085,0.0,0.3997069597069597,0.5141391941391941
0.8319161369981884,0.38278388278388276,0.2917216117216117,0.606007326007326
0.8384259849990485,0.38278388278388276,0.2917216117216117,0.606007326007326
0.8419788200008043,2.328131868131868,2.324102564102564,2.933333333333333
0.8476471309986664,2.328131868131868,2.324102564102564,2.933333333333333
0.8492958930000896,2.328131868131868,2.324102564102564,2.933333333333333
0.8591461770010937,0.904981684981685,0.4996336996336996,0.6019780219780219
0.8682662690007419,0.904981684981685,0.4996336996336996,0.6019780219780219
0.8737062929976673,0.904981684981685,0.4996336996336996,0.6019780219780219
0.8745902740010933,0.904981684981685,0.4996336996336996,0.6019780219780219
0.8755325509991962,0.904981684981685,0.4996336996336996,0.6019780219780219
0.8775637180006015,0.904981684981685,0.4996336996336996,0.6019780219780219
0.8785353359999135,0.904981684981685,0.4996336996336996,0.6019780219780219
0.8794582259979506,0.904981684981685,0.4996336996336996,0.6019780219780219
0.8811258069981704,0.904981684981685,0.4996336996336996,0.6019780219780219
0.888816238999425,0.904981684981685,0.4996336996336996,0.6019780219780219
0.8928264569985913,0.7486446886446886,0.5552380952380952,0.9662271062271062
0.8974135179996665,0.7486446886446886,0.5552380952380952,0.9662271062271062
0.8976901620007993,0.7486446886446886,0.5552380952380952,0.9662271062271062
0.9059679040001356,3.017948717948718,2.772161172161172,2.767326007326007
0.9109737779981515,0.8864468864468864,0.697069597069597,0.9847619047619047
0.9149316869988979,0.8864468864468864,0.697069597069597,0.9847619047619047
0.9212490700010676,0.8864468864468864,0.697069597069597,0.9847619047619047
0.9246210659985081,0.8864468864468864,0.697069597069597,0.9847619047619047
0.9249205919986707,0.8864468864468864,0.697069597069597,0.9847619047619047
0.9300915300009365,0.8864468864468864,0.697069597069597,0.9847619047619047
0.9352678280010878,0.8864468864468864,0.697069597069597,0.9847619047619047
0.9402728989989555,0.8864468864468864,0.697069597069597,0.9847619047619047
0.941725206997944,0.8864468864468864,0.697069597069597,0.9847619047619047
0.9456944769990514,0.8864468864468864,0.697069597069597,0.9847619047619047
0.9500391510009649,2.6762637362637363,2.3539194139194137,3.3
0.95192871999825,2.6762637362637363,2.3539194139194137,3.3
0.953883661000873,2.6762637362637363,2.3539194139194137,3.3
0.9559083309977723,2.6762637362637363,2.3539194139194137,3.3
0.9570361320002121,2.6762637362637363,2.3539194139194137,3.3
0.9572835030012357,2.6762637362637363,2.3539194139194137,3.3
0.9620558110000275,2.6762637362637363,2.3539194139194137,3.3
0.9622123879998981,2.6762637362637363,2.3539194139194137,3.3
0.9679197879995627,2.6762637362637363,2.3539194139194137,3.3
0.9790939999984403,2.6762637362637363,2.3539194139194137,3.3
0.9892760199982149,1.7213186813186814,1.6495970695970694,1.2982417582417582
0.9949688429987873,1.7213186813186814,1.6495970695970694,1.2982417582417582
0.9952720239998598,1.7213186813186814,1.6495970695970694,1.2982417582417582
1.0009830700000748,1.7213186813186814,1.6495970695970694,1.2982417582417582
1.0086175389988057,1.7213186813186814,1.6495970695970694,1.2982417582417582
1.013122560998454,1.7213186813186814,1.6495970695970694,1.2982417582417582
1.015519114000199,1.6689377289377287,1.1024175824175824,1.0975824175824174
1.0223830239992822,1.257142857142857,1.506959706959707,2.4820512820512817
1.0263469540004735,1.257142857142857,1.506959706959707,2.4820512820512817
1.0304165249981452,1.257142857142857,1.506959706959707,2.4820512820512817
1.0348053179986891,0.17326007326007326,0.502051282051282,0.9807326007326007
1.035266775998025,0.17326007326007326,0.502051282051282,0.9807326007326007
1.040069767001114,0.17326007326007326,0.502051282051282,0.9807326007326007
1.0446649469995464,0.17326007326007326,0.502051282051282,0.9807326007326007
1.0449333059987111,0.17326007326007326,0.502051282051282,0.9807326007326007
1.0500349159992766,0.17326007326007326,0.502051282051282,0.9807326007326007
1.055500579001091,2.8793406593406594,3.2387545787545786,2.597289377289377
1.0556656759981706,3.3,3.3,3.3
1.0605862209995394,3.3,3.3,3.3
1.0659691270011535,3.3,3.3,3.3
1.0680824789997132,3.3,3.3,3.3
1.0701388609995774,3.3,3.3,3.3
1.0705220679992635,3.3,3.3,3.3
1.074675859999843,3.3,3.3,3.3
1.0763731240003835,3.3,3.3,3.3
1.080418640998687,3.3,3.3,3.3
1.084646128998429,3.3,3.3,3.3
1.0868845590011915,3.3,3.3,3.3
1.0871164550007961,3.3,3.3,3.3
1.0920079999996233,3.3,3.3,3.3
1.0965945040006773,3.3,3.3,3.3
1.0968131410008937,3.3,3.3,3.3
1.1044628460003878,3.3,3.3,3.3
1.1083087129991327,3.3,3.3,3.3
1.1121134460008761,3.3,3.3,3.3
1.1176894359996368,3.3,3.3,3.3
1.118535415000224,3.3,3.3,3.3
1.1201794859989604,3.3,3.3,3.3
1.125040610000724,3.3,3.3,3.3
1.130158528998436,3.3,3.3,3.3
1.1332690700000967,3.3,3.3,3.3
1.1356426130005275,3.3,3.3,3.3
1.1357940749985573,3.3,3.3,3.3
1.140256849997968,3.3,3.3,3.3
1.1411692580004456,1.274871794871795,0.9758974358974358,0.8663003663003663
1.1427661079978861,1.274871794871795,0.9758974358974358,0.8663003663003663
1.1465724209992914,1.274871794871795,0.9758974358974358,0.8663003663003663
1.1518195059979917,0.02901098901098901,0.46417582417582415,0.5415384615384615
1.1547765169998456,1.1878388278388277,0.83003663003663,0.7027106227106227
1.15788560099827,1.1878388278388277,0.83003663003663,0.7027106227106227
1.1594363109979895,1.1878388278388277,0.83003663003663,0.7027106227106227
1.1641750009985117,1.1878388278388277,0.83003663003663,0.7027106227106227
1.1643453799988492,1.1878388278388277,0.83003663003663,0.7027106227106227
1.1698731830001634,1.1878388278388277,0.83003663003663,0.7027106227106227
1.1701993309980026,1.1878388278388277,0.83003663003663,0.7027106227106227
1.1773026709997794,1.1878388278388277,0.83003663003663,0.7027106227106227
1.1815899299981538,1.1878388278388277,0.83003663003663,0.7027106227106227
1.184137289001228,1.1878388278388277,0.83003663003663,0.7027106227106227
1.1908880279988807,1.1878388278388277,0.83003663003663,0.7027106227106227
1.1947087459993782,1.1878388278388277,0.83003663003663,0.7027106227106227
1.1995112379991042,1.1878388278388277,0.83003663003663,0.7027106227106227
1.2071223450002435,1.1878388278388277,0.83003663003663,0.7027106227106227
1.2117611030007538,0.5874725274725274,0.356996336996337,0.6438827838827839
1.2119020579993958,0.5874725274725274,0.356996336996337,0.6438827838827839
1.2175394719997712,0.5874725274725274,0.356996336996337,0.6438827838827839
1.217705250997824,2.468351648351648,2.90029304029304,3.3
1.2223851779999677,2.468351648351648,2.90029304029304,3.3
1.2226295709988335,2.468351648351648,2.90029304029304,3.3
1.227495988998271,2.468351648351648,2.90029304029304,3.3
1.2331995069980621,3.09047619047619,3.3,2.7624908424908425
1.2341769320009917,0.4214652014652014,1.1257875457875457,1.548058608058608
1.2350895769995986,0.4214652014652014,1.1257875457875457,1.548058608058608
1.236732908000704,0.4214652014652014,1.1257875457875457,1.548058608058608
1.2406735379991005,0.4214652014652014,1.1257875457875457,1.548058608058608
1.2448436679987935,0.7059340659340658,1.1016117216117214,0.7623443223443224
1.2471165239985567,0.8268131868131867,0.3739194139194139,0.7284981684981684
1.2474105209985282,0.8268131868131867,0.3739194139194139,0.7284981684981684
1.252721515000303,0.8268131868131867,0.3739194139194139,0.7284981684981684
1.2558123630005866,3.3,3.3,3.3
1.2582443009996496,3.3,3.3,3.3
1.2583770409983117,3.3,3.3,3.3
1.2629396849988552,3.3,3.3,3.3
1.263261041000078,3.3,3.3,3.3
1.2676714779991016,3.3,3.3,3.3
1.26857356599794,2.8954578754578755,3.257289377289377,3.3
1.270172560998617,2.8954578754578755,3.257289377289377,3.3
1.274883268000849,2.8954578754578755,3.257289377289377,3.3
1.2800416459976987,2.8954578754578755,3.257289377289377,3.3
1.2845260149988462,2.647252747252747,3.3,2.8575824175824174
1.2847862870003155,2.647252747252747,3.3,2.8575824175824174
1.2900460540004133,2.647252747252747,3.3,2.8575824175824174
1.2930680270001176,2.647252747252747,3.3,2.8575824175824174
1.2953539339978306,2.647252747252747,3.3,2.8575824175824174
1.2955515120011114,1.303076923076923,1.7043956043956046,2.605347985347985
1.3000676299998304,1.303076923076923,1.7043956043956046,2.605347985347985
1.3009859009980573,3.3,3.2879120879120878,3.3
1.3019029339993722,3.3,3.2879120879120878,3.3
1.3034726549994957,3.3,3.2879120879120878,3.3
1.307424513001024,3.3,3.2879120879120878,3.3
1.311245233999216,3.3,3.2879120879120878,3.3
1.3156081400011317,3.3,3.2879120879120878,3.3
1.3165528459976485,2.3652014652014652,2.3845421245421243,3.092087912087912
1.3182051839976339,2.3652014652014652,2.3845421245421243,3.092087912087912
1.3212069559995143,2.3652014652014652,2.3845421245421243,3.092087912087912
1.3234999950000201,2.3652014652014652,2.3845421245421243,3.092087912087912
1.3242981719995441,0.06285714285714286,0.4488644688644688,0.5955311355311355
1.3265207609983918,0.06285714285714286,0.4488644688644688,0.5955311355311355
1.3267075830008253,0.06285714285714286,0.4488644688644688,0.5955311355311355
1.331776656999864,0.06285714285714286,0.4488644688644688,0.5955311355311355
1.3361170339994715,1.0895238095238093,0.6841758241758242,0.66
1.3377025199988566,1.0895238095238093,0.6841758241758242,0.66
1.3413619710008788,1.0895238095238093,0.6841758241758242,0.66
1.3415300189990376,2.299120879120879,2.291062271062271,2.0436630036630037
1.346075966997887,2.299120879120879,2.291062271062271,2.0436630036630037
1.3470800799987046,0.10717948717948718,0.4625641025641025,0.5705494505494505
1.3479429590006475,0.10717948717948718,0.4625641025641025,0.5705494505494505
1.3495370829987223,0.10717948717948718,0.4625641025641025,0.5705494505494505
1.353986079000606,0.10717948717948718,0.4625641025641025,0.5705494505494505
1.354907226999785,1.2047619047619047,0.8775824175824175,0.9009523809523808
1.355859978000808,1.2047619047619047,0.8775824175824175,0.9009523809523808
1.3575628580001649,1.2047619047619047,0.8775824175824175,0.9009523809523808
1.3605413219993352,1.2047619047619047,0.8775824175824175,0.9009523809523808
1.3628154609978083,1.2047619047619047,0.8775824175824175,0.9009523809523808
1.3637658879997616,1.2047619047619047,0.8775824175824175,0.9009523809523808
1.3645714220001537,1.2047619047619047,0.8775824175824175,0.9009523809523808
1.3661712699977215,1.2047619047619047,0.8775824175824175,0.9009523809523808
1.3708117290007067,1.9824175824175823,1.7245421245421246,2.8551648351648353
1.3710628720000386,1.9824175824175823,1.7245421245421246,2.8551648351648353
1.3765832499993849,1.9824175824175823,1.7245421245421246,2.8551648351648353
1.3768882119984482,1.9824175824175823,1.7245421245421246,2.8551648351648353
1.3814965540004778,1.9824175824175823,1.7245421245421246,2.8551648351648353
1.3823558910007705,0.10073260073260072,0.39567765567765567,0.5004395604395604
1.3847436039977765,0.10073260073260072,0.39567765567765567,0.5004395604395604
1.3848968149977736,0.10073260073260072,0.39567765567765567,0.5004395604395604
1.3901316560004489,0.10073260073260072,0.39567765567765567,0.5004395604395604
1.394037172998651,0.10073260073260072,0.39567765567765567,0.5004395604395604
1.397659501999442,0.10073260073260072,0.39567765567765567,0.5004395604395604
1.402969987000688,0.10073260073260072,0.39567765567765567,0.5004395604395604
1.4059390439979325,0.10073260073260072,0.39567765567765567,0.5004395604395604
1.408259433999774,0.10073260073260072,0.39567765567765567,0.5004395604395604
1.4084803580008156,1.4304029304029304,2.037216117216117,2.605347985347985
1.4129815489977773,1.4304029304029304,2.037216117216117,2.605347985347985
1.4138626220010337,1.4304029304029304,2.037216117216117,2.605347985347985
1.4147810069989646,3.3,3.111428571428571,3.3
1.416349094997713,3.3,3.111428571428571,3.3
1.4204455229992163,3.3,3.111428571428571,3.3
1.4232139630003076,0.9775091575091575,1.079047619047619,0.942051282051282
1.4272636409987172,0.9775091575091575,1.079047619047619,0.942051282051282
1.4300784939987352,3.3,3.3,2.8277655677655673
1.4341756709982292,3.3,3.3,2.8277655677655673
1.4369978879985865,3.3,3.3,2.8277655677655673
1.4410513609982445,3.3,3.3,2.8277655677655673
1.4444931389989506,2.1911355311355307,2.0057875457875456,1.8671794871794871
1.4447525309988123,2.1911355311355307,2.0057875457875456,1.8671794871794871
1.449435596998228,2.1911355311355307,2.0057875457875456,1.8671794871794871
1.4497189989997423,2.8317948717948713,3.171868131868132,3.3
1.4538736369977414,2.8317948717948713,3.171868131868132,3.3
1.4566824100002123,1.4674725274725273,1.477142857142857,2.3732600732600733
1.460158144000161,1.4674725274725273,1.477142857142857,2.3732600732600733
1.4604715050008963,1.4674725274725273,1.477142857142857,2.3732600732600733
1.4651922049997665,1.4674725274725273,1.477142857142857,2.3732600732600733
1.4653439020003134,1.4674725274725273,1.477142857142857,2.3732600732600733
1.470306293998874,1.4674725274725273,1.477142857142857,2.3732600732600733
1.474726930999168,2.6456410256410257,2.544908424908425,2.5626373626373624
1.4762851749983383,2.6456410256410257,2.544908424908425,2.5626373626373624
1.4806324269993638,2.6456410256410257,2.544908424908425,2.5626373626373624
1.4815219769989199,2.6456410256410257,2.544908424908425,2.5626373626373624
1.4831189830001676,2.6456410256410257,2.544908424908425,2.5626373626373624
1.4882365679986833,2.6456410256410257,2.544908424908425,2.5626373626373624
1.4918996509986755,2.4014652014652014,2.7906959706959706,3.3
1.496349889999692,2.4014652014652014,2.7906959706959706,3.3
1.4980411600008665,2.4014652014652014,2.7906959706959706,3.3
1.501127692998125,2.4014652014652014,2.7906959706959706,3.3
1.503366223998455,2.4014652014652014,2.7906959706959706,3.3
1.503632979998656,2.4014652014652014,2.7906959706959706,3.3
1.508244155000284,2.4014652014652014,2.7906959706959706,3.3
1.5091146459999436,0.9742857142857142,1.6004395604395603,2.067032967032967
1.5108605999994325,0.9742857142857142,1.6004395604395603,2.067032967032967
1.513798639000015,0.9742857142857142,1.6004395604395603,2.067032967032967
1.516697678998753,0.9742857142857142,1.6004395604395603,2.067032967032967
1.5205425919994013,1.0452014652014652,1.1862271062271061,2.2104761904761903
1.5258594500010076,0.9122344322344322,1.1136996336996337,0.8534065934065934
1.5282263539993437,0.5367032967032966,0.35216117216117215,0.5979487179487178
1.528531321000628,0.5367032967032966,0.35216117216117215,0.5979487179487178
1.5337845200010634,0.5367032967032966,0.35216117216117215,0.5979487179487178
1.5365537309990032,0.5367032967032966,0.35216117216117215,0.5979487179487178
1.540673814000911,0.5367032967032966,0.35216117216117215,0.5979487179487178
1.5440669339986925,0.5367032967032966,0.35216117216117215,0.5979487179487178
1.5454741409994313,0.5367032967032966,0.35216117216117215,0.5979487179487178
1.550158685000497,0.5367032967032966,0.35216117216117215,0.5979487179487178
1.5504958029996487,3.3,2.7326739926739925,2.5602197802197804
1.5551148449994798,3.3,2.7326739926739925,2.5602197802197804
1.5553863050008658,2.884981684981685,2.1911355311355307,2.796336996336996
1.5600256680008897,2.884981684981685,2.1911355311355307,2.796336996336996
1.560255591000896,2.884981684981685,2.1911355311355307,2.796336996336996
1.5643306909987587,2.884981684981685,2.1911355311355307,2.796336996336996
1.5677241529992898,0.6696703296703297,0.28930402930402926,0.6680586080586081
1.5685453369987954,0.6696703296703297,0.28930402930402926,0.6680586080586081
1.570770063000964,0.6696703296703297,0.28930402930402926,0.6680586080586081
1.5711334609986807,0.6696703296703297,0.28930402930402926,0.6680586080586081
1.575841401998332,0.6696703296703297,0.28930402930402926,0.6680586080586081
1.5806280539982254,0.6696703296703297,0.28930402930402926,0.6680586080586081
1.5808681899980002,0.6696703296703297,0.28930402930402926,0.6680586080586081
1.585609915000532,0.6696703296703297,0.28930402930402926,0.6680586080586081
1.5856993189991044,0.8243956043956043,0.3771428571428571,0.693040293040293
1.5905053479982598,2.7665201465201466,2.781025641025641,3.3
1.595329761999892,2.7665201465201466,2.781025641025641,3.3
1.5955038489992148,2.7665201465201466,2.781025641025641,3.3
1.6002367789988057,2.7665201465201466,2.781025641025641,3.3
1.6004443300007551,2.7665201465201466,2.781025641025641,3.3
1.605206600001111,2.7665201465201466,2.781025641025641,3.3
1.6053113960006158,2.7665201465201466,2.781025641025641,3.3
1.610069204998581,2.7665201465201466,2.781025641025641,3.3
1.6101958039980673,2.7665201465201466,2.781025641025641,3.3
1.6149405200012552,2.7665201465201466,2.781025641025641,3.3
1.615145826999651,2.7665201465201466,2.781025641025641,3.3
1.6199139470008959,2.7665201465201466,2.781025641025641,3.3
1.6246837449980376,2.46029304029304,2.390989010989011,2.3200732600732596
1.6248071730005904,2.46029304029304,2.390989010989011,2.3200732600732596
1.629508447000262,2.46029304029304,2.390989010989011,2.3200732600732596
1.6296757319978497,2.46029304029304,2.390989010989011,2.3200732600732596
1.6344091879982443,2.46029304029304,2.390989010989011,2.3200732600732596
1.634677442998509,2.46029304029304,2.390989010989011,2.3200732600732596
1.639404524998099,2.46029304029304,2.390989010989011,2.3200732600732596
1.6395439879997866,2.46029304029304,2.390989010989011,2.3200732600732596
1.6442681230000744,2.46029304029304,2.390989010989011,2.3200732600732596
1.644398584998271,0.13538461538461538,0.46659340659340653,0.4174358974358974
1.6491185320010118,0.13538461538461538,0.46659340659340653,0.4174358974358974
1.6494157880006242,3.3,3.3,2.8551648351648353
1.6541443589994742,3.3,3.3,2.8551648351648353
1.6543790139985504,3.2339194139194136,2.921245421245421,3.3
1.6591186149998975,3.2339194139194136,2.921245421245421,3.3
1.6639596809982322,3.2339194139194136,2.921245421245421,3.3
1.664059514998371,3.2339194139194136,2.921245421245421,3.3
1.6689016239979537,3.2339194139194136,2.921245421245421,3.3
1.6742550829985703,0.5383150183150183,0.3698901098901099,0.6261538461538461
1.6762950900010765,0.5383150183150183,0.3698901098901099,0.6261538461538461
1.6778033640002832,0.5383150183150183,0.3698901098901099,0.6261538461538461
1.682489644997986,0.5383150183150183,0.3698901098901099,0.6261538461538461
1.6827371549989039,0.5383150183150183,0.3698901098901099,0.6261538461538461
1.687503632998414,0.5383150183150183,0.3698901098901099,0.6261538461538461
1.6877115549978043,0.5383150183150183,0.3698901098901099,0.6261538461538461
1.6923901330010267,0.5383150183150183,0.3698901098901099,0.6261538461538461
1.693179293000867,0.6229304029304029,0.3344322344322344,0.5786080586080585
1.6952213479999045,0.6229304029304029,0.3344322344322344,0.5786080586080585
1.6975337340008991,0.6293772893772893,1.1322344322344322,2.297509157509157
1.6978000409981178,0.6293772893772893,1.1322344322344322,2.297509157509157
1.703013144000579,0.6293772893772893,1.1322344322344322,2.297509157509157
1.706319753000571,0.3916483516483516,0.28285714285714286,0.5342857142857143
1.7073273300011351,0.14263736263736262,0.5044688644688645,0.5769963369963369
1.7082014929983416,0.14263736263736262,0.5044688644688645,0.5769963369963369
1.7105651710007805,0.14263736263736262,0.5044688644688645,0.5769963369963369
1.7107184209999104,0.14263736263736262,0.5044688644688645,0.5769963369963369
1.7157628889981424,0.14263736263736262,0.5044688644688645,0.5769963369963369
1.7212191489998077,0.14263736263736262,0.5044688644688645,0.5769963369963369
1.722005141000409,0.14263736263736262,0.5044688644688645,0.5769963369963369
1.723525392000738,0.14263736263736262,0.5044688644688645,0.5769963369963369
1.7275488899977063,0.14263736263736262,0.5044688644688645,0.5769963369963369
1.7315472509981191,0.14263736263736262,0.5044688644688645,0.5769963369963369
1.7355102180008544,0.14263736263736262,0.5044688644688645,0.5769963369963369
1.7395194819982862,0.14263736263736262,0.5044688644688645,0.5769963369963369
1.7435685849995934,0.14263736263736262,0.5044688644688645,0.5769963369963369
1.7475163199997041,0.14263736263736262,0.5044688644688645,0.5769963369963369
1.751498397999967,0.14263736263736262,0.5044688644688645,0.5769963369963369
1.7555507910001324,0.14263736263736262,0.5044688644688645,0.5769963369963369
1.7595822139992379,0.14263736263736262,0.5044688644688645,0.5769963369963369
1.7636269579998043,0.14263736263736262,0.5044688644688645,0.5769963369963369
1.766972090001218,0.012893772893772894,0.4424175824175824,0.5632967032967032
1.7684450119995745,2.5094505494505492,2.8390476190476193,3.3
1.7732503949991951,0.9194871794871795,1.303076923076923,1.8695970695970694
1.7733699519994843,0.9194871794871795,1.303076923076923,1.8695970695970694
1.778078577000997,0.9194871794871795,1.303076923076923,1.8695970695970694
1.7781971389995306,2.225787545787546,2.613406593406593,3.3
1.7828819729984389,2.225787545787546,2.613406593406593,3.3
1.783013132000633,2.225787545787546,2.613406593406593,3.3
1.7877538690008805,2.225787545787546,2.613406593406593,3.3
1.7879356390003522,1.4255677655677657,1.54,2.664175824175824
1.7926326269989659,1.4255677655677657,1.54,2.664175824175824
1.7927998209997895,1.4255677655677657,1.54,2.664175824175824
1.7975109899998643,1.4255677655677657,1.54,2.664175824175824
1.7977227720002702,3.2645421245421247,3.008278388278388,3.3
1.8024199909996241,3.2645421245421247,3.008278388278388,3.3
1.802671024997835,2.1589010989010986,2.249157509157509,2.0114285714285716
1.8078736889983702,2.1589010989010986,2.249157509157509,2.0114285714285716
1.8108701739984099,3.291941391941392,3.3,2.851941391941392
1.8131199609997566,0.06124542124542124,0.7953846153846154,1.2506959706959706
1.813403752999875,2.6545054945054947,2.545714285714286,3.3
1.8178558029976557,2.6545054945054947,2.545714285714286,3.3
1.8181978309985425,1.1596336996336996,2.295091575091575,1.7487179487179487
1.822915380998893,1.1596336996336996,2.295091575091575,1.7487179487179487
1.8231695719987329,1.1596336996336996,2.295091575091575,1.7487179487179487
1.8273303360001591,1.1596336996336996,2.295091575091575,1.7487179487179487
1.830060633001267,0.03304029304029304,0.6841758241758242,0.585054945054945
1.8347081469983095,1.3691575091575092,1.0073260073260073,0.8115018315018314
1.8355100669978128,1.3691575091575092,1.0073260073260073,0.8115018315018314
1.8375754599983338,1.3691575091575092,1.0073260073260073,0.8115018315018314
1.8384070049978618,1.3691575091575092,1.0073260073260073,0.8115018315018314
1.8405007529981958,1.3691575091575092,1.0073260073260073,0.8115018315018314
1.8418993619998218,1.3691575091575092,1.0073260073260073,0.8115018315018314
1.8459879469992302,1.3691575091575092,1.0073260073260073,0.8115018315018314
1.8494732139988628,1.3691575091575092,1.0073260073260073,0.8115018315018314
1.8497829669977364,1.3691575091575092,1.0073260073260073,0.8115018315018314
1.8544182219993672,1.3691575091575092,1.0073260073260073,0.8115018315018314
1.8547223700006725,1.3691575091575092,1.0073260073260073,0.8115018315018314
1.8594327190003241,1.3691575091575092,1.0073260073260073,0.8115018315018314
1.8597037979998277,1.3691575091575092,1.0073260073260073,0.8115018315018314
1.864347844999429,1.3691575091575092,1.0073260073260073,0.8115018315018314
1.8645687329990324,2.4780219780219777,2.4554578754578755,1.1733333333333333
1.8691989760009164,2.4780219780219777,2.4554578754578755,1.1733333333333333
1.8700394879997475,2.4780219780219777,2.4554578754578755,1.1733333333333333
1.8715003069992235,2.4780219780219777,2.4554578754578755,1.1733333333333333
1.8762262199998077,2.4780219780219777,2.4554578754578755,1.1733333333333333
1.8764746220003872,2.4780219780219777,2.4554578754578755,1.1733333333333333
1.8811890719989606,2.4780219780219777,2.4554578754578755,1.1733333333333333
1.8813392259980901,2.4780219780219777,2.4554578754578755,1.1733333333333333
1.8862471350003034,2.4780219780219777,2.4554578754578755,1.1733333333333333
1.8903407670004526,2.4780219780219777,2.4554578754578755,1.1733333333333333
1.8938239179988159,2.4780219780219777,2.4554578754578755,1.1733333333333333
1.894145745998685,3.3,3.1565567765567764,3.3
1.8988834629999474,3.3,3.1565567765567764,3.3
1.8989831350008899,3.3,3.1565567765567764,3.3
1.9037780309990922,3.3,3.1565567765567764,3.3
1.9039888570005132,3.3,3.1565567765567764,3.3
1.9087205699979677,3.3,3.1565567765567764,3.3
1.9088568959996337,3.3,3.1565567765567764,3.3
1.9135838420006621,3.3,3.1565567765567764,3.3
1.913707120998879,3.3,3.1565567765567764,3.3
1.9183544129991787,3.3,3.1565567765567764,3.3
1.918572836999374,3.3,3.1565567765567764,3.3
1.9234389299999748,3.3,3.1565567765567764,3.3
1.9283541129989317,3.3,3.1565567765567764,3.3
1.9330885099989246,3.3,3.1565567765567764,3.3
1.9332631350007432,3.3,3.1565567765567764,3.3
1.938029615997948,3.3,2.731062271062271,3.3
1.9381459739997808,3.3,2.731062271062271,3.3
1.9428929790010443,3.3,2.731062271062271,3.3
1.9476590710000892,3.3,2.731062271062271,3.3
1.947795688000042,0.5584615384615385,0.4520879120879121,0.5504029304029303
1.9524442789988825,0.5584615384615385,0.4520879120879121,0.5504029304029303
1.9532546059999731,0.112014652014652,0.8953113553113552,1.4030036630036629
1.9553700629985542,0.112014652014652,0.8953113553113552,1.4030036630036629
1.9568355379997229,0.112014652014652,0.8953113553113552,1.4030036630036629
1.9608872899989365,0.112014652014652,0.8953113553113552,1.4030036630036629
1.9648825519980164,0.112014652014652,0.8953113553113552,1.4030036630036629
1.9689316900003178,0.15633699633699633,0.5890842490842491,0.5657142857142857
1.972717664000811,0.5665201465201465,0.43032967032967034,0.5141391941391941
1.978253428998869,0.5665201465201465,0.43032967032967034,0.5141391941391941
1.9799420759991335,0.5665201465201465,0.43032967032967034,0.5141391941391941
1.9836096209983225,0.5665201465201465,0.43032967032967034,0.5141391941391941
1.9837445089979155,0.5665201465201465,0.43032967032967034,0.5141391941391941
1.988995226998668,0.5665201465201465,0.43032967032967034,0.5141391941391941
1.9922384380006406,0.5665201465201465,0.43032967032967034,0.5141391941391941
1.993805264999537,0.5665201465201465,0.43032967032967034,0.5141391941391941
1.9982931919985276,0.5665201465201465,0.43032967032967034,0.5141391941391941
1.9998282279993873,0.5665201465201465,0.43032967032967034,0.5141391941391941
2.004250530000718,0.5665201465201465,0.43032967032967034,0.5141391941391941
2.0058082819996343,0.5665201465201465,0.43032967032967034,0.5141391941391941
2.0104493149992777,0.5665201465201465,0.43032967032967034,0.5141391941391941
2.0107160599982308,0.5665201465201465,0.43032967032967034,0.5141391941391941
2.015762825998536,0.5665201465201465,0.43032967032967034,0.5141391941391941
2.021013852998294,0.5665201465201465,0.43032967032967034,0.5141391941391941
2.023813928000891,0.5665201465201465,0.43032967032967034,0.5141391941391941
2.0278569729998708,0.5665201465201465,0.43032967032967034,0.5141391941391941
2.031884246000118,0.5665201465201465,0.43032967032967034,0.5141391941391941
2.035269955998956,0.5665201465201465,0.43032967032967034,0.5141391941391941
2.0366820829985954,0.5665201465201465,0.43032967032967034,0.5141391941391941
2.0413711350011,0.5665201465201465,0.43032967032967034,0.5141391941391941
2.042137823998928,0.5665201465201465,0.43032967032967034,0.5141391941391941
2.044232224998268,0.5665201465201465,0.43032967032967034,0.5141391941391941
2.0456798870000057,0.5665201465201465,0.43032967032967034,0.5141391941391941
2.0503775680008403,0.8179487179487179,0.6672527472527472,1.0137728937728938
2.0505943200005277,0.8179487179487179,0.6672527472527472,1.0137728937728938
2.055237043998204,0.8179487179487179,0.6672527472527472,1.0137728937728938
2.0555169449980895,0.8179487179487179,0.6672527472527472,1.0137728937728938
2.060184465997736,0.3344322344322344,1.3417582417582417,1.4247619047619047
2.060440209999797,0.3344322344322344,1.3417582417582417,1.4247619047619047
2.0651968359998136,0.3344322344322344,1.3417582417582417,1.4247619047619047
2.0653647889994318,0.3344322344322344,1.3417582417582417,1.4247619047619047
2.070223441998678,0.3344322344322344,1.3417582417582417,1.4247619047619047
2.075545855997916,0.3344322344322344,1.3417582417582417,1.4247619047619047
2.0778965350000362,0.3344322344322344,1.3417582417582417,1.4247619047619047
2.0781481049998547,0.3344322344322344,1.3417582417582417,1.4247619047619047
2.083457083997928,0.3344322344322344,1.3417582417582417,1.4247619047619047
2.085659243999544,2.307179487179487,2.4828571428571427,1.498095238095238
2.0859349999991537,2.307179487179487,2.4828571428571427,1.498095238095238
2.0905876709985023,2.307179487179487,2.4828571428571427,1.498095238095238
2.090893225999025,2.307179487179487,2.4828571428571427,1.498095238095238
2.095583712998632,2.307179487179487,2.4828571428571427,1.498095238095238
2.095814516000246,2.307179487179487,2.4828571428571427,1.498095238095238
2.1004880250002316,2.307179487179487,2.4828571428571427,1.498095238095238
2.1007402629984426,2.307179487179487,2.4828571428571427,1.498095238095238
2.1052559679992555,2.307179487179487,2.4828571428571427,1.498095238095238
2.1055520480003906,2.307179487179487,2.4828571428571427,1.498095238095238
2.110084111998731,2.307179487179487,2.4828571428571427,1.498095238095238
2.110933790998388,2.307179487179487,2.4828571428571427,1.498095238095238
2.1124503099999856,2.307179487179487,2.4828571428571427,1.498095238095238
2.117130595997878,1.22007326007326,1.2627838827838826,1.0524542124542122
2.1172379630006617,1.22007326007326,1.2627838827838826,1.0524542124542122
2.121989012000995,1.22007326007326,1.2627838827838826,1.0524542124542122
2.127600015999633,1.22007326007326,1.2627838827838826,1.0524542124542122
2.1292610529999365,1.22007326007326,1.2627838827838826,1.0524542124542122
2.1329377809997823,1.22007326007326,1.2627838827838826,1.0524542124542122
2.133087416001217,1.22007326007326,1.2627838827838826,1.0524542124542122
2.1377699289987504,1.22007326007326,1.2627838827838826,1.0524542124542122
2.1379848510005104,1.22007326007326,1.2627838827838826,1.0524542124542122
2.142687431998638,1.22007326007326,1.2627838827838826,1.0524542124542122
2.1428490020007303,2.9647619047619047,2.9728205128205127,2.230622710622711
2.1475024909996137,2.9647619047619047,2.9728205128205127,2.230622710622711
2.1477285090004443,2.9647619047619047,2.9728205128205127,2.230622710622711
2.1524021410004934,2.9647619047619047,2.9728205128205127,2.230622710622711
2.15320268099822,0.8936996336996336,0.6519413919413919,0.6761172161172161
2.155300909998914,0.8936996336996336,0.6519413919413919,0.6761172161172161
2.156756016000145,0.8936996336996336,0.6519413919413919,0.6761172161172161
2.161492265000561,0.8888644688644688,1.6713553113553112,2.332161172161172
2.1617052010005864,0.8888644688644688,1.6713553113553112,2.332161172161172
2.166404601997783,0.8888644688644688,1.6713553113553112,2.332161172161172
2.1665774789980787,0.8888644688644688,1.6713553113553112,2.332161172161172
2.1713487099987105,0.8888644688644688,1.6713553113553112,2.332161172161172
2.1714553749989136,0.8888644688644688,1.6713553113553112,2.332161172161172
2.1762307989993133,0.8888644688644688,1.6713553113553112,2.332161172161172
2.181600129999424,3.3,3.3,3.3
2.1840523600003507,3.3,3.3,3.3
2.189249175000441,3.3,3.3,3.3
2.1920460119981726,3.3,3.3,3.3
2.196533750000526,3.3,3.3,3.3
2.196729963998223,3.3,3.3,3.3
2.2014331440004753,3.3,3.3,3.3
2.201610021998931,3.3,3.3,3.3
2.206320923000021,3.3,3.3,3.3
2.2064828449983906,3.3,3.3,3.3
2.211081990000821,3.3,3.3,3.3
2.21134800100117,3.3,3.3,3.3
2.215783387000556,3.3,3.3,3.3
2.21668110599785,3.3,3.3,3.3
2.2182266659983725,3.3,3.3,3.3
2.221964806998585,3.3,3.3,3.3
2.2265239549997204,3.3,3.3,3.3
2.2275296699990577,0.43435897435897436,0.7631501831501831,0.6680586080586081
2.228408684997703,0.43435897435897436,0.7631501831501831,0.6680586080586081
2.22996055099793,0.43435897435897436,0.7631501831501831,0.6680586080586081
2.234557498999493,0.43435897435897436,0.7631501831501831,0.6680586080586081
2.235415684997861,0.43435897435897436,0.7631501831501831,0.6680586080586081
2.2370273509986873,0.43435897435897436,0.7631501831501831,0.6680586080586081
2.2414307319995714,0.43435897435897436,0.7631501831501831,0.6680586080586081
2.2422503710004094,0.43435897435897436,0.7631501831501831,0.6680586080586081
2.2446443310000177,0.43435897435897436,0.7631501831501831,0.6680586080586081
2.2447973790003743,0.43435897435897436,0.7631501831501831,0.6680586080586081
2.2500260960005107,0.43435897435897436,0.7631501831501831,0.6680586080586081
2.2522955179993005,0.43435897435897436,0.7631501831501831,0.6680586080586081
2.253155094000249,0.43435897435897436,0.7631501831501831,0.6680586080586081
2.254734637001093,0.43435897435897436,0.7631501831501831,0.6680586080586081
2.258789704999799,0.43435897435897436,0.7631501831501831,0.6680586080586081
2.2621801099994627,0.43435897435897436,0.7631501831501831,0.6680586080586081
2.2635841310002434,0.43435897435897436,0.7631501831501831,0.6680586080586081
2.268301531999896,0.43435897435897436,0.7631501831501831,0.6680586080586081
2.2690385239984607,0.43435897435897436,0.7631501831501831,0.6680586080586081
2.27178720899974,0.43435897435897436,0.7631501831501831,0.6680586080586081
2.275217992999387,0.43435897435897436,0.7631501831501831,0.6680586080586081
2.276710499998444,2.6682051282051282,2.5521611721611723,3.3
2.2808452319986827,2.6682051282051282,2.5521611721611723,3.3
2.2835971130007238,2.6682051282051282,2.5521611721611723,3.3
2.2876655789987126,2.6682051282051282,2.5521611721611723,3.3
2.2903969580002013,2.6682051282051282,2.5521611721611723,3.3
2.294390893999662,2.6682051282051282,2.5521611721611723,3.3
2.297779722000996,2.6682051282051282,2.5521611721611723,3.3
2.29814608399829,2.6682051282051282,2.5521611721611723,3.3
2.3028208739997353,2.6682051282051282,2.5521611721611723,3.3
2.3029539050003223,2.6682051282051282,2.5521611721611723,3.3
2.308213936001266,2.6682051282051282,2.5521611721611723,3.3
2.3113990759993612,2.6682051282051282,2.5521611721611723,3.3
2.3122706200010725,2.6682051282051282,2.5521611721611723,3.3
2.3138876570010325,2.6682051282051282,2.5521611721611723,3.3
2.3177693449979415,2.6682051282051282,2.5521611721611723,3.3
2.321482612998807,2.6682051282051282,2.5521611721611723,3.3
2.326690949001204,2.6682051282051282,2.5521611721611723,3.3
2.32943375999821,2.6682051282051282,2.5521611721611723,3.3
2.3329195660007827,0.9775091575091575,0.45369963369963373,0.751062271062271
2.333296069999051,0.9775091575091575,0.45369963369963373,0.751062271062271
2.337969221000094,0.9775091575091575,0.45369963369963373,0.751062271062271
2.3381922769985977,0.9775091575091575,0.45369963369963373,0.751062271062271
2.342874508998648,0.9775091575091575,0.45369963369963373,0.751062271062271
2.3431403590002446,0.9775091575091575,0.45369963369963373,0.751062271062271
2.3478003089985577,0.9775091575091575,0.45369963369963373,0.751062271062271
2.347918486000708,0.9775091575091575,0.45369963369963373,0.751062271062271
2.3525864309995086,0.9775091575091575,0.45369963369963373,0.751062271062271
2.3528921639990585,0.9775091575091575,0.45369963369963373,0.751062271062271
2.357578825998644,0.9775091575091575,0.45369963369963373,0.751062271062271
2.35787267699925,0.9775091575091575,0.45369963369963373,0.751062271062271
2.362582598998415,0.9775091575091575,0.45369963369963373,0.751062271062271
2.3627898759987147,0.9775091575091575,0.45369963369963373,0.751062271062271
2.367472424997686,0.9775091575091575,0.45369963369963373,0.751062271062271
2.3677115430000413,0.9775091575091575,0.45369963369963373,0.751062271062271
2.3725217200008046,0.9775091575091575,0.45369963369963373,0.751062271062271
2.3727430119979545,0.9775091575091575,0.45369963369963373,0.751062271062271
2.377551351000875,0.9775091575091575,0.45369963369963373,0.751062271062271
2.3776679239999794,0.9775091575091575,0.45369963369963373,0.751062271062271
2.382526240999141,0.9775091575091575,0.45369963369963373,0.751062271062271
2.387218487998325,1.1386813186813185,2.01062271062271,1.0645421245421245
2.387397010999848,1.1386813186813185,2.01062271062271,1.0645421245421245
2.392138822000561,1.1386813186813185,2.01062271062271,1.0645421245421245
2.392256205999729,1.5166300366300365,1.5891575091575092,1.2660073260073261
2.396931659000984,1.5166300366300365,1.5891575091575092,1.2660073260073261
2.3971978909976315,1.5166300366300365,1.5891575091575092,1.2660073260073261
2.4018599880000693,1.5166300366300365,1.5891575091575092,1.2660073260073261
2.4020100489979086,1.5166300366300365,1.5891575091575092,1.2660073260073261
2.406702927997685,1.5166300366300365,1.5891575091575092,1.2660073260073261
2.4068567699978303,1.5166300366300365,1.5891575091575092,1.2660073260073261
2.41151747999902,1.5166300366300365,1.5891575091575092,1.2660073260073261
2.411709002000862,1.5166300366300365,1.5891575091575092,1.2660073260073261
2.4163888020011655,1.5166300366300365,1.5891575091575092,1.2660073260073261
2.4166447579991654,2.655311355311355,2.5521611721611723,2.5481318681318683
2.4213969740012544,2.655311355311355,2.5521611721611723,2.5481318681318683
2.4215236460004235,1.5158241758241757,2.281391941391941,1.1435164835164835
2.426327388999198,1.5158241758241757,2.281391941391941,1.1435164835164835
2.4311878609987616,1.5158241758241757,2.281391941391941,1.1435164835164835
2.436142077000113,1.5158241758241757,2.281391941391941,1.1435164835164835
2.4416236549986934,1.5158241758241757,2.281391941391941,1.1435164835164835
2.442400240997813,2.594065934065934,2.8374358974358973,2.016263736263736
2.444499270997767,2.594065934065934,2.8374358974358973,2.016263736263736
2.4452600149998034,2.594065934065934,2.8374358974358973,2.016263736263736
2.4474003549985355,2.594065934065934,2.8374358974358973,2.016263736263736
2.4482085070012545,2.594065934065934,2.8374358974358973,2.016263736263736
2.4497094559992547,2.594065934065934,2.8374358974358973,2.016263736263736
2.4538313429984555,2.594065934065934,2.8374358974358973,2.016263736263736
2.4572386110012303,2.594065934065934,2.8374358974358973,2.016263736263736
2.4580014950006444,2.594065934065934,2.8374358974358973,2.016263736263736
2.4594965719988977,2.594065934065934,2.8374358974358973,2.016263736263736
2.4641763680010627,2.3974358974358974,2.6923809523809523,1.8607326007326006
2.46437017900098,2.3974358974358974,2.6923809523809523,1.8607326007326006
2.4691174319996207,2.3974358974358974,2.6923809523809523,1.8607326007326006
2.46924678600044,2.3974358974358974,2.6923809523809523,1.8607326007326006
2.474064250000083,2.3974358974358974,2.6923809523809523,1.8607326007326006
2.478885099000763,2.3974358974358974,2.6923809523809523,1.8607326007326006
2.483612676998746,2.3974358974358974,2.6923809523809523,1.8607326007326006
2.4838141330001235,2.3974358974358974,2.6923809523809523,1.8607326007326006
2.4885646369984897,2.3974358974358974,2.6923809523809523,1.8607326007326006
2.4886848690002807,2.3974358974358974,2.6923809523809523,1.8607326007326006
2.4933882000004814,2.3974358974358974,2.6923809523809523,1.8607326007326006
2.493609421999281,2.3974358974358974,2.6923809523809523,1.8607326007326006
2.498035019998497,2.3974358974358974,2.6923809523809523,1.8607326007326006
2.499603060998197,2.3974358974358974,2.6923809523809523,1.8607326007326006
2.5030471789978037,2.3974358974358974,2.6923809523809523,1.8607326007326006
2.50380616899929,2.3974358974358974,2.6923809523809523,1.8607326007326006
2.5052685070004372,2.3974358974358974,2.6923809523809523,1.8607326007326006
2.5100391439991654,2.3974358974358974,2.6923809523809523,1.8607326007326006
2.510203960999206,2.3974358974358974,2.6923809523809523,1.8607326007326006
2.5143673790007597,2.3974358974358974,2.6923809523809523,1.8607326007326006
2.517143050998129,2.3974358974358974,2.6923809523809523,1.8607326007326006
2.521218014000624,2.3974358974358974,2.6923809523809523,1.8607326007326006
2.5240058279996447,2.3974358974358974,2.6923809523809523,1.8607326007326006
2.52750055299839,2.3974358974358974,2.6923809523809523,1.8607326007326006
2.5277292819992,2.3974358974358974,2.6923809523809523,1.8607326007326006
2.532480077999935,2.3974358974358974,2.6923809523809523,1.8607326007326006
2.532596277000266,2.3974358974358974,2.6923809523809523,1.8607326007326006
2.5372554509995098,2.3974358974358974,2.6923809523809523,1.8607326007326006
2.5374714019999374,2.3974358974358974,2.6923809523809523,1.8607326007326006
2.542143253998802,2.3974358974358974,2.6923809523809523,1.8607326007326006
2.5423399770006654,2.3974358974358974,2.6923809523809523,1.8607326007326006
2.5470163639984094,2.3974358974358974,2.6923809523809523,1.8607326007326006
2.5471976090011594,2.3974358974358974,2.6923809523809523,1.8607326007326006
2.5518598319977173,3.3,3.3,2.840659340659341
2.5520302439981606,3.3,3.3,2.840659340659341
2.5568695020010637,3.3,3.3,2.840659340659341
2.5617039520002436,3.3,3.3,2.840659340659341
2.566464980998717,3.3,3.3,2.840659340659341
2.5666761040010897,3.3,3.3,2.840659340659341
2.5716812339996977,3.3,3.3,2.840659340659341
2.576309346000926,3.3,3.3,2.840659340659341
2.57659304399931,3.3,3.3,2.840659340659341
2.581117178000568,3.3,3.3,2.840659340659341
2.5813804179997533,3.3,3.3,2.840659340659341
2.5858496359978744,3.3,3.3,2.840659340659341
2.5866902409979957,3.3,3.3,2.840659340659341
2.5882699149988184,3.3,3.3,2.840659340659341
2.5928475569999136,3.3,3.3,2.840659340659341
2.5930787389988836,3.3,3.3,2.840659340659341
2.5985939349993714,3.3,3.3,2.840659340659341
2.5988872239977354,2.6762637362637363,2.565054945054945,2.5747252747252745
2.6035465669992846,3.3,3.3,3.3
2.603871685998456,3.3,3.3,3.3
2.6084673069999553,3.3,3.3,3.3
2.608742489999713,3.3,3.3,3.3
2.61333854500117,3.3,3.3,3.3
2.6136118760005047,3.3,3.3,3.3
2.6180800820002332,3.3,3.3,3.3
2.618957472001057,2.6714285714285713,2.5715018315018314,2.573113553113553
2.6205661069980124,2.6714285714285713,2.5715018315018314,2.573113553113553
2.6248074840004847,2.6714285714285713,2.5715018315018314,2.573113553113553
2.6263081729994155,2.6714285714285713,2.5715018315018314,2.573113553113553
2.630378132998885,2.6714285714285713,2.5715018315018314,2.573113553113553
2.6331523480002943,2.8019780219780217,3.3,3.3
2.637172817998362,2.8019780219780217,3.3,3.3
2.6405966550009907,2.8019780219780217,3.3,3.3
2.640882870000496,2.8019780219780217,3.3,3.3
2.645519614998193,2.8019780219780217,3.3,3.3
2.6457292240011157,2.8019780219780217,3.3,3.3
2.6503786979992583,2.8019780219780217,3.3,3.3
2.65059562299939,3.3,2.8374358974358973,2.5642490842490844
2.655234191999625,3.3,2.8374358974358973,2.5642490842490844
2.6554732549993787,3.3,2.8374358974358973,2.5642490842490844
2.660188277997804,3.3,2.8374358974358973,2.5642490842490844
2.6603450699985842,3.3,2.8374358974358973,2.5642490842490844
2.665023214998655,1.0097435897435898,1.9066666666666663,1.075018315018315
2.6651821009982086,0.5657142857142857,0.42710622710622714,0.5939194139194138
2.669860531001177,0.5657142857142857,0.42710622710622714,0.5939194139194138
2.6701430339999206,0.5657142857142857,0.42710622710622714,0.5939194139194138
2.6748910770002112,0.5657142857142857,0.42710622710622714,0.5939194139194138
2.6751319249997323,0.5657142857142857,0.42710622710622714,0.5939194139194138
2.679838217998622,0.5657142857142857,0.42710622710622714,0.5939194139194138
2.6801558139995905,0.5657142857142857,0.42710622710622714,0.5939194139194138
2.6842355339977075,0.5657142857142857,0.42710622710622714,0.5939194139194138
2.688261262999731,0.5657142857142857,0.42710622710622714,0.5939194139194138
2.6917204609999317,0.5657142857142857,0.42710622710622714,0.5939194139194138
2.692497308999009,0.5657142857142857,0.42710622710622714,0.5939194139194138
2.694588329999533,0.5657142857142857,0.42710622710622714,0.5939194139194138
2.696038484999008,0.5657142857142857,0.42710622710622714,0.5939194139194138
2.7020883199984382,0.5657142857142857,0.42710622710622714,0.5939194139194138
2.706509757001186,0.5657142857142857,0.42710622710622714,0.5939194139194138
2.708059502998367,0.5657142857142857,0.42710622710622714,0.5939194139194138
2.7132634369991138,0.5657142857142857,0.42710622710622714,0.5939194139194138
2.7169017819978762,0.5657142857142857,0.42710622710622714,0.5939194139194138
2.717003304998798,0.5657142857142857,0.42710622710622714,0.5939194139194138
2.7221621349999623,0.5657142857142857,0.42710622710622714,0.5939194139194138
2.725931970999227,0.5657142857142857,0.42710622710622714,0.5939194139194138
2.73122149199844,0.5657142857142857,0.42710622710622714,0.5939194139194138
2.734311447999062,0.5657142857142857,0.42710622710622714,0.5939194139194138
2.7366104319989972,0.5657142857142857,0.42710622710622714,0.5939194139194138
2.736875966998923,0.5657142857142857,0.42710622710622714,0.5939194139194138
2.7422206939991156,0.5657142857142857,0.42710622710622714,0.5939194139194138
2.745375217000401,0.5657142857142857,0.42710622710622714,0.5939194139194138
2.7476881980001053,0.5657142857142857,0.42710622710622714,0.5939194139194138
2.7478938329986704,0.5657142857142857,0.42710622710622714,0.5939194139194138
2.752936773998954,0.5657142857142857,0.42710622710622714,0.5939194139194138
2.758600231998571,3.3,2.7906959706959706,2.6343589743589746
2.7587871850009833,2.6577289377289377,2.5586080586080584,2.5666666666666664
2.7634586919994035,2.6577289377289377,2.5586080586080584,2.5666666666666664
2.7636866590000864,2.6577289377289377,2.5586080586080584,2.5666666666666664
2.7681224179978017,2.6577289377289377,2.5586080586080584,2.5666666666666664
2.769025170000532,2.6577289377289377,2.5586080586080584,2.5666666666666664
2.7707784039994294,2.6577289377289377,2.5586080586080584,2.5666666666666664
2.773758789000567,2.6577289377289377,2.5586080586080584,2.5666666666666664
2.7760266439981933,2.6577289377289377,2.5586080586080584,2.5666666666666664
2.7763232329998573,2.6577289377289377,2.5586080586080584,2.5666666666666664
2.7809133080008905,2.6577289377289377,2.5586080586080584,2.5666666666666664
2.7812566949978645,2.6577289377289377,2.5586080586080584,2.5666666666666664
2.785850224998285,2.6577289377289377,2.5586080586080584,2.5666666666666664
2.7861559160010074,2.6577289377289377,2.5586080586080584,2.5666666666666664
2.7906367069990665,2.6577289377289377,2.5586080586080584,2.5666666666666664
2.791514943000948,0.41340659340659336,1.515018315018315,1.71003663003663
2.7931262089987285,0.41340659340659336,1.515018315018315,1.71003663003663
2.799072712998168,3.3,3.3,3.3
2.805425759001082,3.3,3.3,3.3
2.809202649001236,3.3,3.3,3.3
2.8144618529986474,3.3,3.3,3.3
2.8167310319986427,3.3,2.8326007326007323,2.5553846153846154
2.81693493900093,3.3,2.8326007326007323,2.5553846153846154
2.821648549001111,3.3,2.8326007326007323,2.5553846153846154
2.821885242999997,2.423223443223443,3.1299633699633698,2.73992673992674
2.826522733001184,2.423223443223443,3.1299633699633698,2.73992673992674
2.8275781629999983,2.423223443223443,3.1299633699633698,2.73992673992674
2.8278715109991026,2.423223443223443,3.1299633699633698,2.73992673992674
2.832579177000298,2.423223443223443,3.1299633699633698,2.73992673992674
2.8327919069997733,2.423223443223443,3.1299633699633698,2.73992673992674
2.837484667001263,2.423223443223443,3.1299633699633698,2.73992673992674
2.837737013000151,2.423223443223443,3.1299633699633698,2.73992673992674
2.8423555980007222,2.644029304029304,2.5432967032967033,2.552967032967033
2.843158018000395,0.4383882783882784,1.0258608058608059,0.7655677655677655
2.8455214139976306,0.4383882783882784,1.0258608058608059,0.7655677655677655
2.845623387998785,0.4383882783882784,1.0258608058608059,0.7655677655677655
2.8510775930008094,0.7953846153846154,0.51010989010989,0.7284981684981684
2.8534725419995084,0.7953846153846154,0.51010989010989,0.7284981684981684
2.853638078999211,0.7953846153846154,0.51010989010989,0.7284981684981684
2.8582943250003154,0.7953846153846154,0.51010989010989,0.7284981684981684
2.85860971099828,0.5367032967032966,1.3546520146520145,1.4086446886446886
2.8633803599987004,0.5367032967032966,1.3546520146520145,1.4086446886446886
2.8636326029991324,0.5367032967032966,1.3546520146520145,1.4086446886446886
2.868478264997975,0.5367032967032966,1.3546520146520145,1.4086446886446886
2.8787365139978647,1.2821245421245422,1.9904761904761903,2.2314285714285713
2.8922873259980406,1.2821245421245422,1.9904761904761903,2.2314285714285713
2.902243016000284,3.3,2.8366300366300368,2.54974358974359
2.9112993519993324,3.0026373626373624,2.5505494505494504,3.3
2.9180265680006414,3.0026373626373624,2.5505494505494504,3.3
2.9221063340010005,3.0026373626373624,2.5505494505494504,3.3
2.924695101999532,3.0026373626373624,2.5505494505494504,3.3
2.9301616739976453,3.0026373626373624,2.5505494505494504,3.3
2.9334473589988193,0.7623443223443224,0.5544322344322344,0.7558974358974359
2.933682916998805,0.8840293040293039,1.4924542124542124,1.1709157509157508
2.940742455997679,0.8840293040293039,1.4924542124542124,1.1709157509157508
2.9454612000008638,0.8840293040293039,1.4924542124542124,1.1709157509157508
2.946328206999169,0.8840293040293039,1.4924542124542124,1.1709157509157508
2.9481454209999356,0.8840293040293039,1.4924542124542124,1.1709157509157508
2.9514281659976405,0.8840293040293039,1.4924542124542124,1.1709157509157508
2.9518659220011614,0.8840293040293039,1.4924542124542124,1.1709157509157508
2.9556488769994758,0.8840293040293039,1.4924542124542124,1.1709157509157508
2.960286802997871,0.8840293040293039,1.4924542124542124,1.1709157509157508
2.9605872190004447,0.8840293040293039,1.4924542124542124,1.1709157509157508
2.9652788149978733,0.8840293040293039,1.4924542124542124,1.1709157509157508
2.965619186998083,0.8356776556776556,0.7494505494505495,0.7478388278388278
2.9725839829989127,0.8356776556776556,0.7494505494505495,0.7478388278388278
2.977357681000285,1.0564835164835162,1.3876923076923076,1.016996336996337
2.9774645899997267,0.45692307692307693,1.4972893772893772,1.4473260073260072
2.9820865279980353,0.45692307692307693,1.4972893772893772,1.4473260073260072
2.9833794689984643,3.3,3.3,3.3
2.9897759259984014,3.3,3.3,3.3
2.9937574729992775,3.3,3.3,3.3
2.9968124410006567,3.3,3.3,3.3
2.999998798000888,3.3,3.3,3.3
3.001676833999227,3.3,3.3,3.3
3.005446438997751,3.3,3.3,3.3
3.0099457939977583,0.06608058608058608,0.755091575091575,0.7615384615384615
3.011519538998982,0.06608058608058608,0.755091575091575,0.7615384615384615
3.015154470998823,0.06608058608058608,0.755091575091575,0.7615384615384615
3.015304587999708,0.06608058608058608,0.755091575091575,0.7615384615384615
3.0225612639987958,0.06608058608058608,0.755091575091575,0.7615384615384615
3.027131491999171,0.06608058608058608,0.755091575091575,0.7615384615384615
3.02813643799891,3.227472527472527,3.3,2.8471062271062273
3.029015944997809,3.227472527472527,3.3,2.8471062271062273
3.0299273620003078,3.227472527472527,3.3,2.8471062271062273
3.0315300910006044,3.227472527472527,3.3,2.8471062271062273
3.0371225729977596,3.227472527472527,3.3,2.8471062271062273
3.0424772429978475,3.3,2.748791208791209,3.3
3.0449509589998343,3.3,2.748791208791209,3.3
3.0517071600006602,3.3,2.748791208791209,3.3
3.0568061439989833,3.3,2.748791208791209,3.3
3.0606178769994585,3.3,2.748791208791209,3.3
3.06445985100072,3.3,2.748791208791209,3.3
3.070817375999468,0.7333333333333333,0.4029304029304029,0.6358241758241758
3.073876898997696,0.007252747252747252,0.5761904761904761,0.5931135531135531
3.076893340999959,2.6536996336996337,2.557802197802198,2.5481318681318683
3.079228147998947,2.6536996336996337,2.557802197802198,2.5481318681318683
3.07947977799995,2.655311355311355,2.565054945054945,2.565054945054945
3.08513405299891,1.3014652014652013,2.4747985347985346,1.58996336996337
3.0854621549988224,0.1643956043956044,1.1314285714285715,0.6857875457875457
3.089918706999015,0.1643956043956044,1.1314285714285715,0.6857875457875457
3.090174572000251,0.1643956043956044,1.1314285714285715,0.6857875457875457
3.094891872999142,0.1643956043956044,1.1314285714285715,0.6857875457875457
3.095147793999786,0.1643956043956044,1.1314285714285715,0.6857875457875457
3.1022329379993607,0.1643956043956044,1.1314285714285715,0.6857875457875457
3.105680553999264,0.0,0.7849084249084248,0.6785347985347985
3.105856557998777,0.0,0.7849084249084248,0.6785347985347985
3.111266488998808,0.0,0.7849084249084248,0.6785347985347985
3.114287933000014,0.10073260073260072,1.2893772893772892,1.7277655677655677
3.1180116010000347,0.10073260073260072,1.2893772893772892,1.7277655677655677
3.1220544450006855,0.10073260073260072,1.2893772893772892,1.7277655677655677
3.12597132099836,0.10073260073260072,1.2893772893772892,1.7277655677655677
3.1298557080008322,0.10073260073260072,1.2893772893772892,1.7277655677655677
3.135142889997951,0.10073260073260072,1.2893772893772892,1.7277655677655677
3.1394757659982133,1.544029304029304,1.4908424908424909,1.0661538461538462
3.1396339620005165,1.544029304029304,1.4908424908424909,1.0661538461538462
3.144135422000545,1.544029304029304,1.4908424908424909,1.0661538461538462
3.1450115400002687,1.544029304029304,1.4908424908424909,1.0661538461538462
3.1465733160002856,1.544029304029304,1.4908424908424909,1.0661538461538462
3.1529836379995686,1.544029304029304,1.4908424908424909,1.0661538461538462
3.1562535160010157,0.9122344322344322,0.39890109890109887,0.809084249084249
3.157815734997712,0.9122344322344322,0.39890109890109887,0.809084249084249
3.1616481809978723,0.9122344322344322,0.39890109890109887,0.809084249084249
3.167025086000649,0.9122344322344322,0.39890109890109887,0.809084249084249
3.1697631909992197,0.9122344322344322,0.39890109890109887,0.809084249084249
3.1735303759996896,0.9122344322344322,0.39890109890109887,0.809084249084249
3.180272656998568,0.9122344322344322,0.39890109890109887,0.809084249084249
3.1874636219981767,0.9122344322344322,0.39890109890109887,0.809084249084249
3.1934647470006894,0.9122344322344322,0.39890109890109887,0.809084249084249
3.1990395139982866,0.9122344322344322,0.39890109890109887,0.809084249084249
3.1993017380009405,0.9122344322344322,0.39890109890109887,0.809084249084249
3.2066709479986457,0.9122344322344322,0.39890109890109887,0.809084249084249
3.210497131000011,1.398168498168498,1.826886446886447,1.1402930402930402
3.215270712000347,1.398168498168498,1.826886446886447,1.1402930402930402
3.215501516999211,1.398168498168498,1.826886446886447,1.1402930402930402
3.2216208030004054,1.398168498168498,1.826886446886447,1.1402930402930402
3.2253956710010243,1.398168498168498,1.826886446886447,1.1402930402930402
3.2305115220005973,1.398168498168498,1.826886446886447,1.1402930402930402
3.233970118999423,2.6746520146520147,2.561831501831502,2.5674725274725274
3.234232370999962,2.6746520146520147,2.561831501831502,2.5674725274725274
3.239614845999313,2.6746520146520147,2.561831501831502,2.5674725274725274
3.2404861069990147,2.677069597069597,2.5682783882783884,2.5763369963369964
3.2421066419992712,2.677069597069597,2.5682783882783884,2.5763369963369964
3.2462131030006276,2.677069597069597,2.5682783882783884,2.5763369963369964
3.2485911170006148,2.677069597069597,2.5682783882783884,2.5763369963369964
3.248784796000109,2.677069597069597,2.5682783882783884,2.5763369963369964
3.2562708810000913,2.677069597069597,2.5682783882783884,2.5763369963369964
3.2600579309983004,2.677069597069597,2.5682783882783884,2.5763369963369964
3.2645537799980957,2.677069597069597,2.5682783882783884,2.5763369963369964
3.2653994930005865,2.677069597069597,2.5682783882783884,2.5763369963369964
3.267930706999323,2.677069597069597,2.5682783882783884,2.5763369963369964
3.273325506997935,2.677069597069597,2.5682783882783884,2.5763369963369964
3.2749033359978057,2.677069597069597,2.5682783882783884,2.5763369963369964
3.278157390999695,2.655311355311355,2.5553846153846154,2.552967032967033
3.279844216998754,2.655311355311355,2.5553846153846154,2.552967032967033
3.284055026000715,3.2709890109890107,3.1976556776556775,2.702051282051282
3.2869976929978293,3.2709890109890107,3.1976556776556775,2.702051282051282
3.2890721799994935,3.2709890109890107,3.1976556776556775,2.702051282051282
3.2902156739983184,3.2709890109890107,3.1976556776556775,2.702051282051282
3.290397208998911,3.2709890109890107,3.1976556776556775,2.702051282051282
3.294946138998057,3.2709890109890107,3.1976556776556775,2.702051282051282
3.295271574999788,3.2709890109890107,3.1976556776556775,2.702051282051282
3.300710497998807,3.2709890109890107,3.1976556776556775,2.702051282051282
3.30237158700038,3.2709890109890107,3.1976556776556775,2.702051282051282
3.3058669739984907,3.2709890109890107,3.1976556776556775,2.702051282051282
3.3114108179979667,3.2709890109890107,3.1976556776556775,2.702051282051282
3.3123076669980946,3.2709890109890107,3.1976556776556775,2.702051282051282
3.313243144999433,3.2709890109890107,3.1976556776556775,2.702051282051282
3.3149349390005227,3.2709890109890107,3.1976556776556775,2.702051282051282
3.3206996839981002,3.2709890109890107,3.1976556776556775,2.702051282051282
3.325197352998657,3.2709890109890107,3.1976556776556775,2.702051282051282
3.3254597179984557,3.2709890109890107,3.1976556776556775,2.702051282051282
3.3299730859980627,3.2709890109890107,3.1976556776556775,2.702051282051282
3.330380712999613,3.2709890109890107,3.1976556776556775,2.702051282051282
3.3373739019989443,3.2709890109890107,3.1976556776556775,2.702051282051282
3.341259128999809,2.6609523809523807,2.561025641025641,2.5545787545787544
3.3451571209989197,2.6609523809523807,2.561025641025641,2.5545787545787544
3.349763399000949,2.6609523809523807,2.561025641025641,2.5545787545787544
3.3501235490002728,2.6609523809523807,2.561025641025641,2.5545787545787544
3.355794433999108,0.8783882783882784,0.5600732600732601,0.7421978021978022
3.361222176998126,1.7189010989010989,1.788205128205128,1.4207326007326007
3.3628940569979022,0.9742857142857142,1.810769230769231,1.02021978021978
3.3670682669981034,0.9742857142857142,1.810769230769231,1.02021978021978
3.369154340998648,0.9742857142857142,1.810769230769231,1.02021978021978
3.3701695560012013,0.12087912087912088,0.8195604395604396,1.2660073260073261
3.3710398039984284,0.12087912087912088,0.8195604395604396,1.2660073260073261
3.3726744089981366,0.12087912087912088,0.8195604395604396,1.2660073260073261
3.3766777210003056,0.12087912087912088,0.8195604395604396,1.2660073260073261
3.3796454859984806,2.273333333333333,2.9994139194139193,3.3
3.382662419000553,2.655311355311355,2.5594139194139194,2.5706959706959704
3.3874295099994924,2.655311355311355,2.5594139194139194,2.5706959706959704
3.3914903049990244,2.655311355311355,2.5594139194139194,2.5706959706959704
3.393139740001061,2.655311355311355,2.5594139194139194,2.5706959706959704
3.397056865000195,2.655311355311355,2.5594139194139194,2.5706959706959704
3.4038674879993778,2.6649816849816848,2.553772893772894,2.56989010989011
3.4080794740002602,2.6649816849816848,2.553772893772894,2.56989010989011
3.409714088000328,0.4802930402930403,0.5133333333333333,0.722051282051282
3.4134224480003468,0.6704761904761904,0.37875457875457874,0.8945054945054944
3.4135678950005968,0.6704761904761904,0.37875457875457874,0.8945054945054944
3.420329855998716,0.6704761904761904,0.37875457875457874,0.8945054945054944
3.4234432669982198,0.6704761904761904,0.37875457875457874,0.8945054945054944
3.4258341249988007,0.6704761904761904,0.37875457875457874,0.8945054945054944
3.426144705998013,0.6704761904761904,0.37875457875457874,0.8945054945054944
3.4316998180001974,0.6704761904761904,0.37875457875457874,0.8945054945054944
3.432165801998053,0.6704761904761904,0.37875457875457874,0.8945054945054944
3.440374993999285,0.6704761904761904,0.37875457875457874,0.8945054945054944
3.4448565909988247,0.6704761904761904,0.37875457875457874,0.8945054945054944
3.4451982739992673,0.6704761904761904,0.37875457875457874,0.8945054945054944
3.4539468080001825,0.6704761904761904,0.37875457875457874,0.8945054945054944
3.4589545210001233,0.6704761904761904,0.37875457875457874,0.8945054945054944
3.4633931780008425,1.7624175824175823,2.9776556776556777,2.177435897435897
3.4637198710006487,1.7624175824175823,2.9776556776556777,2.177435897435897
3.4698520109996025,1.7624175824175823,2.9776556776556777,2.177435897435897
3.475097932998324,2.8938461538461535,3.3,3.3
3.4774806259993056,1.378021978021978,1.3457875457875457,1.0057142857142858
3.4777248879981926,0.5012454212454212,1.3756043956043955,1.688278388278388
3.483515455998713,2.6722344322344322,2.5715018315018314,2.577142857142857
3.48375295599908,2.6722344322344322,2.5715018315018314,2.577142857142857
3.4915887850002036,2.6722344322344322,2.5715018315018314,2.577142857142857
3.4965892969994457,2.6722344322344322,2.5715018315018314,2.577142857142857
3.503693423997902,2.6504761904761907,2.552967032967033,3.3
3.5094488639988413,2.6504761904761907,2.552967032967033,3.3
3.516139065999596,2.6504761904761907,2.552967032967033,3.3
3.522531013000844,2.6504761904761907,2.552967032967033,3.3
3.5276273720010067,2.6504761904761907,2.552967032967033,3.3
3.5300258839997696,2.6504761904761907,2.552967032967033,3.3
3.5302497659977234,2.6504761904761907,2.552967032967033,3.3
3.5391741460007324,2.6504761904761907,2.552967032967033,3.3
3.5461310780010535,2.6504761904761907,2.552967032967033,3.3
3.552635445998021,2.6504761904761907,2.552967032967033,3.3
3.558125175000896,2.6504761904761907,2.552967032967033,3.3
3.558435611997993,2.6504761904761907,2.552967032967033,3.3
3.567845028999727,2.6504761904761907,2.552967032967033,3.3
3.575188127000729,2.6504761904761907,2.552967032967033,3.3
3.581012679998821,1.4223443223443224,1.6632967032967032,1.2764835164835164
3.5890849440002057,1.4223443223443224,1.6632967032967032,1.2764835164835164
3.5962399569980334,1.4223443223443224,1.6632967032967032,1.2764835164835164
3.6028203729983943,1.498095238095238,1.5923809523809522,1.2603663003663002
3.6087222280002607,1.498095238095238,1.5923809523809522,1.2603663003663002
3.613730442000815,1.498095238095238,1.5923809523809522,1.2603663003663002
3.62211402200046,1.498095238095238,1.5923809523809522,1.2603663003663002
3.6263158549991203,2.6649816849816848,2.5553846153846154,2.553772893772894
3.628608091999922,2.6649816849816848,2.5553846153846154,2.553772893772894
3.6289176819991553,2.6649816849816848,2.5553846153846154,2.553772893772894
3.636071954999352,2.6649816849816848,2.5553846153846154,2.553772893772894
3.6406919629989716,3.254065934065934,3.3,2.913186813186813
3.646037015998445,3.254065934065934,3.3,2.913186813186813
3.651244807999319,0.051575091575091575,0.5923076923076923,0.5624908424908425
3.6525816729990765,0.051575091575091575,0.5923076923076923,0.5624908424908425
3.658931105001102,0.051575091575091575,0.5923076923076923,0.5624908424908425
3.6639799990007305,0.051575091575091575,0.5923076923076923,0.5624908424908425
3.6692960119980853,0.051575091575091575,0.5923076923076923,0.5624908424908425
3.6706454409977596,0.051575091575091575,0.5923076923076923,0.5624908424908425
3.6759212619981554,0.051575091575091575,0.5923076923076923,0.5624908424908425
3.6783140750012535,0.051575091575091575,0.5923076923076923,0.5624908424908425
3.6784850340009143,0.051575091575091575,0.5923076923076923,0.5624908424908425
3.6863128029981453,0.051575091575091575,0.5923076923076923,0.5624908424908425
3.691036771000654,0.051575091575091575,0.5923076923076923,0.5624908424908425
3.691191871999763,0.051575091575091575,0.5923076923076923,0.5624908424908425
3.697982983998372,0.051575091575091575,0.5923076923076923,0.5624908424908425
3.7051250479999,0.051575091575091575,0.5923076923076923,0.5624908424908425
3.7087393660003727,0.051575091575091575,0.5923076923076923,0.5624908424908425
3.7146341999978176,0.051575091575091575,0.5923076923076923,0.5624908424908425
3.714981485998578,1.8035164835164832,1.6076923076923075,1.4465201465201465
3.7205182389989204,1.8035164835164832,1.6076923076923075,1.4465201465201465
3.7213544240003102,1.8035164835164832,1.6076923076923075,1.4465201465201465
3.7230057829983707,1.8035164835164832,1.6076923076923075,1.4465201465201465
3.726943769001082,1.8035164835164832,1.6076923076923075,1.4465201465201465
3.730841042000975,0.4819047619047619,0.7687912087912088,0.788937728937729
3.738228447000438,1.8454212454212453,1.7116483516483516,1.5013186813186812
3.7425130650008214,2.6714285714285713,2.5505494505494504,2.5561904761904763
3.7441669309991994,0.8743589743589744,1.5448351648351648,0.9186813186813186
3.748988225001085,0.8743589743589744,1.5448351648351648,0.9186813186813186
3.755726797000534,0.8743589743589744,1.5448351648351648,0.9186813186813186
3.7610337389996857,0.8743589743589744,1.5448351648351648,0.9186813186813186
3.7626045799988788,0.8743589743589744,1.5448351648351648,0.9186813186813186
3.7691392509987054,1.1580219780219778,1.6544322344322344,0.9887912087912087
3.7727274889984983,1.1580219780219778,1.6544322344322344,0.9887912087912087
3.778607352000108,1.1580219780219778,1.6544322344322344,0.9887912087912087
3.778902129000926,1.1580219780219778,1.6544322344322344,0.9887912087912087
3.7873679750009615,1.1580219780219778,1.6544322344322344,0.9887912087912087
3.7924439540001913,1.1580219780219778,1.6544322344322344,0.9887912087912087
3.795525462999649,1.1580219780219778,1.6544322344322344,0.9887912087912087
3.7971468229989114,1.7221245421245421,2.7898901098901097,2.1766300366300366
3.8034829739990528,1.7221245421245421,2.7898901098901097,2.1766300366300366
3.8066062689977116,1.7221245421245421,2.7898901098901097,2.1766300366300366
3.8088940369998454,1.7221245421245421,2.7898901098901097,2.1766300366300366
3.8090403319984034,1.7221245421245421,2.7898901098901097,2.1766300366300366
3.815295824999339,1.7221245421245421,2.7898901098901097,2.1766300366300366
3.820966867999232,1.7221245421245421,2.7898901098901097,2.1766300366300366
3.8264540470008797,1.7221245421245421,2.7898901098901097,2.1766300366300366
3.8279992429997947,1.7221245421245421,2.7898901098901097,2.1766300366300366
3.8317293110012542,1.7221245421245421,2.7898901098901097,2.1766300366300366
3.8388238750012533,1.7221245421245421,2.7898901098901097,2.1766300366300366
3.8434286909978255,1.7221245421245421,2.7898901098901097,2.1766300366300366
3.844292552999832,1.7221245421245421,2.7898901098901097,2.1766300366300366
3.8458614250012033,1.7221245421245421,2.7898901098901097,2.1766300366300366
3.852072259000124,1.7221245421245421,2.7898901098901097,2.1766300366300366
3.856258670999523,0.9581684981684981,0.48835164835164835,0.7752380952380952
3.8571088620010414,0.9581684981684981,0.48835164835164835,0.7752380952380952
3.858743669999967,0.9581684981684981,0.48835164835164835,0.7752380952380952
3.863526165998337,3.3,3.3,3.1573626373626373
3.8745342869988235,3.3,3.3,3.1573626373626373
3.8808591839988367,3.3,3.3,3.1573626373626373
3.886282872997981,2.681098901098901,2.56989010989011,2.5795604395604395
3.887779116001184,0.4553113553113553,0.5350915750915751,0.7204395604395604
3.8944796190007764,2.647252747252747,2.561831501831502,2.569084249084249
3.901051943001221,1.3562637362637362,2.402271062271062,2.8019780219780217
3.905517642000632,1.3562637362637362,2.402271062271062,2.8019780219780217
3.914716577000945,1.3562637362637362,2.402271062271062,2.8019780219780217
3.9253078549991187,1.3804395604395605,1.216043956043956,0.9476923076923076
3.9332788989995606,0.03304029304029304,0.622124542124542,0.7027106227106227
3.940840474999277,0.03304029304029304,0.622124542124542,0.7027106227106227
3.9481886940011464,2.6536996336996337,2.5441025641025643,2.552967032967033
3.955476537998038,0.0,0.6914285714285714,0.759120879120879
3.9608479130001797,0.0,0.6914285714285714,0.759120879120879
3.9612685020001663,2.655311355311355,2.5586080586080584,2.5666666666666664
3.9700122739996004,2.655311355311355,2.5586080586080584,2.5666666666666664
3.976062761998037,2.655311355311355,2.5586080586080584,2.5666666666666664
3.982427735998499,2.655311355311355,2.5586080586080584,2.5666666666666664
3.9875550260003365,2.655311355311355,2.5586080586080584,2.5666666666666664
3.990595294999366,2.655311355311355,2.5586080586080584,2.5666666666666664
3.9922763649992703,2.655311355311355,2.5586080586080584,2.5666666666666664
3.996903002000181,2.655311355311355,2.5586080586080584,2.5666666666666664
4.005498455000634,2.46029304029304,3.2943589743589743,3.3
4.01006208599938,2.46029304029304,3.2943589743589743,3.3
4.010912990997895,2.46029304029304,3.2943589743589743,3.3
4.011836245001177,2.46029304029304,3.2943589743589743,3.3
4.0135584979980194,2.46029304029304,3.2943589743589743,3.3
4.017666210998868,2.46029304029304,3.2943589743589743,3.3
4.020710420998512,2.46029304029304,3.2943589743589743,3.3
4.022258973000135,2.46029304029304,3.2943589743589743,3.3
4.026142216000153,2.46029304029304,3.2943589743589743,3.3
4.030570909999369,0.9605860805860806,0.3876190476190476,0.6914285714285714
4.030878256999131,0.9605860805860806,0.3876190476190476,0.6914285714285714
4.037344857999415,0.9605860805860806,0.3876190476190476,0.6914285714285714
4.04108035399986,0.7712087912087912,2.2217582417582418,1.955018315018315
4.046424947999185,0.7712087912087912,2.2217582417582418,1.955018315018315
4.051266657999804,0.7712087912087912,2.2217582417582418,1.955018315018315
4.055520401998365,0.7712087912087912,2.2217582417582418,1.955018315018315
4.057293740999739,3.3,3.3,3.3
4.060337105998769,3.3,3.3,3.3
4.061937848000525,3.3,3.3,3.3
4.066300726997724,3.3,3.3,3.3
4.067758977998892,3.3,3.3,3.3
4.072251908997714,3.3,3.3,3.3
4.072506025000621,1.4706959706959708,1.3788278388278388,1.0411721611721612
4.076996429001156,1.4706959706959708,1.3788278388278388,1.0411721611721612
4.078025135000644,1.4706959706959708,1.3788278388278388,1.0411721611721612
4.078868438999052,1.4706959706959708,1.3788278388278388,1.0411721611721612
4.079778539999097,1.4706959706959708,1.3788278388278388,1.0411721611721612
4.081704505999369,2.9712087912087912,3.2685714285714287,2.888205128205128
4.086052005997772,2.9712087912087912,3.2685714285714287,2.888205128205128
4.086286125999322,2.9712087912087912,3.2685714285714287,2.888205128205128
4.091123596997932,2.9712087912087912,3.2685714285714287,2.888205128205128
4.095931423998991,1.6592673992673992,2.8511355311355313,3.1686446886446884
4.102498608001042,1.6592673992673992,2.8511355311355313,3.1686446886446884
4.105752947998553,2.655311355311355,2.5521611721611723,2.5513553113553114
4.106667607000418,2.655311355311355,2.5521611721611723,2.5513553113553114
4.10846450399913,2.655311355311355,2.5521611721611723,2.5513553113553114
4.111900673000491,2.655311355311355,2.5521611721611723,2.5513553113553114
4.11207210199791,2.655311355311355,2.5521611721611723,2.5513553113553114
4.118444094998267,2.655311355311355,2.5521611721611723,2.5513553113553114
4.121742544000881,2.655311355311355,2.5521611721611723,2.5513553113553114
4.122598778998508,2.655311355311355,2.5521611721611723,2.5513553113553114
4.124159660001169,2.655311355311355,2.5521611721611723,2.5513553113553114
4.128064290998736,2.655311355311355,2.5521611721611723,2.5513553113553114
4.132289326000318,2.655311355311355,2.5521611721611723,2.5513553113553114
4.134508793998975,1.2732600732600732,0.9944322344322343,0.8735531135531135
4.1348025080005755,1.2732600732600732,0.9944322344322343,0.8735531135531135
4.139330343998154,1.2732600732600732,0.9944322344322343,0.8735531135531135
4.1402464599996165,1.2732600732600732,0.9944322344322343,0.8735531135531135
4.142137136001111,1.2732600732600732,0.9944322344322343,0.8735531135531135
4.144516495998687,1.2732600732600732,0.9944322344322343,0.8735531135531135
4.14465541699974,1.2732600732600732,0.9944322344322343,0.8735531135531135
4.149849679997715,1.2732600732600732,0.9944322344322343,0.8735531135531135
4.154400187999272,1.2732600732600732,0.9944322344322343,0.8735531135531135
4.15453236599933,1.2732600732600732,0.9944322344322343,0.8735531135531135
4.162904388998868,1.2732600732600732,0.9944322344322343,0.8735531135531135
4.16997271999935,0.43677655677655675,1.7414652014652015,1.46021978021978
4.17327811299765,0.27238095238095233,0.5971428571428571,0.70996336996337
4.17436005700074,0.27238095238095233,0.5971428571428571,0.70996336996337
4.174652458001219,2.6504761904761907,2.552967032967033,2.5465201465201464
4.179204526000831,2.6504761904761907,2.552967032967033,2.5465201465201464
4.1800959530010005,2.6504761904761907,2.552967032967033,2.5465201465201464
4.182411421999859,2.6504761904761907,2.552967032967033,2.5465201465201464
4.191438114998164,2.6504761904761907,2.552967032967033,2.5465201465201464
4.197401551999064,3.3,2.73992673992674,2.5626373626373624
4.204653491000499,3.3,2.73992673992674,2.5626373626373624
4.208561458999611,2.66014652014652,2.5642490842490844,2.573919413919414
4.214672604000953,2.6150183150183146,2.3087912087912086,3.2943589743589743
4.220161845998518,1.2635897435897436,1.2047619047619047,0.9162637362637363
4.220452449000732,1.2635897435897436,1.2047619047619047,0.9162637362637363
4.224890360997961,1.2635897435897436,1.2047619047619047,0.9162637362637363
4.225725070999033,1.2635897435897436,1.2047619047619047,0.9162637362637363
4.2275909279996995,1.2635897435897436,1.2047619047619047,0.9162637362637363
4.229874639000627,1.2635897435897436,1.2047619047619047,0.9162637362637363
4.2311314059988945,1.2635897435897436,1.2047619047619047,0.9162637362637363
4.23798659699969,1.2635897435897436,1.2047619047619047,0.9162637362637363
4.24193331800052,1.2635897435897436,1.2047619047619047,0.9162637362637363
4.245744938998541,1.2635897435897436,1.2047619047619047,0.9162637362637363
4.250722654000128,1.2635897435897436,1.2047619047619047,0.9162637362637363
4.255211751999013,2.9647619047619047,3.0646886446886445,3.3
4.255529924997973,2.9647619047619047,3.0646886446886445,3.3
4.260087042999658,2.9647619047619047,3.0646886446886445,3.3
4.2608955440009595,2.9647619047619047,3.0646886446886445,3.3
4.262397552000039,2.9647619047619047,3.0646886446886445,3.3
4.268897098998423,2.9647619047619047,3.0646886446886445,3.3
4.272204508997675,2.9647619047619047,3.0646886446886445,3.3
4.274095884000417,1.5617582417582416,1.3643223443223442,1.0967765567765566
4.276421342998219,1.5617582417582416,1.3643223443223442,1.0967765567765566
4.27661118800097,1.5617582417582416,1.3643223443223442,1.0967765567765566
4.281191055000818,1.5617582417582416,1.3643223443223442,1.0967765567765566
4.2815045549978095,1.5617582417582416,1.3643223443223442,1.0967765567765566
4.287815751999005,1.5617582417582416,1.3643223443223442,1.0967765567765566
4.291812060000666,0.39003663003663,0.7945787545787546,0.788937728937729
4.295762399000523,0.39003663003663,0.7945787545787546,0.788937728937729
4.300330105998,0.39003663003663,0.7945787545787546,0.788937728937729
4.300568366001244,2.1234432234432234,2.4014652014652014,1.8244688644688645
4.3064706299992395,2.1234432234432234,2.4014652014652014,1.8244688644688645
4.310289722998277,2.1234432234432234,2.4014652014652014,1.8244688644688645
4.315260530998785,1.0073260073260073,0.6463003663003662,0.751062271062271
4.321506557000248,1.0073260073260073,0.6463003663003662,0.751062271062271
4.325363995998487,1.0073260073260073,0.6463003663003662,0.751062271062271
4.330955274999724,1.0073260073260073,0.6463003663003662,0.751062271062271
4.3312098659989715,1.0073260073260073,0.6463003663003662,0.751062271062271
4.337986590999208,1.0073260073260073,0.6463003663003662,0.751062271062271
4.342693226997653,1.0073260073260073,0.6463003663003662,0.751062271062271
4.342952104998403,1.0073260073260073,0.6463003663003662,0.751062271062271
4.348469026997918,0.9775091575091575,0.361025641025641,0.6358241758241758
4.349467600997741,2.739120879120879,2.4054945054945054,3.3
4.350980535000417,2.739120879120879,2.4054945054945054,3.3
4.356257629999163,2.739120879120879,2.4054945054945054,3.3
4.357368011998915,2.739120879120879,2.4054945054945054,3.3
4.357698035000794,2.739120879120879,2.4054945054945054,3.3
4.367303819999506,2.739120879120879,2.4054945054945054,3.3
4.37556857799791,1.2515018315018314,1.813992673992674,1.2547252747252746
4.383445485000266,1.2515018315018314,1.813992673992674,1.2547252747252746
4.388283288000821,1.2515018315018314,1.813992673992674,1.2547252747252746
4.391768659999798,1.2515018315018314,1.813992673992674,1.2547252747252746
4.391995942998619,1.2515018315018314,1.813992673992674,1.2547252747252746
4.397273085000052,1.2515018315018314,1.813992673992674,1.2547252747252746
4.400363398999616,2.6649816849816848,2.5481318681318683,2.552967032967033
4.402761854998971,2.6649816849816848,2.5481318681318683,2.552967032967033
4.407948650998151,1.5166300366300365,2.01062271062271,1.357069597069597
4.412000225998781,3.3,2.834212454212454,2.5666666666666664
4.415210233997641,3.3,2.834212454212454,2.5666666666666664
4.417290145000152,3.3,2.834212454212454,2.5666666666666664
4.4189241450003465,3.3,2.834212454212454,2.5666666666666664
4.422052949998033,3.3,2.834212454212454,2.5666666666666664
4.425039456000377,3.3,2.834212454212454,2.5666666666666664
4.427459517999523,3.3,2.834212454212454,2.5666666666666664
4.4275880999994115,3.3,2.834212454212454,2.5666666666666664
4.432641531999252,3.3,2.834212454212454,2.5666666666666664
4.439524260000326,1.2297435897435898,1.3288644688644689,1.0435897435897434
4.442780421999487,1.2297435897435898,1.3288644688644689,1.0435897435897434
4.443678812000144,1.2297435897435898,1.3288644688644689,1.0435897435897434
4.445362934999139,1.2297435897435898,1.3288644688644689,1.0435897435897434
4.448545789000491,1.2297435897435898,1.3288644688644689,1.0435897435897434
4.451709695000318,1.2297435897435898,1.3288644688644689,1.0435897435897434
4.451922559997911,1.2297435897435898,1.3288644688644689,1.0435897435897434
4.458198878000985,1.2297435897435898,1.3288644688644689,1.0435897435897434
4.461980580999807,1.2297435897435898,1.3288644688644689,1.0435897435897434
4.467422514000646,0.28849816849816845,0.6511355311355311,0.7293040293040293
4.469297382998775,0.28849816849816845,0.6511355311355311,0.7293040293040293
4.471060687999852,0.28849816849816845,0.6511355311355311,0.7293040293040293
4.4745169220004755,1.382051282051282,1.1386813186813185,0.9299633699633699
4.474636369999644,1.382051282051282,1.1386813186813185,0.9299633699633699
4.4790996219999215,2.9905494505494503,3.3,2.8954578754578755
4.481515110001055,1.0637362637362637,2.3515018315018312,2.0146520146520146
4.488390017999336,1.0637362637362637,2.3515018315018312,2.0146520146520146
4.492787777999183,1.0637362637362637,2.3515018315018312,2.0146520146520146
4.495491296998807,1.0637362637362637,2.3515018315018312,2.0146520146520146
4.500767212997744,1.0637362637362637,2.3515018315018312,2.0146520146520146
4.50349264399847,1.0637362637362637,2.3515018315018312,2.0146520146520146
4.506541512000695,1.0637362637362637,2.3515018315018312,2.0146520146520146
4.508901953999157,0.17567765567765567,0.7494505494505495,0.7921611721611721
4.509138352001173,0.17567765567765567,0.7494505494505495,0.7921611721611721
4.514756219999981,0.17567765567765567,0.7494505494505495,0.7921611721611721
4.5150491960012005,0.17567765567765567,0.7494505494505495,0.7921611721611721
4.522085866999987,0.17567765567765567,0.7494505494505495,0.7921611721611721
4.526668292997783,0.17567765567765567,0.7494505494505495,0.7921611721611721
4.526874999999563,0.17567765567765567,0.7494505494505495,0.7921611721611721
4.532664540998667,0.17567765567765567,0.7494505494505495,0.7921611721611721
4.532837327999005,0.17567765567765567,0.7494505494505495,0.7921611721611721
4.539535424999485,0.17567765567765567,0.7494505494505495,0.7921611721611721
4.5434010329991,0.17567765567765567,0.7494505494505495,0.7921611721611721
4.548578182999336,0.5093040293040293,1.2853479853479852,0.929157509157509
4.553371580001112,0.5093040293040293,1.2853479853479852,0.929157509157509
4.556938009998703,0.5093040293040293,1.2853479853479852,0.929157509157509
4.557098548000795,0.5093040293040293,1.2853479853479852,0.929157509157509
4.562371404001169,0.5093040293040293,1.2853479853479852,0.929157509157509
4.56483730599939,0.5093040293040293,1.2853479853479852,0.929157509157509
4.565040393998061,0.5093040293040293,1.2853479853479852,0.929157509157509
4.571327196001221,0.5093040293040293,1.2853479853479852,0.929157509157509
4.575048388000141,0.5093040293040293,1.2853479853479852,0.929157509157509
4.575201445000857,0.5093040293040293,1.2853479853479852,0.929157509157509
4.580438274999324,0.5093040293040293,1.2853479853479852,0.929157509157509
4.585741900998983,0.5093040293040293,1.2853479853479852,0.929157509157509
4.586629277000611,0.5093040293040293,1.2853479853479852,0.929157509157509
4.5875211089987715,0.5093040293040293,1.2853479853479852,0.929157509157509
4.589098421998642,0.5093040293040293,1.2853479853479852,0.929157509157509
4.593745973001205,0.5093040293040293,1.2853479853479852,0.929157509157509
4.593978861001233,0.5093040293040293,1.2853479853479852,0.929157509157509
4.598944491997827,0.5093040293040293,1.2853479853479852,0.929157509157509
4.606922840997868,0.5093040293040293,1.2853479853479852,0.929157509157509
4.610892426000646,3.2290842490842486,3.3,3.3
4.6146229000005405,3.2290842490842486,3.3,3.3
4.621435482000379,2.6504761904761907,2.5513553113553114,3.3
4.625129695999931,2.6504761904761907,2.5513553113553114,3.3
4.625356114000169,0.6583882783882784,0.48835164835164835,0.6229304029304029
4.629780380000739,0.6583882783882784,0.48835164835164835,0.6229304029304029
4.633233871998527,0.6583882783882784,0.48835164835164835,0.6229304029304029
4.6399533029980375,0.6583882783882784,0.48835164835164835,0.6229304029304029
4.643879504001234,0.6583882783882784,0.48835164835164835,0.6229304029304029
4.647786821999034,0.6583882783882784,0.48835164835164835,0.6229304029304029
4.654726468001172,0.3199267399267399,0.42710622710622714,0.6616117216117217
4.6585507889976725,0.3199267399267399,0.42710622710622714,0.6616117216117217
4.65864493099798,0.3199267399267399,0.42710622710622714,0.6616117216117217
4.663845225000841,0.3199267399267399,0.42710622710622714,0.6616117216117217
4.6698573270005,0.3199267399267399,0.5238095238095237,0.726080586080586
4.673570629998721,0.07494505494505493,0.7397802197802198,1.1733333333333333
4.67809190099797,0.07494505494505493,0.7397802197802198,1.1733333333333333
4.678966332998243,2.652087912087912,2.553772893772894,3.3
4.68058068299797,2.652087912087912,2.553772893772894,3.3
4.686571031998028,2.652087912087912,2.553772893772894,3.3
4.691010726997774,2.652087912087912,2.553772893772894,3.3
4.691952695000509,2.652087912087912,2.553772893772894,3.3
4.693556954000087,2.652087912087912,2.553772893772894,3.3
4.697485305998271,2.652087912087912,2.553772893772894,3.3
4.701655736000248,2.652087912087912,2.553772893772894,3.3
4.703628594001202,2.652087912087912,2.553772893772894,3.3
4.705450680998183,2.652087912087912,2.553772893772894,3.3
4.708961452997755,2.652087912087912,2.553772893772894,3.3
4.71502089400019,2.652087912087912,2.553772893772894,3.3
4.721043435998581,2.652087912087912,2.553772893772894,3.3
4.724867230997916,2.652087912087912,2.553772893772894,3.3
4.729299644001003,2.652087912087912,2.553772893772894,3.3
4.730945362000057,3.1219047619047617,3.3,2.8535531135531134
4.73627892299919,3.1219047619047617,3.3,2.8535531135531134
4.737493083001027,3.1219047619047617,3.3,2.8535531135531134
4.737656377001258,3.1219047619047617,3.3,2.8535531135531134
4.742273650001152,3.1219047619047617,3.3,2.8535531135531134
4.742508765000821,3.1219047619047617,3.3,2.8535531135531134
4.7469989439996425,3.1219047619047617,3.3,2.8535531135531134
4.748147013000562,0.018534798534798533,0.6430769230769231,0.6882051282051282
4.748648075001256,0.018534798534798533,0.6430769230769231,0.6882051282051282
4.755131046000315,0.018534798534798533,0.6430769230769231,0.6882051282051282
4.759051475000888,2.6536996336996337,2.556996336996337,2.5481318681318683
4.763666275001015,2.6536996336996337,2.556996336996337,2.5481318681318683
4.763858084999811,2.6536996336996337,2.556996336996337,2.5481318681318683
4.7709642209993035,2.6536996336996337,2.556996336996337,2.5481318681318683
4.7749053669977,3.3,3.3,2.844688644688645
4.778722389997711,3.3,3.3,2.844688644688645
4.787023525997938,3.3,3.3,2.844688644688645
4.792922942000587,3.3,3.3,2.844688644688645
4.797789520998776,3.3,3.3,2.844688644688645
4.805857758998172,2.652087912087912,2.5521611721611723,2.5481318681318683
4.810171551998792,2.740732600732601,2.8793406593406594,2.3652014652014652
4.812740951998421,2.740732600732601,2.8793406593406594,2.3652014652014652
4.821169699000166,1.7180952380952381,1.822051282051282,1.4795604395604396
4.827727413998218,1.353040293040293,2.7584615384615385,2.2088644688644687
4.834265348999907,1.353040293040293,2.7584615384615385,2.2088644688644687
4.838553986999614,1.353040293040293,2.7584615384615385,2.2088644688644687
4.838823426998715,1.353040293040293,2.7584615384615385,2.2088644688644687
4.84757341400109,1.353040293040293,2.7584615384615385,2.2088644688644687
4.854773062001186,1.353040293040293,2.7584615384615385,2.2088644688644687
4.859264383998379,1.36996336996337,1.353040293040293,1.0774358974358973
4.860805192998669,1.36996336996337,1.353040293040293,1.0774358974358973
4.864502096999786,1.36996336996337,1.353040293040293,1.0774358974358973
4.876350276001176,1.36996336996337,1.353040293040293,1.0774358974358973
4.88612498799921,1.36996336996337,1.353040293040293,1.0774358974358973
4.891475325999636,2.7238095238095235,3.167838827838828,3.3
4.894242780999775,2.7238095238095235,3.167838827838828,3.3
4.897457643000962,2.7238095238095235,3.167838827838828,3.3
4.900430560999666,2.7238095238095235,3.167838827838828,3.3
4.902634321999358,2.7238095238095235,3.167838827838828,3.3
4.902938659997744,2.7238095238095235,3.167838827838828,3.3
4.90749762699852,2.7238095238095235,3.167838827838828,3.3
4.908503081998788,2.7238095238095235,3.167838827838828,3.3
4.908794588998717,2.7238095238095235,3.167838827838828,3.3
4.91334178499892,2.7238095238095235,3.167838827838828,3.3
4.914254367999092,1.6850549450549448,1.7124542124542126,1.415091575091575
4.916848029999528,2.6617582417582417,2.561831501831502,2.552967032967033
4.921707642999536,2.6617582417582417,2.561831501831502,2.552967032967033
4.925442371000827,2.6617582417582417,2.561831501831502,2.552967032967033
4.9310790929994255,0.15875457875457877,0.66,0.7478388278388278
4.932854552000208,2.9816849816849818,3.248424908424908,3.3
4.935176463000971,2.9816849816849818,3.248424908424908,3.3
4.935372731000825,2.9816849816849818,3.248424908424908,3.3
4.94026098500035,2.9816849816849818,3.248424908424908,3.3
4.945834676000231,2.9816849816849818,3.248424908424908,3.3
4.946073726998293,2.9816849816849818,3.248424908424908,3.3
4.953481333999662,2.9816849816849818,3.248424908424908,3.3
4.957280730999628,2.9816849816849818,3.248424908424908,3.3
4.9620627609983785,0.37150183150183147,1.539194139194139,1.4537728937728938
4.969183716999396,0.37150183150183147,1.539194139194139,1.4537728937728938
4.973052347999328,3.3,2.787472527472527,2.5561904761904763
4.977796772000147,3.3,2.787472527472527,2.5561904761904763
4.984326549998514,3.3,2.787472527472527,2.5561904761904763
4.987810042999627,3.3,2.787472527472527,2.5561904761904763
4.987976135998906,3.3,2.787472527472527,2.5561904761904763
4.992584974999772,3.3,2.787472527472527,2.5561904761904763
4.992835342000035,3.3,2.787472527472527,2.5561904761904763
5.000258159998339,3.3,2.787472527472527,2.5561904761904763
5.0048453620001965,3.3,2.787472527472527,2.5561904761904763
5.010324832001061,3.3,2.787472527472527,2.5561904761904763
5.0113933789980365,3.3,2.787472527472527,2.5561904761904763
5.01221153699953,3.3,2.787472527472527,2.5561904761904763
5.013924750001024,1.8333333333333333,1.8051282051282052,1.46021978021978
5.019824186998449,1.8333333333333333,1.8051282051282052,1.46021978021978
5.023857389998739,1.1846153846153846,1.967106227106227,2.8914285714285715
5.026084156001161,1.1846153846153846,1.967106227106227,2.8914285714285715
5.026408014000481,1.1846153846153846,1.967106227106227,2.8914285714285715
5.031757034998009,1.1846153846153846,1.967106227106227,2.8914285714285715
5.035771131999354,1.1846153846153846,1.967106227106227,2.8914285714285715
5.036740305000421,1.1846153846153846,1.967106227106227,2.8914285714285715
5.037703228997998,1.1846153846153846,1.967106227106227,2.8914285714285715
5.038602734999586,1.1846153846153846,1.967106227106227,2.8914285714285715
5.040200329000072,1.1846153846153846,1.967106227106227,2.8914285714285715
5.0447255479994055,1.1846153846153846,1.967106227106227,2.8914285714285715
5.044969457998377,1.1846153846153846,1.967106227106227,2.8914285714285715
5.0510462329984875,1.1846153846153846,1.967106227106227,2.8914285714285715
5.0598691790000885,1.1846153846153846,1.967106227106227,2.8914285714285715
5.066229420997843,1.1846153846153846,1.967106227106227,2.8914285714285715
5.069988974999433,1.1846153846153846,1.967106227106227,2.8914285714285715
5.074073851999856,1.2063736263736262,0.767985347985348,0.6672527472527472
5.078183598998294,1.7011721611721609,1.6326739926739926,1.3216117216117216
5.0805791599996155,1.7011721611721609,1.6326739926739926,1.3216117216117216
5.080684204000136,1.7011721611721609,1.6326739926739926,1.3216117216117216
5.0849432709983375,1.7011721611721609,1.6326739926739926,1.3216117216117216
5.087219568998989,1.7011721611721609,1.6326739926739926,1.3216117216117216
5.088066750999133,1.7011721611721609,1.6326739926739926,1.3216117216117216
5.090262920999521,1.7011721611721609,1.6326739926739926,1.3216117216117216
5.090553613998054,1.7011721611721609,1.6326739926739926,1.3216117216117216
5.096311673998571,1.6318681318681318,1.299047619047619,0.9509157509157508
5.096605193000869,1.5617582417582416,2.7745787545787546,1.9767765567765565
5.101807920000283,1.5617582417582416,2.7745787545787546,1.9767765567765565
5.105204149000201,1.569010989010989,1.971135531135531,1.3756043956043955
5.105375569997705,1.569010989010989,1.971135531135531,1.3756043956043955
5.110085167998477,1.569010989010989,1.971135531135531,1.3756043956043955
5.110313490000408,1.569010989010989,1.971135531135531,1.3756043956043955
5.1162666589989385,1.569010989010989,1.971135531135531,1.3756043956043955
5.124152903998038,2.872893772893773,2.402271062271062,2.452234432234432
5.129382671999338,2.872893772893773,2.402271062271062,2.452234432234432
5.133735755000089,3.2605128205128207,3.3,2.843882783882784
5.133960692997789,0.5334798534798535,0.5536263736263736,1.0242490842490841
5.1390897589990345,0.5334798534798535,0.5536263736263736,1.0242490842490841
5.1420758870008285,1.398168498168498,2.697216117216117,2.269304029304029
5.144661602000269,1.2853479853479852,1.7785347985347983,1.261172161172161
5.152149792000273,0.10395604395604395,0.5923076923076923,0.7849084249084248
5.1562158269989595,0.14747252747252745,0.9912087912087911,1.4384615384615385
5.159516638999776,0.14747252747252745,0.9912087912087911,1.4384615384615385
5.159898125999462,0.14747252747252745,0.9912087912087911,1.4384615384615385
5.164890923999337,0.14747252747252745,0.9912087912087911,1.4384615384615385
5.1693889560010575,0.14747252747252745,0.9912087912087911,1.4384615384615385
5.1697015760000795,0.14747252747252745,0.9912087912087911,1.4384615384615385
5.174029376998078,0.14747252747252745,0.9912087912087911,1.4384615384615385
5.176133700999344,0.14747252747252745,0.9912087912087911,1.4384615384615385
5.176999585000885,0.14747252747252745,0.9912087912087911,1.4384615384615385
5.179166838999663,0.14747252747252745,0.9912087912087911,1.4384615384615385
5.180057446999854,0.14747252747252745,0.9912087912087911,1.4384615384615385
5.181617805999849,3.2677655677655677,3.2629304029304027,2.8591941391941393
5.185764187001041,0.29816849816849816,1.187032967032967,0.8856410256410255
5.187993248000566,0.29816849816849816,1.187032967032967,0.8856410256410255
5.18885346100069,0.29816849816849816,1.187032967032967,0.8856410256410255
5.190449007001007,0.29816849816849816,1.187032967032967,0.8856410256410255
5.1945962509998935,0.29816849816849816,1.187032967032967,0.8856410256410255
5.196750566999981,0.29816849816849816,1.187032967032967,0.8856410256410255
5.197602512998856,0.29816849816849816,1.187032967032967,0.8856410256410255
5.199711702000059,0.29816849816849816,1.187032967032967,0.8856410256410255
5.201129604000016,0.29816849816849816,1.187032967032967,0.8856410256410255
5.205927956998494,0.29816849816849816,1.187032967032967,0.8856410256410255
5.206142978000571,0.29816849816849816,1.187032967032967,0.8856410256410255
5.210899409998092,0.29816849816849816,1.187032967032967,0.8856410256410255
5.211026941000455,0.29816849816849816,1.187032967032967,0.8856410256410255
5.215748153001186,0.29816849816849816,1.187032967032967,0.8856410256410255
5.2160275540009025,0.29816849816849816,1.187032967032967,0.8856410256410255
5.220904554000299,0.29816849816849816,1.187032967032967,0.8856410256410255
5.2211940819979645,0.29816849816849816,1.187032967032967,0.8856410256410255
5.226910638000845,0.29816849816849816,1.187032967032967,0.8856410256410255
5.2271593250006845,0.29816849816849816,1.187032967032967,0.8856410256410255
5.23234624899851,0.29816849816849816,1.187032967032967,0.8856410256410255
5.234649015998002,0.29816849816849816,1.187032967032967,0.8856410256410255
5.234886933998496,0.29816849816849816,1.187032967032967,0.8856410256410255
5.240025090999552,0.29816849816849816,1.187032967032967,0.8856410256410255
5.24369065999781,0.3416849816849817,1.6197802197802196,1.464249084249084
5.248831852000876,0.3416849816849817,1.6197802197802196,1.464249084249084
5.252489102000254,0.3416849816849817,1.6197802197802196,1.464249084249084
5.2526248049980495,0.3416849816849817,1.6197802197802196,1.464249084249084
5.257695123000303,0.3416849816849817,1.6197802197802196,1.464249084249084
5.262190327997814,3.3,3.3,3.3
5.2634006469997985,3.3,3.3,3.3
5.2636107219987025,3.3,3.3,3.3
5.268062815997837,1.054065934065934,0.3352380952380952,0.6326007326007326
5.269664419000037,1.054065934065934,0.3352380952380952,0.6326007326007326
5.274532704999729,1.054065934065934,0.3352380952380952,0.6326007326007326
5.283514221999212,1.054065934065934,0.3352380952380952,0.6326007326007326
5.291209776998585,1.054065934065934,0.3352380952380952,0.6326007326007326
5.29790965400025,1.054065934065934,0.3352380952380952,0.6326007326007326
5.303256922998116,0.6261538461538461,1.834945054945055,1.6834432234432233
5.3059690310001315,0.5826373626373627,0.40695970695970696,0.6430769230769231
5.311580089997733,0.5826373626373627,0.40695970695970696,0.6430769230769231
5.322215394000523,0.5826373626373627,0.40695970695970696,0.6430769230769231
5.3330869269993855,0.5826373626373627,0.40695970695970696,0.6430769230769231
5.341394412000227,0.5826373626373627,0.40695970695970696,0.6430769230769231
5.348193988000276,1.174139194139194,1.775311355311355,1.1821978021978021
5.3534388080006465,1.174139194139194,1.775311355311355,1.1821978021978021
5.355051264999929,1.7720879120879118,1.7680586080586078,1.518241758241758
5.360858226998971,2.652087912087912,2.5481318681318683,3.3
5.36557739699856,2.652087912087912,2.5481318681318683,3.3
5.371550946998468,2.652087912087912,2.5481318681318683,3.3
5.37862910399781,2.652087912087912,2.5481318681318683,3.3
5.385961347998091,2.652087912087912,2.5481318681318683,3.3
5.393216485001176,0.27882783882783885,0.5955311355311355,0.7196336996336996
5.401617965999321,1.0903296703296703,0.7728205128205128,1.2732600732600732
5.409824775000743,1.0903296703296703,0.7728205128205128,1.2732600732600732
5.418052044999058,0.166007326007326,0.5673260073260072,0.6253479853479853
5.425198535998788,0.166007326007326,0.5673260073260072,0.6253479853479853
5.432024292000278,0.166007326007326,0.5673260073260072,0.6253479853479853
5.436817696998332,0.166007326007326,0.5673260073260072,0.6253479853479853
5.443779780998739,0.3892307692307692,1.3336996336996336,1.3183882783882783
5.45166135999898,0.3924542124542124,0.4254945054945055,0.6374358974358975
5.457766725998226,0.3924542124542124,0.4254945054945055,0.6374358974358975
5.462075289000495,0.3924542124542124,0.4254945054945055,0.6374358974358975
5.46342135300074,0.3924542124542124,0.4254945054945055,0.6374358974358975
5.472806942998432,0.3924542124542124,0.4254945054945055,0.6374358974358975
5.48070676199859,0.3924542124542124,0.4254945054945055,0.6374358974358975
5.49020271399786,2.5956776556776555,3.3,2.7165567765567764
5.497858157999872,2.5956776556776555,3.3,2.7165567765567764
5.50418841300052,2.5956776556776555,3.3,2.7165567765567764
5.508346302998689,2.5956776556776555,3.3,2.7165567765567764
5.511046483999962,2.5956776556776555,3.3,2.7165567765567764
5.517453627999203,2.5956776556776555,3.3,2.7165567765567764
5.52413100999911,2.258021978021978,3.3,2.336996336996337
5.528002833998471,2.258021978021978,3.3,2.336996336996337
5.534552352997707,2.258021978021978,3.3,2.336996336996337
5.539081478000298,2.258021978021978,3.3,2.336996336996337
5.547964385998057,1.6125274725274723,2.808424908424908,2.2402930402930403
5.557105994997983,1.6125274725274723,2.808424908424908,2.2402930402930403
5.563897084997734,1.6125274725274723,2.808424908424908,2.2402930402930403
5.570998831000907,1.6125274725274723,2.808424908424908,2.2402930402930403
5.578261751001264,1.6125274725274723,2.808424908424908,2.2402930402930403
5.585113010998612,1.6125274725274723,2.808424908424908,2.2402930402930403
5.5906555769979605,2.8873992673992674,3.009084249084249,2.5086446886446883
5.59617842499938,2.8873992673992674,3.009084249084249,2.5086446886446883
5.597172108999075,2.8873992673992674,3.009084249084249,2.5086446886446883
5.597510217998206,2.8873992673992674,3.009084249084249,2.5086446886446883
5.604274313998758,2.8873992673992674,3.009084249084249,2.5086446886446883
5.608423986999696,2.8873992673992674,3.009084249084249,2.5086446886446883
5.610984488001122,2.8873992673992674,3.009084249084249,2.5086446886446883
5.617091079999227,2.8873992673992674,3.009084249084249,2.5086446886446883
5.620899270001246,2.6633699633699632,2.5465201465201464,2.5553846153846154
5.624872601998504,2.6633699633699632,2.5465201465201464,2.5553846153846154
5.628239107998525,2.6633699633699632,2.5465201465201464,2.5553846153846154
5.629163036999671,0.46417582417582415,0.5294505494505495,0.697069597069597
5.630979527999443,0.46417582417582415,0.5294505494505495,0.697069597069597
5.635403297001176,0.46417582417582415,0.5294505494505495,0.697069597069597
5.635743286999059,1.3917216117216116,1.6262271062271063,1.3884981684981685
5.6431759219995,1.3917216117216116,1.6262271062271063,1.3884981684981685
5.649540153997805,1.3917216117216116,1.6262271062271063,1.3884981684981685
5.656243567998899,1.3917216117216116,1.6262271062271063,1.3884981684981685
5.662040317998617,1.108058608058608,1.4803663003663003,1.0895238095238093
5.670696998000494,2.6706227106227107,2.5602197802197804,2.573113553113553
5.678634068997781,2.6706227106227107,2.5602197802197804,2.573113553113553
5.686890064000181,2.6706227106227107,2.5602197802197804,2.573113553113553
5.69337038500089,2.6706227106227107,2.5602197802197804,2.573113553113553
5.7005628750011965,2.6706227106227107,2.5602197802197804,2.573113553113553
5.706796125999972,2.6706227106227107,2.5602197802197804,2.573113553113553
5.712400713000534,0.307032967032967,0.6068131868131869,0.684981684981685
5.7125916149998375,0.307032967032967,0.6068131868131869,0.684981684981685
5.721504537999863,0.307032967032967,0.6068131868131869,0.684981684981685
5.729127481998148,0.307032967032967,0.6068131868131869,0.684981684981685
5.736225700999057,0.307032967032967,0.6068131868131869,0.684981684981685
5.7421442630002275,0.307032967032967,0.6068131868131869,0.684981684981685
5.75010742700033,0.307032967032967,0.6068131868131869,0.684981684981685
5.75680222200026,3.3,2.8535531135531134,2.5594139194139194
5.762172814000223,3.3,2.8535531135531134,2.5594139194139194
5.7638699269991776,3.3,3.3,2.864029304029304
5.768397218998871,3.3,3.3,2.864029304029304
5.775976267999795,3.0316483516483514,3.3,3.3
5.78278155299995,1.7253479853479854,1.7221245421245421,1.432014652014652
5.788855398001033,2.444981684981685,3.3,2.760879120879121
5.794513512999401,3.3,2.739120879120879,2.5674725274725274
5.805228081000678,3.3,2.739120879120879,2.5674725274725274
5.812602619000245,3.3,2.739120879120879,2.5674725274725274
5.821542401998158,3.3,2.739120879120879,2.5674725274725274
5.828195115998824,3.3,2.739120879120879,2.5674725274725274
5.832810717998655,0.39567765567765567,0.7873260073260073,0.8187545787545787
5.8331105840006785,1.6093040293040293,1.5327472527472528,1.278901098901099
5.839677669999219,2.249157509157509,1.921978021978022,1.6697435897435895
5.843920892999449,2.249157509157509,1.921978021978022,1.6697435897435895
5.845360258997971,2.249157509157509,1.921978021978022,1.6697435897435895
5.853999304999888,2.249157509157509,1.921978021978022,1.6697435897435895
5.861814879997837,2.249157509157509,1.921978021978022,1.6697435897435895
5.86950120199981,2.249157509157509,1.921978021978022,1.6697435897435895
5.8729568230010045,0.02336996336996337,0.7687912087912088,0.7671794871794871
5.873227845000656,0.02336996336996337,0.7687912087912088,0.7671794871794871
5.882778107999911,0.02336996336996337,0.7687912087912088,0.7671794871794871
5.890671131997806,0.3465201465201465,0.5778021978021978,0.6511355311355311
5.895347130001028,1.2063736263736262,0.834065934065934,0.7131868131868132
5.89557522999894,3.171062271062271,3.3,3.016336996336996
5.904272816998855,3.171062271062271,3.3,3.016336996336996
5.911809773999266,3.171062271062271,3.3,3.016336996336996
5.919319185999484,3.171062271062271,3.3,3.016336996336996
5.924630225999863,3.171062271062271,3.3,3.016336996336996
5.925902203998703,3.171062271062271,3.3,3.016336996336996
5.926159602000553,3.171062271062271,3.3,3.016336996336996
5.935484099998575,3.171062271062271,3.3,3.016336996336996
5.942353297999944,3.171062271062271,3.3,3.016336996336996
5.946715756999765,3.171062271062271,3.3,3.016336996336996
5.947172721000243,3.171062271062271,3.3,3.016336996336996
5.955784301000676,3.171062271062271,3.3,3.016336996336996
5.962677979998261,1.365128205128205,2.5038095238095237,2.05010989010989
5.968347085999994,1.365128205128205,2.5038095238095237,2.05010989010989
5.968517997000163,1.365128205128205,2.5038095238095237,2.05010989010989
5.973585547999392,1.365128205128205,2.5038095238095237,2.05010989010989
5.976957795999624,1.365128205128205,2.5038095238095237,2.05010989010989
5.977300698999898,1.365128205128205,2.5038095238095237,2.05010989010989
5.984545405997778,1.365128205128205,2.5038095238095237,2.05010989010989
5.990933645000041,3.3,3.3,3.3
5.995838888000435,3.3,3.3,3.3
6.005505621000339,3.3,3.3,3.3
6.012781183999323,3.3,3.3,3.3
6.020239427998604,3.3,3.3,3.3
6.025166507999529,0.8082783882783882,2.083150183150183,1.8736263736263734
6.034770907001075,0.8082783882783882,2.083150183150183,1.8736263736263734
6.040396210999461,1.2877655677655677,0.9259340659340659,1.4956776556776556
6.040597719998914,1.2877655677655677,0.9259340659340659,1.4956776556776556
6.047371643999213,1.2877655677655677,0.9259340659340659,1.4956776556776556
6.052822366000328,1.2877655677655677,0.9259340659340659,1.4956776556776556
6.053035884000565,1.2877655677655677,0.9259340659340659,1.4956776556776556
6.058774963999895,1.2877655677655677,0.9259340659340659,1.4956776556776556
6.058890435000649,1.2877655677655677,0.9259340659340659,1.4956776556776556
6.064840497998375,1.2877655677655677,0.9259340659340659,1.4956776556776556
6.071647599001153,1.2877655677655677,0.9259340659340659,1.4956776556776556
6.078656454999873,0.22886446886446887,0.6406593406593406,1.112893772893773
6.085220469998603,2.66014652014652,2.556996336996337,2.5545787545787544
6.089513464998163,2.66014652014652,2.556996336996337,2.5545787545787544
6.090843789999781,2.880952380952381,3.3,2.8124542124542122
6.097917253999185,2.880952380952381,3.3,2.8124542124542122
6.104326149998087,2.880952380952381,3.3,2.8124542124542122
6.107672555001045,0.630989010989011,0.4891575091575091,0.6495238095238095
6.108588712999335,0.630989010989011,0.4891575091575091,0.6495238095238095
6.109503367999423,0.630989010989011,0.4891575091575091,0.6495238095238095
6.112377010998898,0.630989010989011,0.4891575091575091,0.6495238095238095
6.117681627998536,1.4126739926739926,1.556117216117216,1.398168498168498
6.118015659998491,3.3,2.7584615384615385,3.3
6.125138680999953,3.3,2.7584615384615385,3.3
6.130098129000544,2.2088644688644687,2.4675457875457876,1.9082783882783882
6.136327875999996,2.2088644688644687,2.4675457875457876,1.9082783882783882
6.142135600999609,2.2088644688644687,2.4675457875457876,1.9082783882783882
6.149526446999516,2.6746520146520147,2.5634432234432234,2.5787545787545785
6.156532756998786,2.6746520146520147,2.5634432234432234,2.5787545787545785
6.162312155000109,2.6746520146520147,2.5634432234432234,2.5787545787545785
6.171709385998838,2.652087912087912,2.5481318681318683,2.54974358974359
6.179224053001235,2.652087912087912,2.5481318681318683,2.54974358974359
6.186323911999352,2.652087912087912,2.5481318681318683,2.54974358974359
6.192957749997731,2.652087912087912,2.5481318681318683,2.54974358974359
6.199416591000045,2.652087912087912,2.5481318681318683,2.54974358974359
6.205470139000681,2.6665934065934067,2.5505494505494504,3.3
6.210342812999443,0.03304029304029304,0.8703296703296703,0.8171428571428572
6.216695525999967,0.03304029304029304,0.8703296703296703,0.8171428571428572
6.222041580000223,0.03304029304029304,0.8703296703296703,0.8171428571428572
