time,emg1,emg2,emg3
0.002615719989989884,0.022564102564102562,0.13216117216117215,0.3021978021978022
0.004195116998744197,0.022564102564102562,0.13216117216117215,0.3021978021978022
0.023992435992113315,2.1137728937728935,2.4167765567765565,0.6898168498168498
0.039311233995249495,0.13699633699633698,0.21999999999999997,0.17164835164835165
0.0534168839949416,0.13699633699633698,0.21999999999999997,0.17164835164835165
0.0607701279950561,0.13699633699633698,0.21999999999999997,0.17164835164835165
0.06763468799181283,0.13699633699633698,0.21999999999999997,0.17164835164835165
0.07402600299974438,0.13699633699633698,0.21999999999999997,0.17164835164835165
0.08072186399658676,0.13699633699633698,0.21999999999999997,0.17164835164835165
0.0867926459904993,0.13699633699633698,0.21999999999999997,0.17164835164835165
0.09397955700114835,0.13699633699633698,0.21999999999999997,0.17164835164835165
0.10005614999681711,0.13699633699633698,0.21999999999999997,0.17164835164835165
0.10336770200228784,0.13699633699633698,0.21999999999999997,0.17164835164835165
0.10371800899156369,0.29010989010989013,0.7389743589743589,0.9734798534798534
0.10856999999668915,0.29010989010989013,0.7389743589743589,0.9734798534798534
0.1087375289935153,0.29010989010989013,0.7389743589743589,0.9734798534798534
0.11402616900159046,0.29010989010989013,0.7389743589743589,0.9734798534798534
0.11633948500093538,0.834065934065934,0.5544322344322344,0.3795604395604395
0.11664355600078125,0.834065934065934,0.5544322344322344,0.3795604395604395
0.12117235899495427,0.834065934065934,0.5544322344322344,0.3795604395604395
0.1220081380015472,0.834065934065934,0.5544322344322344,0.3795604395604395
0.12357467898982577,0.834065934065934,0.5544322344322344,0.3795604395604395
0.12802883199765347,0.834065934065934,0.5544322344322344,0.3795604395604395
0.12886514699494,2.419194139194139,2.8422710622710623,0.8171428571428572
0.1307084610016318,2.419194139194139,2.8422710622710623,0.8171428571428572
0.13307880899810698,2.419194139194139,2.8422710622710623,0.8171428571428572
0.13333849699120037,2.419194139194139,2.8422710622710623,0.8171428571428572
0.13851697799691465,2.419194139194139,2.8422710622710623,0.8171428571428572
0.1416873769921949,2.419194139194139,2.8422710622710623,0.8171428571428572
0.1425899890018627,2.419194139194139,2.8422710622710623,0.8171428571428572
0.14446880199830048,2.419194139194139,2.8422710622710623,0.8171428571428572
0.148211628998979,2.419194139194139,2.8422710622710623,0.8171428571428572
0.15355419200204778,2.419194139194139,2.8422710622710623,0.8171428571428572
0.154603902992676,1.4835897435897436,2.2040293040293037,2.0267399267399266
0.15485707399784587,1.4835897435897436,2.2040293040293037,2.0267399267399266
0.15939533099299297,1.4835897435897436,2.2040293040293037,2.0267399267399266
0.15971036099654157,0.31509157509157504,0.49560439560439556,0.7567032967032966
0.16496445599477738,0.31509157509157504,0.49560439560439556,0.7567032967032966
0.16805828700307757,0.31509157509157504,0.49560439560439556,0.7567032967032966
0.17052834600326605,0.31509157509157504,0.49560439560439556,0.7567032967032966
0.17078716699325014,0.31509157509157504,0.49560439560439556,0.7567032967032966
0.17545376399357338,0.31509157509157504,0.49560439560439556,0.7567032967032966
0.17573602400079835,0.31509157509157504,0.49560439560439556,0.7567032967032966
0.1804055639950093,0.31509157509157504,0.49560439560439556,0.7567032967032966
0.1806208319903817,0.31509157509157504,0.49560439560439556,0.7567032967032966
0.18607220899139065,0.31509157509157504,0.49560439560439556,0.7567032967032966
0.18764561899297405,0.31509157509157504,0.49560439560439556,0.7567032967032966
0.19205645700276364,0.08139194139194139,0.2111355311355311,0.13699633699633698
0.19361840399506036,0.08139194139194139,0.2111355311355311,0.13699633699633698
0.1988679409987526,0.08139194139194139,0.2111355311355311,0.13699633699633698
0.2020141370012425,0.08139194139194139,0.2111355311355311,0.13699633699633698
0.2036697540024761,0.08139194139194139,0.2111355311355311,0.13699633699633698
0.21064865599328186,0.08139194139194139,0.2111355311355311,0.13699633699633698
0.21822888299357146,0.08139194139194139,0.2111355311355311,0.13699633699633698
0.22535683900059666,0.3626373626373626,0.5342857142857143,0.8034432234432234
0.2342639330017846,0.3626373626373626,0.5342857142857143,0.8034432234432234
0.24092286499217153,0.3626373626373626,0.5342857142857143,0.8034432234432234
0.24723528500180691,0.3626373626373626,0.5342857142857143,0.8034432234432234
0.2508731599955354,0.3626373626373626,0.5342857142857143,0.8034432234432234
0.25096856500022113,0.3626373626373626,0.5342857142857143,0.8034432234432234
0.2568131779989926,0.3626373626373626,0.5342857142857143,0.8034432234432234
0.26331519399536774,0.9839560439560439,1.1918681318681317,1.3425641025641024
0.26700271299341694,0.13538461538461538,0.0821978021978022,0.24498168498168496
0.26712127900100313,0.13538461538461538,0.0821978021978022,0.24498168498168496
0.2716757149901241,0.13538461538461538,0.0821978021978022,0.24498168498168496
0.27256050799041986,1.0266666666666666,1.1427106227106225,0.946080586080586
0.2748308689915575,1.0266666666666666,1.1427106227106225,0.946080586080586
0.27498765199561603,1.0266666666666666,1.1427106227106225,0.946080586080586
0.2812909589993069,1.0266666666666666,1.1427106227106225,0.946080586080586
0.28555400000186637,1.0266666666666666,1.1427106227106225,0.946080586080586
0.2872107729926938,1.0266666666666666,1.1427106227106225,0.946080586080586
0.29127120999328326,1.0266666666666666,1.1427106227106225,0.946080586080586
0.29489648999879137,1.0266666666666666,1.1427106227106225,0.946080586080586
0.3006822129973443,1.0266666666666666,1.1427106227106225,0.946080586080586
0.3061363009910565,0.954945054945055,1.220879120879121,1.4916483516483516
0.3070272640034091,0.954945054945055,1.220879120879121,1.4916483516483516
0.3086969029973261,0.954945054945055,1.220879120879121,1.4916483516483516
0.3133006099960767,0.954945054945055,1.220879120879121,1.4916483516483516
0.3205105989909498,2.6246886446886446,3.1775091575091574,0.9831501831501831
0.32525849000376184,1.2821245421245422,1.5045421245421244,1.2724542124542124
0.325444839996635,2.5876190476190475,3.0534065934065935,0.6841758241758242
0.332935168989934,2.5876190476190475,3.0534065934065935,0.6841758241758242
0.3368417239980772,2.5876190476190475,3.0534065934065935,0.6841758241758242
0.3417384589993162,2.5876190476190475,3.0534065934065935,0.6841758241758242
0.3487194939953042,2.5876190476190475,3.0534065934065935,0.6841758241758242
0.3528529180039186,2.5876190476190475,3.0534065934065935,0.6841758241758242
0.35538911700132303,2.5876190476190475,3.0534065934065935,0.6841758241758242
0.3612199749913998,1.4803663003663003,1.6447619047619046,1.3127472527472526
0.3615881680016173,0.047545787545787546,0.37150183150183147,0.4351648351648352
0.3672611919901101,0.047545787545787546,0.37150183150183147,0.4351648351648352
0.3727580749982735,0.047545787545787546,0.37150183150183147,0.4351648351648352
0.3745278220012551,1.44007326007326,1.8655677655677654,1.7761172161172158
0.3801503909926396,1.44007326007326,1.8655677655677654,1.7761172161172158
0.39216973500151653,1.44007326007326,1.8655677655677654,1.7761172161172158
0.4010888719931245,1.3482051282051282,1.4271794871794872,0.4472527472527472
0.4067319189925911,1.3482051282051282,1.4271794871794872,0.4472527472527472
0.4082882099901326,1.3482051282051282,1.4271794871794872,0.4472527472527472
0.41248356900177896,1.3482051282051282,1.4271794871794872,0.4472527472527472
0.4162002999946708,1.3482051282051282,1.4271794871794872,0.4472527472527472
0.42112236499087885,1.3482051282051282,1.4271794871794872,0.4472527472527472
0.4249321949901059,0.5036630036630036,1.0806593406593406,1.2216849816849817
0.43270232099166606,0.5036630036630036,1.0806593406593406,1.2216849816849817
0.4376826849911595,0.30058608058608055,0.2208058608058608,0.7558974358974359
0.4424139000038849,0.30058608058608055,0.2208058608058608,0.7558974358974359
0.4512423769920133,0.30058608058608055,0.2208058608058608,0.7558974358974359
0.45599077799124643,0.5649084249084249,1.1136996336996337,1.7358241758241757
0.45619172300212085,0.5649084249084249,1.1136996336996337,1.7358241758241757
0.46220007799274754,0.9726739926739927,1.6318681318681318,1.506153846153846
0.46983195199572947,0.9726739926739927,1.6318681318681318,1.506153846153846
0.47422858099162113,0.9726739926739927,1.6318681318681318,1.506153846153846
0.4758820709976135,0.3199267399267399,0.5939194139194138,1.1120879120879121
0.48136243199405726,0.3199267399267399,0.5939194139194138,1.1120879120879121
0.4817449830006808,0.3199267399267399,0.5939194139194138,1.1120879120879121
0.48857685799885076,0.3199267399267399,0.5939194139194138,1.1120879120879121
0.49393869200139306,0.32717948717948714,0.26996336996336995,0.24659340659340656
0.49588064500130713,0.32717948717948714,0.26996336996336995,0.24659340659340656
0.4978195439907722,0.32717948717948714,0.26996336996336995,0.24659340659340656
0.4996494810038712,1.1983150183150182,1.88007326007326,1.24021978021978
0.501628632991924,1.1983150183150182,1.88007326007326,1.24021978021978
0.5035627339966595,1.1983150183150182,1.88007326007326,1.24021978021978
0.5053185379947536,1.1983150183150182,1.88007326007326,1.24021978021978
0.5077441180037567,1.1983150183150182,1.88007326007326,1.24021978021978
0.5079424049908994,1.1983150183150182,1.88007326007326,1.24021978021978
0.5147129399992991,1.1983150183150182,1.88007326007326,1.24021978021978
0.517981733995839,1.1983150183150182,1.88007326007326,1.24021978021978
0.5188586379954359,1.003296703296703,1.5263003663003663,1.4046153846153846
0.5205390859919135,1.003296703296703,1.5263003663003663,1.4046153846153846
0.5236931709951023,1.003296703296703,1.5263003663003663,1.4046153846153846
0.525579547000234,1.003296703296703,1.5263003663003663,1.4046153846153846
0.5283769410016248,1.003296703296703,1.5263003663003663,1.4046153846153846
0.5344161340035498,1.003296703296703,1.5263003663003663,1.4046153846153846
0.538417945994297,1.003296703296703,1.5263003663003663,1.4046153846153846
0.5416752629971597,1.5706227106227104,1.8027106227106224,0.8590476190476191
0.5426347859902307,1.5706227106227104,1.8027106227106224,0.8590476190476191
0.5435683260002406,1.5706227106227104,1.8027106227106224,0.8590476190476191
0.5465086999902269,1.5706227106227104,1.8027106227106224,0.8590476190476191
0.5487910029914929,1.5706227106227104,1.8027106227106224,0.8590476190476191
0.549078254000051,1.5706227106227104,1.8027106227106224,0.8590476190476191
0.5555291909986408,1.5706227106227104,1.8027106227106224,0.8590476190476191
0.5595510749990353,1.5706227106227104,1.8027106227106224,0.8590476190476191
0.5660881259973394,0.7276923076923076,1.1233699633699634,1.0677655677655677
0.5693958030024078,0.7276923076923076,1.1233699633699634,1.0677655677655677
0.5710523390007438,1.2184615384615385,1.373992673992674,0.8719413919413919
0.574889131996315,1.2184615384615385,1.373992673992674,0.8719413919413919
0.5809933389973594,1.2184615384615385,1.373992673992674,0.8719413919413919
0.5843559469940374,1.2184615384615385,1.373992673992674,0.8719413919413919
0.5846403199975612,1.2184615384615385,1.373992673992674,0.8719413919413919
0.5893327849917114,1.2184615384615385,1.373992673992674,0.8719413919413919
0.5896234739921056,1.2184615384615385,1.373992673992674,0.8719413919413919
0.594581757002743,1.2184615384615385,1.373992673992674,0.8719413919413919
0.6016266889928374,2.644029304029304,2.9236630036630036,0.7309157509157509
0.6061624360008864,2.644029304029304,2.9236630036630036,0.7309157509157509
0.6064486889954424,2.644029304029304,2.9236630036630036,0.7309157509157509
0.6139537099952577,2.644029304029304,2.9236630036630036,0.7309157509157509
0.6185727019910701,2.644029304029304,2.9236630036630036,0.7309157509157509
0.6187002189981285,2.644029304029304,2.9236630036630036,0.7309157509157509
0.6236230069916928,2.644029304029304,2.9236630036630036,0.7309157509157509
0.6289080419956008,2.644029304029304,2.9236630036630036,0.7309157509157509
0.6322031140007311,0.5624908424908425,0.6043956043956044,0.19340659340659339
0.6324853300029645,0.9662271062271062,0.9396336996336996,0.684981684981685
0.6371971530024894,0.9662271062271062,0.9396336996336996,0.684981684981685
0.6373967239924241,0.9662271062271062,0.9396336996336996,0.684981684981685
0.6420457850035746,0.9662271062271062,0.9396336996336996,0.684981684981685
0.6423166689928621,0.9662271062271062,0.9396336996336996,0.684981684981685
0.6495400879939552,0.9662271062271062,0.9396336996336996,0.684981684981685
0.6535699399973964,0.9662271062271062,0.9396336996336996,0.684981684981685
0.6576697949931258,0.9662271062271062,0.9396336996336996,0.684981684981685
0.6602173040009802,0.9662271062271062,0.9396336996336996,0.684981684981685
0.6691994699940551,0.9662271062271062,0.9396336996336996,0.684981684981685
0.6746889939968241,0.9662271062271062,0.9396336996336996,0.684981684981685
0.6762989169947105,0.9662271062271062,0.9396336996336996,0.684981684981685
0.6825184710032772,0.9662271062271062,0.9396336996336996,0.684981684981685
0.6851121119980235,0.9662271062271062,0.9396336996336996,0.684981684981685
0.6905755229963688,2.481245421245421,3.216190476190476,0.6156776556776556
0.6927521619945765,0.0,0.10073260073260072,0.13216117216117215
0.6938092850032263,0.0,0.10073260073260072,0.13216117216117215
0.6942099750012858,0.0,0.10073260073260072,0.13216117216117215
0.7001396999985445,0.0,0.10073260073260072,0.13216117216117215
0.7046687849942828,0.0,0.10073260073260072,0.13216117216117215
0.7049826470029075,2.3877655677655674,2.6279120879120876,0.4778754578754579
0.7097077810030896,2.3877655677655674,2.6279120879120876,0.4778754578754579
0.7098958650021814,2.3877655677655674,2.6279120879120876,0.4778754578754579
0.7173137939971639,2.3877655677655674,2.6279120879120876,0.4778754578754579
0.7212800039997092,2.3877655677655674,2.6279120879120876,0.4778754578754579
0.7243810429936275,2.3877655677655674,2.6279120879120876,0.4778754578754579
0.7269904099957785,2.3877655677655674,2.6279120879120876,0.4778754578754579
0.7346720399946207,2.3877655677655674,2.6279120879120876,0.4778754578754579
0.7394046349945711,2.3877655677655674,2.6279120879120876,0.4778754578754579
0.7395220890030032,1.3659340659340657,1.394139194139194,0.9799267399267398
0.7460636750038248,1.3659340659340657,1.394139194139194,0.9799267399267398
0.7528572189912666,1.3659340659340657,1.394139194139194,0.9799267399267398
0.7563573939987691,0.0024175824175824176,0.11604395604395604,0.10073260073260072
0.7565751849906519,0.0024175824175824176,0.11604395604395604,0.10073260073260072
0.7630430040007923,0.0024175824175824176,0.11604395604395604,0.10073260073260072
0.7683480199921178,0.0024175824175824176,0.11604395604395604,0.10073260073260072
0.7686380079976516,0.0024175824175824176,0.11604395604395604,0.10073260073260072
0.7739169769920409,0.0024175824175824176,0.11604395604395604,0.10073260073260072
0.7761900149926078,0.0024175824175824176,0.11604395604395604,0.10073260073260072
0.7764193789917044,0.0024175824175824176,0.11604395604395604,0.10073260073260072
0.784416340989992,0.0024175824175824176,0.11604395604395604,0.10073260073260072
0.789005097001791,0.0024175824175824176,0.11604395604395604,0.10073260073260072
0.7892667429987341,0.0024175824175824176,0.11604395604395604,0.10073260073260072
0.7952539529942442,0.0024175824175824176,0.11604395604395604,0.10073260073260072
0.8027192570007173,0.0024175824175824176,0.11604395604395604,0.10073260073260072
0.8069554059911752,0.6898168498168498,0.9742857142857142,1.2845421245421245
0.8085662169905845,0.6898168498168498,0.9742857142857142,1.2845421245421245
0.8144108010019409,0.6898168498168498,0.9742857142857142,1.2845421245421245
0.8218719229917042,0.6898168498168498,0.9742857142857142,1.2845421245421245
0.8264407690003281,1.2063736263736262,1.5134065934065932,1.2603663003663002
0.8286244460032322,1.2063736263736262,1.5134065934065932,1.2603663003663002
0.8288076969911344,1.2063736263736262,1.5134065934065932,1.2603663003663002
0.8347311839897884,1.2063736263736262,1.5134065934065932,1.2603663003663002
0.8393903459946159,1.2063736263736262,1.5134065934065932,1.2603663003663002
0.8458360419899691,1.2063736263736262,1.5134065934065932,1.2603663003663002
0.8496967120008776,1.2063736263736262,1.5134065934065932,1.2603663003663002
0.8534807020041626,1.2063736263736262,1.5134065934065932,1.2603663003663002
0.8601285859913332,1.2063736263736262,1.5134065934065932,1.2603663003663002
0.8659731869993266,0.31509157509157504,0.5286446886446886,1.0524542124542122
0.871157397996285,2.02029304029304,2.635970695970696,0.718021978021978
0.872732181000174,0.12893772893772892,0.3416849816849817,0.17567765567765567
0.8785861209908035,0.12893772893772892,0.3416849816849817,0.17567765567765567
0.8880478119972395,0.5310622710622711,0.8598534798534798,1.3933333333333333
0.8939407229918288,0.5310622710622711,0.8598534798534798,1.3933333333333333
0.90237300399167,2.116996336996337,2.7745787545787546,0.9775091575091575
0.9079715099942405,2.116996336996337,2.7745787545787546,0.9775091575091575
0.9081805799942231,2.1717948717948716,2.9518681318681317,0.7776556776556776
0.9158830369997304,2.1717948717948716,2.9518681318681317,0.7776556776556776
0.9205119499965804,1.270842490842491,1.684249084249084,1.3546520146520145
0.9271213339961832,1.270842490842491,1.684249084249084,1.3546520146520145
0.9327117590000853,0.45369963369963373,0.6608058608058608,0.28849816849816845
0.9330108819995075,0.9597802197802198,1.7245421245421246,2.15003663003663
0.9384779620013433,0.9597802197802198,1.7245421245421246,2.15003663003663
0.9399592609988758,0.9597802197802198,1.7245421245421246,2.15003663003663
0.9482205550011713,0.9597802197802198,1.7245421245421246,2.15003663003663
0.952329837004072,0.9597802197802198,1.7245421245421246,2.15003663003663
0.9540379959944403,0.9597802197802198,1.7245421245421246,2.15003663003663
0.9574180119961966,0.9597802197802198,1.7245421245421246,2.15003663003663
0.9577357039961498,0.9275457875457875,1.5303296703296703,1.6906959706959706
0.9650663240026915,0.9275457875457875,1.5303296703296703,1.6906959706959706
0.9689330080000218,0.9275457875457875,1.5303296703296703,1.6906959706959706
0.9735019319923595,0.016117216117216115,0.3304029304029304,0.23369963369963367
0.9743570419959724,0.016117216117216115,0.3304029304029304,0.23369963369963367
0.9760650969983544,2.31040293040293,3.1227106227106223,1.315970695970696
0.9814981649979018,2.31040293040293,3.1227106227106223,1.315970695970696
0.9830706619977718,2.31040293040293,3.1227106227106223,1.315970695970696
0.9873447019926971,2.31040293040293,3.1227106227106223,1.315970695970696
0.9877573300036602,2.31040293040293,3.1227106227106223,1.315970695970696
0.995978623002884,2.31040293040293,3.1227106227106223,1.315970695970696
0.99998513799801,1.432014652014652,1.80029304029304,1.3377289377289376
1.0043619299976854,0.1813186813186813,0.6253479853479853,0.909010989010989
1.0052952909900341,0.18937728937728937,0.7043223443223443,1.1725274725274726
1.0068728149926756,0.18937728937728937,0.7043223443223443,1.1725274725274726
1.0115344109945,0.18937728937728937,0.7043223443223443,1.1725274725274726
1.0118030739977257,0.18937728937728937,0.7043223443223443,1.1725274725274726
1.017074096002034,0.18937728937728937,0.7043223443223443,1.1725274725274726
1.0195424409903353,0.18937728937728937,0.7043223443223443,1.1725274725274726
1.0197164139972301,0.18937728937728937,0.7043223443223443,1.1725274725274726
1.0250109429907752,0.18937728937728937,0.7043223443223443,1.1725274725274726
1.0273473629931686,0.18937728937728937,0.7043223443223443,1.1725274725274726
1.0275300329958554,0.18937728937728937,0.7043223443223443,1.1725274725274726
1.0349633299920242,0.18937728937728937,0.7043223443223443,1.1725274725274726
1.039448205003282,0.18937728937728937,0.7043223443223443,1.1725274725274726
1.0397508759924676,0.7067399267399267,1.3756043956043955,1.8567032967032966
1.044469679996837,0.7067399267399267,1.3756043956043955,1.8567032967032966
1.0446685420029098,0.7067399267399267,1.3756043956043955,1.8567032967032966
1.0511732809973182,0.7067399267399267,1.3756043956043955,1.8567032967032966
1.0559184439916862,0.7067399267399267,1.3756043956043955,1.8567032967032966
1.0623521309898933,0.7067399267399267,1.3756043956043955,1.8567032967032966
1.0657529169984628,0.4005128205128205,0.7462271062271062,1.1926739926739927
1.0660096299980069,0.4005128205128205,0.7462271062271062,1.1926739926739927
1.0713860029936768,0.4005128205128205,0.7462271062271062,1.1926739926739927
1.0736939609923866,0.4005128205128205,0.7462271062271062,1.1926739926739927
1.0738883849990088,0.4005128205128205,0.7462271062271062,1.1926739926739927
1.0810619050025707,0.4005128205128205,0.7462271062271062,1.1926739926739927
1.0850816029997077,1.5665934065934064,1.9687179487179485,0.8928937728937728
1.0874820039898623,0.6358241758241758,0.6253479853479853,0.2796336996336996
1.0877045539964456,0.6358241758241758,0.6253479853479853,0.2796336996336996
1.0930291919939918,0.6358241758241758,0.6253479853479853,0.2796336996336996
1.096013510992634,0.2506227106227106,0.14505494505494507,0.6124542124542125
1.099209548003273,0.2506227106227106,0.14505494505494507,0.6124542124542125
1.1007226959918626,0.2506227106227106,0.14505494505494507,0.6124542124542125
1.1048990319977747,0.2506227106227106,0.14505494505494507,0.6124542124542125
1.1070864779903786,0.2506227106227106,0.14505494505494507,0.6124542124542125
1.1078550840029493,0.2506227106227106,0.14505494505494507,0.6124542124542125
1.1093715930037433,0.2506227106227106,0.14505494505494507,0.6124542124542125
1.1144345549982972,0.2506227106227106,0.14505494505494507,0.6124542124542125
1.1192577409965452,1.6367032967032966,1.987252747252747,0.6430769230769231
1.1193989729945315,1.1902564102564102,1.411062271062271,1.1789743589743589
1.1243965229950845,1.1902564102564102,1.411062271062271,1.1789743589743589
1.1284516839950811,1.1902564102564102,1.411062271062271,1.1789743589743589
1.1314946079946822,1.1902564102564102,1.411062271062271,1.1789743589743589
1.1338116010010708,0.9823443223443222,1.270842490842491,0.7961904761904761
1.1340356319997227,0.332014652014652,0.23853479853479853,0.726080586080586
1.1395728450006573,0.332014652014652,0.23853479853479853,0.726080586080586
1.1411113549984293,0.332014652014652,0.23853479853479853,0.726080586080586
1.1456886929954635,0.332014652014652,0.23853479853479853,0.726080586080586
1.1460186999902362,0.332014652014652,0.23853479853479853,0.726080586080586
1.1517367509950418,0.332014652014652,0.23853479853479853,0.726080586080586
1.1520108289987547,0.332014652014652,0.23853479853479853,0.726080586080586
1.1572955250012456,0.332014652014652,0.23853479853479853,0.726080586080586
1.1605628870020155,0.29655677655677654,0.4432234432234432,0.1805128205128205
1.1623271939897677,0.29655677655677654,0.4432234432234432,0.1805128205128205
1.1658230850007385,0.29655677655677654,0.4432234432234432,0.1805128205128205
1.1715583159966627,0.29655677655677654,0.4432234432234432,0.1805128205128205
1.172479189990554,0.29655677655677654,0.4432234432234432,0.1805128205128205
1.1742532630014466,0.29655677655677654,0.4432234432234432,0.1805128205128205
1.1769089930021437,0.29655677655677654,0.4432234432234432,0.1805128205128205
1.1856858209939674,0.8429304029304028,0.6632234432234432,0.7397802197802198
1.1910925559932366,0.8429304029304028,0.6632234432234432,0.7397802197802198
1.1936847519973526,0.8429304029304028,0.6632234432234432,0.7397802197802198
1.2003964199975599,0.8429304029304028,0.6632234432234432,0.7397802197802198
1.2048114459903445,0.8429304029304028,0.6632234432234432,0.7397802197802198
1.2062962719937786,0.8429304029304028,0.6632234432234432,0.7397802197802198
1.2105305709992535,0.8429304029304028,0.6632234432234432,0.7397802197802198
1.2138846199959517,0.8429304029304028,0.6632234432234432,0.7397802197802198
1.2148218479997013,0.8429304029304028,0.6632234432234432,0.7397802197802198
1.2157759410038125,1.9654945054945054,1.9534065934065934,0.20146520146520144
1.2174818179919384,1.9654945054945054,1.9534065934065934,0.20146520146520144
1.2215492389950668,1.9654945054945054,1.9534065934065934,0.20146520146520144
1.225502825996955,1.9654945054945054,1.9534065934065934,0.20146520146520144
1.2287605890014675,1.9654945054945054,1.9534065934065934,0.20146520146520144
1.2297082349978155,1.9654945054945054,1.9534065934065934,0.20146520146520144
1.2313851469953079,1.9654945054945054,1.9534065934065934,0.20146520146520144
1.2349029329925543,1.4158974358974357,0.9920146520146519,0.664029304029304
1.2350635979964864,1.4158974358974357,0.9920146520146519,0.664029304029304
1.240141059999587,2.6682051282051282,2.6698168498168497,0.2208058608058608
1.2437934949994087,0.17245421245421244,0.15311355311355312,0.3231501831501831
1.2439716039953055,0.17245421245421244,0.15311355311355312,0.3231501831501831
1.2490580250014318,0.17245421245421244,0.15311355311355312,0.3231501831501831
1.2519108459964627,0.17245421245421244,0.15311355311355312,0.3231501831501831
1.2562493439909304,1.3401465201465201,1.2087912087912087,0.4931868131868131
1.2583820250001736,1.3401465201465201,1.2087912087912087,0.4931868131868131
1.2592454289988382,0.8816117216117215,0.9339926739926739,0.6342124542124542
1.2607501559978118,0.8816117216117215,0.9339926739926739,0.6342124542124542
1.2655914019996999,0.8816117216117215,0.9339926739926739,0.6342124542124542
1.2656954580015736,0.8816117216117215,0.9339926739926739,0.6342124542124542
1.2705069660005393,0.8816117216117215,0.9339926739926739,0.6342124542124542
1.2706225069996435,0.8816117216117215,0.9339926739926739,0.6342124542124542
1.2753694959974382,0.8816117216117215,0.9339926739926739,0.6342124542124542
1.2755710249912227,1.8752380952380951,2.0557509157509157,0.34087912087912087
1.2803332309995312,1.8752380952380951,2.0557509157509157,0.34087912087912087
1.2804209960013395,0.5399267399267399,0.7462271062271062,0.4545054945054945
1.2852345099963713,0.5399267399267399,0.7462271062271062,0.4545054945054945
1.2853978159982944,0.5399267399267399,0.7462271062271062,0.4545054945054945
1.2901827579917153,0.5399267399267399,0.7462271062271062,0.4545054945054945
1.2903181069996208,0.5399267399267399,0.7462271062271062,0.4545054945054945
1.2950648289988749,0.5399267399267399,0.7462271062271062,0.4545054945054945
1.2953221299976576,0.5399267399267399,0.7462271062271062,0.4545054945054945
1.300064687995473,0.5399267399267399,0.7462271062271062,0.4545054945054945
1.3003297870018287,0.9968498168498168,1.149157509157509,0.6946520146520146
1.305100154990214,0.9968498168498168,1.149157509157509,0.6946520146520146
1.3052828749932814,0.0,0.11282051282051282,0.13538461538461538
1.3100485909963027,0.0,0.11282051282051282,0.13538461538461538
1.310266957996646,0.0,0.11282051282051282,0.13538461538461538
1.315024782990804,0.0,0.11282051282051282,0.13538461538461538
1.315153907999047,1.3369230769230769,1.3949450549450548,0.3142857142857142
1.31985869500204,1.3369230769230769,1.3949450549450548,0.3142857142857142
1.320075518990052,1.3369230769230769,1.3949450549450548,0.3142857142857142
1.3249049869918963,1.3369230769230769,1.3949450549450548,0.3142857142857142
1.3296984049957246,1.3369230769230769,1.3949450549450548,0.3142857142857142
1.3299280859937426,1.3369230769230769,1.3949450549450548,0.3142857142857142
1.3346872679976514,1.3369230769230769,1.3949450549450548,0.3142857142857142
1.334797774994513,1.3369230769230769,1.3949450549450548,0.3142857142857142
1.3396193619992118,1.3369230769230769,1.3949450549450548,0.3142857142857142
1.3444967239920516,1.2273260073260073,1.7035897435897436,0.7091575091575092
1.344624561999808,1.2273260073260073,1.7035897435897436,0.7091575091575092
1.3494110829924466,1.2273260073260073,1.7035897435897436,0.7091575091575092
1.3495730069989804,1.2273260073260073,1.7035897435897436,0.7091575091575092
1.354312741998001,1.2273260073260073,1.7035897435897436,0.7091575091575092
1.3544261009956244,1.2273260073260073,1.7035897435897436,0.7091575091575092
1.3596705380041385,1.2273260073260073,1.7035897435897436,0.7091575091575092
1.3625354059913661,1.2273260073260073,1.7035897435897436,0.7091575091575092
1.3654313829902094,1.2273260073260073,1.7035897435897436,0.7091575091575092
1.3683159069914836,1.2273260073260073,1.7035897435897436,0.7091575091575092
1.371811536999303,1.2273260073260073,1.7035897435897436,0.7091575091575092
1.3720538679917809,1.2273260073260073,1.7035897435897436,0.7091575091575092
1.3769276669918327,1.2273260073260073,1.7035897435897436,0.7091575091575092
1.3821983259986155,1.2273260073260073,1.7035897435897436,0.7091575091575092
1.3853873719926924,1.2273260073260073,1.7035897435897436,0.7091575091575092
1.3869626259984216,0.6076190476190476,0.7421978021978022,0.20065934065934066
1.3909500970039517,0.6076190476190476,0.7421978021978022,0.20065934065934066
1.394629934002296,0.08945054945054945,0.27399267399267396,0.012087912087912087
1.3991729089902947,0.08945054945054945,0.27399267399267396,0.012087912087912087
1.4000192859966774,0.08945054945054945,0.27399267399267396,0.012087912087912087
1.4017230729950825,0.08945054945054945,0.27399267399267396,0.012087912087912087
1.405363033991307,0.08945054945054945,0.27399267399267396,0.012087912087912087
1.4054698559921235,0.08945054945054945,0.27399267399267396,0.012087912087912087
1.410832383990055,0.08945054945054945,0.27399267399267396,0.012087912087912087
1.4131957119971048,0.6777289377289377,0.8848351648351648,0.42388278388278383
1.4133529620012268,0.6777289377289377,0.8848351648351648,0.42388278388278383
1.4181115550018148,1.494065934065934,1.5665934065934064,0.3908424908424908
1.4183166080038063,1.494065934065934,1.5665934065934064,0.3908424908424908
1.423920127999736,1.494065934065934,1.5665934065934064,0.3908424908424908
1.4242108539910987,1.494065934065934,1.5665934065934064,0.3908424908424908
1.4293014729919378,2.41032967032967,2.9486446886446886,0.4722344322344322
1.4340325749944896,2.41032967032967,2.9486446886446886,0.4722344322344322
1.4342641019902658,2.41032967032967,2.9486446886446886,0.4722344322344322
1.4396390409965534,2.41032967032967,2.9486446886446886,0.4722344322344322
1.4420688099926338,2.41032967032967,2.9486446886446886,0.4722344322344322
1.4474485520040616,0.12087912087912088,0.3384615384615384,0.43032967032967034
1.4500885879970156,0.12087912087912088,0.3384615384615384,0.43032967032967034
1.454709557001479,0.12087912087912088,0.3384615384615384,0.43032967032967034
1.4555365859996527,0.12087912087912088,0.3384615384615384,0.43032967032967034
1.4573107759933919,0.12087912087912088,0.3384615384615384,0.43032967032967034
1.4604000809922582,0.12087912087912088,0.3384615384615384,0.43032967032967034
1.462771092003095,0.12087912087912088,0.3384615384615384,0.43032967032967034
1.462972795998212,0.12087912087912088,0.3384615384615384,0.43032967032967034
1.4682050260016695,0.12087912087912088,0.3384615384615384,0.43032967032967034
1.4706951099942671,0.12087912087912088,0.3384615384615384,0.43032967032967034
1.4753305170015665,0.12087912087912088,0.3384615384615384,0.43032967032967034
1.4754836579959374,0.12087912087912088,0.3384615384615384,0.43032967032967034
1.481061194994254,0.12087912087912088,0.3384615384615384,0.43032967032967034
1.4813491749955574,0.017728937728937726,0.13054945054945052,0.20388278388278389
1.4865704529947834,0.017728937728937726,0.13054945054945052,0.20388278388278389
1.4896408719941974,0.017728937728937726,0.13054945054945052,0.20388278388278389
1.491987519999384,0.017728937728937726,0.13054945054945052,0.20388278388278389
1.492172465994372,0.017728937728937726,0.13054945054945052,0.20388278388278389
1.497364959999686,0.017728937728937726,0.13054945054945052,0.20388278388278389
1.5002182259922847,0.017728937728937726,0.13054945054945052,0.20388278388278389
1.503765059998841,0.21597069597069596,1.062930402930403,0.581025641025641
1.5045447229931597,0.21597069597069596,1.062930402930403,0.581025641025641
1.5067242319928482,0.21597069597069596,1.062930402930403,0.581025641025641
1.507493137003621,0.21597069597069596,1.062930402930403,0.581025641025641
1.5095849039935274,0.21597069597069596,1.062930402930403,0.581025641025641
1.5104141249903478,0.41018315018315016,0.0,0.47706959706959706
1.5119142869953066,0.41018315018315016,0.0,0.47706959706959706
1.5168981640017591,0.41018315018315016,0.0,0.47706959706959706
1.5211477529956028,0.41018315018315016,0.0,0.47706959706959706
1.523479490992031,0.1104029304029304,0.0,0.26593406593406593
1.5237083550018724,0.1104029304029304,0.0,0.26593406593406593
1.52844484099478,0.1104029304029304,0.0,0.26593406593406593
1.5340094559942372,0.1104029304029304,0.0,0.26593406593406593
1.5348865019914228,0.1104029304029304,0.0,0.26593406593406593
1.5364065059984569,0.1104029304029304,0.0,0.26593406593406593
1.541084344004048,0.1104029304029304,0.0,0.26593406593406593
1.5411669479944976,0.1104029304029304,0.0,0.26593406593406593
1.546761684003286,0.112014652014652,0.0,0.20307692307692307
1.5475852870004019,0.112014652014652,0.0,0.20307692307692307
1.5492086769954767,0.112014652014652,0.0,0.20307692307692307
1.5535460120008793,0.112014652014652,0.0,0.20307692307692307
1.5549945429957006,0.112014652014652,0.0,0.20307692307692307
1.559810826991452,0.112014652014652,0.0,0.20307692307692307
1.5654784349899273,0.112014652014652,0.0,0.20307692307692307
1.5664817929937271,2.9712087912087912,0.0,0.5487912087912087
1.5675039509951603,2.9712087912087912,0.0,0.5487912087912087
1.568371308996575,2.9712087912087912,0.0,0.5487912087912087
1.5693360849982128,2.9712087912087912,0.0,0.5487912087912087
1.5710343219980132,0.037875457875457874,2.5674725274725274,0.6245421245421244
1.574225734002539,0.037875457875457874,2.5674725274725274,0.6245421245421244
1.5764880859933328,0.037875457875457874,2.5674725274725274,0.6245421245421244
1.5767934859904926,0.037875457875457874,2.5674725274725274,0.6245421245421244
1.5820685969956685,0.037875457875457874,2.5674725274725274,0.6245421245421244
1.5854547769995406,0.037875457875457874,2.5674725274725274,0.6245421245421244
1.5862894329911796,0.037875457875457874,2.5674725274725274,0.6245421245421244
1.5880014799913624,0.037875457875457874,2.5674725274725274,0.6245421245421244
1.5918194739933824,0.037875457875457874,2.5674725274725274,0.6245421245421244
1.5955861139955232,0.037875457875457874,2.5674725274725274,0.6245421245421244
1.6010580750007648,0.037875457875457874,2.5674725274725274,0.6245421245421244
1.6026010069908807,0.037875457875457874,2.5674725274725274,0.6245421245421244
1.6070172929903492,0.0024175824175824176,3.3,0.2683516483516483
1.6086292209947715,0.0024175824175824176,3.3,0.2683516483516483
1.6129712959955214,0.0024175824175824176,3.3,0.2683516483516483
1.6145475020020967,0.0024175824175824176,3.3,0.2683516483516483
1.6189173159946222,0.0024175824175824176,3.3,0.2683516483516483
1.6205165629944531,0.7792673992673992,2.9655677655677657,1.1104761904761904
1.6256231680017663,0.7792673992673992,2.9655677655677657,1.1104761904761904
1.6291705100011313,0.7792673992673992,2.9655677655677657,1.1104761904761904
1.6293802540021716,0.7792673992673992,2.9655677655677657,1.1104761904761904
1.634079606999876,0.7792673992673992,2.9655677655677657,1.1104761904761904
1.634316048992332,0.4254945054945055,0.5745787545787545,1.1322344322344322
1.6389889860001858,1.6947252747252746,1.8897435897435895,0.6124542124542125
1.639285283992649,1.6947252747252746,1.8897435897435895,0.6124542124542125
1.6439473389909836,1.6947252747252746,1.8897435897435895,0.6124542124542125
1.6442046989977825,1.6947252747252746,1.8897435897435895,0.6124542124542125
1.6489508090016898,1.6947252747252746,1.8897435897435895,0.6124542124542125
1.649287613996421,1.6947252747252746,1.8897435897435895,0.6124542124542125
1.6535263550031232,1.6947252747252746,1.8897435897435895,0.6124542124542125
1.6566634769988013,1.6947252747252746,1.8897435897435895,0.6124542124542125
1.658151312993141,1.6947252747252746,1.8897435897435895,0.6124542124542125
1.662411996992887,1.6947252747252746,1.8897435897435895,0.6124542124542125
1.664640850998694,1.6947252747252746,1.8897435897435895,0.6124542124542125
1.6660913739906391,1.24021978021978,1.4271794871794872,0.48432234432234433
1.6702391619910486,1.24021978021978,1.4271794871794872,0.48432234432234433
1.6736413489998085,0.0,0.39890109890109887,0.09670329670329669
1.6744473959988682,1.1322344322344322,1.6504029304029304,1.3248351648351648
1.6759596769989002,1.1322344322344322,1.6504029304029304,1.3248351648351648
1.6800862439995399,1.1322344322344322,1.6504029304029304,1.3248351648351648
1.6828496550006093,1.1322344322344322,1.6504029304029304,1.3248351648351648
1.686917347004055,1.1322344322344322,1.6504029304029304,1.3248351648351648
1.6903230829921085,2.46029304029304,2.9695970695970697,0.5915018315018314
1.6911098419950576,0.2232234432234432,0.2079120879120879,0.09267399267399268
1.693189697994967,0.2232234432234432,0.2079120879120879,0.09267399267399268
1.694653913989896,0.2232234432234432,0.2079120879120879,0.09267399267399268
1.6995108749979408,0.2232234432234432,0.2079120879120879,0.09267399267399268
1.6996136829984607,0.2232234432234432,0.2079120879120879,0.09267399267399268
1.7043561919999775,0.2232234432234432,0.2079120879120879,0.09267399267399268
1.7045644339959836,0.2232234432234432,0.2079120879120879,0.09267399267399268
1.7093607139977394,0.2232234432234432,0.2079120879120879,0.09267399267399268
1.7094780490006087,0.2232234432234432,0.2079120879120879,0.09267399267399268
1.7143297309958143,0.2232234432234432,0.2079120879120879,0.09267399267399268
1.7144263989903266,0.2232234432234432,0.2079120879120879,0.09267399267399268
1.7191496820014436,0.2232234432234432,0.2079120879120879,0.09267399267399268
1.7193999079900095,0.2232234432234432,0.2079120879120879,0.09267399267399268
1.72423571399122,0.2232234432234432,0.2079120879120879,0.09267399267399268
1.7244198129919823,0.2232234432234432,0.2079120879120879,0.09267399267399268
1.7291983449977124,0.2232234432234432,0.2079120879120879,0.09267399267399268
1.7293987339944579,0.2232234432234432,0.2079120879120879,0.09267399267399268
1.7341784079908393,0.2232234432234432,0.2079120879120879,0.09267399267399268
1.7344252909970237,0.2232234432234432,0.2079120879120879,0.09267399267399268
1.7391103330010083,0.2232234432234432,0.2079120879120879,0.09267399267399268
1.7398899309919216,0.2232234432234432,0.2079120879120879,0.09267399267399268
1.7420204139925772,0.2232234432234432,0.2079120879120879,0.09267399267399268
1.7428366590029327,0.2232234432234432,0.2079120879120879,0.09267399267399268
1.7449411550041987,0.2232234432234432,0.2079120879120879,0.09267399267399268
1.745782636993681,0.2232234432234432,0.2079120879120879,0.09267399267399268
1.7478301230003126,0.2232234432234432,0.2079120879120879,0.09267399267399268
1.7492773749982007,0.2232234432234432,0.2079120879120879,0.09267399267399268
1.7540796020039124,0.2232234432234432,0.2079120879120879,0.09267399267399268
1.7542920389969368,0.2232234432234432,0.2079120879120879,0.09267399267399268
1.7593625869922107,0.2232234432234432,0.2079120879120879,0.09267399267399268
1.7634701009956188,0.2232234432234432,0.2079120879120879,0.09267399267399268
1.7662375130021246,0.2232234432234432,0.2079120879120879,0.09267399267399268
1.7703907590039307,2.647252747252747,3.295164835164835,0.47142857142857136
1.773951474999194,0.029816849816849816,0.09025641025641025,0.13941391941391942
1.7741455920040607,0.029816849816849816,0.09025641025641025,0.13941391941391942
1.7788134479924338,0.029816849816849816,0.09025641025641025,0.13941391941391942
1.7790891140029998,0.029816849816849816,0.09025641025641025,0.13941391941391942
1.7838707560003968,0.029816849816849816,0.09025641025641025,0.13941391941391942
1.7840306239959318,0.029816849816849816,0.09025641025641025,0.13941391941391942
1.7887507169944001,0.029816849816849816,0.09025641025641025,0.13941391941391942
1.788985124003375,0.029816849816849816,0.09025641025641025,0.13941391941391942
1.7937299570039613,0.029816849816849816,0.09025641025641025,0.13941391941391942
1.7939043770020362,1.129010989010989,1.5367765567765568,0.9767032967032967
1.7987060739978915,1.129010989010989,1.5367765567765568,0.9767032967032967
1.8034746719931718,1.129010989010989,1.5367765567765568,0.9767032967032967
1.8037129169970285,1.129010989010989,1.5367765567765568,0.9767032967032967
1.8084391459997278,1.129010989010989,1.5367765567765568,0.9767032967032967
1.8086294120003004,1.129010989010989,1.5367765567765568,0.9767032967032967
1.813481702003628,1.129010989010989,1.5367765567765568,0.9767032967032967
1.8182977870019386,1.129010989010989,1.5367765567765568,0.9767032967032967
1.8230000350013142,1.070989010989011,1.4005860805860806,0.6745054945054945
1.8232622340001399,1.070989010989011,1.4005860805860806,0.6745054945054945
1.827962009003386,1.070989010989011,1.4005860805860806,0.6745054945054945
1.8282198599918047,0.4013186813186813,0.4432234432234432,0.13699633699633698
1.8329891129978932,0.4013186813186813,0.4432234432234432,0.13699633699633698
1.8331199219974224,0.4013186813186813,0.4432234432234432,0.13699633699633698
1.837956421994022,0.4013186813186813,0.4432234432234432,0.13699633699633698
1.842658401990775,0.4013186813186813,0.4432234432234432,0.13699633699633698
1.8434649010014255,0.08542124542124542,0.5197802197802197,0.2328937728937729
1.8455348470015451,0.3432967032967033,0.19904761904761903,0.04593406593406593
1.8470449890010059,0.3432967032967033,0.19904761904761903,0.04593406593406593
1.851308331999462,0.3432967032967033,0.19904761904761903,0.04593406593406593
1.8534218760032672,0.0,0.07252747252747253,0.06608058608058608
1.854850699994131,0.0,0.07252747252747253,0.06608058608058608
1.860043995999149,0.0,0.07252747252747253,0.06608058608058608
1.862749726002221,0.0,0.07252747252747253,0.06608058608058608
1.8668415849970188,0.0,0.07252747252747253,0.06608058608058608
1.8696238179982174,0.0,0.07252747252747253,0.06608058608058608
1.873664575003204,0.0,0.07252747252747253,0.06608058608058608
1.8764197799901012,0.0,0.07252747252747253,0.06608058608058608
1.8799233239988098,0.0,0.07252747252747253,0.06608058608058608
1.8807132759975502,0.0,0.07252747252747253,0.06608058608058608
1.8828321379987756,0.0,0.07252747252747253,0.06608058608058608
1.8836226269922918,0.0,0.07252747252747253,0.06608058608058608
1.8857441680011107,0.0,0.07252747252747253,0.06608058608058608
1.887198055992485,0.0,0.07252747252747253,0.06608058608058608
1.8913404999912018,0.3747252747252747,0.448058608058608,0.19179487179487179
1.8942436639918014,0.3747252747252747,0.448058608058608,0.19179487179487179
1.8977911230031168,0.3747252747252747,0.448058608058608,0.19179487179487179
1.8980177929915953,0.3747252747252747,0.448058608058608,0.19179487179487179
1.90285912300169,0.3747252747252747,0.448058608058608,0.19179487179487179
1.9029889349912992,0.3747252747252747,0.448058608058608,0.19179487179487179
1.907912980997935,0.3747252747252747,0.448058608058608,0.19179487179487179
1.9080783050012542,0.3747252747252747,0.448058608058608,0.19179487179487179
1.9127819199929945,0.3747252747252747,0.448058608058608,0.19179487179487179
1.9130072690022644,0.3747252747252747,0.448058608058608,0.19179487179487179
1.9182824460003758,0.3747252747252747,0.448058608058608,0.19179487179487179
1.921050707998802,1.1830036630036629,1.2692307692307692,0.2772161172161172
1.9245208840002306,0.5334798534798535,0.6406593406593406,0.5552380952380952
1.9252831999910995,0.5334798534798535,0.6406593406593406,0.5552380952380952
1.9273719909979263,0.5334798534798535,0.6406593406593406,0.5552380952380952
1.9288049869937822,0.5334798534798535,0.6406593406593406,0.5552380952380952
1.9336772270034999,0.2635164835164835,0.30058608058608055,0.08139194139194139
1.9378458260034677,1.004102564102564,1.411062271062271,0.917069597069597
1.9406556369940517,1.004102564102564,1.411062271062271,0.917069597069597
1.9441622189915506,1.004102564102564,1.411062271062271,0.917069597069597
1.9443913769937353,1.004102564102564,1.411062271062271,0.917069597069597
1.949201366995112,1.004102564102564,1.411062271062271,0.917069597069597
1.9540368239977397,1.004102564102564,1.411062271062271,0.917069597069597
1.954193411002052,0.43999999999999995,0.1772893772893773,0.5084981684981685
1.9585704060009448,0.43999999999999995,0.1772893772893773,0.5084981684981685
1.9607001399999717,0.43999999999999995,0.1772893772893773,0.5084981684981685
1.9615358779992675,0.43999999999999995,0.1772893772893773,0.5084981684981685
1.963072836995707,0.43999999999999995,0.1772893772893773,0.5084981684981685
1.9671502510027494,0.06688644688644689,0.22725274725274724,0.3545787545787546
1.9705254599975888,0.06688644688644689,0.22725274725274724,0.3545787545787546
1.9719178300001658,0.06688644688644689,0.22725274725274724,0.3545787545787546
1.9768779820005875,1.3143589743589743,1.4787545787545788,1.0645421245421245
1.9815764939994551,1.3143589743589743,1.4787545787545788,1.0645421245421245
1.9817612490005558,1.3143589743589743,1.4787545787545788,1.0645421245421245
1.9864543159928871,1.3143589743589743,1.4787545787545788,1.0645421245421245
1.9866419299942208,0.08542124542124542,0.05963369963369963,0.14666666666666667
1.9922021829988807,0.1958241758241758,0.42065934065934063,0.04351648351648352
1.9924561899970286,0.1958241758241758,0.42065934065934063,0.04351648351648352
1.9982095969899092,0.1958241758241758,0.42065934065934063,0.04351648351648352
1.9984258850017795,0.1958241758241758,0.42065934065934063,0.04351648351648352
2.003580956996302,0.1958241758241758,0.42065934065934063,0.04351648351648352
2.007289539993508,0.1958241758241758,0.42065934065934063,0.04351648351648352
2.0124645000032615,0.1958241758241758,0.42065934065934063,0.04351648351648352
2.0161571700009517,0.1958241758241758,0.42065934065934063,0.04351648351648352
2.021367522989749,0.1958241758241758,0.42065934065934063,0.04351648351648352
2.0251447490009014,0.1958241758241758,0.42065934065934063,0.04351648351648352
2.0293627729988657,0.1958241758241758,0.42065934065934063,0.04351648351648352
2.0321048030018574,0.1958241758241758,0.42065934065934063,0.04351648351648352
2.0361461239954224,0.1958241758241758,0.42065934065934063,0.04351648351648352
2.0395697579951957,1.0774358974358973,0.954945054945055,0.32717948717948714
2.0403855359909358,1.187032967032967,1.4142857142857141,0.9742857142857142
2.0419074590026867,1.187032967032967,1.4142857142857141,0.9742857142857142
2.0460421979951207,1.187032967032967,1.4142857142857141,0.9742857142857142
2.048881230002735,1.187032967032967,1.4142857142857141,0.9742857142857142
2.0523523150041,1.187032967032967,1.4142857142857141,0.9742857142857142
2.0526304009981686,1.187032967032967,1.4142857142857141,0.9742857142857142
2.0576435269904323,1.187032967032967,1.4142857142857141,0.9742857142857142
2.0618656639999244,1.187032967032967,1.4142857142857141,0.9742857142857142
2.064679798990255,1.187032967032967,1.4142857142857141,0.9742857142857142
2.0681341699964833,1.187032967032967,1.4142857142857141,0.9742857142857142
2.0683341739932075,1.187032967032967,1.4142857142857141,0.9742857142857142
2.07322033100354,1.187032967032967,1.4142857142857141,0.9742857142857142
2.0780285469954833,1.187032967032967,1.4142857142857141,0.9742857142857142
2.0781418169935932,1.187032967032967,1.4142857142857141,0.9742857142857142
2.083383586999844,1.187032967032967,1.4142857142857141,0.9742857142857142
2.0864583770016907,1.187032967032967,1.4142857142857141,0.9742857142857142
2.088785016996553,0.5197802197802197,0.5173626373626373,0.20468864468864467
2.0890128710016143,0.5197802197802197,0.5173626373626373,0.20468864468864467
2.0941614679904887,0.0,0.051575091575091575,0.033846153846153845
2.097190682994551,0.0,0.051575091575091575,0.033846153846153845
2.100205502996687,0.0,0.051575091575091575,0.033846153846153845
2.102511933000642,0.0,0.051575091575091575,0.033846153846153845
2.102682572003687,0.0,0.051575091575091575,0.033846153846153845
2.1078363599954173,0.0,0.051575091575091575,0.033846153846153845
2.1112222009978723,0.0,0.051575091575091575,0.033846153846153845
2.111369806996663,0.0,0.051575091575091575,0.033846153846153845
2.11622682599409,0.0,0.051575091575091575,0.033846153846153845
2.1212767620017985,0.0,0.051575091575091575,0.033846153846153845
2.1250483929907205,0.0,0.051575091575091575,0.033846153846153845
2.130365195000195,0.0,0.051575091575091575,0.033846153846153845
2.1319913579936838,0.0,0.051575091575091575,0.033846153846153845
2.135737361997599,0.0,0.051575091575091575,0.033846153846153845
2.140962182995281,0.0,0.051575091575091575,0.033846153846153845
2.143963276001159,0.0,0.051575091575091575,0.033846153846153845
2.1462274009973044,0.0,0.11765567765567764,0.3852014652014652
2.1463957200030563,0.0,0.11765567765567764,0.3852014652014652
2.1516360959940357,0.0,0.11765567765567764,0.3852014652014652
2.154664478992345,0.0,0.11765567765567764,0.3852014652014652
2.157271841992042,0.0,0.11765567765567764,0.3852014652014652
2.1618097460013814,0.0,0.11765567765567764,0.3852014652014652
2.1626272319990676,0.09347985347985348,0.28930402930402926,0.46820512820512816
2.1650068599992665,0.09347985347985348,0.28930402930402926,0.46820512820512816
2.1703524039912736,0.09347985347985348,0.28930402930402926,0.46820512820512816
2.1732922029914334,0.09347985347985348,0.28930402930402926,0.46820512820512816
2.176250409989734,0.09347985347985348,0.28930402930402926,0.46820512820512816
2.1792597860039677,1.5013186813186812,1.4843956043956044,1.0395604395604394
2.1817083149944665,1.5013186813186812,1.4843956043956044,1.0395604395604394
2.1819421830005012,0.03626373626373627,0.311062271062271,0.25142857142857145
2.1873446910030907,0.03626373626373627,0.311062271062271,0.25142857142857145
2.189619190990925,0.03626373626373627,0.311062271062271,0.25142857142857145
2.1899248469999293,0.03626373626373627,0.311062271062271,0.25142857142857145
2.195046052991529,0.03626373626373627,0.311062271062271,0.25142857142857145
2.1987390849972144,0.03626373626373627,0.311062271062271,0.25142857142857145
2.198857119990862,0.03626373626373627,0.311062271062271,0.25142857142857145
2.2039550749905175,0.03626373626373627,0.311062271062271,0.25142857142857145
2.207851622995804,0.03626373626373627,0.311062271062271,0.25142857142857145
2.2115785499918275,0.03626373626373627,0.311062271062271,0.25142857142857145
2.2166097599983914,0.03626373626373627,0.311062271062271,0.25142857142857145
2.2212944670027355,0.03626373626373627,0.311062271062271,0.25142857142857145
2.2214290679985425,0.03626373626373627,0.311062271062271,0.25142857142857145
2.226914097991539,0.03626373626373627,0.311062271062271,0.25142857142857145
2.228589974998613,0.51010989010989,0.381978021978022,0.2191941391941392
2.2324697809963254,0.51010989010989,0.381978021978022,0.2191941391941392
2.2371568130038213,0.51010989010989,0.381978021978022,0.2191941391941392
2.2373247029900085,0.51010989010989,0.381978021978022,0.2191941391941392
2.242855738993967,0.51010989010989,0.381978021978022,0.2191941391941392
2.2444483330036746,0.51010989010989,0.381978021978022,0.2191941391941392
2.2488645919947885,0.51010989010989,0.381978021978022,0.2191941391941392
2.250398937991122,0.51010989010989,0.381978021978022,0.2191941391941392
2.2548645619972376,0.51010989010989,0.381978021978022,0.2191941391941392
2.2564465909963474,0.51010989010989,0.381978021978022,0.2191941391941392
2.2608772399980808,0.51010989010989,0.381978021978022,0.2191941391941392
2.262340661996859,0.51010989010989,0.381978021978022,0.2191941391941392
2.266740541992476,0.51010989010989,0.381978021978022,0.2191941391941392
2.2689098099945113,0.51010989010989,0.381978021978022,0.2191941391941392
2.2697461229981855,0.51010989010989,0.381978021978022,0.2191941391941392
2.271912993994192,0.51010989010989,0.381978021978022,0.2191941391941392
2.2727735259977635,0.51010989010989,0.381978021978022,0.2191941391941392
2.274987347991555,0.51010989010989,0.381978021978022,0.2191941391941392
2.2757513300020946,0.51010989010989,0.381978021978022,0.2191941391941392
2.277977635996649,0.51010989010989,0.381978021978022,0.2191941391941392
2.27882450800098,1.0186080586080586,1.3014652014652013,1.224908424908425
2.280958481002017,1.0186080586080586,1.3014652014652013,1.224908424908425
2.281760812998982,1.0186080586080586,1.3014652014652013,1.224908424908425
2.283906077995198,1.0186080586080586,1.3014652014652013,1.224908424908425
2.2847538530040765,0.5455677655677655,0.3384615384615384,0.3223443223443223
2.286275291990023,0.5455677655677655,0.3384615384615384,0.3223443223443223
2.2910882139985915,0.5455677655677655,0.3384615384615384,0.3223443223443223
2.2912603699951433,1.083076923076923,1.6649084249084247,1.4183150183150184
2.2961753089912236,1.083076923076923,1.6649084249084247,1.4183150183150184
2.301682418998098,1.083076923076923,1.6649084249084247,1.4183150183150184
2.302568044004147,0.41340659340659336,0.8163369963369963,0.9807326007326007
2.3041348760016263,0.41340659340659336,0.8163369963369963,0.9807326007326007
2.307815191001282,0.41340659340659336,0.8163369963369963,0.9807326007326007
2.3079154299921356,0.45369963369963373,0.35619047619047617,0.21274725274725276
2.312676115994691,0.45369963369963373,0.35619047619047617,0.21274725274725276
2.3128707779978868,0.6108424908424909,0.7486446886446886,1.3772161172161173
2.317795623996062,0.3021978021978022,0.07736263736263736,0.5649084249084249
2.32260620399029,0.3021978021978022,0.07736263736263736,0.5649084249084249
2.3228634419938317,0.4319413919413919,0.6753113553113552,1.0024908424908423
2.3277145430038217,0.4319413919413919,0.6753113553113552,1.0024908424908423
2.332588906996534,1.0798534798534798,1.4328205128205127,0.4391941391941392
2.3374145830021007,0.0,0.03062271062271062,0.15311355311355312
2.337599425998633,0.0,0.03062271062271062,0.15311355311355312
2.3424703259952366,0.0,0.03062271062271062,0.15311355311355312
2.347586035990389,0.0,0.03062271062271062,0.15311355311355312
2.350594067000202,0.0,0.03062271062271062,0.15311355311355312
2.35359212399635,0.0,0.03062271062271062,0.15311355311355312
2.3559046189911896,0.0,0.03062271062271062,0.15311355311355312
2.3561537499917904,0.0,0.03062271062271062,0.15311355311355312
2.3617063330020756,0.0,0.03062271062271062,0.15311355311355312
2.3633812609914457,0.0,0.5455677655677655,0.7236630036630036
2.3673045149917016,0.0,0.5455677655677655,0.7236630036630036
2.3710713100008434,0.0,0.5455677655677655,0.7236630036630036
2.375730437997845,0.0,0.5455677655677655,0.7236630036630036
2.3759631629945943,0.0,0.5455677655677655,0.7236630036630036
2.381359099992551,0.0,0.5455677655677655,0.7236630036630036
2.383150259993272,0.04673992673992674,0.3997069597069597,0.5221978021978021
2.3862556340027368,0.04673992673992674,0.3997069597069597,0.5221978021978021
2.3887530810025055,1.2772893772893772,1.2176556776556777,0.34007326007326005
2.3942293540021637,0.21274725274725276,0.28205128205128205,0.14102564102564102
2.396437645991682,0.21274725274725276,0.28205128205128205,0.14102564102564102
2.397278963995632,0.21274725274725276,0.28205128205128205,0.14102564102564102
2.398905134992674,0.21274725274725276,0.28205128205128205,0.14102564102564102
2.4033341699978337,0.21274725274725276,0.28205128205128205,0.14102564102564102
2.4048829469975317,0.05318681318681319,0.473040293040293,0.19663003663003664
2.4093449779902585,0.05318681318681319,0.473040293040293,0.19663003663003664
2.4101676709979074,0.05318681318681319,0.473040293040293,0.19663003663003664
2.4117597579897847,0.05318681318681319,0.473040293040293,0.19663003663003664
2.4154760270030238,0.05318681318681319,0.473040293040293,0.19663003663003664
2.415616123995278,0.05318681318681319,0.473040293040293,0.19663003663003664
2.420947819002322,0.05318681318681319,0.473040293040293,0.19663003663003664
2.423396728991065,0.05318681318681319,0.473040293040293,0.19663003663003664
2.428707218990894,0.05318681318681319,0.473040293040293,0.19663003663003664
2.432430845001363,0.05318681318681319,0.473040293040293,0.19663003663003664
2.4377723159996094,1.157216117216117,1.4763369963369963,1.2958241758241758
2.440279059999739,1.157216117216117,1.4763369963369963,1.2958241758241758
2.4457250559935346,1.157216117216117,1.4763369963369963,1.2958241758241758
2.44727754300402,1.157216117216117,1.4763369963369963,1.2958241758241758
2.4507584090024466,1.157216117216117,1.4763369963369963,1.2958241758241758
2.451569783996092,0.06688644688644689,0.07655677655677656,0.08945054945054945
2.453718675998971,1.1773626373626374,1.3997802197802196,1.1257875457875457
2.4545468099968275,1.1773626373626374,1.3997802197802196,1.1257875457875457
2.456761428999016,1.1773626373626374,1.3997802197802196,1.1257875457875457
2.457875776992296,1.1773626373626374,1.3997802197802196,1.1257875457875457
2.4581346920022042,1.1056410256410254,1.270842490842491,0.9146520146520146
2.4629677009943407,1.1056410256410254,1.270842490842491,0.9146520146520146
2.4679162800021004,1.1056410256410254,1.270842490842491,0.9146520146520146
2.4727037970005767,1.1056410256410254,1.270842490842491,0.9146520146520146
2.4728822879988,1.1056410256410254,1.270842490842491,0.9146520146520146
2.4786359629943036,1.1056410256410254,1.270842490842491,0.9146520146520146
2.478901754002436,1.3804395604395605,1.4247619047619047,0.7953846153846154
2.4836240029981127,1.3804395604395605,1.4247619047619047,0.7953846153846154
2.4838223249971634,1.3804395604395605,1.4247619047619047,0.7953846153846154
2.4885633689991664,1.3804395604395605,1.4247619047619047,0.7953846153846154
2.4888724299962632,1.3804395604395605,1.4247619047619047,0.7953846153846154
2.4935603469930356,1.3804395604395605,1.4247619047619047,0.7953846153846154
2.4937457499909215,1.3804395604395605,1.4247619047619047,0.7953846153846154
2.4984450249903603,1.3804395604395605,1.4247619047619047,0.7953846153846154
2.4986499439983163,1.3804395604395605,1.4247619047619047,0.7953846153846154
2.503419294997002,1.3804395604395605,1.4247619047619047,0.7953846153846154
2.508217816997785,1.3804395604395605,1.4247619047619047,0.7953846153846154
2.5083237429935252,1.3804395604395605,1.4247619047619047,0.7953846153846154
2.513091913991957,1.3804395604395605,1.4247619047619047,0.7953846153846154
2.5132609010033775,1.3804395604395605,1.4247619047619047,0.7953846153846154
2.5180946350010345,1.3804395604395605,1.4247619047619047,0.7953846153846154
2.5182311679964187,1.3804395604395605,1.4247619047619047,0.7953846153846154
2.523052438002196,0.7607326007326007,0.7776556776556776,0.772014652014652
2.5278419149981346,0.7607326007326007,0.7776556776556776,0.772014652014652
2.528029843000695,2.5344322344322343,2.755238095238095,0.3352380952380952
2.5328554790030466,2.5344322344322343,2.755238095238095,0.3352380952380952
2.5330269199912436,2.5344322344322343,2.755238095238095,0.3352380952380952
2.537750691990368,2.5344322344322343,2.755238095238095,0.3352380952380952
2.5378845800005365,1.2039560439560437,1.1257875457875457,0.8139194139194139
2.5420790130010573,1.2039560439560437,1.1257875457875457,0.8139194139194139
2.5448675569932675,1.2039560439560437,1.1257875457875457,0.8139194139194139
2.5483246880030492,1.2039560439560437,1.1257875457875457,0.8139194139194139
2.548579672991764,1.2039560439560437,1.1257875457875457,0.8139194139194139
2.5534779869922204,1.2039560439560437,1.1257875457875457,0.8139194139194139
2.557929771995987,1.2039560439560437,1.1257875457875457,0.8139194139194139
2.5587059129902627,1.2039560439560437,1.1257875457875457,0.8139194139194139
2.560904733996722,1.2039560439560437,1.1257875457875457,0.8139194139194139
2.561181076001958,1.2039560439560437,1.1257875457875457,0.8139194139194139
2.565989344002446,1.2039560439560437,1.1257875457875457,0.8139194139194139
2.5662511389964493,1.2039560439560437,1.1257875457875457,0.8139194139194139
2.570838615996763,1.2039560439560437,1.1257875457875457,0.8139194139194139
2.5711189589928836,1.2039560439560437,1.1257875457875457,0.8139194139194139
2.5757595500035677,1.2039560439560437,1.1257875457875457,0.8139194139194139
2.5759916889946908,1.2039560439560437,1.1257875457875457,0.8139194139194139
2.580653821991291,1.2039560439560437,1.1257875457875457,0.8139194139194139
2.580940665997332,1.2039560439560437,1.1257875457875457,0.8139194139194139
2.585627555003157,1.2039560439560437,1.1257875457875457,0.8139194139194139
2.585937397001544,1.2039560439560437,1.1257875457875457,0.8139194139194139
2.5907655409973813,0.61003663003663,0.49882783882783877,0.2917216117216117
2.5908867889957037,0.0,0.08783882783882783,0.11604395604395604
2.5960747740027728,0.0,0.08783882783882783,0.11604395604395604
2.5990924179932335,0.8888644688644688,0.7438095238095238,1.1717216117216116
2.601359811000293,0.8888644688644688,0.7438095238095238,1.1717216117216116
2.6016975439997623,0.8888644688644688,0.7438095238095238,1.1717216117216116
2.606952845992055,0.8888644688644688,0.7438095238095238,1.1717216117216116
2.6094160429929616,0.8888644688644688,0.7438095238095238,1.1717216117216116
2.6095802069903584,0.8888644688644688,0.7438095238095238,1.1717216117216116
2.61489307199372,0.8888644688644688,0.7438095238095238,1.1717216117216116
2.6171474479924655,0.8888644688644688,0.7438095238095238,1.1717216117216116
2.617389805993298,0.8888644688644688,0.7438095238095238,1.1717216117216116
2.6220867249940056,0.8888644688644688,0.7438095238095238,1.1717216117216116
2.6223227360023884,0.8888644688644688,0.7438095238095238,1.1717216117216116
2.6277544670010684,0.8888644688644688,0.7438095238095238,1.1717216117216116
2.629338992992416,0.8888644688644688,0.7438095238095238,1.1717216117216116
2.6330286729935324,0.1958241758241758,0.35135531135531134,0.06043956043956044
2.6382743919966742,0.3997069597069597,0.33684981684981685,0.4037362637362637
2.641679320993717,0.3997069597069597,0.33684981684981685,0.4037362637362637
2.6424796969949966,0.3997069597069597,0.33684981684981685,0.4037362637362637
2.6448516879900126,0.3997069597069597,0.33684981684981685,0.4037362637362637
2.6449917099962477,0.3997069597069597,0.33684981684981685,0.4037362637362637
2.650166375999106,0.3997069597069597,0.33684981684981685,0.4037362637362637
2.653130617996794,0.3997069597069597,0.33684981684981685,0.4037362637362637
2.656776763004018,0.3997069597069597,0.33684981684981685,0.4037362637362637
2.656953842990333,0.3997069597069597,0.33684981684981685,0.4037362637362637
2.6620294070016826,0.3997069597069597,0.33684981684981685,0.4037362637362637
2.6658513979928102,0.3997069597069597,0.33684981684981685,0.4037362637362637
2.6710778120032046,0.3997069597069597,0.33684981684981685,0.4037362637362637
2.67485340499843,0.3997069597069597,0.33684981684981685,0.4037362637362637
2.6801268510025693,0.28608058608058606,0.2562637362637363,0.39003663003663
2.6831078129907837,0.28608058608058606,0.2562637362637363,0.39003663003663
2.6867573389899917,0.28608058608058606,0.2562637362637363,0.39003663003663
2.6920115550019545,0.28608058608058606,0.2562637362637363,0.39003663003663
2.6957480059936643,0.28608058608058606,0.2562637362637363,0.39003663003663
2.701085716995294,0.28608058608058606,0.2562637362637363,0.39003663003663
2.7040702029917156,0.28608058608058606,0.2562637362637363,0.39003663003663
2.7071720590029145,0.28608058608058606,0.2562637362637363,0.39003663003663
2.709522973993444,0.28608058608058606,0.2562637362637363,0.39003663003663
2.7103533189947484,0.28608058608058606,0.2562637362637363,0.39003663003663
2.711283137992723,0.28608058608058606,0.2562637362637363,0.39003663003663
2.71285521799291,0.28608058608058606,0.2562637362637363,0.39003663003663
2.7173338089924073,0.28608058608058606,0.2562637362637363,0.39003663003663
2.7183042419928825,0.28608058608058606,0.2562637362637363,0.39003663003663
2.7199145829945337,1.0049084249084248,1.129010989010989,1.0677655677655677
2.7236924939934397,1.0049084249084248,1.129010989010989,1.0677655677655677
2.7281679619918577,1.0049084249084248,1.129010989010989,1.0677655677655677
2.7290475569898263,1.0049084249084248,1.129010989010989,1.0677655677655677
2.7300450289912988,1.0049084249084248,1.129010989010989,1.0677655677655677
2.7316418959962903,1.0049084249084248,1.129010989010989,1.0677655677655677
2.7361145049944753,1.0049084249084248,1.129010989010989,1.0677655677655677
2.7363434129947564,1.0049084249084248,1.129010989010989,1.0677655677655677
2.740858656994533,1.0049084249084248,1.129010989010989,1.0677655677655677
2.7417574860010063,1.0049084249084248,1.129010989010989,1.0677655677655677
2.743368887997349,1.0049084249084248,1.129010989010989,1.0677655677655677
2.74713355799031,1.0049084249084248,1.129010989010989,1.0677655677655677
2.7515033809904708,0.5520146520146519,0.5036630036630036,0.2925274725274725
2.7530882110004313,0.5520146520146519,0.5036630036630036,0.2925274725274725
2.7568154579930706,0.5520146520146519,0.5036630036630036,0.2925274725274725
2.756946389999939,0.5520146520146519,0.5036630036630036,0.2925274725274725
2.7624112219928065,0.5520146520146519,0.5036630036630036,0.2925274725274725
2.7640629380039172,0.5520146520146519,0.5036630036630036,0.2925274725274725
2.768481797000277,0.5520146520146519,0.5036630036630036,0.2925274725274725
2.7700646680023056,0.5520146520146519,0.5036630036630036,0.2925274725274725
2.774531354996725,0.5520146520146519,0.5036630036630036,0.2925274725274725
2.7760627179959556,0.5520146520146519,0.5036630036630036,0.2925274725274725
2.7806293699977687,1.7454945054945055,1.6334798534798534,0.5552380952380952
2.7809100919985212,1.7454945054945055,1.6334798534798534,0.5552380952380952
2.790066235989798,1.7454945054945055,1.6334798534798534,0.5552380952380952
2.7969795300014084,0.07333333333333333,0.4383882783882784,0.36666666666666664
2.802516210998874,0.07333333333333333,0.4383882783882784,0.36666666666666664
2.809872964004171,0.07333333333333333,0.4383882783882784,0.36666666666666664
2.814369687999715,0.34813186813186814,0.31509157509157504,0.2715750915750916
2.815936282990151,1.0613186813186812,1.315970695970696,1.539194139194139
2.8204138209985103,1.0613186813186812,1.315970695970696,1.539194139194139
2.821303040997009,1.0613186813186812,1.315970695970696,1.539194139194139
2.8222129399946425,1.0613186813186812,1.315970695970696,1.539194139194139
2.8238181929918937,1.0613186813186812,1.315970695970696,1.539194139194139
2.8276773459947435,1.0613186813186812,1.315970695970696,1.539194139194139
2.8321001559961587,1.0613186813186812,1.315970695970696,1.539194139194139
2.832997435994912,0.04915750915750916,0.08703296703296703,0.17084249084249084
2.834669424002641,0.04915750915750916,0.08703296703296703,0.17084249084249084
2.8392507300013676,0.04915750915750916,0.08703296703296703,0.17084249084249084
2.83960883099644,1.1628571428571428,1.3006593406593405,1.1805860805860806
2.847021149995271,1.1628571428571428,1.3006593406593405,1.1805860805860806
2.851211932997103,0.469010989010989,0.7518681318681318,0.8397069597069596
2.853980252999463,0.469010989010989,0.7518681318681318,0.8397069597069596
2.858195277993218,0.469010989010989,0.7518681318681318,0.8397069597069596
2.86465705599403,0.469010989010989,0.7518681318681318,0.8397069597069596
2.869639340991853,0.469010989010989,0.7518681318681318,0.8397069597069596
2.8735763220029185,0.469010989010989,0.7518681318681318,0.8397069597069596
2.877346242996282,0.469010989010989,0.7518681318681318,0.8397069597069596
2.8852266869944287,0.469010989010989,0.7518681318681318,0.8397069597069596
2.8911888069997076,0.469010989010989,0.7518681318681318,0.8397069597069596
2.8966891299933195,1.0975824175824174,1.4610256410256408,0.6511355311355311
2.8977830259973416,1.0975824175824174,1.4610256410256408,0.6511355311355311
2.898019401996862,1.0975824175824174,1.4610256410256408,0.6511355311355311
2.9025820169918006,1.0975824175824174,1.4610256410256408,0.6511355311355311
2.903425491997041,0.37875457875457874,1.0927472527472526,1.278901098901099
2.905060274002608,0.37875457875457874,1.0927472527472526,1.278901098901099
2.909074025999871,0.37875457875457874,1.0927472527472526,1.278901098901099
2.916727121002623,0.5874725274725274,0.5431501831501832,0.307032967032967
2.922648523002863,0.0,0.0709157509157509,0.13054945054945052
2.931841234996682,0.12329670329670328,0.3884249084249084,0.4504761904761904
2.9386252019903623,0.6825641025641025,0.5931135531135531,0.3465201465201465
2.9426309269911144,0.6825641025641025,0.5931135531135531,0.3465201465201465
2.9488108289951924,0.8840293040293039,1.116923076923077,1.220879120879121
2.9520822889899136,0.8840293040293039,1.116923076923077,1.220879120879121
2.9529997299978277,0.8840293040293039,1.116923076923077,1.220879120879121
2.954617128998507,0.8840293040293039,1.116923076923077,1.220879120879121
2.959059193992289,0.8840293040293039,1.116923076923077,1.220879120879121
2.9605843229946913,1.0935531135531134,1.4336263736263737,1.0685714285714285
2.9658247969928198,1.0935531135531134,1.4336263736263737,1.0685714285714285
2.967467016002047,1.0935531135531134,1.4336263736263737,1.0685714285714285
2.971173676996841,1.0935531135531134,1.4336263736263737,1.0685714285714285
2.9771387810033048,1.0935531135531134,1.4336263736263737,1.0685714285714285
2.9826436519942945,0.8292307692307692,1.3917216117216116,1.0371428571428571
2.982887125996058,0.8292307692307692,1.3917216117216116,1.0371428571428571
2.987336566002341,0.8292307692307692,1.3917216117216116,1.0371428571428571
2.988865031991736,0.8292307692307692,1.3917216117216116,1.0371428571428571
2.994557102996623,0.8292307692307692,1.3917216117216116,1.0371428571428571
2.994851249997737,1.062930402930403,1.4876190476190476,1.3683516483516485
2.999016789995949,1.062930402930403,1.4876190476190476,1.3683516483516485
3.001295175999985,1.062930402930403,1.4876190476190476,1.3683516483516485
3.0014763249928365,1.062930402930403,1.4876190476190476,1.3683516483516485
3.0067030920035904,1.062930402930403,1.4876190476190476,1.3683516483516485
3.0108539420034504,1.062930402930403,1.4876190476190476,1.3683516483516485
3.014236050992622,1.062930402930403,1.4876190476190476,1.3683516483516485
3.0196948800003156,1.062930402930403,1.4876190476190476,1.3683516483516485
3.020562022997183,1.2506959706959706,1.4312087912087912,0.9025641025641026
3.0221659559902037,1.2506959706959706,1.4312087912087912,0.9025641025641026
3.027893859994947,1.2506959706959706,1.4312087912087912,0.9025641025641026
3.035148875991581,1.0331135531135531,0.8695238095238095,0.39809523809523806
3.039688571996521,0.5294505494505495,0.7921611721611721,1.216043956043956
3.0406190069916192,1.236996336996337,1.3594871794871795,0.8864468864468864
3.042220923991408,1.236996336996337,1.3594871794871795,0.8864468864468864
3.0474654150020797,1.236996336996337,1.3594871794871795,0.8864468864468864
3.0497729280032218,0.14263736263736262,0.47062271062271055,0.6479120879120879
3.050055721003446,0.14263736263736262,0.47062271062271055,0.6479120879120879
3.0545139769965317,0.0,0.07655677655677656,0.06849816849816849
3.055994167996687,0.0,0.07655677655677656,0.06849816849816849
3.061411792994477,0.0,0.07655677655677656,0.06849816849816849
3.061856287997216,0.0,0.07655677655677656,0.06849816849816849
3.06816806900315,0.0,0.07655677655677656,0.06849816849816849
3.072110957989935,0.43355311355311354,0.4472527472527472,0.18937728937728937
3.077811365001253,0.0846153846153846,0.0975091575091575,0.20388278388278389
3.078144835002604,0.0846153846153846,0.0975091575091575,0.20388278388278389
3.083070886990754,0.0846153846153846,0.0975091575091575,0.20388278388278389
3.0877314239914995,0.4005128205128205,0.6745054945054945,0.7607326007326007
3.0879787339945324,0.4005128205128205,0.6745054945054945,0.7607326007326007
3.0927217669959646,0.4005128205128205,0.6745054945054945,0.7607326007326007
3.0929036009911215,0.4005128205128205,0.6745054945054945,0.7607326007326007
3.101091799995629,0.4005128205128205,0.6745054945054945,0.7607326007326007
3.105720271996688,0.4005128205128205,0.6745054945054945,0.7607326007326007
3.1059685479995096,0.4005128205128205,0.6745054945054945,0.7607326007326007
3.113008974993136,0.4005128205128205,0.6745054945054945,0.7607326007326007
3.1173201889905613,1.3433699633699634,1.6673260073260072,1.3022710622710623
3.1189055439899676,1.3433699633699634,1.6673260073260072,1.3022710622710623
3.1236278299911646,1.3433699633699634,1.6673260073260072,1.3022710622710623
3.1335395249916473,1.3433699633699634,1.6673260073260072,1.3022710622710623
3.139691820993903,1.3433699633699634,1.6673260073260072,1.3022710622710623
3.144706139995833,0.9960439560439559,0.8115018315018314,0.27399267399267396
3.149939816998085,0.9960439560439559,0.8115018315018314,0.27399267399267396
3.1507871959911427,0.0,0.10395604395604395,0.16197802197802197
3.1523342010041233,0.0,0.10395604395604395,0.16197802197802197
3.156811773995287,0.0,0.10395604395604395,0.16197802197802197
3.157624298997689,0.0,0.10395604395604395,0.16197802197802197
3.161495152002317,0.0,0.10395604395604395,0.16197802197802197
3.1661418139992747,0.0,0.10395604395604395,0.16197802197802197
3.1721187249931972,2.432893772893773,2.8285714285714283,0.43032967032967034
3.1780636579933343,0.0,0.3449084249084249,0.1692307692307692
3.182208325000829,1.1193406593406594,1.51018315018315,0.9839560439560439
3.1837586100009503,1.1193406593406594,1.51018315018315,0.9839560439560439
3.188370675998158,1.1193406593406594,1.51018315018315,0.9839560439560439
3.1886400749936,1.1193406593406594,1.51018315018315,0.9839560439560439
3.1951248139957897,1.1193406593406594,1.51018315018315,0.9839560439560439
3.1985422809957527,1.1193406593406594,1.51018315018315,0.9839560439560439
3.198727658003918,2.4264468864468864,2.768937728937729,0.5721611721611721
3.2031946139904903,0.7921611721611721,1.1757509157509156,1.0452014652014652
3.2040855919913156,0.7921611721611721,1.1757509157509156,1.0452014652014652
3.2056530109985033,0.7921611721611721,1.1757509157509156,1.0452014652014652
3.2113979989953805,0.7921611721611721,1.1757509157509156,1.0452014652014652
3.211626588992658,0.0,0.09992673992673992,0.1652014652014652
3.217245235995506,0.0,0.09992673992673992,0.1652014652014652
3.2174542479915544,0.0,0.09992673992673992,0.1652014652014652
3.223031218003598,0.0,0.09992673992673992,0.1652014652014652
3.2239580899913562,0.0,0.09992673992673992,0.1652014652014652
3.2249404009926366,0.0,0.09992673992673992,0.1652014652014652
3.226107733993558,0.0,0.09992673992673992,0.1652014652014652
3.2268054809974274,0.0,0.09992673992673992,0.1652014652014652
3.2290205789904576,0.0,0.09992673992673992,0.1652014652014652
3.2292743569996674,0.0,0.09992673992673992,0.1652014652014652
3.2345138279924868,0.0,0.09992673992673992,0.1652014652014652
3.2367576809920138,0.0,0.09992673992673992,0.1652014652014652
3.2375770270009525,0.0,0.09992673992673992,0.1652014652014652
3.2390803919988684,0.0,0.09992673992673992,0.1652014652014652
3.2452155810024124,0.0,0.09992673992673992,0.1652014652014652
3.248249999000109,0.0,0.09992673992673992,0.1652014652014652
3.250254878003034,0.0,0.09992673992673992,0.1652014652014652
3.2526961489929818,0.0,0.09992673992673992,0.1652014652014652
3.2575057369977003,0.0,0.09992673992673992,0.1652014652014652
3.264928543998394,0.0,0.09992673992673992,0.1652014652014652
3.2688575749925803,0.0,0.09992673992673992,0.1652014652014652
3.2725624769955175,0.0,0.09992673992673992,0.1652014652014652
3.28010300299502,1.1064468864468864,1.311135531135531,1.4126739926739926
3.283552184002474,1.1064468864468864,1.311135531135531,1.4126739926739926
3.2838134939956944,0.11604395604395604,0.49076923076923074,0.33926739926739924
3.289387115990394,0.11604395604395604,0.49076923076923074,0.33926739926739924
3.2904585889918962,0.11604395604395604,0.49076923076923074,0.33926739926739924
3.291440403991146,0.11604395604395604,0.49076923076923074,0.33926739926739924
3.2925065489980625,0.11604395604395604,0.49076923076923074,0.33926739926739924
3.292803467003978,0.11604395604395604,0.49076923076923074,0.33926739926739924
3.3000469819962746,0.11604395604395604,0.49076923076923074,0.33926739926739924
3.304563625002629,0.11604395604395604,0.49076923076923074,0.33926739926739924
3.305497490990092,0.11604395604395604,0.49076923076923074,0.33926739926739924
3.3070936080039246,0.11604395604395604,0.49076923076923074,0.33926739926739924
3.312381080002524,0.11604395604395604,0.49076923076923074,0.33926739926739924
3.314270550996298,0.06124542124542124,0.21032967032967032,0.07333333333333333
3.315857744993991,0.06124542124542124,0.21032967032967032,0.07333333333333333
3.319613557003322,0.06124542124542124,0.21032967032967032,0.07333333333333333
3.3243567909958074,0.06124542124542124,0.21032967032967032,0.07333333333333333
3.3332038069929695,0.06124542124542124,0.21032967032967032,0.07333333333333333
3.339315245990292,0.14344322344322344,0.18373626373626373,0.12087912087912088
3.3440516620030394,2.6762637362637363,2.9180219780219776,0.7317216117216117
3.3508875080005964,2.6762637362637363,2.9180219780219776,0.7317216117216117
3.3554398260021117,1.6495970695970694,1.6230036630036628,0.3924542124542124
3.356321241997648,2.033186813186813,2.5553846153846154,0.6559706959706959
3.3572955429990543,2.4715750915750916,2.71010989010989,0.6922344322344323
3.359242884995183,1.4432967032967032,1.5126007326007325,0.9767032967032967
3.362868615993648,1.157216117216117,1.3659340659340657,1.0726007326007325
3.3674920109915547,1.157216117216117,1.3659340659340657,1.0726007326007325
3.36766714300029,2.158095238095238,2.3426373626373627,0.4722344322344322
3.3724058660009177,0.41340659340659336,0.4738461538461538,0.1652014652014652
3.3726442890038015,1.0290842490842491,1.5448351648351648,1.3764102564102565
3.3784511830017436,1.0290842490842491,1.5448351648351648,1.3764102564102565
3.3849217699898873,0.9726739926739927,1.3643223443223442,1.1120879120879121
3.3886773559934227,0.1241025641025641,0.40615384615384614,0.6350183150183151
3.388820655993186,0.1241025641025641,0.40615384615384614,0.6350183150183151
3.396023477995186,0.1241025641025641,0.40615384615384614,0.6350183150183151
3.3986505439970642,0.6946520146520146,0.34087912087912087,0.3167032967032967
3.4031821849930566,0.6946520146520146,0.34087912087912087,0.3167032967032967
3.40401981100149,0.6946520146520146,0.34087912087912087,0.3167032967032967
3.4056441610009642,0.6946520146520146,0.34087912087912087,0.3167032967032967
3.411425372993108,0.6946520146520146,0.34087912087912087,0.3167032967032967
3.4116217339906143,0.6946520146520146,0.34087912087912087,0.3167032967032967
3.4168457689956995,0.6946520146520146,0.34087912087912087,0.3167032967032967
3.419090650000726,0.6946520146520146,0.34087912087912087,0.3167032967032967
3.419959391991142,0.6946520146520146,0.34087912087912087,0.3167032967032967
3.4217807660024846,0.6946520146520146,0.34087912087912087,0.3167032967032967
3.4250334200041834,0.6946520146520146,0.34087912087912087,0.3167032967032967
3.426446047000354,0.6946520146520146,0.34087912087912087,0.3167032967032967
3.4336380000022473,0.6946520146520146,0.34087912087912087,0.3167032967032967
3.4382117959903553,0.4142124542124542,0.20065934065934066,0.8155311355311355
3.438507489991025,0.4142124542124542,0.20065934065934066,0.8155311355311355
3.445084421997308,0.4142124542124542,0.20065934065934066,0.8155311355311355
3.4495216889918083,0.4142124542124542,0.20065934065934066,0.8155311355311355
3.449800290996791,0.4142124542124542,0.20065934065934066,0.8155311355311355
3.4550565289973747,0.4142124542124542,0.20065934065934066,0.8155311355311355
3.458238609993714,0.4142124542124542,0.20065934065934066,0.8155311355311355
3.461020697999629,2.713333333333333,2.932527472527472,0.8437362637362636
3.4647578299918678,2.713333333333333,2.932527472527472,0.8437362637362636
3.4685760529973777,2.713333333333333,2.932527472527472,0.8437362637362636
3.4730382720008492,2.713333333333333,2.932527472527472,0.8437362637362636
3.473904614991625,0.8679120879120878,1.1999267399267397,1.473113553113553
3.4755502059997525,0.8679120879120878,1.1999267399267397,1.473113553113553
3.4808104870026,0.8679120879120878,1.1999267399267397,1.473113553113553
3.4816908429929754,0.5455677655677655,0.8945054945054944,1.0387545787545787
3.482593813998392,0.05963369963369963,0.3046153846153846,0.35135531135531134
3.48486284899991,0.05963369963369963,0.3046153846153846,0.35135531135531134
3.485107682994567,0.05963369963369963,0.3046153846153846,0.35135531135531134
3.4903877939941594,0.05963369963369963,0.3046153846153846,0.35135531135531134
3.493304805000662,0.05963369963369963,0.3046153846153846,0.35135531135531134
3.4974816710018786,0.3690842490842491,0.17809523809523808,0.7462271062271062
3.499871890991926,0.3690842490842491,0.17809523809523808,0.7462271062271062
3.5052327680023154,0.8711355311355311,1.3925274725274726,0.9219047619047619
3.5083167830016464,2.4941391941391937,2.6585347985347987,0.585054945054945
3.5108865479996894,2.4941391941391937,2.6585347985347987,0.585054945054945
3.517670859990176,1.0798534798534798,1.2563369963369961,0.8904761904761904
3.52161561200046,1.0798534798534798,1.2563369963369961,0.8904761904761904
3.526756633000332,1.0798534798534798,1.2563369963369961,0.8904761904761904
3.530534670993802,0.026593406593406595,0.17003663003663003,0.6317948717948718
3.5353272130014375,0.026593406593406595,0.17003663003663003,0.6317948717948718
3.5396800930029713,0.3876190476190476,0.08864468864468865,0.44080586080586076
3.5412595340021653,0.9468864468864467,1.1088644688644689,1.1104761904761904
3.5467439990025014,0.9468864468864467,1.1088644688644689,1.1104761904761904
3.54704505999689,3.00989010989011,2.9736263736263737,0.6019780219780219
3.5517974859976675,3.00989010989011,2.9736263736263737,0.6019780219780219
3.557408640990616,3.00989010989011,2.9736263736263737,0.6019780219780219
3.558534805997624,3.00989010989011,2.9736263736263737,0.6019780219780219
3.5588361769914627,3.00989010989011,2.9736263736263737,0.6019780219780219
3.565493531001266,3.00989010989011,2.9736263736263737,0.6019780219780219
3.569288055994548,3.00989010989011,2.9736263736263737,0.6019780219780219
3.574412518995814,0.08622710622710622,0.32717948717948714,0.3529670329670329
3.580006328993477,0.08622710622710622,0.32717948717948714,0.3529670329670329
3.5801877949998016,1.4030036630036629,1.5843223443223442,1.083076923076923
3.5849254810018465,0.9194871794871795,1.5158241758241757,0.7542857142857142
3.5901889969973126,0.9194871794871795,1.5158241758241757,0.7542857142857142
3.5934157669980777,0.7526739926739926,0.6664468864468864,0.1813186813186813
3.5948867499973858,1.24021978021978,1.5851282051282052,1.506959706959707
3.6011653449968435,0.3424908424908425,0.06769230769230769,0.3352380952380952
3.6050450689945137,0.826007326007326,1.1628571428571428,1.083076923076923
3.610548127995571,0.826007326007326,1.1628571428571428,1.083076923076923
3.6119907520042034,0.826007326007326,1.1628571428571428,1.083076923076923
3.6184254629915813,0.826007326007326,1.1628571428571428,1.083076923076923
3.6224264689953998,0.826007326007326,1.1628571428571428,1.083076923076923
3.6257267149921972,0.826007326007326,1.1628571428571428,1.083076923076923
3.62778907000029,0.826007326007326,1.1628571428571428,1.083076923076923
3.6282982339907903,0.826007326007326,1.1628571428571428,1.083076923076923
3.632229021997773,0.3465201465201465,0.30058608058608055,0.12571428571428572
3.636114307999378,0.3465201465201465,0.30058608058608055,0.12571428571428572
3.640850669995416,1.569010989010989,1.286959706959707,0.5367032967032966
3.6411315570003353,1.569010989010989,1.286959706959707,0.5367032967032966
3.6483855039987247,1.569010989010989,1.286959706959707,0.5367032967032966
3.6527785759972176,1.569010989010989,1.286959706959707,0.5367032967032966
3.653679547001957,1.569010989010989,1.286959706959707,0.5367032967032966
3.6552648520009825,1.569010989010989,1.286959706959707,0.5367032967032966
3.6611054469976807,1.569010989010989,1.286959706959707,0.5367032967032966
3.666634854991571,1.569010989010989,1.286959706959707,0.5367032967032966
3.6674936649942538,0.08945054945054945,0.5431501831501832,0.8042490842490841
3.6691861169965705,0.08945054945054945,0.5431501831501832,0.8042490842490841
3.6729218319960637,0.08945054945054945,0.5431501831501832,0.8042490842490841
3.681196656994871,0.8389010989010988,0.9920146520146519,0.8139194139194139
3.6860483439959353,0.8389010989010988,0.9920146520146519,0.8139194139194139
3.6905474919913104,0.8389010989010988,0.9920146520146519,0.8139194139194139
3.6908421300031478,0.8389010989010988,0.9920146520146519,0.8139194139194139
3.697346410001046,0.8389010989010988,0.9920146520146519,0.8139194139194139
3.700877825001953,0.8389010989010988,0.9920146520146519,0.8139194139194139
3.7010131889983313,0.7671794871794871,1.1282051282051282,1.2555311355311354
3.7057524069969077,0.7671794871794871,1.1282051282051282,1.2555311355311354
3.70593581799767,1.1676923076923076,0.8767765567765567,0.356996336996337
3.7115286539919907,1.1676923076923076,0.8767765567765567,0.356996336996337
3.7127053549920674,0.15069597069597068,0.6019780219780219,0.22644688644688646
3.712935559990001,0.15069597069597068,0.6019780219780219,0.22644688644688646
3.7177243499900214,0.15069597069597068,0.6019780219780219,0.22644688644688646
3.7228549080027733,0.15069597069597068,0.6019780219780219,0.22644688644688646
3.7277688369940734,0.15069597069597068,0.6019780219780219,0.22644688644688646
3.7350216549966717,0.15069597069597068,0.6019780219780219,0.22644688644688646
3.740922230994329,0.4625641025641025,0.16036630036630037,0.39567765567765567
3.7473909980035387,1.9106959706959707,1.892161172161172,0.7317216117216117
3.7506146550003905,2.4006593406593404,3.051794871794872,0.6326007326007326
3.7521270659926813,2.4006593406593404,3.051794871794872,0.6326007326007326
3.7567920239962405,2.4006593406593404,3.051794871794872,0.6326007326007326
3.7569635300023947,2.4006593406593404,3.051794871794872,0.6326007326007326
3.764427132991841,2.4006593406593404,3.051794871794872,0.6326007326007326
3.7678485719952732,1.2007326007326007,1.2974358974358973,1.0266666666666666
3.7681680509995203,1.2007326007326007,1.2974358974358973,1.0266666666666666
3.7730293889908353,1.2007326007326007,1.2974358974358973,1.0266666666666666
3.7798714009986725,1.2007326007326007,1.2974358974358973,1.0266666666666666
3.7840798209945206,1.2007326007326007,1.2974358974358973,1.0266666666666666
3.7864004150032997,1.2007326007326007,1.2974358974358973,1.0266666666666666
3.7866450930014253,1.2007326007326007,1.2974358974358973,1.0266666666666666
3.7913085089967353,1.2007326007326007,1.2974358974358973,1.0266666666666666
3.7914450639946153,1.2007326007326007,1.2974358974358973,1.0266666666666666
3.8016053259925684,1.2007326007326007,1.2974358974358973,1.0266666666666666
3.810369461993105,1.2007326007326007,1.2974358974358973,1.0266666666666666
3.81727919599507,2.41032967032967,2.752820512820513,0.5415384615384615
3.8211593979940517,1.5367765567765568,1.4884249084249084,0.9807326007326007
3.8263720989925787,0.9033699633699634,1.1306227106227105,1.0403663003663002
3.8295690669910982,0.9033699633699634,1.1306227106227105,1.0403663003663002
3.8305482889991254,0.9033699633699634,1.1306227106227105,1.0403663003663002
3.8315259689989034,0.9033699633699634,1.1306227106227105,1.0403663003663002
3.8324409189954167,0.9033699633699634,1.1306227106227105,1.0403663003663002
3.8340489830006845,0.9033699633699634,1.1306227106227105,1.0403663003663002
3.8377416919975076,0.9033699633699634,1.1306227106227105,1.0403663003663002
3.8429363960021874,0.9033699633699634,1.1306227106227105,1.0403663003663002
3.8470056209916947,0.5109157509157509,0.5375091575091575,0.7244688644688644
3.848686771991197,0.5109157509157509,0.5375091575091575,0.7244688644688644
3.8531846230034716,0.5109157509157509,0.5375091575091575,0.7244688644688644
3.8540221259900136,0.5109157509157509,0.5375091575091575,0.7244688644688644
3.855611505001434,0.5109157509157509,0.5375091575091575,0.7244688644688644
3.8637471870024456,0.5109157509157509,0.5375091575091575,0.7244688644688644
3.8680919329926837,0.5109157509157509,0.5375091575091575,0.7244688644688644
3.868906923002214,0.5109157509157509,0.5375091575091575,0.7244688644688644
3.870497472002171,0.5109157509157509,0.5375091575091575,0.7244688644688644
3.8762343549897196,0.5109157509157509,0.5375091575091575,0.7244688644688644
3.87683560399455,1.4553846153846153,1.432014652014652,1.3119413919413918
3.8809545559925027,1.4553846153846153,1.432014652014652,1.3119413919413918
3.8818702409917023,1.2845421245421245,1.353040293040293,1.016996336996337
3.882827228997485,1.2845421245421245,1.353040293040293,1.016996336996337
3.883759703996475,1.2845421245421245,1.353040293040293,1.016996336996337
3.8854418249975424,1.2845421245421245,1.353040293040293,1.016996336996337
3.8887164350016974,1.2845421245421245,1.353040293040293,1.016996336996337
3.8896073209907627,1.2845421245421245,1.353040293040293,1.016996336996337
3.8912287299899617,1.2845421245421245,1.353040293040293,1.016996336996337
3.8976574249973055,1.2845421245421245,1.353040293040293,1.016996336996337
3.901739766995888,1.2845421245421245,1.353040293040293,1.016996336996337
3.904711283001234,1.2845421245421245,1.353040293040293,1.016996336996337
3.9070139809919056,0.7841025641025641,0.6076190476190476,0.3602197802197802
3.9073086559947114,0.7841025641025641,0.6076190476190476,0.3602197802197802
3.915294783990248,0.7841025641025641,0.6076190476190476,0.3602197802197802
3.919260385999223,1.120952380952381,1.1668864468864468,0.9122344322344322
3.923395277990494,1.120952380952381,1.1668864468864468,0.9122344322344322
3.925452683994081,0.0,0.21677655677655677,0.3158974358974359
3.9277880619920325,0.0,0.21677655677655677,0.3158974358974359
3.9279942129942356,0.0,0.21677655677655677,0.3158974358974359
3.9336482170037925,0.0,0.21677655677655677,0.3158974358974359
3.9338340379908914,0.0,0.21677655677655677,0.3158974358974359
3.939317652999307,0.46336996336996333,0.1692307692307692,1.0153846153846153
3.9408796850038925,0.46336996336996333,0.1692307692307692,1.0153846153846153
3.947726721991785,0.46336996336996333,0.1692307692307692,1.0153846153846153
3.9509660129988333,0.46336996336996333,0.1692307692307692,1.0153846153846153
3.9527491939952597,0.46336996336996333,0.1692307692307692,1.0153846153846153
3.9558128130011028,0.46336996336996333,0.1692307692307692,1.0153846153846153
3.9581297830009134,1.2926007326007325,1.1338461538461537,0.5471794871794872
3.9584448219975457,1.2926007326007325,1.1338461538461537,0.5471794871794872
3.964760139991995,1.2926007326007325,1.1338461538461537,0.5471794871794872
3.9685840909951366,1.2926007326007325,1.1338461538461537,0.5471794871794872
3.9730870719940867,1.2926007326007325,1.1338461538461537,0.5471794871794872
3.9735489029990276,1.2926007326007325,1.1338461538461537,0.5471794871794872
3.9792655499913963,1.2926007326007325,1.1338461538461537,0.5471794871794872
3.9857659219997004,2.7906959706959706,3.042124542124542,0.958974358974359
3.9895028439932503,2.7906959706959706,3.042124542124542,0.958974358974359
3.998339041994768,2.7906959706959706,3.042124542124542,0.958974358974359
4.003120720997686,2.7906959706959706,3.042124542124542,0.958974358974359
4.00324561499292,2.7906959706959706,3.042124542124542,0.958974358974359
4.007860633995733,2.7906959706959706,3.042124542124542,0.958974358974359
4.008062426990364,2.2394871794871793,2.3603663003663002,0.6688644688644688
4.016984806003165,2.2394871794871793,2.3603663003663002,0.6688644688644688
4.02144007399329,2.2394871794871793,2.3603663003663002,0.6688644688644688
4.023023143992759,2.2394871794871793,2.3603663003663002,0.6688644688644688
4.027534483000636,2.2394871794871793,2.3603663003663002,0.6688644688644688
4.028705019998597,0.5689377289377289,0.523003663003663,0.21194139194139192
4.02894089599431,0.5689377289377289,0.523003663003663,0.21194139194139192
4.035727782000322,0.5689377289377289,0.523003663003663,0.21194139194139192
4.040801237002597,0.5906959706959707,0.5318681318681319,1.2917948717948717
4.0447030939976685,0.5455677655677655,0.796996336996337,0.9162637362637363
4.0481161409989,0.022564102564102562,0.26673992673992675,0.4351648351648352
4.048331483994843,0.022564102564102562,0.26673992673992675,0.4351648351648352
4.053501026995946,0.022564102564102562,0.26673992673992675,0.4351648351648352
4.057718887997908,0.022564102564102562,0.26673992673992675,0.4351648351648352
4.06025640599546,0.022564102564102562,0.26673992673992675,0.4351648351648352
4.065762903002906,0.022564102564102562,0.26673992673992675,0.4351648351648352
4.066698170994641,1.1725274725274726,0.9098168498168498,0.3755311355311355
4.068508897995343,1.1725274725274726,0.9098168498168498,0.3755311355311355
4.070777675995487,1.1725274725274726,0.9098168498168498,0.3755311355311355
4.071007338992786,1.1725274725274726,0.9098168498168498,0.3755311355311355
4.0781560329924105,1.1725274725274726,0.9098168498168498,0.3755311355311355
4.082326164992992,2.1556776556776556,2.0017582417582416,0.846153846153846
4.084730157992453,2.1556776556776556,2.0017582417582416,0.846153846153846
4.085010251001222,2.1556776556776556,2.0017582417582416,0.846153846153846
4.089833603997249,2.1556776556776556,2.0017582417582416,0.846153846153846
4.090000131996931,2.565054945054945,2.9744322344322343,0.6471062271062271
4.100036272997386,2.565054945054945,2.9744322344322343,0.6471062271062271
4.105865780002205,0.40534798534798533,0.12168498168498168,0.722051282051282
4.105959681997774,0.40534798534798533,0.12168498168498168,0.722051282051282
4.112807648998569,0.40534798534798533,0.12168498168498168,0.722051282051282
4.116149776004022,0.04915750915750916,0.15956043956043955,0.10073260073260072
4.117034907991183,0.5600732600732601,0.4819047619047619,1.2700366300366301
4.118635075996281,0.5600732600732601,0.4819047619047619,1.2700366300366301
4.1233841920038685,0.5600732600732601,0.4819047619047619,1.2700366300366301
4.123483907998889,0.5600732600732601,0.4819047619047619,1.2700366300366301
4.133147104992531,0.5600732600732601,0.4819047619047619,1.2700366300366301
4.13880143899587,0.5600732600732601,0.4819047619047619,1.2700366300366301
4.138979230992845,0.5600732600732601,0.4819047619047619,1.2700366300366301
4.148075336997863,0.5600732600732601,0.4819047619047619,1.2700366300366301
4.156504505997873,0.11362637362637362,0.5254212454212454,0.49399267399267394
4.164562339996337,2.6794871794871793,2.937362637362637,0.9412454212454211
4.1692020280024735,1.3457875457875457,1.4690842490842488,1.1241758241758242
4.177159679995384,1.3457875457875457,1.4690842490842488,1.1241758241758242
4.181683222996071,1.3457875457875457,1.4690842490842488,1.1241758241758242
4.181952487997478,1.3457875457875457,1.4690842490842488,1.1241758241758242
4.186800267998478,1.3457875457875457,1.4690842490842488,1.1241758241758242
4.191924268001458,1.3457875457875457,1.4690842490842488,1.1241758241758242
4.196508629000164,1.3457875457875457,1.4690842490842488,1.1241758241758242
4.196665010997094,1.1967032967032967,1.4578021978021978,1.4650549450549448
4.201285363989882,1.1967032967032967,1.4578021978021978,1.4650549450549448
4.201588522002567,1.1967032967032967,1.4578021978021978,1.4650549450549448
4.206544405999011,1.1967032967032967,1.4578021978021978,1.4650549450549448
4.212418195995269,2.726227106227106,3.042930402930403,0.6559706959706959
4.216932359995553,2.726227106227106,3.042930402930403,0.6559706959706959
4.21721145499032,2.726227106227106,3.042930402930403,0.6559706959706959
4.222750494998763,2.726227106227106,3.042930402930403,0.6559706959706959
4.224449068991817,2.726227106227106,3.042930402930403,0.6559706959706959
4.227827383991098,2.726227106227106,3.042930402930403,0.6559706959706959
4.228165432999958,2.772967032967033,2.8100366300366297,0.606007326007326
4.2336184290034,2.772967032967033,2.8100366300366297,0.606007326007326
4.235879997999291,2.772967032967033,2.8100366300366297,0.606007326007326
4.236138223001035,2.772967032967033,2.8100366300366297,0.606007326007326
4.2413797859917395,2.772967032967033,2.8100366300366297,0.606007326007326
4.245773710994399,2.772967032967033,2.8100366300366297,0.606007326007326
4.246091918001184,0.022564102564102562,0.10073260073260072,0.21677655677655677
4.253400902991416,0.022564102564102562,0.10073260073260072,0.21677655677655677
4.2586014779953985,0.3046153846153846,0.26673992673992675,0.06124542124542124
4.264537558003212,0.3046153846153846,0.26673992673992675,0.06124542124542124
4.268234014991322,0.04271062271062271,0.3295970695970696,0.5761904761904761
4.27576345000125,0.5866666666666667,0.46498168498168496,0.2747985347985348
4.280309825990116,0.5866666666666667,0.46498168498168496,0.2747985347985348
4.280486054994981,0.5866666666666667,0.46498168498168496,0.2747985347985348
4.28921846699086,0.5866666666666667,0.46498168498168496,0.2747985347985348
4.295712206992903,0.07978021978021978,0.419047619047619,0.13296703296703297
4.299159160000272,1.5714285714285712,1.8164102564102564,1.5005128205128204
4.299345063991495,1.5714285714285712,1.8164102564102564,1.5005128205128204
4.304057000001194,1.5714285714285712,1.8164102564102564,1.5005128205128204
4.304354601990781,1.5714285714285712,1.8164102564102564,1.5005128205128204
4.311191861997941,1.5714285714285712,1.8164102564102564,1.5005128205128204
4.315135515993461,1.5714285714285712,1.8164102564102564,1.5005128205128204
4.318932592999772,0.32476190476190475,0.14989010989010987,0.3553846153846154
4.324283847003244,1.0016849816849815,1.212014652014652,1.0137728937728938
4.32595242500247,1.0016849816849815,1.212014652014652,1.0137728937728938
4.330715338001028,1.0016849816849815,1.212014652014652,1.0137728937728938
4.33511255600024,1.0016849816849815,1.212014652014652,1.0137728937728938
4.335990703999414,1.0016849816849815,1.212014652014652,1.0137728937728938
4.337851117990795,1.0016849816849815,1.212014652014652,1.0137728937728938
4.340253891001339,1.0016849816849815,1.212014652014652,1.0137728937728938
4.340463717002422,1.0016849816849815,1.212014652014652,1.0137728937728938
4.3486748610012,0.7454212454212454,1.2184615384615385,1.1765567765567766
4.355080223991536,0.09106227106227105,0.3376556776556776,0.722051282051282
4.36014052099199,0.09106227106227105,0.3376556776556776,0.722051282051282
4.363948166996124,0.09106227106227105,0.3376556776556776,0.722051282051282
4.36834044099669,0.5109157509157509,0.3199267399267399,1.012967032967033
4.369951614004094,0.7276923076923076,0.5536263736263736,0.19985347985347984
4.374494219999178,0.26673992673992675,0.30058608058608055,0.06366300366300366
4.374851765998756,0.26673992673992675,0.30058608058608055,0.06366300366300366
4.38204569699883,0.26673992673992675,0.30058608058608055,0.06366300366300366
4.386001632999978,0.26673992673992675,0.30058608058608055,0.06366300366300366
4.390011855997727,0.26673992673992675,0.30058608058608055,0.06366300366300366
4.396846492003533,0.26673992673992675,0.30058608058608055,0.06366300366300366
4.402831494997372,0.26673992673992675,0.30058608058608055,0.06366300366300366
4.408104870002717,0.26673992673992675,0.30058608058608055,0.06366300366300366
4.408458973994129,0.26673992673992675,0.30058608058608055,0.06366300366300366
4.415126851003151,0.26673992673992675,0.30058608058608055,0.06366300366300366
4.4192903410003055,0.26673992673992675,0.30058608058608055,0.06366300366300366
4.4224112880037865,0.26673992673992675,0.30058608058608055,0.06366300366300366
4.424075214992627,0.0,0.19179487179487179,0.2071062271062271
4.430262132998905,0.0273992673992674,0.22564102564102564,0.17326007326007326
4.433625329998904,1.037948717948718,0.8848351648351648,0.3449084249084249
4.433941333991243,0.29978021978021974,0.386007326007326,0.473040293040293
4.438697153003886,0.29978021978021974,0.386007326007326,0.473040293040293
4.438807771992288,1.9074725274725273,1.7841758241758239,0.6108424908424909
4.4458239109953865,0.9517216117216116,1.1354578754578755,1.2023443223443222
4.449493916996289,0.9517216117216116,1.1354578754578755,1.2023443223443222
4.455888019001577,0.9517216117216116,1.1354578754578755,1.2023443223443222
4.460787014992093,0.9517216117216116,1.1354578754578755,1.2023443223443222
4.468199566996191,0.9517216117216116,1.1354578754578755,1.2023443223443222
4.472610294003971,0.9517216117216116,1.1354578754578755,1.2023443223443222
4.4729354529990815,0.9517216117216116,1.1354578754578755,1.2023443223443222
4.481478189001791,0.9517216117216116,1.1354578754578755,1.2023443223443222
4.486454733996652,0.9517216117216116,1.1354578754578755,1.2023443223443222
4.490280985992285,0.9517216117216116,1.1354578754578755,1.2023443223443222
4.4962653719994705,0.9517216117216116,1.1354578754578755,1.2023443223443222
4.502875566002331,1.1709157509157508,1.3643223443223442,1.444102564102564
4.507728087002761,1.1709157509157508,1.3643223443223442,1.444102564102564
4.512127433990827,1.1709157509157508,1.3643223443223442,1.444102564102564
4.512545153993415,1.1709157509157508,1.3643223443223442,1.444102564102564
4.520949914003722,1.1709157509157508,1.3643223443223442,1.444102564102564
4.530615326002589,0.4625641025641025,0.2071062271062271,1.0234432234432234
4.537456025995198,0.7687912087912088,0.5689377289377289,0.21194139194139192
4.543062070995802,0.7599267399267399,0.3884249084249084,0.4528937728937729
4.543285866995575,0.7599267399267399,0.3884249084249084,0.4528937728937729
4.549931476998609,0.7599267399267399,0.3884249084249084,0.4528937728937729
4.55525230699277,0.33926739926739924,0.3908424908424908,0.18937728937728937
4.555643126994255,0.33926739926739924,0.3908424908424908,0.18937728937728937
4.564402174000861,0.33926739926739924,0.3908424908424908,0.18937728937728937
4.569830642998568,0.0709157509157509,0.24901098901098898,0.4126007326007326
4.572324774999288,0.0709157509157509,0.24901098901098898,0.4126007326007326
4.579782550994423,0.0709157509157509,0.24901098901098898,0.4126007326007326
4.583737369001028,0.0709157509157509,0.24901098901098898,0.4126007326007326
4.5876941320020705,0.0709157509157509,0.24901098901098898,0.4126007326007326
4.592280170996673,0.0709157509157509,0.24901098901098898,0.4126007326007326
4.592502466999576,0.0709157509157509,0.24901098901098898,0.4126007326007326
4.598555866003153,0.0709157509157509,0.24901098901098898,0.4126007326007326
4.603513837995706,0.0709157509157509,0.24901098901098898,0.4126007326007326
4.607887053993181,0.0709157509157509,0.24901098901098898,0.4126007326007326
4.608910804003244,0.0709157509157509,0.24901098901098898,0.4126007326007326
4.609857155999634,0.0709157509157509,0.24901098901098898,0.4126007326007326
4.611096836000797,0.0709157509157509,0.24901098901098898,0.4126007326007326
4.611236573997303,0.0709157509157509,0.24901098901098898,0.4126007326007326
4.618036383995786,0.0709157509157509,0.24901098901098898,0.4126007326007326
4.6268375770014245,2.287032967032967,2.3692307692307693,0.7059340659340658
4.634074318993953,1.373992673992674,1.1354578754578755,0.4416117216117216
4.637814921996323,1.3401465201465201,1.527106227106227,1.4779487179487178
4.637942750996444,0.27802197802197803,0.224029304029304,0.30542124542124544
4.64562795299571,0.27802197802197803,0.224029304029304,0.30542124542124544
4.650383938002051,0.27802197802197803,0.224029304029304,0.30542124542124544
4.654859760994441,0.27802197802197803,0.224029304029304,0.30542124542124544
4.655679057992529,0.27802197802197803,0.224029304029304,0.30542124542124544
4.657270037001581,0.27802197802197803,0.224029304029304,0.30542124542124544
4.664064771000994,0.27802197802197803,0.224029304029304,0.30542124542124544
4.6672716539906105,0.27802197802197803,0.224029304029304,0.30542124542124544
4.668187581002712,0.27802197802197803,0.224029304029304,0.30542124542124544
4.669793676002882,0.27802197802197803,0.224029304029304,0.30542124542124544
4.674649132997729,0.27802197802197803,0.224029304029304,0.30542124542124544
4.682711813002243,0.27802197802197803,0.224029304029304,0.30542124542124544
4.6872813749942,2.639194139194139,2.955091575091575,0.9984615384615383
4.687478086998453,0.0,0.10476190476190475,0.415018315018315
4.69317105099617,0.0,0.10476190476190475,0.415018315018315
4.693419588002143,0.0,0.10476190476190475,0.415018315018315
4.699265802002628,1.303076923076923,1.8736263736263734,1.726959706959707
4.7037046140030725,1.303076923076923,1.8736263736263734,1.726959706959707
4.705242490992532,0.3997069597069597,0.6825641025641025,0.7317216117216117
4.710607803994208,0.3997069597069597,0.6825641025641025,0.7317216117216117
4.712157105997903,0.30542124542124544,0.423076923076923,0.12249084249084248
4.715926762990421,0.30542124542124544,0.423076923076923,0.12249084249084248
4.721067717997357,0.30542124542124544,0.423076923076923,0.12249084249084248
4.724730018002447,0.9243223443223443,1.2273260073260073,1.2297435897435898
4.732045830998686,0.9243223443223443,1.2273260073260073,1.2297435897435898
4.73698832700029,0.9243223443223443,1.2273260073260073,1.2297435897435898
4.743427398003405,0.9243223443223443,1.2273260073260073,1.2297435897435898
4.748722728996654,0.9243223443223443,1.2273260073260073,1.2297435897435898
4.750974426991888,0.9243223443223443,1.2273260073260073,1.2297435897435898
4.751220473990543,0.9243223443223443,1.2273260073260073,1.2297435897435898
4.755663463991368,0.9243223443223443,1.2273260073260073,1.2297435897435898
4.757217493999633,0.9243223443223443,1.2273260073260073,1.2297435897435898
4.764011217994266,0.9243223443223443,1.2273260073260073,1.2297435897435898
4.767475649001426,0.9243223443223443,1.2273260073260073,1.2297435897435898
4.767705001999275,2.573919413919414,2.803589743589743,0.7252747252747253
4.7727687299920944,2.573919413919414,2.803589743589743,0.7252747252747253
4.778905223996844,1.1886446886446886,1.398168498168498,1.3401465201465201
4.78264242199657,1.1886446886446886,1.398168498168498,1.3401465201465201
4.787136679995456,1.1886446886446886,1.398168498168498,1.3401465201465201
4.787998448999133,0.022564102564102562,0.1241025641025641,0.2482051282051282
4.789609672996448,0.022564102564102562,0.1241025641025641,0.2482051282051282
4.79680517000088,0.022564102564102562,0.1241025641025641,0.2482051282051282
4.8010079889936605,0.022564102564102562,0.1241025641025641,0.2482051282051282
4.803324029999203,0.022564102564102562,0.1241025641025641,0.2482051282051282
4.803567472001305,0.022564102564102562,0.1241025641025641,0.2482051282051282
4.80958267999813,0.022564102564102562,0.1241025641025641,0.2482051282051282
4.815557751004235,0.022564102564102562,0.1241025641025641,0.2482051282051282
4.821527380991029,0.022564102564102562,0.1241025641025641,0.2482051282051282
4.829086527999607,0.022564102564102562,0.1241025641025641,0.2482051282051282
4.832577316003153,0.022564102564102562,0.1241025641025641,0.2482051282051282
4.832847725003376,0.022564102564102562,0.1241025641025641,0.2482051282051282
4.83838807400025,0.022564102564102562,0.1241025641025641,0.2482051282051282
4.839410681990557,0.022564102564102562,0.1241025641025641,0.2482051282051282
4.8404125809902325,0.022564102564102562,0.1241025641025641,0.2482051282051282
4.840750243994989,0.022564102564102562,0.1241025641025641,0.2482051282051282
4.848090033992776,0.022564102564102562,0.1241025641025641,0.2482051282051282
4.851964204994147,0.022564102564102562,0.1241025641025641,0.2482051282051282
4.85666414599109,0.022564102564102562,0.1241025641025641,0.2482051282051282
4.856915875992854,0.022564102564102562,0.1241025641025641,0.2482051282051282
4.866228608996607,1.6979487179487176,1.527106227106227,0.6366300366300366
4.8731278399936855,1.6979487179487176,1.527106227106227,0.6366300366300366
4.878574096001103,1.6979487179487176,1.527106227106227,0.6366300366300366
4.878830418994767,1.6979487179487176,1.527106227106227,0.6366300366300366
4.883763844001805,1.6979487179487176,1.527106227106227,0.6366300366300366
4.8883071199961705,1.6979487179487176,1.527106227106227,0.6366300366300366
4.888617176999105,1.6979487179487176,1.527106227106227,0.6366300366300366
4.895480544000748,1.6979487179487176,1.527106227106227,0.6366300366300366
4.8999233359936625,1.6979487179487176,1.527106227106227,0.6366300366300366
4.900250824997784,1.6979487179487176,1.527106227106227,0.6366300366300366
4.905112060994725,1.6979487179487176,1.527106227106227,0.6366300366300366
4.913120388999232,1.6979487179487176,1.527106227106227,0.6366300366300366
4.919033700993168,1.2515018315018314,1.432014652014652,1.4118681318681316
4.926698543000384,2.6633699633699632,2.702857142857143,0.8638827838827838
4.932956047996413,2.6633699633699632,2.702857142857143,0.8638827838827838
4.93666101898998,2.6633699633699632,2.702857142857143,0.8638827838827838
4.945760064001661,2.6633699633699632,2.702857142857143,0.8638827838827838
4.950033453991637,2.6633699633699632,2.702857142857143,0.8638827838827838
4.952550089990837,2.6633699633699632,2.702857142857143,0.8638827838827838
4.957864386989968,2.6633699633699632,2.702857142857143,0.8638827838827838
4.9608086939988425,2.6633699633699632,2.702857142857143,0.8638827838827838
4.963596874003997,2.6633699633699632,2.702857142857143,0.8638827838827838
4.966639199003112,2.6633699633699632,2.702857142857143,0.8638827838827838
4.969018413990852,2.6633699633699632,2.702857142857143,0.8638827838827838
4.9691870029928396,2.6633699633699632,2.702857142857143,0.8638827838827838
4.97465784799715,2.6633699633699632,2.702857142857143,0.8638827838827838
4.976473895992967,2.6633699633699632,2.702857142857143,0.8638827838827838
4.9801404049940174,2.6633699633699632,2.702857142857143,0.8638827838827838
4.984654318992398,2.6633699633699632,2.702857142857143,0.8638827838827838
4.984990411991021,2.6633699633699632,2.702857142857143,0.8638827838827838
4.989507784994203,2.6633699633699632,2.702857142857143,0.8638827838827838
4.99116936099017,2.6633699633699632,2.702857142857143,0.8638827838827838
4.9959030719910515,2.6633699633699632,2.702857142857143,0.8638827838827838
5.001457998994738,2.6633699633699632,2.702857142857143,0.8638827838827838
5.001754349999828,2.6633699633699632,2.702857142857143,0.8638827838827838
5.006533688996569,2.6633699633699632,2.702857142857143,0.8638827838827838
5.006701455989969,2.6633699633699632,2.702857142857143,0.8638827838827838
5.0134543199965265,2.6633699633699632,2.702857142857143,0.8638827838827838
5.017797577995225,0.014505494505494505,0.10556776556776555,0.10315018315018315
5.019036302997847,2.299120879120879,2.4828571428571427,0.8058608058608058
5.019211430000723,2.299120879120879,2.4828571428571427,0.8058608058608058
5.027469259002828,2.299120879120879,2.4828571428571427,0.8058608058608058
5.031355686995084,2.299120879120879,2.4828571428571427,0.8058608058608058
5.035998424995341,2.299120879120879,2.4828571428571427,0.8058608058608058
5.036137956994935,2.299120879120879,2.4828571428571427,0.8058608058608058
5.040977069991641,2.299120879120879,2.4828571428571427,0.8058608058608058
5.047536900994601,1.1942857142857142,1.1676923076923076,1.008131868131868
5.05131299799541,1.1942857142857142,1.1676923076923076,1.008131868131868
5.056476340003428,1.1942857142857142,1.1676923076923076,1.008131868131868
5.060286902997177,2.386153846153846,2.8696703296703294,0.8654945054945055
5.06398170600005,2.386153846153846,2.8696703296703294,0.8654945054945055
5.064089826992131,0.1249084249084249,0.29655677655677654,0.19904761904761903
5.068931558998884,0.1249084249084249,0.29655677655677654,0.19904761904761903
5.069010089995572,0.0,0.19179487179487179,0.33604395604395604
5.073862776000169,0.0,0.19179487179487179,0.33604395604395604
5.078617152990773,0.0,0.19179487179487179,0.33604395604395604
5.078802410993376,0.0,0.19179487179487179,0.33604395604395604
5.083614392991876,0.7405860805860806,1.3304761904761904,1.112893772893773
5.088395732993376,0.7405860805860806,1.3304761904761904,1.112893772893773
5.088574473003973,0.7405860805860806,1.3304761904761904,1.112893772893773
5.093301437998889,0.7405860805860806,1.3304761904761904,1.112893772893773
5.093574262995389,0.7405860805860806,1.3304761904761904,1.112893772893773
5.099906037998153,0.7405860805860806,1.3304761904761904,1.112893772893773
5.103987561989925,0.9267399267399267,1.0645421245421245,1.0387545787545787
5.1061139660014305,0.9267399267399267,1.0645421245421245,1.0387545787545787
5.1072989129897906,0.9267399267399267,1.0645421245421245,1.0387545787545787
5.115778227991541,0.9267399267399267,1.0645421245421245,1.0387545787545787
5.122133943994413,0.9267399267399267,1.0645421245421245,1.0387545787545787
5.127717135997955,2.735897435897436,2.92043956043956,0.8558241758241758
5.127938131990959,0.0136996336996337,0.05721611721611722,0.31267399267399265
5.132757846993627,0.0136996336996337,0.05721611721611722,0.31267399267399265
5.1383136969961924,0.0136996336996337,0.05721611721611722,0.31267399267399265
5.1391320989932865,1.2845421245421245,1.432014652014652,1.4344322344322344
5.140678459996707,1.2845421245421245,1.432014652014652,1.4344322344322344
5.145482620995608,1.2845421245421245,1.432014652014652,1.4344322344322344
5.151088191996678,1.2845421245421245,1.432014652014652,1.4344322344322344
5.151339326999732,1.2845421245421245,1.432014652014652,1.4344322344322344
5.155865699998685,1.2845421245421245,1.432014652014652,1.4344322344322344
5.156755598000018,1.0895238095238093,0.7244688644688644,0.36747252747252745
5.158337656990625,1.0895238095238093,0.7244688644688644,0.36747252747252745
5.162193612995907,1.0895238095238093,0.7244688644688644,0.36747252747252745
5.167594439990353,1.0895238095238093,0.7244688644688644,0.36747252747252745
5.1699528169992846,1.0895238095238093,0.7244688644688644,0.36747252747252745
5.170083434000844,1.0895238095238093,0.7244688644688644,0.36747252747252745
5.175185378990136,1.0895238095238093,0.7244688644688644,0.36747252747252745
5.1786818919936195,1.0895238095238093,0.7244688644688644,0.36747252747252745
5.178923637999105,1.0895238095238093,0.7244688644688644,0.36747252747252745
5.183697710002889,1.0895238095238093,0.7244688644688644,0.36747252747252745
5.183923250995576,1.0895238095238093,0.7244688644688644,0.36747252747252745
5.188674157994683,1.0895238095238093,0.7244688644688644,0.36747252747252745
5.193492406993755,1.0895238095238093,0.7244688644688644,0.36747252747252745
5.193621671991423,1.0895238095238093,0.7244688644688644,0.36747252747252745
5.198338849993888,1.0895238095238093,0.7244688644688644,0.36747252747252745
5.198569732994656,1.0895238095238093,0.7244688644688644,0.36747252747252745
5.204219708000892,1.0895238095238093,0.7244688644688644,0.36747252747252745
5.204489993004245,1.0895238095238093,0.7244688644688644,0.36747252747252745
5.2097042509994935,1.0895238095238093,0.7244688644688644,0.36747252747252745
5.213340053000138,1.0895238095238093,0.7244688644688644,0.36747252747252745
5.218655427001067,1.0895238095238093,0.7244688644688644,0.36747252747252745
5.221108350000577,1.0895238095238093,0.7244688644688644,0.36747252747252745
5.226310259997263,1.0895238095238093,0.7244688644688644,0.36747252747252745
5.229980976990191,1.0895238095238093,0.7244688644688644,0.36747252747252745
5.235023154004011,0.8219780219780219,0.5439560439560439,0.1523076923076923
5.23874462400272,1.0621245421245422,0.9863736263736262,1.6375091575091574
5.243932234996464,1.199120879120879,1.2079853479853477,1.2458608058608058
5.246941104996949,1.199120879120879,1.2079853479853477,1.2458608058608058
5.2492551379982615,1.199120879120879,1.2079853479853477,1.2458608058608058
5.24947166799393,1.199120879120879,1.2079853479853477,1.2458608058608058
5.254940254002577,1.199120879120879,1.2079853479853477,1.2458608058608058
5.2558329189923825,1.199120879120879,1.2079853479853477,1.2458608058608058
5.258050844000536,1.199120879120879,1.2079853479853477,1.2458608058608058
5.258317159998114,2.776190476190476,2.8906227106227105,1.079047619047619
5.262817548995372,1.3417582417582417,1.2942124542124542,1.2893772893772892
5.263765133000561,0.9565567765567766,1.0105494505494506,1.4328205128205127
5.265488434990402,0.9565567765567766,1.0105494505494506,1.4328205128205127
5.268658239991055,0.9565567765567766,1.0105494505494506,1.4328205128205127
5.270258595992345,0.9565567765567766,1.0105494505494506,1.4328205128205127
5.273924934997922,0.9565567765567766,1.0105494505494506,1.4328205128205127
5.279019214998698,1.2780952380952382,1.2668131868131869,1.6632967032967032
5.284107419996872,1.4078388278388276,1.261172161172161,1.2813186813186812
5.2871383169986075,0.469010989010989,0.826007326007326,1.4827838827838828
5.290098016994307,0.469010989010989,0.826007326007326,1.4827838827838828
5.29306409000128,0.469010989010989,0.826007326007326,1.4827838827838828
5.29539591500361,1.236996336996337,1.3578754578754577,1.627032967032967
5.295751008990919,1.236996336996337,1.3578754578754577,1.627032967032967
5.300213950002217,1.236996336996337,1.3578754578754577,1.627032967032967
5.301812625999446,2.2201465201465203,2.2024175824175822,0.9428571428571427
5.306500969003537,2.2201465201465203,2.2024175824175822,0.9428571428571427
5.318593331001466,2.2201465201465203,2.2024175824175822,0.9428571428571427
5.329411220998736,2.2201465201465203,2.2024175824175822,0.9428571428571427
5.338337834997219,2.2201465201465203,2.2024175824175822,0.9428571428571427
5.347136772994418,2.2201465201465203,2.2024175824175822,0.9428571428571427
5.35410333899199,2.2201465201465203,2.2024175824175822,0.9428571428571427
5.359022471995559,2.2201465201465203,2.2024175824175822,0.9428571428571427
5.362335231999168,2.2201465201465203,2.2024175824175822,0.9428571428571427
5.36267543399299,2.2201465201465203,2.2024175824175822,0.9428571428571427
5.369284999003867,2.2201465201465203,2.2024175824175822,0.9428571428571427
5.374713165991125,2.2201465201465203,2.2024175824175822,0.9428571428571427
5.379346453992184,2.2201465201465203,2.2024175824175822,0.9428571428571427
5.386241232001339,1.1435164835164835,1.0854945054945053,1.6189743589743588
5.393708231989876,0.7067399267399267,0.8969230769230768,1.6076923076923075
5.398503402000642,1.3538461538461537,1.5303296703296703,2.067032967032967
5.4024315559945535,0.4045421245421245,0.2482051282051282,1.1668864468864468
5.405550873998436,0.4045421245421245,0.2482051282051282,1.1668864468864468
5.407173371000681,0.4045421245421245,0.2482051282051282,1.1668864468864468
5.412242384991259,0.4045421245421245,0.2482051282051282,1.1668864468864468
5.416525508000632,0.18776556776556774,0.5528205128205127,0.1265201465201465
5.418424821997178,0.18776556776556774,0.5528205128205127,0.1265201465201465
5.420847763001802,0.18776556776556774,0.5528205128205127,0.1265201465201465
5.421002723000129,0.18776556776556774,0.5528205128205127,0.1265201465201465
5.426186518991017,0.18776556776556774,0.5528205128205127,0.1265201465201465
5.432373791001737,0.1797069597069597,0.3038095238095238,1.041978021978022
5.435799098995631,1.0742124542124543,1.4376556776556777,1.863150183150183
5.436019708999083,1.0742124542124543,1.4376556776556777,1.863150183150183
5.440680981002515,1.0742124542124543,1.4376556776556777,1.863150183150183
5.440904912000406,0.9847619047619047,1.1386813186813185,1.5649816849816849
5.44849313099985,0.9847619047619047,1.1386813186813185,1.5649816849816849
5.453082544991048,0.9847619047619047,1.1386813186813185,1.5649816849816849
5.453907939998317,0.07413919413919413,0.34813186813186814,0.12893772893772892
5.455430668996996,0.07413919413919413,0.34813186813186814,0.12893772893772892
5.46092442299414,0.07413919413919413,0.34813186813186814,0.12893772893772892
5.461220233002678,0.07413919413919413,0.34813186813186814,0.12893772893772892
5.466623026994057,0.07413919413919413,0.34813186813186814,0.12893772893772892
5.469015159003902,0.048351648351648346,0.20388278388278389,0.7244688644688644
5.469114038001862,0.048351648351648346,0.20388278388278389,0.7244688644688644
5.474821714989957,0.3972893772893773,0.4174358974358974,0.1676190476190476
5.4749971159908455,0.3972893772893773,0.4174358974358974,0.1676190476190476
5.484722687993781,0.3972893772893773,0.4174358974358974,0.1676190476190476
5.49150936800288,0.3972893772893773,0.4174358974358974,0.1676190476190476
5.498423903991352,0.3972893772893773,0.4174358974358974,0.1676190476190476
