time,emg1,emg2,emg3
0.011504746005812194,1.614139194139194,0.22886446886446887,1.6673260073260072
0.023634600001969375,2.6585347985347987,0.3884249084249084,1.4666666666666666
0.030636688999948092,2.6649816849816848,0.3739194139194139,2.606153846153846
0.03899911500047892,2.6649816849816848,0.3739194139194139,2.606153846153846
0.048845971999980975,2.6649816849816848,0.3739194139194139,2.606153846153846
0.05829612600064138,2.6738461538461538,0.7397802197802198,0.22644688644688646
0.06344986000476638,2.6956043956043954,0.8727472527472527,3.2460073260073257
0.06629504000011366,2.6956043956043954,0.8727472527472527,3.2460073260073257
0.07071946000360185,3.3,0.18776556776556774,1.4529670329670328
0.07792034700105432,3.3,0.18776556776556774,1.4529670329670328
0.0827620440031751,2.690769230769231,0.8654945054945055,2.8140659340659337
0.0894745050027268,2.690769230769231,0.8654945054945055,2.8140659340659337
0.09307958600402344,2.690769230769231,0.8654945054945055,2.8140659340659337
0.09977855200122576,1.1499633699633698,0.06446886446886446,0.8687179487179487
0.10405448500387138,1.1499633699633698,0.06446886446886446,0.8687179487179487
0.10655447500175796,1.1499633699633698,0.06446886446886446,0.8687179487179487
0.11230139200051781,1.1499633699633698,0.06446886446886446,0.8687179487179487
0.11262047100171912,1.5956043956043955,0.0419047619047619,1.1306227106227105
0.11810798100486863,1.5956043956043955,0.0419047619047619,1.1306227106227105
0.1190198730037082,3.0566300366300365,0.8252014652014652,3.3
0.12066160399990622,3.0566300366300365,0.8252014652014652,3.3
0.12380403800489148,3.0566300366300365,0.8252014652014652,3.3
0.12546659000508953,3.0566300366300365,0.8252014652014652,3.3
0.12930179800605401,3.0566300366300365,0.8252014652014652,3.3
0.13385913000092842,3.0566300366300365,0.8252014652014652,3.3
0.13418406900018454,3.0566300366300365,0.8252014652014652,3.3
0.14034639300371055,3.0566300366300365,0.8252014652014652,3.3
0.14594858000054955,3.0566300366300365,0.8252014652014652,3.3
0.15132311200432014,3.0566300366300365,0.8252014652014652,3.3
0.15369834300508955,3.0566300366300365,0.8252014652014652,3.3
0.15388374800386373,3.0566300366300365,0.8252014652014652,3.3
0.15853980999963824,3.0566300366300365,0.8252014652014652,3.3
0.15873906799970428,3.0566300366300365,0.8252014652014652,3.3
0.163570068005356,3.0566300366300365,0.8252014652014652,3.3
0.16378505100146867,3.3,0.39567765567765567,1.3852747252747253
0.16835442000592593,3.3,0.39567765567765567,1.3852747252747253
0.169224215002032,3.3,0.5689377289377289,2.4941391941391937
0.17082410900184186,3.3,0.5689377289377289,2.4941391941391937
0.17463957800646313,1.8333333333333333,0.0,0.9283516483516483
0.18021957900054986,1.8333333333333333,0.0,0.9283516483516483
0.18195025000022724,1.8333333333333333,0.0,0.9283516483516483
0.18520712300232844,1.8333333333333333,0.0,0.9283516483516483
0.18695698200463085,1.8333333333333333,0.0,0.9283516483516483
0.18952994000574108,1.8333333333333333,0.0,0.9283516483516483
0.18966812100552488,1.8333333333333333,0.0,0.9283516483516483
0.19604585600609425,1.8333333333333333,0.0,0.9283516483516483
0.20022954100568313,2.655311355311355,0.31750915750915754,2.644029304029304
0.20280794700374827,2.655311355311355,0.31750915750915754,2.644029304029304
0.20970587400370277,2.655311355311355,0.31750915750915754,2.644029304029304
0.2146381550046499,2.9905494505494503,0.0701098901098901,1.3973626373626373
0.22364850600570207,2.9905494505494503,0.0701098901098901,1.3973626373626373
0.23200186600297457,2.6746520146520147,0.6986813186813187,0.5197802197802197
0.23698647700075526,2.6746520146520147,0.6986813186813187,0.5197802197802197
0.24313609400269343,2.6746520146520147,0.6986813186813187,0.5197802197802197
0.24741316200379515,2.6746520146520147,0.6986813186813187,0.5197802197802197
0.25053918400226394,2.6746520146520147,0.6986813186813187,0.5197802197802197
0.25095891000091797,2.6746520146520147,0.6986813186813187,0.5197802197802197
0.2581276080018142,2.6746520146520147,0.6986813186813187,0.5197802197802197
0.26456482500361744,2.6746520146520147,0.6986813186813187,0.5197802197802197
0.2702970570026082,3.3,0.32073260073260074,1.1862271062271061
0.27795174600032624,3.3,0.32073260073260074,1.1862271062271061
0.2831818300037412,0.971062271062271,0.04029304029304029,0.7381684981684982
0.287623538999469,0.971062271062271,0.04029304029304029,0.7381684981684982
0.28791002300567925,0.971062271062271,0.04029304029304029,0.7381684981684982
0.2935512300027767,0.971062271062271,0.04029304029304029,0.7381684981684982
0.2937763600057224,0.971062271062271,0.04029304029304029,0.7381684981684982
0.298916656000074,2.718974358974359,0.7663736263736264,2.860805860805861
0.30245049700170057,2.718974358974359,0.7663736263736264,2.860805860805861
0.30264501000056043,2.718974358974359,0.7663736263736264,2.860805860805861
0.31009588300366886,2.718974358974359,0.7663736263736264,2.860805860805861
0.31437995200394653,2.718974358974359,0.7663736263736264,2.860805860805861
0.3171191580040613,2.718974358974359,0.7663736263736264,2.860805860805861
0.32328828400204657,2.718974358974359,0.7663736263736264,2.860805860805861
0.32664069200109225,2.718974358974359,0.7663736263736264,2.860805860805861
0.3268913950014394,2.718974358974359,0.7663736263736264,2.860805860805861
0.3318335550065967,2.718974358974359,0.7663736263736264,2.860805860805861
0.3382062740056426,2.718974358974359,0.7663736263736264,2.860805860805861
0.3423442160055856,2.718974358974359,0.7663736263736264,2.860805860805861
0.3450130600031116,2.6738461538461538,0.7526739926739926,0.2715750915750916
0.35129015300481115,1.5972161172161172,0.11523809523809524,0.9605860805860806
0.3571468880036264,1.5972161172161172,0.11523809523809524,0.9605860805860806
0.36370288300531683,1.5972161172161172,0.11523809523809524,0.9605860805860806
0.3679820630059112,2.659340659340659,0.5979487179487178,0.8131135531135532
0.3707180370038259,2.659340659340659,0.5979487179487178,0.8131135531135532
0.37496714500593953,2.659340659340659,0.5979487179487178,0.8131135531135532
0.3753452439996181,2.659340659340659,0.5979487179487178,0.8131135531135532
0.38055748900660546,2.659340659340659,0.5979487179487178,0.8131135531135532
0.3832402380066924,2.6649816849816848,0.6938461538461538,0.6293772893772893
0.3909728580038063,2.6649816849816848,0.6938461538461538,0.6293772893772893
0.3970317380008055,2.6649816849816848,0.3884249084249084,1.4868131868131869
0.4009331130000646,2.6488644688644687,0.3384615384615384,2.66014652014652
0.4055069210007787,2.6633699633699632,0.6519413919413919,0.913040293040293
0.41192905800562585,3.3,0.1958241758241758,1.4666666666666666
0.41631321600289084,3.3,0.1958241758241758,1.4666666666666666
0.418033371999627,2.6875457875457873,0.9219047619047619,2.6698168498168497
0.42349230000399984,2.6875457875457873,0.9219047619047619,2.6698168498168497
0.4237981440019212,2.66014652014652,0.7744322344322344,0.5125274725274725
0.4298367310038884,2.66014652014652,0.7744322344322344,0.5125274725274725
0.43497703600587556,3.3,0.6680586080586081,2.9494505494505496
0.43901948800339596,1.5585347985347984,0.07575091575091575,0.7945787545787546
0.44144577300176024,1.5585347985347984,0.07575091575091575,0.7945787545787546
0.4475790050055366,2.6665934065934067,0.6769230769230768,0.6011721611721611
0.45174411500192946,2.6665934065934067,0.6769230769230768,0.6011721611721611
0.45675362500332994,2.6665934065934067,0.6769230769230768,0.6011721611721611
0.45937014700029977,2.6665934065934067,0.6769230769230768,0.6011721611721611
0.46460057200602023,2.6665934065934067,0.6769230769230768,0.6011721611721611
0.467829798006278,2.6665934065934067,0.6769230769230768,0.6011721611721611
0.46874090200435603,2.6665934065934067,0.6769230769230768,0.6011721611721611
0.4716991440000129,2.6665934065934067,0.6769230769230768,0.6011721611721611
0.47525223800039385,2.6665934065934067,0.6769230769230768,0.6011721611721611
0.48268373400060227,2.6665934065934067,0.6769230769230768,0.6011721611721611
0.4908890180013259,2.6665934065934067,0.6769230769230768,0.6011721611721611
0.49495972500153584,2.6585347985347987,0.4126007326007326,1.4739194139194138
0.497575464003603,2.6585347985347987,0.4126007326007326,1.4739194139194138
0.5055563830028404,2.66014652014652,0.3287912087912088,2.581978021978022
0.5116357470033108,2.66014652014652,0.3287912087912088,2.581978021978022
0.5173599310001009,3.2927472527472528,0.14586080586080585,1.3038827838827838
0.5262607200056664,3.2927472527472528,0.14586080586080585,1.3038827838827838
0.5313092730066273,2.6617582417582417,0.7357509157509158,0.45772893772893775
0.5356920160047594,2.6617582417582417,0.7357509157509158,0.45772893772893775
0.5372144900029525,2.6617582417582417,0.7357509157509158,0.45772893772893775
0.5423335800005589,2.6617582417582417,0.7357509157509158,0.45772893772893775
0.5448268550026114,2.6617582417582417,0.7357509157509158,0.45772893772893775
0.5504410000066855,2.6617582417582417,0.7357509157509158,0.45772893772893775
0.5513706730052945,2.6617582417582417,0.7357509157509158,0.45772893772893775
0.5539397210013703,2.6617582417582417,0.7357509157509158,0.45772893772893775
0.5603272280059173,2.6617582417582417,0.7357509157509158,0.45772893772893775
0.5644474490036373,2.6617582417582417,0.7357509157509158,0.45772893772893775
0.5668738240055973,2.6617582417582417,0.7357509157509158,0.45772893772893775
0.5670393030013656,2.6617582417582417,0.7357509157509158,0.45772893772893775
0.5764223040023353,2.6617582417582417,0.7357509157509158,0.45772893772893775
0.5814329300046666,2.6617582417582417,0.7357509157509158,0.45772893772893775
0.5870906760028447,2.6682051282051282,0.7228571428571429,0.523003663003663
0.5872238510055467,0.1249084249084249,0.13619047619047617,1.3336996336996336
0.5943854400029522,0.1249084249084249,0.13619047619047617,1.3336996336996336
0.5991520880052121,0.1249084249084249,0.13619047619047617,1.3336996336996336
0.605736423000053,0.1249084249084249,0.13619047619047617,1.3336996336996336
0.6091843690010137,0.1249084249084249,0.13619047619047617,1.3336996336996336
0.6101119340019068,0.1249084249084249,0.13619047619047617,1.3336996336996336
0.6110733670066111,0.1249084249084249,0.13619047619047617,1.3336996336996336
0.612889656003972,0.1249084249084249,0.13619047619047617,1.3336996336996336
0.614545086005819,0.1249084249084249,0.13619047619047617,1.3336996336996336
0.6197187150028185,2.6964102564102563,0.8759706959706959,3.295164835164835
0.622042095004872,2.6964102564102563,0.8759706959706959,3.295164835164835
0.6223273659998085,2.6964102564102563,0.8759706959706959,3.295164835164835
0.6279111610056134,2.6964102564102563,0.8759706959706959,3.295164835164835
0.6281361430010293,2.6964102564102563,0.8759706959706959,3.295164835164835
0.633732278001844,2.6964102564102563,0.8759706959706959,3.295164835164835
0.6346479100029683,2.6964102564102563,0.8759706959706959,3.295164835164835
0.6365850319998572,2.6964102564102563,0.8759706959706959,3.295164835164835
0.6406255860056262,2.6964102564102563,0.8759706959706959,3.295164835164835
0.6424140770031954,2.6964102564102563,0.8759706959706959,3.295164835164835
0.6444321230010246,2.6802930402930403,0.6656410256410257,1.2877655677655677
0.6462234930004342,2.6802930402930403,0.6656410256410257,1.2877655677655677
0.6494295200027409,2.6802930402930403,0.6656410256410257,1.2877655677655677
0.6503820390062174,2.6802930402930403,0.6656410256410257,1.2877655677655677
0.6513608900058898,2.6802930402930403,0.6656410256410257,1.2877655677655677
0.6536001300046337,2.6802930402930403,0.6656410256410257,1.2877655677655677
0.6537943120056298,2.6802930402930403,0.6656410256410257,1.2877655677655677
0.6603052390055382,2.6802930402930403,0.6656410256410257,1.2877655677655677
0.6645122520058067,2.6504761904761907,0.31267399267399265,2.598095238095238
0.6676470540041919,2.6504761904761907,0.31267399267399265,2.598095238095238
0.6703969260051963,2.6504761904761907,0.31267399267399265,2.598095238095238
0.6749352770057158,2.6504761904761907,0.31267399267399265,2.598095238095238
0.680821278001531,2.690769230769231,0.9904029304029303,2.7624908424908425
0.6809595710001304,2.690769230769231,0.9904029304029303,2.7624908424908425
0.6863295799994376,2.690769230769231,0.9904029304029303,2.7624908424908425
0.6910094150007353,2.690769230769231,0.9904029304029303,2.7624908424908425
0.6959470120054903,2.690769230769231,0.9904029304029303,2.7624908424908425
0.7022656050030491,2.697216117216117,0.834065934065934,3.2524542124542126
0.7082969640032388,2.697216117216117,0.834065934065934,3.2524542124542126
0.7117378080001799,2.697216117216117,0.834065934065934,3.2524542124542126
0.7120195750030689,2.4941391941391937,0.06688644688644689,1.2579487179487179
0.7177976420061896,2.4941391941391937,0.06688644688644689,1.2579487179487179
0.7179831680041389,2.4941391941391937,0.06688644688644689,1.2579487179487179
0.7286012320037116,3.00989010989011,0.6084249084249085,2.477216117216117
0.736587049002992,2.681098901098901,0.7043223443223443,0.7994139194139194
0.7412811760004843,1.2498901098901098,0.051575091575091575,0.8131135531135532
0.746222221001517,1.2498901098901098,0.051575091575091575,0.8131135531135532
0.750914971002203,1.2498901098901098,0.051575091575091575,0.8131135531135532
0.7510513340021134,1.2498901098901098,0.051575091575091575,0.8131135531135532
0.7596255960015696,1.2498901098901098,0.051575091575091575,0.8131135531135532
0.7643884100034484,2.655311355311355,0.3336263736263736,2.6633699633699632
0.7645938830028172,2.655311355311355,0.3336263736263736,2.6633699633699632
0.7702785800065612,2.655311355311355,0.3336263736263736,2.6633699633699632
0.770495844000834,2.655311355311355,0.3336263736263736,2.6633699633699632
0.7765145810044487,2.655311355311355,0.3336263736263736,2.6633699633699632
0.7804586740021477,2.655311355311355,0.3336263736263736,2.6633699633699632
0.7843663050007308,2.655311355311355,0.3336263736263736,2.6633699633699632
0.7921964260021923,2.655311355311355,0.3336263736263736,2.6633699633699632
0.7967520220045117,0.26109890109890105,0.15633699633699633,1.332087912087912
0.7970362820051378,2.693186813186813,0.6608058608058608,2.83985347985348
0.803901819002931,2.693186813186813,0.6608058608058608,2.83985347985348
0.8083426900047925,2.693186813186813,0.6608058608058608,2.83985347985348
0.808509218004474,2.693186813186813,0.6608058608058608,2.83985347985348
0.8133118770056171,2.693186813186813,0.6608058608058608,2.83985347985348
0.8134448609998799,2.693186813186813,0.6608058608058608,2.83985347985348
0.8184125350016984,2.693186813186813,0.6608058608058608,2.83985347985348
0.8185825660038972,2.693186813186813,0.6608058608058608,2.83985347985348
0.8267285590045503,2.693186813186813,0.6608058608058608,2.83985347985348
0.8316445790042053,2.664175824175824,0.7365567765567765,0.3852014652014652
0.8374909100020886,2.664175824175824,0.7365567765567765,0.3852014652014652
0.84368074300437,2.7165567765567764,0.9364102564102563,2.768937728937729
0.8477649220003514,2.7165567765567764,0.9364102564102563,2.768937728937729
0.850275850003527,0.5931135531135531,0.25465201465201465,1.4860073260073259
0.8504462240016437,0.5931135531135531,0.25465201465201465,1.4860073260073259
0.8588668760057772,0.5931135531135531,0.25465201465201465,1.4860073260073259
0.8650620020052884,1.2047619047619047,0.0547985347985348,0.7131868131868132
0.8728366659997846,1.4142857142857141,0.11846153846153845,0.9283516483516483
0.8771314580008038,1.859120879120879,0.06124542124542124,1.070989010989011
0.8788677219999954,1.859120879120879,0.06124542124542124,1.070989010989011
0.8822489490048611,1.859120879120879,0.06124542124542124,1.070989010989011
0.8825183959997958,1.859120879120879,0.06124542124542124,1.070989010989011
0.8909788380042301,1.859120879120879,0.06124542124542124,1.070989010989011
0.8958700310031418,1.859120879120879,0.06124542124542124,1.070989010989011
0.9012479560042266,0.6793406593406592,0.033846153846153845,0.6833699633699634
0.9066860050006653,2.121831501831502,0.5213919413919413,2.5400732600732603
0.9137819300012779,2.212087912087912,0.09025641025641025,1.3296703296703296
0.919384546999936,3.287106227106227,0.6680586080586081,2.962344322344322
0.9222516440058826,2.6585347985347987,0.3505494505494505,2.659340659340659
0.9233833890029928,2.6585347985347987,0.3505494505494505,2.659340659340659
0.9236397910062806,2.6585347985347987,0.3505494505494505,2.659340659340659
0.9284207520031487,2.6585347985347987,0.3505494505494505,2.659340659340659
0.9286586390007869,2.6585347985347987,0.3505494505494505,2.659340659340659
0.9334762230064371,2.6585347985347987,0.3505494505494505,2.659340659340659
0.9410769790047198,2.6585347985347987,0.3505494505494505,2.659340659340659
0.9451519700014615,2.6585347985347987,0.3505494505494505,2.659340659340659
0.9484767930043745,1.622197802197802,0.1265201465201465,1.0347252747252746
0.9493383130029542,1.622197802197802,0.1265201465201465,1.0347252747252746
0.9510444840052514,1.622197802197802,0.1265201465201465,1.0347252747252746
0.9565531500047655,1.622197802197802,0.1265201465201465,1.0347252747252746
0.9568722920012078,1.622197802197802,0.1265201465201465,1.0347252747252746
0.9624806350038853,1.622197802197802,0.1265201465201465,1.0347252747252746
0.9633475730006467,2.673040293040293,0.7083516483516483,0.6704761904761904
0.9642778340057703,2.673040293040293,0.7083516483516483,0.6704761904761904
0.9660004120014491,2.673040293040293,0.7083516483516483,0.6704761904761904
0.9709826620019157,2.673040293040293,0.7083516483516483,0.6704761904761904
0.9763698730021133,2.673040293040293,0.7083516483516483,0.6704761904761904
0.976691647003463,2.673040293040293,0.7083516483516483,0.6704761904761904
0.9814851510018343,2.673040293040293,0.7083516483516483,0.6704761904761904
0.981610091002949,2.673040293040293,0.7083516483516483,0.6704761904761904
0.9870268869999563,2.673040293040293,0.7083516483516483,0.6704761904761904
0.9892488760015112,3.3,0.2369230769230769,1.4763369963369963
0.9895728980045533,3.3,0.2369230769230769,1.4763369963369963
0.9938797180002439,3.3,0.2369230769230769,1.4763369963369963
0.9948316410009284,3.3,0.2369230769230769,1.4763369963369963
0.995794875001593,3.3,0.2369230769230769,1.4763369963369963
0.996763302006002,3.3,0.2369230769230769,1.4763369963369963
0.9976922490022844,3.3,0.2369230769230769,1.4763369963369963
0.9993022910057334,3.3,0.2369230769230769,1.4763369963369963
1.006220764000318,3.3,0.2369230769230769,1.4763369963369963
1.0096355429996038,3.3,0.2224175824175824,1.3836630036630035
1.009857725999609,3.3,0.2224175824175824,1.3836630036630035
1.014611311002227,3.3,0.2224175824175824,1.3836630036630035
1.0148146550054662,3.3,0.2224175824175824,1.3836630036630035
1.0198544900049455,3.3,0.2224175824175824,1.3836630036630035
1.024211802003265,3.3,0.2224175824175824,1.3836630036630035
1.0259948590028216,3.3,0.2224175824175824,1.3836630036630035
1.0292601790060871,3.3,0.2224175824175824,1.3836630036630035
1.0309616570011713,3.3,0.2224175824175824,1.3836630036630035
1.0341655170050217,3.3,0.2224175824175824,1.3836630036630035
1.0371487110023736,3.3,0.2224175824175824,1.3836630036630035
1.0391480210018926,2.6956043956043954,0.8348717948717947,3.0106959706959704
1.0401858420009376,2.6956043956043954,0.8348717948717947,3.0106959706959704
1.0411581490043318,2.6956043956043954,0.8348717948717947,3.0106959706959704
1.0421012270016945,2.6956043956043954,0.8348717948717947,3.0106959706959704
1.0430756410059985,2.6956043956043954,0.8348717948717947,3.0106959706959704
1.0440225359998294,2.6956043956043954,0.8348717948717947,3.0106959706959704
1.044957277001231,2.6956043956043954,0.8348717948717947,3.0106959706959704
1.0460322580038337,2.6956043956043954,0.8348717948717947,3.0106959706959704
1.0469647530044313,2.6956043956043954,0.8348717948717947,3.0106959706959704
1.047938941999746,2.6956043956043954,0.8348717948717947,3.0106959706959704
1.0495390819996828,3.3,0.7736263736263735,3.1662271062271063
1.0537672320060665,3.3,0.6342124542124542,3.2331135531135526
1.0567678229999729,3.3,0.6342124542124542,3.2331135531135526
1.0584785960018053,3.3,0.6342124542124542,3.2331135531135526
1.0617182290006895,3.3,0.6342124542124542,3.2331135531135526
1.063320155000838,3.3,0.6342124542124542,3.2331135531135526
1.0671396540055866,3.3,0.6342124542124542,3.2331135531135526
1.0739484549994813,2.5843956043956045,0.5205860805860806,2.054139194139194
1.0780599300051108,2.5843956043956045,0.5205860805860806,2.054139194139194
1.0817852930049412,2.5843956043956045,0.5205860805860806,2.054139194139194
1.0863903070057859,2.5843956043956045,0.5205860805860806,2.054139194139194
1.0866226220023236,3.3,0.29333333333333333,1.2603663003663002
1.0912421080065542,3.3,0.29333333333333333,1.2603663003663002
1.0915307770046638,3.3,0.29333333333333333,1.2603663003663002
1.0963854340006947,3.3,0.29333333333333333,1.2603663003663002
1.1019638319994556,3.3,0.29333333333333333,1.2603663003663002
1.1022909360035555,3.3,0.29333333333333333,1.2603663003663002
1.107124913003645,3.3,0.29333333333333333,1.2603663003663002
1.1125255150036537,3.3,0.30622710622710625,1.2152380952380952
1.1148844890049077,1.5198534798534797,0.03948717948717949,1.0476190476190474
1.115171752004244,1.5198534798534797,0.03948717948717949,1.0476190476190474
1.1205596780055203,1.5198534798534797,0.03948717948717949,1.0476190476190474
1.1222188810061198,1.5198534798534797,0.03948717948717949,1.0476190476190474
1.1268182120038546,1.5198534798534797,0.03948717948717949,1.0476190476190474
1.1269469870021567,1.5198534798534797,0.03948717948717949,1.0476190476190474
1.1323308990031364,1.5198534798534797,0.03948717948717949,1.0476190476190474
1.135369477000495,1.5198534798534797,0.03948717948717949,1.0476190476190474
1.1377775390064926,1.5198534798534797,0.03948717948717949,1.0476190476190474
1.1379801270013559,0.22967032967032966,0.17567765567765567,1.8252747252747252
1.1433270070047001,2.776190476190476,0.7631501831501831,3.3
1.1457112400021288,2.776190476190476,0.7631501831501831,3.3
1.1459229740066803,2.776190476190476,0.7631501831501831,3.3
1.1531779260039912,2.776190476190476,0.7631501831501831,3.3
1.1564213490055408,1.834945054945055,0.051575091575091575,0.9605860805860806
1.1580791890010005,1.834945054945055,0.051575091575091575,0.9605860805860806
1.1638840220039128,1.834945054945055,0.051575091575091575,0.9605860805860806
1.1706573430055869,1.834945054945055,0.051575091575091575,0.9605860805860806
1.1746306120039662,1.834945054945055,0.051575091575091575,0.9605860805860806
1.177739194004971,1.834945054945055,0.051575091575091575,0.9605860805860806
1.179504216001078,1.834945054945055,0.051575091575091575,0.9605860805860806
1.1834129630005918,2.6682051282051282,0.755091575091575,0.6285714285714284
1.1898750420004944,2.6682051282051282,0.755091575091575,0.6285714285714284
1.1931719359999988,2.6682051282051282,0.755091575091575,0.6285714285714284
1.1940809660009108,2.6682051282051282,0.755091575091575,0.6285714285714284
1.1950244070030749,2.6682051282051282,0.755091575091575,0.6285714285714284
1.196708426999976,2.6682051282051282,0.755091575091575,0.6285714285714284
1.199930098002369,2.6682051282051282,0.755091575091575,0.6285714285714284
1.2018746560061118,2.6682051282051282,0.755091575091575,0.6285714285714284
1.2052138170038234,2.6682051282051282,0.755091575091575,0.6285714285714284
1.2055383200058714,2.6682051282051282,0.755091575091575,0.6285714285714284
1.2103631690042675,2.6682051282051282,0.755091575091575,0.6285714285714284
1.2104685490048723,2.6682051282051282,0.755091575091575,0.6285714285714284
1.2163851389996125,2.6682051282051282,0.755091575091575,0.6285714285714284
1.222198985000432,2.6682051282051282,0.755091575091575,0.6285714285714284
1.222311287005141,2.6682051282051282,0.755091575091575,0.6285714285714284
1.2277680590050295,2.6682051282051282,0.755091575091575,0.6285714285714284
1.229584374006663,2.6682051282051282,0.755091575091575,0.6285714285714284
1.2319204920058837,2.6682051282051282,0.755091575091575,0.6285714285714284
1.2322217680048198,2.6682051282051282,0.755091575091575,0.6285714285714284
1.2376663830000325,2.6682051282051282,0.755091575091575,0.6285714285714284
1.2392670300032478,1.788205128205128,0.43355311355311354,2.5078388278388277
1.2431682090027607,1.788205128205128,0.43355311355311354,2.5078388278388277
1.2469907340055215,1.788205128205128,0.43355311355311354,2.5078388278388277
1.2515778450033395,1.788205128205128,0.43355311355311354,2.5078388278388277
1.2517609500064282,1.788205128205128,0.43355311355311354,2.5078388278388277
1.256440591001592,1.788205128205128,0.43355311355311354,2.5078388278388277
1.256672741001239,1.788205128205128,0.43355311355311354,2.5078388278388277
1.2613915340043604,1.788205128205128,0.43355311355311354,2.5078388278388277
1.2616731240050285,2.0517216117216117,0.5286446886446886,2.465934065934066
1.2666813040050329,2.0517216117216117,0.5286446886446886,2.465934065934066
1.271502211006009,3.3,0.22564102564102564,1.4698901098901098
1.2768991050033947,3.3,0.22564102564102564,1.4698901098901098
1.2786694380047265,3.3,0.22564102564102564,1.4698901098901098
1.281934975006152,3.3,0.22564102564102564,1.4698901098901098
1.2837135380032123,2.6682051282051282,0.788937728937729,0.8671062271062271
1.2869771620025858,2.6682051282051282,0.788937728937729,0.8671062271062271
1.2878531189999194,2.6682051282051282,0.788937728937729,0.8671062271062271
1.2889012590021593,2.6682051282051282,0.788937728937729,0.8671062271062271
1.2898572470003273,2.6682051282051282,0.788937728937729,0.8671062271062271
1.2907793220001622,2.631135531135531,0.04915750915750916,1.315970695970696
1.29239121300634,2.631135531135531,0.04915750915750916,1.315970695970696
1.2962402630000724,2.631135531135531,0.04915750915750916,1.315970695970696
1.3009177000058116,2.631135531135531,0.04915750915750916,1.315970695970696
1.3012557910042233,2.631135531135531,0.04915750915750916,1.315970695970696
1.3059361550040194,2.631135531135531,0.04915750915750916,1.315970695970696
1.3061113389994716,2.631135531135531,0.04915750915750916,1.315970695970696
1.3117600100013078,2.631135531135531,0.04915750915750916,1.315970695970696
1.3120370489996276,2.631135531135531,0.04915750915750916,1.315970695970696
1.3177359380060807,1.3224175824175823,0.14505494505494507,0.7663736263736264
1.3179778520061518,1.3224175824175823,0.14505494505494507,0.7663736263736264
1.3236767260023043,1.3224175824175823,0.14505494505494507,0.7663736263736264
1.323905443001422,2.6682051282051282,0.7276923076923076,0.4126007326007326
1.329589583001507,2.6682051282051282,0.7276923076923076,0.4126007326007326
1.3297686360019725,2.6682051282051282,0.7276923076923076,0.4126007326007326
1.3350602360005723,2.6682051282051282,0.7276923076923076,0.4126007326007326
1.3373742540061357,1.2047619047619047,0.0701098901098901,0.7413919413919414
1.3376348250021692,1.2047619047619047,0.0701098901098901,0.7413919413919414
1.3428764720010804,1.2047619047619047,0.0701098901098901,0.7413919413919414
1.3466246180032613,1.2047619047619047,0.0701098901098901,0.7413919413919414
1.3520886879996397,1.2047619047619047,0.0701098901098901,0.7413919413919414
1.354455903005146,1.2047619047619047,0.0701098901098901,0.7413919413919414
1.354661034005403,1.2047619047619047,0.0701098901098901,0.7413919413919414
1.3602381590026198,1.2047619047619047,0.0701098901098901,0.7413919413919414
1.3611553930022637,1.2047619047619047,0.0701098901098901,0.7413919413919414
1.3629645380060538,2.6714285714285713,0.7043223443223443,0.6003663003663003
1.3660668400043505,2.6714285714285713,0.7043223443223443,0.6003663003663003
1.3677193149997038,2.6714285714285713,0.7043223443223443,0.6003663003663003
1.3709806420010864,2.6714285714285713,0.7043223443223443,0.6003663003663003
1.3728294060056214,2.5150915750915748,0.08703296703296703,1.236996336996337
1.3751936070038937,2.5150915750915748,0.08703296703296703,1.236996336996337
1.375451152001915,2.5150915750915748,0.08703296703296703,1.236996336996337
1.3803548460055026,2.5150915750915748,0.08703296703296703,1.236996336996337
1.385013571001764,2.681098901098901,0.7752380952380952,0.4142124542124542
1.385222913006146,2.681098901098901,0.7752380952380952,0.4142124542124542
1.3908572720029042,2.681098901098901,0.7752380952380952,0.4142124542124542
1.3911696060022223,2.681098901098901,0.7752380952380952,0.4142124542124542
1.3967217490062467,2.681098901098901,0.7752380952380952,0.4142124542124542
1.3969443880050676,2.681098901098901,0.7752380952380952,0.4142124542124542
1.4027623680012766,2.681098901098901,0.7752380952380952,0.4142124542124542
1.4029048619995592,2.681098901098901,0.7752380952380952,0.4142124542124542
1.408348160002788,2.681098901098901,0.7752380952380952,0.4142124542124542
1.410087979005766,2.647252747252747,0.11684981684981684,1.3288644688644689
1.4132569249995868,1.7704761904761903,0.05318681318681319,1.1386813186813185
1.4155865990032908,1.7704761904761903,0.05318681318681319,1.1386813186813185
1.4158276170055615,1.7704761904761903,0.05318681318681319,1.1386813186813185
1.4210902250051731,1.7704761904761903,0.05318681318681319,1.1386813186813185
1.4242576960023143,1.7704761904761903,0.05318681318681319,1.1386813186813185
1.4267672250061878,1.7704761904761903,0.05318681318681319,1.1386813186813185
1.4320988270046655,1.7704761904761903,0.05318681318681319,1.1386813186813185
1.4359248550026678,1.7704761904761903,0.05318681318681319,1.1386813186813185
1.4395495120043051,2.693992673992674,0.9654212454212454,2.656117216117216
1.4445783190021757,2.693992673992674,0.9654212454212454,2.656117216117216
1.4491217640024843,2.693992673992674,0.9654212454212454,2.656117216117216
1.4494582480037934,3.3,0.2804395604395604,1.581904761904762
1.4539137620013207,3.3,0.2804395604395604,1.581904761904762
1.4547482289999607,3.3,0.2804395604395604,1.581904761904762
1.4562710050013266,3.3,0.2804395604395604,1.581904761904762
1.4605864910045057,3.3,0.2804395604395604,1.581904761904762
1.462102388002677,1.8857142857142855,0.4778754578754579,2.4127472527472524
1.4669654910030658,1.8857142857142855,0.4778754578754579,2.4127472527472524
1.4723631830056547,1.8857142857142855,0.4778754578754579,2.4127472527472524
1.4747042380040511,1.8857142857142855,0.4778754578754579,2.4127472527472524
1.4748855890065897,1.8857142857142855,0.4778754578754579,2.4127472527472524
1.4795126850003726,1.8857142857142855,0.4778754578754579,2.4127472527472524
1.4797821490064962,2.3087912087912086,0.6172893772893773,3.187985347985348
1.4843674530056887,2.3087912087912086,0.6172893772893773,3.187985347985348
1.48462677399948,2.237875457875458,0.19179487179487179,1.1636630036630036
1.4892661900012172,2.237875457875458,0.19179487179487179,1.1636630036630036
1.4895472650023294,3.2597069597069597,0.11443223443223444,1.3167765567765568
1.4940816670059576,3.2597069597069597,0.11443223443223444,1.3167765567765568
1.4949666790053016,3.2597069597069597,0.11443223443223444,1.3167765567765568
1.4965378990018507,3.2597069597069597,0.11443223443223444,1.3167765567765568
1.5002513409999665,3.2597069597069597,0.11443223443223444,1.3167765567765568
1.505477618004079,3.2597069597069597,0.11443223443223444,1.3167765567765568
1.509216730002663,3.2597069597069597,0.11443223443223444,1.3167765567765568
1.513598097000795,3.2597069597069597,0.11443223443223444,1.3167765567765568
1.514473220006039,3.2597069597069597,0.11443223443223444,1.3167765567765568
1.51607615800458,3.2597069597069597,0.11443223443223444,1.3167765567765568
1.519861746004608,3.2597069597069597,0.11443223443223444,1.3167765567765568
1.5248376650051796,3.2597069597069597,0.11443223443223444,1.3167765567765568
1.5291119220055407,3.2597069597069597,0.11443223443223444,1.3167765567765568
1.5319776680044015,3.3,0.7454212454212454,3.00021978021978
1.534841355001845,3.3,0.7454212454212454,3.00021978021978
1.5384295670010033,3.3,0.7454212454212454,3.00021978021978
1.5385420960010379,3.3,0.7454212454212454,3.00021978021978
1.543540025006223,3.3,0.7454212454212454,3.00021978021978
1.547804237001401,2.685128205128205,0.7478388278388278,0.3457142857142857
1.55066103500576,2.685128205128205,0.7478388278388278,0.3457142857142857
1.5542167570019956,3.3,0.4625641025641025,2.2056410256410253
1.554466666006192,3.3,0.4625641025641025,2.2056410256410253
1.559643558000971,3.3,0.4625641025641025,2.2056410256410253
1.5628311640030006,3.3,0.4625641025641025,2.2056410256410253
1.563680140003271,3.3,0.4625641025641025,2.2056410256410253
1.5653216630016686,3.3,0.4625641025641025,2.2056410256410253
1.570236705003481,3.3,0.4625641025641025,2.2056410256410253
1.5743410890063387,2.293479853479853,0.0821978021978022,1.1733333333333333
1.5768394130063825,2.293479853479853,0.0821978021978022,1.1733333333333333
1.5825376700013294,2.293479853479853,0.0821978021978022,1.1733333333333333
1.5828002550042584,2.6585347985347987,0.5157509157509157,1.224102564102564
1.5877836360014044,2.6585347985347987,0.5157509157509157,1.224102564102564
1.5927988719995483,2.6585347985347987,0.5157509157509157,1.224102564102564
1.5977876470060437,1.1684981684981686,0.06285714285714286,0.7607326007326007
1.6016078739994555,2.698827838827839,0.763956043956044,3.074358974358974
1.6058997090003686,2.698827838827839,0.763956043956044,3.074358974358974
1.608146761005628,2.698827838827839,0.763956043956044,3.074358974358974
1.609684985000058,2.698827838827839,0.763956043956044,3.074358974358974
1.6139901790011209,2.698827838827839,0.763956043956044,3.074358974358974
1.616283678005857,1.6157509157509156,0.0556043956043956,0.8880586080586079
1.6165629410024849,1.6157509157509156,0.0556043956043956,0.8880586080586079
1.6215393870006665,1.6157509157509156,0.0556043956043956,0.8880586080586079
1.6258074120050878,2.6633699633699632,0.5713553113553113,1.0226373626373626
1.627979682001751,2.6633699633699632,0.5713553113553113,1.0226373626373626
1.6288502750030602,2.6633699633699632,0.5713553113553113,1.0226373626373626
1.630328734005161,2.6633699633699632,0.5713553113553113,1.0226373626373626
1.634632043002057,2.6633699633699632,0.5713553113553113,1.0226373626373626
1.6368092240008991,2.6633699633699632,0.5713553113553113,1.0226373626373626
1.6376304130026256,2.6633699633699632,0.5713553113553113,1.0226373626373626
1.6391718540035072,2.6633699633699632,0.5713553113553113,1.0226373626373626
1.6441413100037607,2.6633699633699632,0.5713553113553113,1.0226373626373626
1.6477845040062675,3.3,0.24498168498168496,1.1717216117216116
1.6479214920036611,3.3,0.24498168498168496,1.1717216117216116
1.6529943750065286,3.3,0.24498168498168496,1.1717216117216116
1.6566801110020606,3.3,0.24498168498168496,1.1717216117216116
1.6617299720019219,3.3,0.24498168498168496,1.1717216117216116
1.6658115099999122,1.8704029304029302,0.4488644688644688,2.3418315018315017
1.668172614001378,2.647252747252747,0.35135531135531134,1.5053479853479852
1.6684688280001865,2.647252747252747,0.35135531135531134,1.5053479853479852
1.6734403770024073,2.647252747252747,0.35135531135531134,1.5053479853479852
1.677506229003484,2.647252747252747,0.35135531135531134,1.5053479853479852
1.6807818720044452,2.647252747252747,0.35135531135531134,1.5053479853479852
1.6816362440004013,2.8326007326007323,0.8139194139194139,3.3
1.6832762390040443,2.8326007326007323,0.8139194139194139,3.3
1.6880859720040462,2.8326007326007323,0.8139194139194139,3.3
1.6927234690010664,2.8326007326007323,0.8139194139194139,3.3
1.6928910660062684,2.8326007326007323,0.8139194139194139,3.3
1.6975652290057042,2.8326007326007323,0.8139194139194139,3.3
1.6978086380040622,2.8326007326007323,0.8139194139194139,3.3
1.7024751940043643,2.8326007326007323,0.8139194139194139,3.3
1.7026806450012373,2.8326007326007323,0.8139194139194139,3.3
1.7072696560062468,3.3,0.35216117216117215,1.3256410256410256
1.7081174580016523,1.3707692307692307,0.13457875457875457,0.967032967032967
1.7097406259999843,1.3707692307692307,0.13457875457875457,0.967032967032967
1.713562291006383,3.3,0.7752380952380952,3.141245421245421
1.7183493280026596,3.3,0.7752380952380952,3.141245421245421
1.7241672020027181,3.3,0.7752380952380952,3.141245421245421
1.7243152940063737,3.3,0.7752380952380952,3.141245421245421
1.728967213006399,3.3,0.7752380952380952,3.141245421245421
1.729202346999955,3.3,0.7752380952380952,3.141245421245421
1.7337356810021447,3.3,0.7752380952380952,3.141245421245421
1.7340051110004424,3.3,0.7752380952380952,3.141245421245421
1.7394898700003978,2.6956043956043954,0.9098168498168498,2.3466666666666667
1.741082880005706,2.6956043956043954,0.9098168498168498,2.3466666666666667
1.744910304005316,2.6956043956043954,0.9098168498168498,2.3466666666666667
1.7494966440062854,2.6956043956043954,0.9098168498168498,2.3466666666666667
1.7497538040042855,2.6956043956043954,0.9098168498168498,2.3466666666666667
1.7545859970050515,2.6956043956043954,0.9098168498168498,2.3466666666666667
1.7603382190063712,2.6956043956043954,0.9098168498168498,2.3466666666666667
1.7605279400013387,2.8422710622710623,0.14263736263736262,2.3120146520146516
1.7653059280055459,2.6778754578754578,0.6213186813186813,0.747032967032967
1.7709604219999164,2.6778754578754578,0.6213186813186813,0.747032967032967
1.7719007820051047,1.9808058608058605,0.045128205128205125,1.0943589743589743
1.7727555150049739,1.9808058608058605,0.045128205128205125,1.0943589743589743
1.774356722002267,1.9808058608058605,0.045128205128205125,1.0943589743589743
1.7781881730043096,1.9808058608058605,0.045128205128205125,1.0943589743589743
1.7836870710016228,1.9808058608058605,0.045128205128205125,1.0943589743589743
1.7846655070025008,1.9808058608058605,0.045128205128205125,1.0943589743589743
1.7856854500059853,1.9808058608058605,0.045128205128205125,1.0943589743589743
1.7866151140042348,1.9808058608058605,0.045128205128205125,1.0943589743589743
1.7881985120038735,3.3,0.28930402930402926,1.4497435897435897
1.7921796390000964,3.3,0.28930402930402926,1.4497435897435897
1.7962564160043257,3.3,0.28930402930402926,1.4497435897435897
1.798641810004483,3.3,0.28930402930402926,1.4497435897435897
1.79880787699949,3.3,0.28930402930402926,1.4497435897435897
1.8037960450019455,3.3,0.28930402930402926,1.4497435897435897
1.8078818590001902,3.3,0.28930402930402926,1.4497435897435897
1.8111688620047062,2.9712087912087912,0.19904761904761903,1.1346520146520145
1.8128161810018355,2.9712087912087912,0.19904761904761903,1.1346520146520145
1.8160673870006576,0.5568498168498168,0.01531135531135531,0.7317216117216117
1.8184096200056956,2.698827838827839,0.8163369963369963,3.1404395604395603
1.8186111450049793,2.698827838827839,0.8163369963369963,3.1404395604395603
1.8233266090028337,2.698827838827839,0.8163369963369963,3.1404395604395603
1.8234810750000179,2.698827838827839,0.8163369963369963,3.1404395604395603
1.8282813380064908,2.698827838827839,0.8163369963369963,3.1404395604395603
1.8338188600027934,2.698827838827839,0.8163369963369963,3.1404395604395603
1.8347899569998845,2.698827838827839,0.8163369963369963,3.1404395604395603
1.8357082069996977,2.698827838827839,0.8163369963369963,3.1404395604395603
1.837355554001988,2.698827838827839,0.8163369963369963,3.1404395604395603
1.841238205000991,2.698827838827839,0.8163369963369963,3.1404395604395603
1.8451089880036307,2.698827838827839,0.8163369963369963,3.1404395604395603
1.8489902850051294,2.698827838827839,0.8163369963369963,3.1404395604395603
1.8528818630002206,2.698827838827839,0.8163369963369963,3.1404395604395603
1.856838167004753,2.698827838827839,0.8163369963369963,3.1404395604395603
1.8600936280054157,2.698827838827839,0.8163369963369963,3.1404395604395603
1.8610238430046593,2.698827838827839,0.8163369963369963,3.1404395604395603
1.8627642290011863,2.6714285714285713,0.7252747252747253,0.38681318681318677
1.8651440250032465,2.6714285714285713,0.7252747252747253,0.38681318681318677
1.865333231005934,2.6714285714285713,0.7252747252747253,0.38681318681318677
1.8702971970051294,2.6714285714285713,0.7252747252747253,0.38681318681318677
1.875901072002307,1.921978021978022,0.07413919413919413,1.2740659340659342
1.8763000809994992,1.921978021978022,0.07413919413919413,1.2740659340659342
1.881134794006357,1.921978021978022,0.07413919413919413,1.2740659340659342
1.8868390880015795,1.921978021978022,0.07413919413919413,1.2740659340659342
1.8870644620037638,1.921978021978022,0.07413919413919413,1.2740659340659342
1.892592288000742,1.921978021978022,0.07413919413919413,1.2740659340659342
1.8934974150033668,1.921978021978022,0.07413919413919413,1.2740659340659342
1.8950989590011886,1.921978021978022,0.07413919413919413,1.2740659340659342
1.8998966180006391,1.921978021978022,0.07413919413919413,1.2740659340659342
1.9054121570006828,2.6665934065934067,0.3416849816849817,2.7745787545787546
1.9064419940041262,2.6665934065934067,0.3416849816849817,2.7745787545787546
1.9067500040036975,2.6665934065934067,0.3416849816849817,2.7745787545787546
1.9115153460006695,2.6665934065934067,0.3416849816849817,2.7745787545787546
1.9117195020007784,3.3,0.6301831501831501,3.2589010989010987
1.916540429003362,3.3,0.6301831501831501,3.2589010989010987
1.916772797005251,1.2039560439560437,0.0410989010989011,0.7438095238095238
1.9215840340038994,1.2039560439560437,0.0410989010989011,0.7438095238095238
1.9216921610059217,1.2039560439560437,0.0410989010989011,0.7438095238095238
1.9273644660061109,1.2039560439560437,0.0410989010989011,0.7438095238095238
1.9282053820061265,1.2039560439560437,0.0410989010989011,0.7438095238095238
1.929872635002539,1.2039560439560437,0.0410989010989011,0.7438095238095238
1.934477908005647,1.2039560439560437,0.0410989010989011,0.7438095238095238
1.9347202720018686,1.2039560439560437,0.0410989010989011,0.7438095238095238
1.9404317490043468,1.2039560439560437,0.0410989010989011,0.7438095238095238
1.9406642419999116,1.2039560439560437,0.0410989010989011,0.7438095238095238
1.946179711005243,1.2039560439560437,0.0410989010989011,0.7438095238095238
1.9471035590031534,1.2039560439560437,0.0410989010989011,0.7438095238095238
1.9481004940025741,1.2039560439560437,0.0410989010989011,0.7438095238095238
1.9491554620035458,1.2039560439560437,0.0410989010989011,0.7438095238095238
1.9500615840006503,1.2039560439560437,0.0410989010989011,0.7438095238095238
1.9516550990010728,1.2039560439560437,0.0410989010989011,0.7438095238095238
1.9554259860015009,1.2039560439560437,0.0410989010989011,0.7438095238095238
1.9612210790000972,1.2039560439560437,0.0410989010989011,0.7438095238095238
1.961484843006474,1.2039560439560437,0.0410989010989011,0.7438095238095238
1.9671594240062404,1.2039560439560437,0.0410989010989011,0.7438095238095238
1.9674494940045406,3.3,0.32556776556776557,1.3095238095238093
1.9721320990065578,3.3,0.32556776556776557,1.3095238095238093
1.9723084850047599,3.3,0.32556776556776557,1.3095238095238093
1.9770055480039446,3.3,0.32556776556776557,1.3095238095238093
1.9772325280064251,2.697216117216117,0.8590476190476191,2.465128205128205
1.9819303580006817,2.697216117216117,0.8590476190476191,2.465128205128205
1.9821825770050054,2.697216117216117,0.8590476190476191,2.465128205128205
1.9868547440055409,2.697216117216117,0.8590476190476191,2.465128205128205
1.9870605120013352,2.697216117216117,0.8590476190476191,2.465128205128205
1.9924567850030144,1.7398534798534797,0.07978021978021978,1.2660073260073261
1.9948846280021826,1.7398534798534797,0.07978021978021978,1.2660073260073261
1.995034117004252,1.7398534798534797,0.07978021978021978,1.2660073260073261
2.0004448930048966,1.7398534798534797,0.07978021978021978,1.2660073260073261
2.0022739870037185,2.3926007326007324,0.6712820512820512,2.924468864468864
2.0051635970012285,2.3926007326007324,0.6712820512820512,2.924468864468864
2.009597267002391,1.9203663003663003,0.1692307692307692,1.0742124542124543
2.009911621003994,3.3,0.3223443223443223,1.8929670329670327
2.014707457004988,2.6746520146520147,0.0846153846153846,1.3167765567765568
2.0148838840032113,2.6746520146520147,0.0846153846153846,1.3167765567765568
2.019725912003196,2.6746520146520147,0.0846153846153846,1.3167765567765568
2.0254342860062025,2.6746520146520147,0.0846153846153846,1.3167765567765568
2.0256271329999436,2.6746520146520147,0.0846153846153846,1.3167765567765568
2.030358003001311,2.6746520146520147,0.0846153846153846,1.3167765567765568
2.030504592003126,3.3,0.788937728937729,3.232307692307692
2.0351190760047757,3.3,0.788937728937729,3.232307692307692
2.03598628200416,2.693992673992674,0.9412454212454211,2.8366300366300368
2.036927913002728,2.693992673992674,0.9412454212454211,2.8366300366300368
2.0379307350012823,2.693992673992674,0.9412454212454211,2.8366300366300368
2.0388501660054317,2.693992673992674,0.9412454212454211,2.8366300366300368
2.039840653000283,2.693992673992674,0.9412454212454211,2.8366300366300368
2.0407951150045847,2.693992673992674,0.9412454212454211,2.8366300366300368
2.0424295050033834,2.693992673992674,0.9412454212454211,2.8366300366300368
2.045668046004721,2.693992673992674,0.9412454212454211,2.8366300366300368
2.047268926005927,2.693992673992674,0.9412454212454211,2.8366300366300368
2.05128954200336,2.693992673992674,0.9412454212454211,2.8366300366300368
2.054442442000436,2.693992673992674,0.9412454212454211,2.8366300366300368
2.056198296006187,2.697216117216117,0.9073992673992675,2.3515018315018312
2.0592551110021304,2.697216117216117,0.9073992673992675,2.3515018315018312
2.061580200002936,2.697216117216117,0.9073992673992675,2.3515018315018312
2.0617817000020295,2.697216117216117,0.9073992673992675,2.3515018315018312
2.0667394980046083,3.3,0.43677655677655675,1.5528937728937728
2.0709051209996687,2.56989010989011,0.2079120879120879,1.1636630036630036
2.073473852004099,3.3,0.7478388278388278,3.2750183150183148
2.078891500001191,3.3,0.7478388278388278,3.2750183150183148
2.0804669610006385,2.697216117216117,0.7405860805860806,3.1243223443223442
2.084280872004456,2.697216117216117,0.7405860805860806,3.1243223443223442
2.088907581004605,2.697216117216117,0.7405860805860806,3.1243223443223442
2.08920213500096,2.697216117216117,0.7405860805860806,3.1243223443223442
2.0940984379994916,2.697216117216117,0.7405860805860806,3.1243223443223442
2.098878260003403,2.681098901098901,0.614065934065934,1.722930402930403
2.106544362002751,2.681098901098901,0.614065934065934,1.722930402930403
2.1117286490043625,2.681098901098901,0.614065934065934,1.722930402930403
2.1143246790015837,2.681098901098901,0.614065934065934,1.722930402930403
2.119979498005705,1.7688644688644688,0.10395604395604395,0.755091575091575
2.12028532900149,1.7688644688644688,0.10395604395604395,0.755091575091575
2.1263352830064832,1.7688644688644688,0.10395604395604395,0.755091575091575
2.1311249480058905,1.7688644688644688,0.10395604395604395,0.755091575091575
2.131228280006326,1.7688644688644688,0.10395604395604395,0.755091575091575
2.1368509930034634,1.7688644688644688,0.10395604395604395,0.755091575091575
2.1370785370017984,1.7688644688644688,0.10395604395604395,0.755091575091575
2.1427623160052462,1.7688644688644688,0.10395604395604395,0.755091575091575
2.1429588120008702,1.7688644688644688,0.10395604395604395,0.755091575091575
2.147338523005601,1.7688644688644688,0.10395604395604395,0.755091575091575
2.1502077900004224,1.7688644688644688,0.10395604395604395,0.755091575091575
2.1538366690001567,2.6746520146520147,0.06688644688644689,1.2506959706959706
2.1540752970031463,2.6746520146520147,0.06688644688644689,1.2506959706959706
2.1592524610023247,2.6746520146520147,0.06688644688644689,1.2506959706959706
2.1626355170010356,2.6746520146520147,0.06688644688644689,1.2506959706959706
2.1629934610027703,2.6746520146520147,0.06688644688644689,1.2506959706959706
2.168652120999468,2.6746520146520147,0.06688644688644689,1.2506959706959706
2.1688492610046524,2.6746520146520147,0.06688644688644689,1.2506959706959706
2.174183136005013,2.6746520146520147,0.06688644688644689,1.2506959706959706
2.1757892620007624,1.6262271062271063,0.06688644688644689,0.9299633699633699
2.1795647040053154,1.6262271062271063,0.06688644688644689,0.9299633699633699
2.184059683000669,1.6262271062271063,0.06688644688644689,0.9299633699633699
2.184952487004921,2.9905494505494503,0.24578754578754577,1.1765567765567766
2.186541629002022,2.9905494505494503,0.24578754578754577,1.1765567765567766
2.1903764170056093,2.9905494505494503,0.24578754578754577,1.1765567765567766
2.1947673840040807,2.9905494505494503,0.24578754578754577,1.1765567765567766
2.1956889830034925,2.9905494505494503,0.24578754578754577,1.1765567765567766
2.197195114000351,2.9905494505494503,0.24578754578754577,1.1765567765567766
2.201677766002831,2.9905494505494503,0.24578754578754577,1.1765567765567766
2.202754267003911,2.9905494505494503,0.24578754578754577,1.1765567765567766
2.2030386080004973,2.6698168498168497,0.6414652014652015,1.1008058608058606
2.2087072930007707,3.3,0.3432967032967033,1.4715018315018316
2.208847007001168,3.3,0.3432967032967033,1.4715018315018316
2.213699952000752,3.3,0.3432967032967033,1.4715018315018316
2.213824877006118,3.3,0.3432967032967033,1.4715018315018316
2.2187478090054356,3.3,0.3432967032967033,1.4715018315018316
2.223317218005832,3.3,0.3432967032967033,1.4715018315018316
2.223604132006585,3.3,0.3432967032967033,1.4715018315018316
2.2282916260010097,3.3,0.3432967032967033,1.4715018315018316
2.228473089002364,3.3,0.3432967032967033,1.4715018315018316
2.2331255009994493,3.3,0.3432967032967033,1.4715018315018316
2.233312915006536,3.3,0.3432967032967033,1.4715018315018316
2.2379764120050822,3.3,0.3432967032967033,1.4715018315018316
2.2381834810003056,2.693186813186813,0.9307692307692307,3.2637362637362637
2.242919755000912,2.693186813186813,0.9307692307692307,3.2637362637362637
2.2482978780026315,2.693186813186813,0.9307692307692307,3.2637362637362637
2.2512508500003605,2.693186813186813,0.9307692307692307,3.2637362637362637
2.2541416400054004,2.693186813186813,0.9307692307692307,3.2637362637362637
2.2570809540047776,2.693186813186813,0.9307692307692307,3.2637362637362637
2.2600355630056583,2.693186813186813,0.9307692307692307,3.2637362637362637
2.262960108004336,2.693186813186813,0.9307692307692307,3.2637362637362637
2.265807247000339,2.693186813186813,0.9307692307692307,3.2637362637362637
2.2687293930066517,2.693186813186813,0.9307692307692307,3.2637362637362637
2.2722707110006013,2.693186813186813,0.9307692307692307,3.2637362637362637
2.2725438520064927,2.693186813186813,0.9307692307692307,3.2637362637362637
2.2775853180064587,2.693186813186813,0.9307692307692307,3.2637362637362637
2.2815351050012396,2.693186813186813,0.9307692307692307,3.2637362637362637
2.2846448750060517,2.693186813186813,0.9307692307692307,3.2637362637362637
2.2863108390010893,2.693186813186813,0.9307692307692307,3.2637362637362637
2.290982269005326,2.693186813186813,0.9307692307692307,3.2637362637362637
2.291104064999672,2.693186813186813,0.9307692307692307,3.2637362637362637
2.296913864003727,2.693186813186813,0.9307692307692307,3.2637362637362637
2.3019316390054883,2.693992673992674,0.6350183150183151,2.8237362637362633
2.306813205999788,2.693992673992674,0.6350183150183151,2.8237362637362633
2.3109441150008934,2.655311355311355,0.3908424908424908,1.3538461538461537
2.3140760360038257,3.2645421245421247,0.09267399267399268,1.3506227106227104
2.316598089004401,3.2645421245421247,0.09267399267399268,1.3506227106227104
2.3221300710065407,3.2645421245421247,0.09267399267399268,1.3506227106227104
2.3238057750058942,3.2645421245421247,0.09267399267399268,1.3506227106227104
2.3262828440056182,3.2645421245421247,0.09267399267399268,1.3506227106227104
2.3263979140028823,3.2645421245421247,0.09267399267399268,1.3506227106227104
2.331205933005549,3.2645421245421247,0.09267399267399268,1.3506227106227104
2.331316373005393,3.2645421245421247,0.09267399267399268,1.3506227106227104
2.335900138001307,3.2645421245421247,0.09267399267399268,1.3506227106227104
2.336174193005718,3.2645421245421247,0.09267399267399268,1.3506227106227104
2.3406810220039915,3.2645421245421247,0.09267399267399268,1.3506227106227104
2.3415601850065286,3.2645421245421247,0.09267399267399268,1.3506227106227104
2.3431898609997006,3.2645421245421247,0.09267399267399268,1.3506227106227104
2.346985977004806,3.2645421245421247,0.09267399267399268,1.3506227106227104
2.351726710003277,3.2645421245421247,0.09267399267399268,1.3506227106227104
2.3574428360007005,3.2645421245421247,0.09267399267399268,1.3506227106227104
2.359226122003747,2.693992673992674,0.809084249084249,2.884175824175824
2.361688552002306,2.693992673992674,0.809084249084249,2.884175824175824
2.3618458510027267,2.6682051282051282,0.7752380952380952,0.6406593406593406
2.3673090070005856,2.6682051282051282,0.7752380952380952,0.6406593406593406
2.369089617001009,3.3,0.1942124542124542,1.4586080586080585
2.3722495390029508,3.3,0.1942124542124542,1.4586080586080585
2.3738060079995194,3.3,0.1942124542124542,1.4586080586080585
2.3777422020066297,1.24021978021978,0.0547985347985348,0.7486446886446886
2.381576321000466,1.24021978021978,0.0547985347985348,0.7486446886446886
2.386299454999971,3.074358974358974,0.6632234432234432,2.5956776556776555
2.3864880239998456,3.074358974358974,0.6632234432234432,2.5956776556776555
2.3912164870052948,3.074358974358974,0.6632234432234432,2.5956776556776555
2.391471618000651,3.074358974358974,0.6632234432234432,2.5956776556776555
2.3968821779999416,3.074358974358974,0.6632234432234432,2.5956776556776555
2.3994957380054984,3.074358974358974,0.6632234432234432,2.5956776556776555
2.404097083999659,1.5843223443223442,0.3739194139194139,2.258827838827839
2.404303331000847,1.5843223443223442,0.3739194139194139,2.258827838827839
2.4091837240048335,1.5843223443223442,0.3739194139194139,2.258827838827839
2.4146756140034995,1.5843223443223442,0.3739194139194139,2.258827838827839
2.4162386280004284,1.5843223443223442,0.3739194139194139,2.258827838827839
2.419961282001168,2.6956043956043954,0.5238095238095237,2.792307692307692
2.4248108940009843,0.43435897435897436,0.19018315018315018,1.917948717948718
2.424941702003707,0.43435897435897436,0.19018315018315018,1.917948717948718
2.429714978999982,3.3,0.27399267399267396,1.0685714285714285
2.4299231020049774,3.3,0.726080586080586,2.92043956043956
2.4347185080041527,3.3,0.726080586080586,2.92043956043956
2.4395716250000987,3.3,0.726080586080586,2.92043956043956
2.439696133005782,3.3,0.726080586080586,2.92043956043956
2.4444662290043198,3.3,0.726080586080586,2.92043956043956
2.4446217110016732,3.3,0.726080586080586,2.92043956043956
2.449496014000033,3.3,0.726080586080586,2.92043956043956
2.4544289210025454,3.3,0.726080586080586,2.92043956043956
2.454538281002897,3.3,0.726080586080586,2.92043956043956
2.459461017002468,3.3,0.726080586080586,2.92043956043956
2.464421338001557,3.3,0.726080586080586,2.92043956043956
2.46853478000412,3.3,0.726080586080586,2.92043956043956
2.4713530740045826,3.3,0.726080586080586,2.92043956043956
2.4748773610044736,3.3,0.726080586080586,2.92043956043956
2.4752174690001993,3.3,0.726080586080586,2.92043956043956
2.480088538999553,3.3,0.726080586080586,2.92043956043956
2.480216965006548,3.3,0.726080586080586,2.92043956043956
2.4849830940001993,3.3,0.726080586080586,2.92043956043956
2.485081752005499,3.3,0.726080586080586,2.92043956043956
2.490000632002193,3.3,0.726080586080586,2.92043956043956
2.4942629610013682,2.5876190476190475,0.0709157509157509,1.1902564102564102
2.496539195999503,2.5876190476190475,0.0709157509157509,1.1902564102564102
2.4968376090037054,2.5876190476190475,0.0709157509157509,1.1902564102564102
2.501814731003833,3.3,0.24175824175824176,2.4820512820512817
2.5075244960025884,3.3,0.24175824175824176,2.4820512820512817
2.50777956800448,3.3,0.23128205128205126,1.116923076923077
2.512348013005976,3.1581684981684983,0.7164102564102564,2.889010989010989
2.5126218229997903,3.1581684981684983,0.7164102564102564,2.889010989010989
2.5171704400054296,3.1581684981684983,0.7164102564102564,2.889010989010989
2.518031809006061,2.697216117216117,0.9565567765567766,2.6915750915750913
2.5196361000053002,2.697216117216117,0.9565567765567766,2.6915750915750913
2.523396151002089,3.1823443223443224,0.8131135531135532,3.227472527472527
2.527870358004293,2.8390476190476193,0.4383882783882784,1.4408791208791207
2.528727696000715,2.8390476190476193,0.4383882783882784,1.4408791208791207
2.5303019150014734,2.8390476190476193,0.4383882783882784,1.4408791208791207
2.5347970479997457,2.8390476190476193,0.4383882783882784,1.4408791208791207
2.5350820849998854,2.8390476190476193,0.4383882783882784,1.4408791208791207
2.54011602600076,2.8390476190476193,0.4383882783882784,1.4408791208791207
2.544008559001668,2.8390476190476193,0.4383882783882784,1.4408791208791207
2.5481995070003904,2.8390476190476193,0.4383882783882784,1.4408791208791207
2.5506141959995148,2.8390476190476193,0.4383882783882784,1.4408791208791207
2.556289894004294,2.145201465201465,0.0693040293040293,1.1064468864468864
2.5571360120011377,2.145201465201465,0.0693040293040293,1.1064468864468864
2.5588543949997984,2.145201465201465,0.0693040293040293,1.1064468864468864
2.56281923300412,2.145201465201465,0.0693040293040293,1.1064468864468864
2.5660390190023463,3.3,0.3747252747252747,1.2974358974358973
2.568664930004161,3.3,0.3747252747252747,1.2974358974358973
2.5726878360001137,3.3,0.3747252747252747,1.2974358974358973
2.576569664000999,3.3,0.3747252747252747,1.2974358974358973
2.580319562002842,2.698021978021978,0.8711355311355311,3.3
2.584764538005402,2.698021978021978,0.8711355311355311,3.3
2.585640402001445,2.698021978021978,0.8711355311355311,3.3
2.58725370799948,2.698021978021978,0.8711355311355311,3.3
2.591209994003293,2.698021978021978,0.8711355311355311,3.3
2.5949388230001205,2.5827838827838825,0.08542124542124542,1.2087912087912087
2.599754558999848,2.7197802197802194,0.9404395604395603,2.7205860805860804
2.6054833740054164,2.685934065934066,0.7236630036630036,0.2796336996336996
2.6057761990014114,2.685934065934066,0.7236630036630036,0.2796336996336996
2.61106537500018,2.685934065934066,0.7236630036630036,0.2796336996336996
2.6133329250005772,2.685934065934066,0.7236630036630036,0.2796336996336996
2.6135330320030334,2.685934065934066,0.7236630036630036,0.2796336996336996
2.6188277430046583,2.685934065934066,0.7236630036630036,0.2796336996336996
2.6211076010004035,2.685934065934066,0.7236630036630036,0.2796336996336996
2.621416729001794,2.685934065934066,0.7236630036630036,0.2796336996336996
2.626712914003292,2.685934065934066,0.7236630036630036,0.2796336996336996
2.6290976090022014,2.685934065934066,0.7236630036630036,0.2796336996336996
2.62922034800431,2.685934065934066,0.7236630036630036,0.2796336996336996
2.634445110001252,2.685934065934066,0.7236630036630036,0.2796336996336996
2.636984556003881,2.685934065934066,0.7236630036630036,0.2796336996336996
2.6425151200019172,2.402271062271062,0.13296703296703297,2.3160439560439556
2.6434186960032093,2.402271062271062,0.13296703296703297,2.3160439560439556
2.6450679450063035,2.402271062271062,0.13296703296703297,2.3160439560439556
2.6488854020062718,2.402271062271062,0.13296703296703297,2.3160439560439556
2.653502416003903,2.402271062271062,0.13296703296703297,2.3160439560439556
2.653794886005926,2.402271062271062,0.13296703296703297,2.3160439560439556
2.659151406005549,2.98007326007326,0.4802930402930403,1.510989010989011
2.662420660002681,3.1694505494505494,0.8364835164835164,3.3
2.6639831270003924,3.1694505494505494,0.8364835164835164,3.3
2.667997780001315,2.803589743589743,0.3843956043956044,1.4223443223443224
2.6712243240035605,2.803589743589743,0.3843956043956044,1.4223443223443224
2.6742879820012604,2.803589743589743,0.3843956043956044,1.4223443223443224
2.6751667450007517,2.803589743589743,0.3843956043956044,1.4223443223443224
2.6767773760002456,2.803589743589743,0.3843956043956044,1.4223443223443224
2.6812631380016683,2.803589743589743,0.3843956043956044,1.4223443223443224
2.6821754220000003,2.803589743589743,0.3843956043956044,1.4223443223443224
2.68382819800172,2.803589743589743,0.3843956043956044,1.4223443223443224
2.6869432460007374,2.803589743589743,0.3843956043956044,1.4223443223443224
2.6892760030023055,2.803589743589743,0.3843956043956044,1.4223443223443224
2.6895355240048957,0.311062271062271,0.19985347985347984,1.3046886446886445
2.6940032900020014,3.3,0.39809523809523806,2.067032967032967
2.6949443940029596,3.3,0.39809523809523806,2.067032967032967
2.6966596280035446,2.693992673992674,0.9154578754578755,2.4756043956043956
2.700442177003424,2.693992673992674,0.9154578754578755,2.4756043956043956
2.704986381002527,2.721391941391941,0.7365567765567765,1.1483516483516483
2.705315231003624,2.721391941391941,0.7365567765567765,1.1483516483516483
2.7100003650048166,2.721391941391941,0.7365567765567765,1.1483516483516483
2.7102159010028117,2.721391941391941,0.7365567765567765,1.1483516483516483
2.7149769460011157,2.721391941391941,0.7365567765567765,1.1483516483516483
2.715176217003318,2.721391941391941,0.7365567765567765,1.1483516483516483
2.720189408006263,2.721391941391941,0.7365567765567765,1.1483516483516483
2.724824629003706,2.6665934065934067,0.2909157509157509,2.552967032967033
2.7304270020031254,2.655311355311355,0.469010989010989,1.2055677655677655
2.73200179500418,2.655311355311355,0.469010989010989,1.2055677655677655
2.735823838003853,2.655311355311355,0.469010989010989,1.2055677655677655
2.7412122520036064,2.6657875457875457,0.3529670329670329,2.581978021978022
2.743686862006143,2.6778754578754578,0.7631501831501831,0.21838827838827837
2.749233381000522,2.6778754578754578,0.7631501831501831,0.21838827838827837
2.751567604005686,2.6778754578754578,0.7631501831501831,0.21838827838827837
2.7518736550046015,1.2498901098901098,0.05802197802197802,1.1088644688644689
2.7571706870003254,1.2498901098901098,0.05802197802197802,1.1088644688644689
2.7602525830006925,2.6714285714285713,0.12571428571428572,2.319267399267399
2.7625811470061308,2.6714285714285713,0.12571428571428572,2.319267399267399
2.7627832170037436,2.6714285714285713,0.12571428571428572,2.319267399267399
2.767384820006555,2.6714285714285713,0.12571428571428572,2.319267399267399
2.767631014001381,2.6714285714285713,0.12571428571428572,2.319267399267399
2.7723132240062114,2.6279120879120876,0.5302564102564102,2.087179487179487
2.7726639690008597,2.6279120879120876,0.5302564102564102,2.087179487179487
2.779482520003512,2.6279120879120876,0.5302564102564102,2.087179487179487
2.78444393400423,2.6279120879120876,0.5302564102564102,2.087179487179487
2.7875544800044736,2.6279120879120876,0.5302564102564102,2.087179487179487
2.789945237003849,2.6279120879120876,0.5302564102564102,2.087179487179487
2.795598720003909,2.6279120879120876,0.5302564102564102,2.087179487179487
2.79645505600638,2.6279120879120876,0.5302564102564102,2.087179487179487
2.7980495330048143,2.6279120879120876,0.5302564102564102,2.087179487179487
2.802773673000047,2.6279120879120876,0.5302564102564102,2.087179487179487
2.8083147290017223,2.6279120879120876,0.5302564102564102,2.087179487179487
2.8091829610057175,2.655311355311355,0.51010989010989,2.3506959706959707
2.8107850160013186,2.655311355311355,0.51010989010989,2.3506959706959707
2.8146674470044672,2.655311355311355,0.51010989010989,2.3506959706959707
2.818757668006583,2.655311355311355,0.51010989010989,2.3506959706959707
2.822742370000924,2.655311355311355,0.51010989010989,2.3506959706959707
2.8260118380057975,2.6665934065934067,0.6519413919413919,0.6962637362637363
2.8278564700012794,2.6665934065934067,0.6519413919413919,0.6962637362637363
2.8320837640058016,1.5295238095238095,0.35619047619047617,1.58996336996337
2.8332505650032545,3.3,0.8034432234432234,3.3
2.8335594910022337,3.3,0.8034432234432234,3.3
2.8409603260006406,3.3,0.8034432234432234,3.3
2.84694402700552,3.3,0.8034432234432234,3.3
2.8543735980056226,3.3,0.8034432234432234,3.3
2.859132376004709,2.681098901098901,0.6914285714285714,1.9767765567765565
2.8675225350016262,2.681098901098901,0.6914285714285714,1.9767765567765565
2.876632743005757,2.681098901098901,0.6914285714285714,1.9767765567765565
2.881516779001686,1.0097435897435898,0.052380952380952375,0.8389010989010988
2.8871317060038564,1.0097435897435898,0.052380952380952375,0.8389010989010988
2.8873309520058683,1.0097435897435898,0.052380952380952375,0.8389010989010988
2.8947200480033644,1.0097435897435898,0.052380952380952375,0.8389010989010988
2.8995235670008697,1.0097435897435898,0.052380952380952375,0.8389010989010988
2.8996656630042708,3.098534798534798,0.722051282051282,3.094505494505494
2.907354129005398,3.098534798534798,0.722051282051282,3.094505494505494
2.911250977005693,3.098534798534798,0.722051282051282,3.094505494505494
2.9160399020038312,3.098534798534798,0.722051282051282,3.094505494505494
2.9162275600028806,3.098534798534798,0.722051282051282,3.094505494505494
2.9236522410064936,3.098534798534798,0.722051282051282,3.094505494505494
2.9276356770060374,3.098534798534798,0.722051282051282,3.094505494505494
2.929372828999476,3.098534798534798,0.722051282051282,3.094505494505494
2.9332018269997207,3.098534798534798,0.722051282051282,3.094505494505494
2.9407464810064994,3.098534798534798,0.722051282051282,3.094505494505494
2.94639200399979,3.098534798534798,0.722051282051282,3.094505494505494
2.9524010000022827,3.098534798534798,0.722051282051282,3.094505494505494
2.9584296790053486,2.8003663003663,0.09347985347985348,1.2152380952380952
2.9626145720030763,2.834212454212454,0.759120879120879,3.013113553113553
2.9650537090055877,2.6698168498168497,0.7542857142857142,0.3489377289377289
2.965220013000362,2.6698168498168497,0.7542857142857142,0.3489377289377289
2.9740748870026437,2.6698168498168497,0.7542857142857142,0.3489377289377289
2.979900679005368,2.6698168498168497,0.7542857142857142,0.3489377289377289
2.9883560950038373,2.6706227106227107,0.7284981684981684,1.1797802197802196
2.9942415300029097,2.6706227106227107,0.7284981684981684,1.1797802197802196
2.998198619003233,2.6706227106227107,0.7284981684981684,1.1797802197802196
3.002840812005161,2.6706227106227107,0.7284981684981684,1.1797802197802196
3.0029832550062565,2.6706227106227107,0.7284981684981684,1.1797802197802196
3.0088393980040564,2.6706227106227107,0.7284981684981684,1.1797802197802196
3.0146877110018977,2.6665934065934067,0.4416117216117216,1.535164835164835
3.01479580400337,2.6665934065934067,0.4416117216117216,1.535164835164835
3.0206362000026274,2.6665934065934067,0.4416117216117216,1.535164835164835
3.0210131620042375,2.7165567765567764,0.755091575091575,3.1887912087912085
3.028073920002498,2.7165567765567764,0.755091575091575,3.1887912087912085
3.033432944001106,2.7165567765567764,0.755091575091575,3.1887912087912085
3.033753997005988,3.3,0.7816849816849816,3.0695238095238095
3.0427896120017977,3.3,0.7816849816849816,3.0695238095238095
3.04741435500182,3.3,0.7816849816849816,3.0695238095238095
3.047688549006125,3.3,0.7816849816849816,3.0695238095238095
3.053401674005727,3.3,0.7816849816849816,3.0695238095238095
3.0537046829995234,3.3,0.7816849816849816,3.0695238095238095
3.060302006000711,3.3,0.7816849816849816,3.0695238095238095
3.064368817002105,3.3,0.7816849816849816,3.0695238095238095
3.0672198020038195,3.3,0.3465201465201465,1.332087912087912
3.074038750004547,3.3,0.3465201465201465,1.332087912087912
3.079603060003137,3.3,0.3465201465201465,1.332087912087912
3.088459900005546,3.0268131868131865,0.6922344322344323,2.743956043956044
3.0935055570007535,3.0268131868131865,0.6922344322344323,2.743956043956044
3.0974818960021366,3.0268131868131865,0.6922344322344323,2.743956043956044
3.101501154000289,2.698021978021978,0.8663003663003663,3.2766300366300367
3.106710551001015,2.698021978021978,0.8663003663003663,3.2766300366300367
3.1076385890046367,2.698021978021978,0.8663003663003663,3.2766300366300367
3.1092668500059517,2.988937728937729,0.15472527472527473,1.2958241758241758
3.1137532150023617,2.988937728937729,0.15472527472527473,1.2958241758241758
3.113907504004601,2.988937728937729,0.15472527472527473,1.2958241758241758
3.1201481120006065,2.988937728937729,0.15472527472527473,1.2958241758241758
3.124231157002214,2.988937728937729,0.15472527472527473,1.2958241758241758
3.127661860002263,2.988937728937729,0.15472527472527473,1.2958241758241758
3.1277912040022784,2.988937728937729,0.15472527472527473,1.2958241758241758
3.133095309000055,2.988937728937729,0.15472527472527473,1.2958241758241758
3.136789508003858,3.248424908424908,0.08945054945054945,1.303076923076923
3.1427765040061786,3.248424908424908,0.08945054945054945,1.303076923076923
3.146957275006571,3.248424908424908,0.08945054945054945,1.303076923076923
3.1489415140022174,3.248424908424908,0.08945054945054945,1.303076923076923
3.150643395005318,3.248424908424908,0.08945054945054945,1.303076923076923
3.1571223200007807,3.248424908424908,0.08945054945054945,1.303076923076923
3.1610954990028404,2.693992673992674,0.8695238095238095,3.249230769230769
3.164977036001801,2.693992673992674,0.8695238095238095,3.249230769230769
3.170021625002846,2.693992673992674,0.8695238095238095,3.249230769230769
3.175318519999564,2.693992673992674,0.8695238095238095,3.249230769230769
3.177655379004136,2.693992673992674,0.8695238095238095,3.249230769230769
3.177858492002997,2.693992673992674,0.8695238095238095,3.249230769230769
3.18258611800411,2.693992673992674,0.8695238095238095,3.249230769230769
3.1827382920018863,2.693992673992674,0.8695238095238095,3.249230769230769
3.1907759870009613,2.693992673992674,0.8695238095238095,3.249230769230769
3.1948045450044447,2.693992673992674,0.8695238095238095,3.249230769230769
3.198043738004344,2.693992673992674,0.8695238095238095,3.249230769230769
3.1997008600010304,2.693992673992674,0.8695238095238095,3.249230769230769
3.205628522002371,2.693992673992674,0.8695238095238095,3.249230769230769
3.2088274199995794,2.693992673992674,0.8695238095238095,3.249230769230769
3.2097977160010487,2.693992673992674,0.8695238095238095,3.249230769230769
3.2107075020030607,2.693992673992674,0.8695238095238095,3.249230769230769
3.2123559590036166,2.693992673992674,0.8695238095238095,3.249230769230769
3.2167259289999492,2.693992673992674,0.8695238095238095,3.249230769230769
3.217067769001005,2.693992673992674,0.8695238095238095,3.249230769230769
3.2270603430006304,2.693992673992674,0.8695238095238095,3.249230769230769
3.2346818710066145,2.693992673992674,0.8695238095238095,3.249230769230769
3.2409173940031906,1.714065934065934,0.024175824175824173,1.0863003663003663
3.2449191080013406,1.714065934065934,0.024175824175824173,1.0863003663003663
3.2493631940014893,1.714065934065934,0.024175824175824173,1.0863003663003663
3.2508478710005875,1.714065934065934,0.024175824175824173,1.0863003663003663
3.2558976720029023,1.714065934065934,0.024175824175824173,1.0863003663003663
3.2590280750009697,1.714065934065934,0.024175824175824173,1.0863003663003663
3.2613882530058618,1.714065934065934,0.024175824175824173,1.0863003663003663
3.261518398001499,1.714065934065934,0.024175824175824173,1.0863003663003663
3.267133854002168,1.714065934065934,0.024175824175824173,1.0863003663003663
3.2674035480013117,1.714065934065934,0.024175824175824173,1.0863003663003663
3.273002546004136,0.2328937728937729,0.11926739926739927,1.328058608058608
3.273335464000411,1.7479120879120877,0.05802197802197802,1.0073260073260073
3.278191990000778,1.7479120879120877,0.05802197802197802,1.0073260073260073
3.2783460060018115,2.655311355311355,0.32556776556776557,2.681904761904762
3.283034159001545,2.655311355311355,0.32556776556776557,2.681904761904762
3.283179949001351,2.655311355311355,0.32556776556776557,2.681904761904762
3.2896753029999672,2.655311355311355,0.32556776556776557,2.681904761904762
3.292821062001167,2.655311355311355,0.32556776556776557,2.681904761904762
3.2944741120008985,2.655311355311355,0.32556776556776557,2.681904761904762
3.2984744350032997,2.655311355311355,0.32556776556776557,2.681904761904762
3.3028991460014367,2.655311355311355,0.32556776556776557,2.681904761904762
3.3032576590048848,2.655311355311355,0.32556776556776557,2.681904761904762
3.3082133250063634,2.655311355311355,0.32556776556776557,2.681904761904762
3.312754278005741,2.655311355311355,0.32556776556776557,2.681904761904762
3.312932938002632,2.655311355311355,0.32556776556776557,2.681904761904762
3.3179654220002703,2.655311355311355,0.32556776556776557,2.681904761904762
3.3237934170028893,2.655311355311355,0.32556776556776557,2.681904761904762
3.3283943380010896,2.655311355311355,0.32556776556776557,2.681904761904762
3.3285755120014073,2.655311355311355,0.32556776556776557,2.681904761904762
3.3332592440056033,2.655311355311355,0.32556776556776557,2.681904761904762
3.3341601610009093,2.655311355311355,0.32556776556776557,2.681904761904762
3.336800105003931,2.655311355311355,0.32556776556776557,2.681904761904762
3.3417378430021927,2.655311355311355,0.32556776556776557,2.681904761904762
3.3456763130016043,2.655311355311355,0.32556776556776557,2.681904761904762
3.3508979930047644,2.655311355311355,0.32556776556776557,2.681904761904762
3.356363250000868,2.655311355311355,0.32556776556776557,2.681904761904762
3.356609747999755,2.655311355311355,0.32556776556776557,2.681904761904762
3.36172787900432,2.655311355311355,0.32556776556776557,2.681904761904762
3.364413298004365,2.655311355311355,0.32556776556776557,2.681904761904762
3.370454209005402,2.655311355311355,0.32556776556776557,2.681904761904762
3.3745467080007074,2.655311355311355,0.32556776556776557,2.681904761904762
3.376902403004351,2.655311355311355,0.32556776556776557,2.681904761904762
3.377033847005805,2.655311355311355,0.32556776556776557,2.681904761904762
3.3824224310010322,0.5342857142857143,0.13054945054945052,2.1991941391941388
3.384959802002413,0.5342857142857143,0.13054945054945052,2.1991941391941388
3.3903624750018935,0.5342857142857143,0.13054945054945052,2.1991941391941388
3.3920312370028114,0.5342857142857143,0.13054945054945052,2.1991941391941388
3.3958329369997955,1.688278388278388,0.06608058608058608,0.9694505494505494
3.4007404880030663,1.688278388278388,0.06608058608058608,0.9694505494505494
3.406441356004507,2.655311355311355,0.7236630036630036,3.088058608058608
3.40658058700501,2.655311355311355,0.7236630036630036,3.088058608058608
3.411204716001521,2.655311355311355,0.7236630036630036,3.088058608058608
3.4114510970030096,2.655311355311355,0.7236630036630036,3.088058608058608
3.4165215540051577,2.655311355311355,0.7236630036630036,3.088058608058608
3.420574531002785,2.655311355311355,0.7236630036630036,3.088058608058608
3.4229898960038554,2.655311355311355,0.7236630036630036,3.088058608058608
3.423228456005745,2.655311355311355,0.7236630036630036,3.088058608058608
3.4281098030041903,2.655311355311355,0.7236630036630036,3.088058608058608
3.434061316002044,2.655311355311355,0.7236630036630036,3.088058608058608
3.4433466120026424,2.655311355311355,0.7236630036630036,3.088058608058608
3.4502723879995756,2.655311355311355,0.7236630036630036,3.088058608058608
3.4589172620035242,2.655311355311355,0.7236630036630036,3.088058608058608
3.4660513769995305,2.655311355311355,0.7236630036630036,3.088058608058608
3.473073771005147,2.655311355311355,0.7236630036630036,3.088058608058608
3.4772241750033572,2.655311355311355,0.0846153846153846,1.244249084249084
3.4789448030060157,2.693186813186813,0.8711355311355311,3.2186080586080585
3.481999152005301,2.693186813186813,0.8711355311355311,3.2186080586080585
3.4862953320043744,2.693186813186813,0.8711355311355311,3.2186080586080585
3.487903338005708,2.693186813186813,0.8711355311355311,3.2186080586080585
3.492276299999503,0.4625641025641025,0.19904761904761903,1.3683516483516485
3.493216562004818,0.4625641025641025,0.19904761904761903,1.3683516483516485
3.4941419800015865,0.4625641025641025,0.19904761904761903,1.3683516483516485
3.4957744170023943,0.4625641025641025,0.19904761904761903,1.3683516483516485
3.499532908004767,0.4625641025641025,0.19904761904761903,1.3683516483516485
3.5101821390053374,0.4625641025641025,0.19904761904761903,1.3683516483516485
3.51964333000069,2.6682051282051282,0.6503296703296703,0.7389743589743589
3.5279068000018015,2.6682051282051282,0.6503296703296703,0.7389743589743589
3.5351143240040983,2.6682051282051282,0.6503296703296703,0.7389743589743589
3.5403606170002604,3.2935531135531133,0.11684981684981684,1.3167765567765568
3.5406309829995735,0.42388278388278383,0.195018315018315,1.818021978021978
3.5459680010026204,0.42388278388278383,0.195018315018315,1.818021978021978
3.5489007770011085,0.42388278388278383,0.195018315018315,1.818021978021978
3.554434207006125,0.42388278388278383,0.195018315018315,1.818021978021978
3.5546196050054277,0.9178754578754579,0.03142857142857143,0.8155311355311355
3.5595915490048355,0.9178754578754579,0.03142857142857143,0.8155311355311355
3.564296461001504,0.9178754578754579,0.03142857142857143,0.8155311355311355
3.5647116230029496,0.9178754578754579,0.03142857142857143,0.8155311355311355
3.5725772180012427,0.9178754578754579,0.03142857142857143,0.8155311355311355
3.5780419020011323,1.7608058608058608,0.07816849816849816,0.8034432234432234
3.5783467560031568,1.7608058608058608,0.07816849816849816,0.8034432234432234
3.587074579001637,1.7608058608058608,0.07816849816849816,0.8034432234432234
3.5920013100039796,1.7608058608058608,0.07816849816849816,0.8034432234432234
3.5962214160026633,1.7608058608058608,0.07816849816849816,0.8034432234432234
3.599230059000547,1.7608058608058608,0.07816849816849816,0.8034432234432234
3.603742876002798,2.6037362637362635,0.7019047619047618,3.0187545787545784
3.603982881002594,2.6037362637362635,0.7019047619047618,3.0187545787545784
3.609688022006594,2.6037362637362635,0.7019047619047618,3.0187545787545784
3.609860587006551,2.6037362637362635,0.7019047619047618,3.0187545787545784
3.6144995730064693,2.6037362637362635,0.7019047619047618,3.0187545787545784
3.615381202005665,2.6037362637362635,0.7019047619047618,3.0187545787545784
3.616286307005794,2.6037362637362635,0.7019047619047618,3.0187545787545784
3.619088470004499,2.6037362637362635,0.7019047619047618,3.0187545787545784
3.623307101006503,2.6037362637362635,0.7019047619047618,3.0187545787545784
3.624440763000166,2.6037362637362635,0.7019047619047618,3.0187545787545784
3.6246739600028377,2.6037362637362635,0.7019047619047618,3.0187545787545784
3.6301580960061983,2.6037362637362635,0.7019047619047618,3.0187545787545784
3.6317255790054332,2.6037362637362635,0.7019047619047618,3.0187545787545784
3.6375958580028964,2.6037362637362635,0.7019047619047618,3.0187545787545784
3.6431285550061148,2.6037362637362635,0.7019047619047618,3.0187545787545784
3.6439758590058773,3.3,0.5068864468864469,2.1057142857142854
3.6456673670036253,3.3,0.5068864468864469,2.1057142857142854
3.648787149002601,3.3,0.5068864468864469,2.1057142857142854
3.6511552530064364,3.3,0.5068864468864469,2.1057142857142854
3.651362559001427,3.3,0.5068864468864469,2.1057142857142854
3.6574150240048766,3.3,0.5068864468864469,2.1057142857142854
3.6606100860008155,3.3,0.5068864468864469,2.1057142857142854
3.6622640220011817,3.3,0.5068864468864469,2.1057142857142854
3.6662189480048255,2.6843223443223443,0.7558974358974359,0.46820512820512816
3.673012846003985,2.6843223443223443,0.7558974358974359,0.46820512820512816
3.6770806670028833,2.6843223443223443,0.7558974358974359,0.46820512820512816
3.6803673660033382,1.8687912087912086,0.12249084249084248,2.3079853479853476
3.6813593760016374,1.8687912087912086,0.12249084249084248,2.3079853479853476
3.682346988003701,1.8687912087912086,0.12249084249084248,2.3079853479853476
3.683327819002443,1.8687912087912086,0.12249084249084248,2.3079853479853476
3.6852537220038357,1.8687912087912086,0.12249084249084248,2.3079853479853476
3.6885230990010314,1.8687912087912086,0.12249084249084248,2.3079853479853476
3.6887675920006586,1.8687912087912086,0.12249084249084248,2.3079853479853476
3.6935045400023228,1.8687912087912086,0.12249084249084248,2.3079853479853476
3.693715121000423,1.8687912087912086,0.12249084249084248,2.3079853479853476
3.6983416430011857,2.7197802197802194,0.8534065934065934,2.1709890109890106
3.698546145002183,0.4762637362637362,0.2208058608058608,1.938095238095238
3.705830306003918,0.4762637362637362,0.2208058608058608,1.938095238095238
3.710167305005598,0.4762637362637362,0.2208058608058608,1.938095238095238
3.7117752990016015,2.793113553113553,0.08542124542124542,1.274871794871795
3.715637492001406,2.793113553113553,0.08542124542124542,1.274871794871795
3.721437332002097,2.793113553113553,0.08542124542124542,1.274871794871795
3.727931368004647,2.793113553113553,0.08542124542124542,1.274871794871795
3.731849243005854,2.793113553113553,0.08542124542124542,1.274871794871795
3.7363918210030533,2.793113553113553,0.08542124542124542,1.274871794871795
3.736668333003763,1.7583882783882783,0.06688644688644689,0.8703296703296703
3.7427602490060963,1.7583882783882783,0.06688644688644689,0.8703296703296703
3.749376816005679,2.655311355311355,0.49399267399267394,1.1088644688644689
3.754313353005273,3.151721611721612,0.29655677655677654,1.2450549450549449
3.7602506420007558,3.151721611721612,0.29655677655677654,1.2450549450549449
3.7648858160027885,3.151721611721612,0.29655677655677654,1.2450549450549449
3.7733378960037953,3.151721611721612,0.29655677655677654,1.2450549450549449
3.778050571003405,3.151721611721612,0.29655677655677654,1.2450549450549449
3.7782945680010016,3.151721611721612,0.29655677655677654,1.2450549450549449
3.7833445290016243,3.151721611721612,0.29655677655677654,1.2450549450549449
3.791324194004119,3.151721611721612,0.29655677655677654,1.2450549450549449
3.7965415800063056,3.151721611721612,0.29655677655677654,1.2450549450549449
3.802093865000643,3.151721611721612,0.29655677655677654,1.2450549450549449
3.8088536909999675,3.151721611721612,0.29655677655677654,1.2450549450549449
3.813654869001766,3.3,0.6285714285714284,2.76007326007326
3.8235691500012763,3.3,0.6285714285714284,2.76007326007326
3.8283686249997118,2.3716483516483513,0.12893772893772892,2.3047619047619046
3.833318938006414,2.3716483516483513,0.12893772893772892,2.3047619047619046
3.8413358550023986,2.3716483516483513,0.12893772893772892,2.3047619047619046
3.8461314760061214,2.693992673992674,0.9992673992673992,2.6504761904761907
3.8526262170053087,1.735018315018315,0.11282051282051282,1.0065201465201465
3.859630887003732,1.735018315018315,0.11282051282051282,1.0065201465201465
3.8653610890032724,1.735018315018315,0.11282051282051282,1.0065201465201465
3.8772964990057517,1.735018315018315,0.11282051282051282,1.0065201465201465
3.8877249010038213,1.735018315018315,0.11282051282051282,1.0065201465201465
3.8934477740040165,1.735018315018315,0.11282051282051282,1.0065201465201465
3.8937270610040287,3.3,0.759120879120879,2.925274725274725
3.898680651000177,3.3,0.759120879120879,2.925274725274725
3.906390875003126,3.3,0.759120879120879,2.925274725274725
3.9104985619997024,3.3,0.759120879120879,2.925274725274725
3.913182175005204,3.3,0.759120879120879,2.925274725274725
3.9200496949997614,3.3,0.759120879120879,2.925274725274725
3.9241742890008027,3.3,0.759120879120879,2.925274725274725
3.925876553999842,3.3,0.759120879120879,2.925274725274725
3.929161498999747,3.3,0.759120879120879,2.925274725274725
3.9300978430037503,3.3,0.759120879120879,2.925274725274725
3.9317105440059095,3.3,0.759120879120879,2.925274725274725
3.9360828870048863,3.3,0.759120879120879,2.925274725274725
3.9379901610009256,3.3,0.759120879120879,2.925274725274725
3.9392446730053052,3.3,0.759120879120879,2.925274725274725
3.939356640999904,3.3,0.759120879120879,2.925274725274725
3.94434956900659,3.3,0.759120879120879,2.925274725274725
3.949844500006293,2.689157509157509,0.66,1.1797802197802196
3.9501873680055724,3.3,0.7357509157509158,3.0453479853479855
3.957247816004383,3.3,0.7357509157509158,3.0453479853479855
3.9613533280062256,3.3,0.3102564102564102,1.1693040293040293
3.9647848530003102,3.3,0.3102564102564102,1.1693040293040293
3.9649285090054036,3.3,0.3102564102564102,1.1693040293040293
3.9724209580017487,3.3,0.3102564102564102,1.1693040293040293
3.978654293001455,3.3,0.195018315018315,1.3183882783882783
3.983038476006186,3.3,0.195018315018315,1.3183882783882783
3.983356458003982,2.6665934065934067,0.7792673992673992,1.054065934065934
3.9925207100022817,2.6665934065934067,0.7792673992673992,1.054065934065934
3.997114732999762,2.6665934065934067,0.7792673992673992,1.054065934065934
3.998661962999904,2.6665934065934067,0.7792673992673992,1.054065934065934
4.006181630000356,2.6665934065934067,0.7792673992673992,1.054065934065934
4.0103410390001955,2.6682051282051282,0.7373626373626374,0.381978021978022
4.013538304003305,3.3,0.13296703296703297,1.315970695970696
4.014444894004555,3.3,0.13296703296703297,1.315970695970696
4.0162353120031185,2.880952380952381,0.1643956043956044,0.7937728937728937
4.020719277999888,2.880952380952381,0.1643956043956044,0.7937728937728937
4.021059581005829,2.880952380952381,0.1643956043956044,0.7937728937728937
4.0287360080037615,2.880952380952381,0.1643956043956044,0.7937728937728937
4.036216312000761,2.880952380952381,0.1643956043956044,0.7937728937728937
4.040715381001064,2.880952380952381,0.1643956043956044,0.7937728937728937
4.040835179002897,0.4810989010989011,0.12893772893772892,2.0863736263736263
4.048702563006373,0.4810989010989011,0.12893772893772892,2.0863736263736263
4.056184441004007,0.4810989010989011,0.12893772893772892,2.0863736263736263
4.0606564760018955,0.4810989010989011,0.12893772893772892,2.0863736263736263
4.06085244800488,0.4810989010989011,0.12893772893772892,2.0863736263736263
4.072050159003993,0.4810989010989011,0.12893772893772892,2.0863736263736263
4.080624088004697,2.673040293040293,0.4126007326007326,1.340952380952381
4.088250773005711,2.673040293040293,0.4126007326007326,1.340952380952381
4.092276752002363,2.7036630036630034,0.30864468864468864,1.2998534798534798
4.095458961004624,2.7036630036630034,0.30864468864468864,1.2998534798534798
4.097104851003678,2.7036630036630034,0.30864468864468864,1.2998534798534798
4.100909660999605,2.7036630036630034,0.30864468864468864,1.2998534798534798
4.106469825004751,2.7036630036630034,0.30864468864468864,1.2998534798534798
4.106734815999516,2.7036630036630034,0.30864468864468864,1.2998534798534798
4.111388486002397,2.7036630036630034,0.30864468864468864,1.2998534798534798
4.111607171005744,2.7036630036630034,0.30864468864468864,1.2998534798534798
4.116319131004275,2.7036630036630034,0.30864468864468864,1.2998534798534798
4.116533200001868,1.7261538461538461,0.06285714285714286,0.8534065934065934
4.1254289760036045,1.7261538461538461,0.06285714285714286,0.8534065934065934
4.13097412600473,2.6665934065934067,0.755091575091575,0.5439560439560439
4.132574524002848,2.6343589743589746,0.09831501831501832,1.2474725274725273
4.138000461003685,2.6343589743589746,0.09831501831501832,1.2474725274725273
4.1383953990007285,2.6343589743589746,0.09831501831501832,1.2474725274725273
4.143219776000478,2.6343589743589746,0.09831501831501832,1.2474725274725273
4.148071142000845,2.6343589743589746,0.09831501831501832,1.2474725274725273
4.155668585000967,2.6343589743589746,0.09831501831501832,1.2474725274725273
4.15963385500072,1.3175824175824176,0.06608058608058608,0.7824908424908424
4.1642685790066025,2.6698168498168497,0.8163369963369963,0.850989010989011
4.164505314001872,2.6698168498168497,0.8163369963369963,0.850989010989011
4.171054892001848,2.6698168498168497,0.8163369963369963,0.850989010989011
4.174491570003738,2.6698168498168497,0.8163369963369963,0.850989010989011
4.17465693000122,2.6698168498168497,0.8163369963369963,0.850989010989011
4.1793492150027305,2.6698168498168497,0.8163369963369963,0.850989010989011
4.179529725006432,2.6698168498168497,0.8163369963369963,0.850989010989011
4.18449667400273,2.6698168498168497,0.8163369963369963,0.850989010989011
4.1907956110007945,2.6698168498168497,0.8163369963369963,0.850989010989011
4.194876174005913,2.6698168498168497,0.8163369963369963,0.850989010989011
4.198185614004615,1.93003663003663,0.07413919413919413,0.9114285714285715
4.199197943002218,1.93003663003663,0.07413919413919413,0.9114285714285715
4.20032484800322,1.93003663003663,0.07413919413919413,0.9114285714285715
4.200662460003514,1.93003663003663,0.07413919413919413,0.9114285714285715
4.2079732100028195,1.93003663003663,0.07413919413919413,0.9114285714285715
4.212259680003626,2.689157509157509,0.33926739926739924,1.3619047619047617
4.214221128000645,2.689157509157509,0.33926739926739924,1.3619047619047617
4.215952119004214,2.689157509157509,0.33926739926739924,1.3619047619047617
4.222587994001515,2.689157509157509,0.33926739926739924,1.3619047619047617
4.227774440005305,2.6875457875457873,0.796996336996337,0.7486446886446886
4.229013162002957,2.6875457875457873,0.796996336996337,0.7486446886446886
4.239249828002357,2.6875457875457873,0.796996336996337,0.7486446886446886
4.24474473400187,3.274212454212454,0.24417582417582417,0.9025641025641026
4.246401811004034,3.274212454212454,0.24417582417582417,0.9025641025641026
4.250557719002245,3.274212454212454,0.24417582417582417,0.9025641025641026
4.252576520004368,3.274212454212454,0.24417582417582417,0.9025641025641026
4.254297085004509,3.274212454212454,0.24417582417582417,0.9025641025641026
4.25805932500225,3.274212454212454,0.24417582417582417,0.9025641025641026
4.262009720005153,3.274212454212454,0.24417582417582417,0.9025641025641026
4.266608811005426,3.274212454212454,0.24417582417582417,0.9025641025641026
4.275429722001718,3.274212454212454,0.24417582417582417,0.9025641025641026
4.281288899001083,3.274212454212454,0.24417582417582417,0.9025641025641026
4.290986227002577,3.274212454212454,0.24417582417582417,0.9025641025641026
4.297610730005545,3.3,0.1926007326007326,1.4852014652014651
4.302694311001687,3.3,0.1926007326007326,1.4852014652014651
4.306876169001043,3.3,0.1926007326007326,1.4852014652014651
4.307187319005607,3.3,0.1926007326007326,1.4852014652014651
4.312083807999443,3.3,0.1926007326007326,1.4852014652014651
4.316885891006677,2.07992673992674,0.04593406593406593,1.2055677655677655
4.324605519002944,1.510989010989011,0.029816849816849816,0.90014652014652
4.329426732001593,1.510989010989011,0.029816849816849816,0.90014652014652
4.329585220999434,1.510989010989011,0.029816849816849816,0.90014652014652
4.336172845003603,1.510989010989011,0.029816849816849816,0.90014652014652
4.341124051999941,1.510989010989011,0.029816849816849816,0.90014652014652
4.344276031006302,1.510989010989011,0.029816849816849816,0.90014652014652
4.345162481004081,1.510989010989011,0.029816849816849816,0.90014652014652
4.346822677005548,1.510989010989011,0.029816849816849816,0.90014652014652
4.350783086003503,1.510989010989011,0.029816849816849816,0.90014652014652
4.355624267001986,3.3,0.622124542124542,2.916410256410256
4.360085729000275,3.3,0.622124542124542,2.916410256410256
4.360390032001305,3.3,0.622124542124542,2.916410256410256
4.369517253006052,3.3,0.622124542124542,2.916410256410256
4.377812973005348,3.3,0.622124542124542,2.916410256410256
4.384005188003357,3.3,0.622124542124542,2.916410256410256
4.3901567200009595,3.3,0.622124542124542,2.916410256410256
4.393282215001818,3.3,0.622124542124542,2.916410256410256
4.3949603290020605,3.3,0.622124542124542,2.916410256410256
4.399149380005838,3.3,0.622124542124542,2.916410256410256
4.401665164004953,3.3,0.622124542124542,2.916410256410256
4.408008356003847,2.6956043956043954,0.6994871794871794,0.4383882783882784
4.412088019002113,2.461904761904762,0.17809523809523808,1.120952380952381
4.416154004000418,2.461904761904762,0.17809523809523808,1.120952380952381
4.420477284002118,2.713333333333333,0.8058608058608058,2.1161904761904764
4.420710440004768,2.713333333333333,0.8058608058608058,2.1161904761904764
4.427824405000138,2.713333333333333,0.8058608058608058,2.1161904761904764
4.432531291000487,3.3,0.26109890109890105,1.2176556776556777
4.4327042430013535,3.3,0.26109890109890105,1.2176556776556777
4.440757180003857,3.3,0.26109890109890105,1.2176556776556777
4.4468361850013025,1.021025641025641,0.27641025641025635,2.0476923076923077
4.450399510002171,1.021025641025641,0.27641025641025635,2.0476923076923077
4.45876598200266,3.3,0.5842490842490843,2.685128205128205
4.464196708002419,2.7165567765567764,0.9347985347985347,2.8285714285714283
4.465860952004732,2.7165567765567764,0.9347985347985347,2.8285714285714283
4.472424308005429,2.7165567765567764,0.9347985347985347,2.8285714285714283
4.475693017004232,2.7165567765567764,0.9347985347985347,2.8285714285714283
4.476577866000298,2.7165567765567764,0.9347985347985347,2.8285714285714283
4.478150623006513,2.7165567765567764,0.9347985347985347,2.8285714285714283
4.482346926000901,2.7165567765567764,0.9347985347985347,2.8285714285714283
4.484958927001571,2.7165567765567764,0.9347985347985347,2.8285714285714283
4.491852625003958,2.7165567765567764,0.9347985347985347,2.8285714285714283
4.496455125001376,2.7165567765567764,0.9347985347985347,2.8285714285714283
4.496706229001575,2.7165567765567764,0.9347985347985347,2.8285714285714283
4.5016125940019265,2.7165567765567764,0.9347985347985347,2.8285714285714283
4.508710619003978,2.7165567765567764,0.9347985347985347,2.8285714285714283
4.513283555999806,2.7165567765567764,0.9347985347985347,2.8285714285714283
4.514151622002828,1.8784615384615382,0.0547985347985348,0.8614652014652014
4.515771419006342,1.8784615384615382,0.0547985347985348,0.8614652014652014
4.521187269005168,1.8784615384615382,0.0547985347985348,0.8614652014652014
4.522332914006256,1.8784615384615382,0.0547985347985348,0.8614652014652014
4.522512089999509,1.8784615384615382,0.0547985347985348,0.8614652014652014
4.527244258002611,1.8784615384615382,0.0547985347985348,0.8614652014652014
4.5273993340015295,2.652087912087912,0.4504761904761904,1.3482051282051282
4.532062928999949,2.652087912087912,0.4504761904761904,1.3482051282051282
4.532176958004129,2.652087912087912,0.4504761904761904,1.3482051282051282
4.538274080005067,2.652087912087912,0.4504761904761904,1.3482051282051282
4.541834415002086,2.652087912087912,0.4504761904761904,1.3482051282051282
4.5474617470026715,2.6617582417582417,0.5036630036630036,1.207179487179487
4.54852405100246,2.6617582417582417,0.5036630036630036,1.207179487179487
4.549376086004486,2.6617582417582417,0.5036630036630036,1.207179487179487
4.552675773004012,2.6617582417582417,0.5036630036630036,1.207179487179487
4.552944486000342,2.6617582417582417,0.5036630036630036,1.207179487179487
4.558095504005905,1.0895238095238093,0.03062271062271062,0.7937728937728937
4.561280989000807,1.0895238095238093,0.03062271062271062,0.7937728937728937
4.562966280005639,1.0895238095238093,0.03062271062271062,0.7937728937728937
4.566978992006625,1.0895238095238093,0.03062271062271062,0.7937728937728937
4.575338900001952,2.6633699633699632,0.4528937728937729,1.56014652014652
4.581884516002901,2.6633699633699632,0.4528937728937729,1.56014652014652
4.585788737000257,2.6633699633699632,0.4528937728937729,1.56014652014652
4.590828145999694,2.6633699633699632,0.4528937728937729,1.56014652014652
4.593214671003807,0.8453479853479853,0.04593406593406593,1.1515750915750915
4.593464677003794,1.8333333333333333,0.07575091575091575,0.9202930402930403
4.598940318006498,1.8333333333333333,0.07575091575091575,0.9202930402930403
4.599839302005421,1.8333333333333333,0.07575091575091575,0.9202930402930403
4.602405876001285,1.8333333333333333,0.07575091575091575,0.9202930402930403
4.609040968003683,1.8333333333333333,0.07575091575091575,0.9202930402930403
4.613203209999483,1.8333333333333333,0.07575091575091575,0.9202930402930403
4.615651770000113,0.9613919413919414,0.04915750915750916,0.8058608058608058
4.615894824004499,0.9613919413919414,0.04915750915750916,0.8058608058608058
4.622338545006642,0.9613919413919414,0.04915750915750916,0.8058608058608058
4.62554724200163,0.9613919413919414,0.04915750915750916,0.8058608058608058
4.627236439002445,0.9613919413919414,0.04915750915750916,0.8058608058608058
4.631336871003441,0.9613919413919414,0.04915750915750916,0.8058608058608058
4.637391790005495,0.14666666666666667,0.14908424908424908,1.2901831501831502
4.6406388340037665,0.14666666666666667,0.14908424908424908,1.2901831501831502
4.640921710000839,0.14666666666666667,0.14908424908424908,1.2901831501831502
4.649194666002586,0.14666666666666667,0.14908424908424908,1.2901831501831502
4.656305061005696,0.14666666666666667,0.14908424908424908,1.2901831501831502
4.66018475900637,0.14666666666666667,0.14908424908424908,1.2901831501831502
4.664530115005618,0.14666666666666667,0.14908424908424908,1.2901831501831502
4.665448801999446,0.14666666666666667,0.14908424908424908,1.2901831501831502
4.666696065003634,0.14666666666666667,0.14908424908424908,1.2901831501831502
4.6668275960037136,0.14666666666666667,0.14908424908424908,1.2901831501831502
4.67525648100127,0.14666666666666667,0.14908424908424908,1.2901831501831502
4.680147204002424,1.5802930402930402,0.03545787545787545,0.8936996336996336
4.6875494480045745,1.5802930402930402,0.03545787545787545,0.8936996336996336
4.691860939004982,1.5802930402930402,0.03545787545787545,0.8936996336996336
4.693662902005599,1.5802930402930402,0.03545787545787545,0.8936996336996336
4.696040345006622,1.5802930402930402,0.03545787545787545,0.8936996336996336
4.696354810999765,2.697216117216117,0.7857142857142856,2.0863736263736263
4.701162245000887,2.697216117216117,0.7857142857142856,2.0863736263736263
4.710771220001334,0.5117216117216117,0.2248351648351648,1.9695238095238095
4.721316151000792,0.5117216117216117,0.2248351648351648,1.9695238095238095
4.7255992610007524,2.6762637362637363,0.664029304029304,2.05010989010989
4.726598378001654,2.6657875457875457,0.5375091575091575,1.3014652014652013
4.727533798999502,2.6657875457875457,0.5375091575091575,1.3014652014652013
4.729307118999714,2.6657875457875457,0.5375091575091575,1.3014652014652013
4.7316303300030995,0.3497435897435897,0.0838095238095238,1.257142857142857
4.731799057000899,0.3497435897435897,0.0838095238095238,1.257142857142857
4.7394895420002285,0.3497435897435897,0.0838095238095238,1.257142857142857
4.744176370004425,2.6964102564102563,0.8074725274725274,2.8237362637362633
4.744337143005396,2.6964102564102563,0.8074725274725274,2.8237362637362633
4.750023131004127,2.6964102564102563,0.8074725274725274,2.8237362637362633
4.750400626006012,2.6964102564102563,0.8074725274725274,2.8237362637362633
4.757103166004526,2.6964102564102563,0.8074725274725274,2.8237362637362633
4.761073920999479,2.6964102564102563,0.8074725274725274,2.8237362637362633
4.764995869001723,2.6964102564102563,0.8074725274725274,2.8237362637362633
4.772362834002706,2.6964102564102563,0.8074725274725274,2.8237362637362633
4.775768140003493,0.7857142857142856,0.30058608058608055,1.6052747252747253
4.776646129001165,0.7857142857142856,0.30058608058608055,1.6052747252747253
4.778290899004787,0.7857142857142856,0.30058608058608055,1.6052747252747253
4.782597784003883,0.7857142857142856,0.30058608058608055,1.6052747252747253
4.785325415999978,0.7857142857142856,0.30058608058608055,1.6052747252747253
4.789529116002086,0.7857142857142856,0.30058608058608055,1.6052747252747253
4.791134171005979,3.3,0.2087179487179487,1.5085714285714285
4.794966781002586,3.3,0.2087179487179487,1.5085714285714285
4.799811590004538,2.7197802197802194,0.8364835164835164,2.83985347985348
4.806394794002699,2.655311355311355,0.3312087912087912,2.6609523809523807
4.809509457001695,3.2846886446886447,0.3167032967032967,1.1918681318681317
4.811201530006656,3.2846886446886447,0.3167032967032967,1.1918681318681317
4.815189398002985,3.2846886446886447,0.3167032967032967,1.1918681318681317
4.818316192002385,3.2846886446886447,0.3167032967032967,1.1918681318681317
4.819924019000609,3.2846886446886447,0.3167032967032967,1.1918681318681317
4.8241332070028875,3.2846886446886447,0.3167032967032967,1.1918681318681317
4.826587781004491,2.6778754578754578,0.7373626373626374,0.5383150183150183
4.831982672003505,2.6778754578754578,0.7373626373626374,0.5383150183150183
4.835602566003217,2.6778754578754578,0.7373626373626374,0.5383150183150183
4.835738219000632,2.6778754578754578,0.7373626373626374,0.5383150183150183
4.844586328006699,2.6778754578754578,0.7373626373626374,0.5383150183150183
4.852738525005407,2.6778754578754578,0.7373626373626374,0.5383150183150183
4.857201415004965,3.1017582417582417,0.25384615384615383,1.311135531135531
4.85741371500626,2.697216117216117,0.9879853479853479,2.6690109890109888
4.862168987005134,2.697216117216117,0.9879853479853479,2.6690109890109888
4.87147528600326,2.697216117216117,0.9879853479853479,2.6690109890109888
4.878357228000823,2.697216117216117,0.9879853479853479,2.6690109890109888
4.883172332003596,2.697216117216117,0.9879853479853479,2.6690109890109888
4.891760741003964,2.697216117216117,0.9879853479853479,2.6690109890109888
4.896926634006377,2.652087912087912,0.4029304029304029,1.3933333333333333
4.9036404810030945,2.690769230769231,0.5858608058608058,2.856776556776557
4.9084501520046615,2.6649816849816848,0.7317216117216117,0.4472527472527472
4.91291654700035,2.6649816849816848,0.7317216117216117,0.4472527472527472
4.913258406006207,2.6649816849816848,0.7317216117216117,0.4472527472527472
4.923159124002268,2.6649816849816848,0.7317216117216117,0.4472527472527472
4.932136785006151,2.6649816849816848,0.7317216117216117,0.4472527472527472
4.939645343001757,2.6649816849816848,0.7317216117216117,0.4472527472527472
4.946214288000192,2.2080586080586078,0.13054945054945052,2.24996336996337
4.952814731004764,2.2080586080586078,0.13054945054945052,2.24996336996337
4.957882810005685,2.2080586080586078,0.13054945054945052,2.24996336996337
4.959843679003825,2.2080586080586078,0.13054945054945052,2.24996336996337
4.960767766002391,3.0356776556776555,0.7841025641025641,3.095311355311355
4.9617027240019524,3.0356776556776555,0.7841025641025641,3.095311355311355
4.963345110001683,3.0356776556776555,0.7841025641025641,3.095311355311355
4.967952664999757,3.0356776556776555,0.7841025641025641,3.095311355311355
4.978916185005801,3.0356776556776555,0.7841025641025641,3.095311355311355
4.9884986440010834,3.0356776556776555,0.7841025641025641,3.095311355311355
4.994139980000909,2.6682051282051282,0.776043956043956,0.6084249084249085
5.004027982002299,2.6682051282051282,0.776043956043956,0.6084249084249085
5.009891625006276,2.6682051282051282,0.776043956043956,0.6084249084249085
5.009998361005273,2.6682051282051282,0.776043956043956,0.6084249084249085
5.014721838000696,2.6682051282051282,0.776043956043956,0.6084249084249085
5.014950532000512,2.6682051282051282,0.776043956043956,0.6084249084249085
5.024559448000218,2.698827838827839,0.9388278388278387,2.760879120879121
5.029569630001788,2.698827838827839,0.9388278388278387,2.760879120879121
5.033558503004315,3.3,0.776043956043956,3.2145787545787545
5.038601494001341,3.3,0.776043956043956,3.2145787545787545
5.0417431270034285,2.693992673992674,0.8252014652014652,2.8140659340659337
5.0433754330006195,2.693992673992674,0.8252014652014652,2.8140659340659337
5.0474383310065605,2.6714285714285713,0.6035897435897435,1.066959706959707
5.050629771001695,2.6714285714285713,0.6035897435897435,1.066959706959707
5.052361417001521,2.6714285714285713,0.6035897435897435,1.066959706959707
5.0564564500018605,2.6714285714285713,0.6035897435897435,1.066959706959707
5.058826776999922,2.6714285714285713,0.6035897435897435,1.066959706959707
5.059015241000452,2.6714285714285713,0.6035897435897435,1.066959706959707
5.064607737003826,2.6714285714285713,0.6035897435897435,1.066959706959707
5.064824938002857,2.681098901098901,0.7752380952380952,0.5512087912087912
5.070147245001863,2.681098901098901,0.7752380952380952,0.5512087912087912
5.073235702002421,2.681098901098901,0.7752380952380952,0.5512087912087912
5.075665239004593,2.681098901098901,0.7752380952380952,0.5512087912087912
5.075821998005267,2.681098901098901,0.7752380952380952,0.5512087912087912
5.080371991003631,2.681098901098901,0.7752380952380952,0.5512087912087912
5.080654540004616,1.232161172161172,0.1112087912087912,2.207252747252747
5.0852745000011055,1.232161172161172,0.1112087912087912,2.207252747252747
5.086335447005695,1.232161172161172,0.1112087912087912,2.207252747252747
5.086602148003294,1.232161172161172,0.1112087912087912,2.207252747252747
5.092013345005398,1.232161172161172,0.1112087912087912,2.207252747252747
5.0936278000008315,1.232161172161172,0.1112087912087912,2.207252747252747
5.098934595000173,1.232161172161172,0.1112087912087912,2.207252747252747
5.100137451001501,1.232161172161172,0.1112087912087912,2.207252747252747
5.100337562005734,1.232161172161172,0.1112087912087912,2.207252747252747
5.108149809006136,1.232161172161172,0.1112087912087912,2.207252747252747
5.115442395006539,1.232161172161172,0.1112087912087912,2.207252747252747
5.123075024006539,3.3,0.6382417582417582,2.8253479853479853
5.128661147005914,3.3,0.6382417582417582,2.8253479853479853
5.128960380003264,3.3,0.6382417582417582,2.8253479853479853
5.135088144001202,2.681098901098901,0.5842490842490843,2.2177289377289378
5.1395913180022035,2.681098901098901,0.5842490842490843,2.2177289377289378
5.145190442999592,3.3,0.5375091575091575,2.2217582417582418
5.145499772006588,2.6714285714285713,0.7744322344322344,0.3287912087912088
5.15165274800529,2.6714285714285713,0.7744322344322344,0.3287912087912088
5.155241961001593,2.8938461538461535,0.08783882783882783,1.2273260073260073
5.155408161001105,2.8938461538461535,0.08783882783882783,1.2273260073260073
5.16314896500262,2.8938461538461535,0.08783882783882783,1.2273260073260073
5.1676163880038075,2.8938461538461535,0.08783882783882783,1.2273260073260073
5.167971001006663,2.8938461538461535,0.08783882783882783,1.2273260073260073
5.175489266002842,2.8938461538461535,0.08783882783882783,1.2273260073260073
5.181878032999521,2.8938461538461535,0.08783882783882783,1.2273260073260073
5.18609187900438,2.8938461538461535,0.08783882783882783,1.2273260073260073
5.188115478005784,2.8938461538461535,0.08783882783882783,1.2273260073260073
5.190471488000185,2.8938461538461535,0.08783882783882783,1.2273260073260073
5.190701160005119,2.8938461538461535,0.08783882783882783,1.2273260073260073
5.198206411005231,2.8938461538461535,0.08783882783882783,1.2273260073260073
5.206616833005683,2.8938461538461535,0.08783882783882783,1.2273260073260073
5.213699692001683,1.2337728937728938,0.1402197802197802,0.929157509157509
5.217481420004333,1.2337728937728938,0.1402197802197802,0.929157509157509
5.2213674369995715,1.2337728937728938,0.1402197802197802,0.929157509157509
5.2260605080009555,1.2337728937728938,0.1402197802197802,0.929157509157509
5.2261763120041,1.2337728937728938,0.1402197802197802,0.929157509157509
5.230812198002241,1.2337728937728938,0.1402197802197802,0.929157509157509
5.2310666980047245,1.2337728937728938,0.1402197802197802,0.929157509157509
5.237499542003206,1.9695238095238095,0.028205128205128206,1.2466666666666666
5.241750722001598,1.9695238095238095,0.028205128205128206,1.2466666666666666
5.2430458620001446,1.9695238095238095,0.028205128205128206,1.2466666666666666
5.249118471001566,1.9695238095238095,0.028205128205128206,1.2466666666666666
5.258040943001106,1.9695238095238095,0.028205128205128206,1.2466666666666666
5.265095873000973,1.9695238095238095,0.028205128205128206,1.2466666666666666
5.27057299700391,1.9695238095238095,0.028205128205128206,1.2466666666666666
5.2708038199998555,3.3,0.7478388278388278,3.083223443223443
5.27958373400179,3.3,0.7478388278388278,3.083223443223443
5.285989293006423,2.9905494505494503,0.6035897435897435,1.3135531135531133
5.291258331002609,2.9905494505494503,0.6035897435897435,1.3135531135531133
5.295516447004047,2.9905494505494503,0.6035897435897435,1.3135531135531133
5.295816476005712,2.9905494505494503,0.6035897435897435,1.3135531135531133
5.302086164003413,2.9905494505494503,0.6035897435897435,1.3135531135531133
5.307204060001823,0.9992673992673992,0.1095970695970696,2.2177289377289378
5.308839848003117,0.9992673992673992,0.1095970695970696,2.2177289377289378
5.3119721510011,1.0266666666666666,0.06688644688644689,1.2877655677655677
5.314383462005935,1.0266666666666666,0.06688644688644689,1.2877655677655677
5.3145474340053624,1.1145054945054944,0.047545787545787546,0.8654945054945055
5.319828253006563,1.1145054945054944,0.047545787545787546,0.8654945054945055
5.322898010002973,2.693992673992674,0.45772893772893775,2.759267399267399
5.324524138006382,2.693992673992674,0.45772893772893775,2.759267399267399
5.329944854005589,2.693992673992674,0.45772893772893775,2.759267399267399
5.331519826002477,3.3,0.3304029304029304,2.02029304029304
5.33616459100449,3.3,0.3304029304029304,2.02029304029304
5.336286722005752,1.6431501831501831,0.03948717948717949,0.8945054945054944
5.341662429003918,1.6431501831501831,0.03948717948717949,0.8945054945054944
5.343274245002249,1.6431501831501831,0.03948717948717949,0.8945054945054944
5.347745784005383,1.6431501831501831,0.03948717948717949,0.8945054945054944
5.348019755001587,3.3,0.1942124542124542,1.456190476190476
5.354247721006686,3.3,0.1942124542124542,1.456190476190476
5.3583310280009755,1.8325274725274725,0.05318681318681319,1.0355311355311354
5.362300263004727,2.66014652014652,0.31186813186813184,2.685934065934066
5.366035354003543,2.66014652014652,0.31186813186813184,2.685934065934066
5.37586659900262,2.66014652014652,0.31186813186813184,2.685934065934066
5.380443310001283,2.66014652014652,0.31186813186813184,2.685934065934066
5.381311864002782,2.66014652014652,0.31186813186813184,2.685934065934066
5.383252961000835,2.66014652014652,0.31186813186813184,2.685934065934066
5.387185864005005,2.66014652014652,0.31186813186813184,2.685934065934066
5.3896006460054195,3.171062271062271,0.22967032967032966,1.0975824175824174
5.395177198006422,3.171062271062271,0.22967032967032966,1.0975824175824174
5.396945792999759,3.171062271062271,0.22967032967032966,1.0975824175824174
5.3999223050050205,3.171062271062271,0.22967032967032966,1.0975824175824174
5.404494522001187,3.171062271062271,0.22967032967032966,1.0975824175824174
5.41053816400381,2.698827838827839,0.7413919413919414,1.212820512820513
5.418769297000836,2.652087912087912,0.2917216117216117,1.5085714285714285
5.424410653002269,2.652087912087912,0.2917216117216117,1.5085714285714285
5.425295136003115,2.652087912087912,0.2917216117216117,1.5085714285714285
5.427025965000212,2.652087912087912,0.2917216117216117,1.5085714285714285
5.430183640004543,2.652087912087912,0.2917216117216117,1.5085714285714285
5.431804561005265,2.652087912087912,0.2917216117216117,1.5085714285714285
5.43618869400234,2.6085714285714285,0.05882783882783882,1.2136263736263737
5.437881538004149,2.6085714285714285,0.05882783882783882,1.2136263736263737
5.440640499000438,2.6085714285714285,0.05882783882783882,1.2136263736263737
5.44447391700669,2.6085714285714285,0.05882783882783882,1.2136263736263737
5.449071901006391,2.6085714285714285,0.05882783882783882,1.2136263736263737
5.450112591999641,1.8816849816849814,0.3892307692307692,1.846227106227106
5.451905142006581,1.8816849816849814,0.3892307692307692,1.846227106227106
5.454430322002736,1.8816849816849814,0.3892307692307692,1.846227106227106
5.459273087006295,0.8646886446886447,0.0032234432234432234,0.8372893772893772
5.4593946160021005,0.8646886446886447,0.0032234432234432234,0.8372893772893772
5.46635261800111,0.8646886446886447,0.0032234432234432234,0.8372893772893772
5.472348419003538,2.6536996336996337,0.29010989010989013,1.5730402930402931
5.477032308001071,3.3,0.21516483516483517,1.5077655677655677
5.485304687004827,3.3,0.21516483516483517,1.5077655677655677
5.492035883005883,3.3,0.21516483516483517,1.5077655677655677
5.495785203005653,0.9742857142857142,0.06043956043956044,0.8646886446886447
5.501561317003507,0.9742857142857142,0.06043956043956044,0.8646886446886447
5.512172687005659,2.693992673992674,0.7647619047619048,0.41018315018315016
5.519806602002063,2.693992673992674,0.7647619047619048,0.41018315018315016
5.524091028004477,2.121831501831502,0.13216117216117215,2.245128205128205
5.525723935003043,2.673040293040293,0.66,0.4786813186813187
5.529808563005645,2.673040293040293,0.66,0.4786813186813187
5.5322678920056205,2.673040293040293,0.66,0.4786813186813187
5.54013831300108,2.673040293040293,0.66,0.4786813186813187
5.544933844001207,2.673040293040293,0.66,0.4786813186813187
5.5514774120019865,2.6843223443223443,0.502051282051282,0.2248351648351648
5.555491475999588,1.7914285714285711,0.07978021978021978,1.2901831501831502
5.557988143002149,2.7165567765567764,0.7655677655677655,2.7238095238095235
5.562896200004616,2.7165567765567764,0.7655677655677655,2.7238095238095235
5.568572911004594,2.7197802197802194,0.767985347985348,0.5262271062271061
5.568849868999678,2.7197802197802194,0.767985347985348,0.5262271062271061
5.574773238004127,2.7197802197802194,0.767985347985348,0.5262271062271061
5.580308068005252,2.7197802197802194,0.767985347985348,0.5262271062271061
5.581161414003873,2.698827838827839,0.6656410256410257,2.963150183150183
5.582847507001134,2.698827838827839,0.6656410256410257,2.963150183150183
5.586557848000666,2.6714285714285713,0.7172161172161172,0.73010989010989
5.592762138003309,2.916410256410256,0.32717948717948714,1.4457142857142857
5.596688464000181,2.916410256410256,0.32717948717948714,1.4457142857142857
5.601655886006483,2.916410256410256,0.32717948717948714,1.4457142857142857
5.6068468960002065,2.916410256410256,0.32717948717948714,1.4457142857142857
5.610010049000266,2.916410256410256,0.32717948717948714,1.4457142857142857
5.611012613000639,3.3,0.6148717948717949,2.212087912087912
5.611974429004476,3.3,0.6148717948717949,2.212087912087912
5.6135206809995,2.1105494505494504,0.08542124542124542,1.1306227106227105
5.618245819001459,2.02996336996337,0.03868131868131868,0.9154578754578755
5.624783129002026,2.02996336996337,0.03868131868131868,0.9154578754578755
5.628732727003808,2.02996336996337,0.03868131868131868,0.9154578754578755
5.634438961002161,3.3,0.2925274725274725,1.149157509157509
5.634592922004231,3.3,1.0371428571428571,3.1904029304029304
5.639834904002782,3.3,1.0371428571428571,3.1904029304029304
5.642208448000019,3.3,1.0371428571428571,3.1904029304029304
5.64234650900471,3.3,1.0371428571428571,3.1904029304029304
5.647018695999577,3.3,1.0371428571428571,3.1904029304029304
5.647299252006633,3.3,1.0371428571428571,3.1904029304029304
5.652778189003584,3.3,1.0371428571428571,3.1904029304029304
5.654423637002765,3.3,1.0371428571428571,3.1904029304029304
5.659624621002877,3.3,1.0371428571428571,3.1904029304029304
5.660575879999669,2.664175824175824,0.37875457875457874,2.6069597069597066
5.661476516004768,2.664175824175824,0.37875457875457874,2.6069597069597066
5.663152850000188,2.664175824175824,0.37875457875457874,2.6069597069597066
5.667636855003366,2.664175824175824,0.37875457875457874,2.6069597069597066
5.667969335001544,2.664175824175824,0.37875457875457874,2.6069597069597066
5.673826104000909,2.664175824175824,0.37875457875457874,2.6069597069597066
5.679585931000474,2.664175824175824,0.37875457875457874,2.6069597069597066
5.687278428005811,0.4383882783882784,0.23369963369963367,1.818021978021978
5.692854355002055,2.7004395604395603,0.40937728937728934,0.5608791208791208
5.693170990001818,2.7004395604395603,0.40937728937728934,0.5608791208791208
5.6984750110059395,1.4852014652014651,0.0838095238095238,0.713992673992674
5.702822242004913,1.4852014652014651,0.0838095238095238,0.713992673992674
5.703116247001162,1.4852014652014651,0.0838095238095238,0.713992673992674
5.708820848005416,1.4852014652014651,0.0838095238095238,0.713992673992674
5.708963344004587,3.3,0.2369230769230769,1.4578021978021978
5.714116615999956,3.3,0.2369230769230769,1.4578021978021978
5.717827388005389,3.3,0.2369230769230769,1.4578021978021978
5.723966953002673,1.888131868131868,0.11926739926739927,2.313626373626373
5.727814321006008,2.848717948717949,0.6777289377289377,3.2024908424908425
5.73376482599997,2.848717948717949,0.6777289377289377,3.2024908424908425
5.741964126005769,2.848717948717949,0.6777289377289377,3.2024908424908425
5.746508382006141,2.7197802197802194,0.7188278388278388,3.0534065934065935
5.747376103005081,2.7197802197802194,0.7188278388278388,3.0534065934065935
5.748964557002182,2.7197802197802194,0.7188278388278388,3.0534065934065935
5.756878617001348,2.7197802197802194,0.7188278388278388,3.0534065934065935
5.761784141002863,3.029230769230769,0.2498168498168498,1.3602930402930402
5.766554972004087,3.029230769230769,0.2498168498168498,1.3602930402930402
5.766703585002688,2.6746520146520147,0.27641025641025635,1.1596336996336996
5.773198129005323,2.6609523809523807,0.3698901098901099,1.6326739926739926
5.777284390002023,2.6609523809523807,0.3698901098901099,1.6326739926739926
5.780492408004648,2.718974358974359,0.8389010989010988,2.215311355311355
5.781438551006431,2.718974358974359,0.8389010989010988,2.215311355311355
5.783182512001076,2.718974358974359,0.8389010989010988,2.215311355311355
5.787494914002309,2.718974358974359,0.8389010989010988,2.215311355311355
5.787751487005153,2.718974358974359,0.8389010989010988,2.215311355311355
5.792729026004963,2.718974358974359,0.8389010989010988,2.215311355311355
5.796754909999436,1.3006593406593405,0.07494505494505493,0.8316483516483516
5.799987629005045,1.3006593406593405,0.07494505494505493,0.8316483516483516
5.80311548300233,1.9284249084249083,0.356996336996337,2.269304029304029
5.804550873006519,1.9284249084249083,0.356996336996337,2.269304029304029
5.811475292000978,2.693186813186813,0.8413186813186813,1.5488644688644688
5.816449234000174,3.3,0.12168498168498168,1.295018315018315
5.822249371005455,3.3,0.12168498168498168,1.295018315018315
5.8285588920043665,3.3,0.12168498168498168,1.295018315018315
5.832391390002158,3.3,0.12168498168498168,1.295018315018315
5.832537882000906,3.3,0.12168498168498168,1.295018315018315
5.838823115002015,3.3,0.12168498168498168,1.295018315018315
5.841982926001947,3.3,0.12168498168498168,1.295018315018315
5.843710767003358,3.3,0.12168498168498168,1.295018315018315
5.847156610005186,3.3,0.12168498168498168,1.295018315018315
5.847529996004596,3.3,0.12168498168498168,1.295018315018315
5.857837461000599,3.3,0.12168498168498168,1.295018315018315
5.864109753005323,1.9622710622710622,0.311062271062271,1.7221245421245421
5.8682142320030835,2.689157509157509,0.6898168498168498,0.3723076923076923
5.87205137500132,0.7647619047619048,0.28527472527472525,1.8647619047619046
5.874610932005453,0.7647619047619048,0.28527472527472525,1.8647619047619046
5.881499541006633,0.7647619047619048,0.28527472527472525,1.8647619047619046
5.888312915005372,2.096043956043956,0.3287912087912088,2.257216117216117
5.893210231006378,2.096043956043956,0.3287912087912088,2.257216117216117
5.897142221001559,2.096043956043956,0.3287912087912088,2.257216117216117
5.902654388999508,2.6956043956043954,0.5906959706959707,3.106593406593406
5.903027209002175,2.6956043956043954,0.5906959706959707,3.106593406593406
5.908343822004099,2.6956043956043954,0.5906959706959707,3.106593406593406
5.911403873004019,2.6956043956043954,0.5906959706959707,3.106593406593406
5.913749234001443,2.6956043956043954,0.5906959706959707,3.106593406593406
5.913909337003133,2.6956043956043954,0.5906959706959707,3.106593406593406
5.92274821200408,2.6956043956043954,0.5906959706959707,3.106593406593406
5.92942923100054,2.6956043956043954,0.5906959706959707,3.106593406593406
5.93554443600442,1.4690842490842488,0.42468864468864465,1.4795604395604396
5.939410388004035,1.4690842490842488,0.42468864468864465,1.4795604395604396
5.943284344000858,1.4690842490842488,0.42468864468864465,1.4795604395604396
5.947498910005379,1.4690842490842488,0.42468864468864465,1.4795604395604396
5.950429363001604,2.7246153846153844,0.4827106227106227,1.1628571428571428
5.953654431003088,3.3,0.08783882783882783,1.2772893772893772
5.954028697000467,1.5416117216117216,0.05641025641025641,0.9347985347985347
5.958885224004916,1.5416117216117216,0.05641025641025641,0.9347985347985347
5.963515136005299,1.5416117216117216,0.05641025641025641,0.9347985347985347
5.964439682000375,1.5416117216117216,0.05641025641025641,0.9347985347985347
5.96537244800129,1.5416117216117216,0.05641025641025641,0.9347985347985347
